SpectraSuite Data File
++++++++++++++++++++++++++++++++++++
Date: Wed May 13 16:11:51 PDT 2015
User: schluterlab
Dark Spectrum Present: Yes
Reference Spectrum Present: Yes
Number of Sampled Component Spectra: 1
Spectrometers: USB2E3373
Integration Time (usec): 3000 (USB2E3373)
Spectra Averaged: 3 (USB2E3373)
Boxcar Smoothing: 0 (USB2E3373)
Correct for Electrical Dark: No (USB2E3373)
Strobe/Lamp Enabled: No (USB2E3373)
Correct for Detector Non-linearity: No (USB2E3373)
Correct for Stray Light: No (USB2E3373)
Number of Pixels in Processed Spectrum: 2048
>>>>>Begin Processed Spectral Data<<<<<
178.53	0.000
178.91	-875.000
179.29	-775.000
179.67	-172.222
180.04	-900.000
180.42	2050.000
180.80	640.000
181.18	-775.000
181.56	457.143
181.94	0.000
182.31	-442.857
182.69	1266.667
183.07	-412.500
183.45	-511.111
183.83	418.182
184.20	-320.000
184.58	1650.000
184.96	3900.000
185.34	-560.000
185.72	-475.000
186.09	-1950.000
186.47	2400.000
186.85	1900.000
187.23	3500.000
187.61	-1166.667
187.98	950.000
188.36	463.636
188.74	390.909
189.12	-520.000
189.49	480.000
189.87	-3500.000
190.25	-875.000
190.63	278.571
191.00	300.000
191.38	633.333
191.76	-975.000
192.14	1125.000
192.51	525.000
192.89	783.333
193.27	537.500
193.65	-675.000
194.02	370.000
194.40	640.000
194.78	470.000
195.15	433.333
195.53	500.000
195.91	-1450.000
196.29	237.500
196.66	242.105
197.04	-340.000
197.42	0.000
197.79	490.000
198.17	-2100.000
198.55	514.286
198.92	500.000
199.30	760.000
199.68	0.000
200.05	294.444
200.43	600.000
200.81	3900.000
201.18	1066.667
201.56	-1100.000
201.94	411.111
202.31	488.889
202.69	425.000
203.07	390.000
203.44	0.000
203.82	1025.000
204.19	585.714
204.57	364.286
204.95	625.000
205.32	1100.000
205.70	436.364
206.08	278.571
206.45	1950.000
206.83	325.000
207.20	533.333
207.58	380.000
207.96	255.556
208.33	612.500
208.71	-616.667
209.08	714.286
209.46	522.222
209.84	409.091
210.21	-1000.000
210.59	1300.000
210.96	-212.500
211.34	1800.000
211.71	440.000
212.09	650.000
212.46	0.000
212.84	1333.333
213.22	1275.000
213.59	-3300.000
213.97	616.667
214.34	700.000
214.72	481.818
215.09	660.000
215.47	-1700.000
215.84	-1350.000
216.22	1533.333
216.59	264.286
216.97	1075.000
217.34	436.364
217.72	-466.667
218.09	0.000
218.47	-4900.000
218.84	544.444
219.22	600.000
219.59	933.333
219.97	-542.857
220.34	920.000
220.72	-1266.667
221.09	357.143
221.47	1025.000
221.84	-633.333
222.22	0.000
222.59	1050.000
222.97	-1700.000
223.34	940.000
223.72	307.692
224.09	960.000
224.46	1800.000
224.84	-3200.000
225.21	-600.000
225.59	-3900.000
225.96	440.000
226.34	255.000
226.71	1900.000
227.08	512.500
227.46	350.000
227.83	-800.000
228.21	-1700.000
228.58	366.667
228.95	-1950.000
229.33	-1850.000
229.70	1333.333
230.08	657.143
230.45	-620.000
230.82	316.667
231.20	616.667
231.57	428.571
231.95	425.000
232.32	168.182
232.69	290.909
233.07	342.857
233.44	323.077
233.81	-1066.667
234.19	247.368
234.56	391.667
234.93	350.000
235.31	281.818
235.68	238.462
236.05	285.714
236.43	148.485
236.80	221.053
237.17	3800.000
237.55	128.571
237.92	178.571
238.29	204.762
238.67	158.065
239.04	151.724
239.41	102.778
239.79	104.348
240.16	116.667
240.53	68.182
240.91	39.216
241.28	88.000
241.65	70.000
242.02	60.870
242.40	79.032
242.77	70.000
243.14	58.065
243.51	61.798
243.89	55.294
244.26	46.667
244.63	53.763
245.00	47.872
245.38	51.485
245.75	40.187
246.12	38.532
246.49	51.095
246.87	46.400
247.24	49.231
247.61	38.571
247.98	38.562
248.36	29.730
248.73	39.490
249.10	36.943
249.47	32.768
249.84	39.037
250.22	33.155
250.59	40.237
250.96	34.848
251.33	32.227
251.70	37.624
252.08	31.905
252.45	26.457
252.82	26.957
253.19	31.064
253.56	29.412
253.94	34.440
254.31	30.078
254.68	32.692
255.05	30.258
255.42	24.390
255.79	27.206
256.16	25.993
256.54	22.615
256.91	27.402
257.28	23.741
257.65	27.063
258.02	25.776
258.39	24.606
258.76	24.749
259.14	27.679
259.51	22.796
259.88	24.845
260.25	24.773
260.62	22.543
260.99	22.981
261.36	25.826
261.73	21.203
262.10	21.802
262.47	24.225
262.85	22.841
263.22	20.228
263.59	23.362
263.96	21.154
264.33	22.193
264.70	22.105
265.07	24.552
265.44	22.727
265.81	20.681
266.18	22.613
266.55	22.683
266.92	21.622
267.29	21.065
267.66	21.101
268.03	18.409
268.40	21.729
268.77	19.093
269.14	19.369
269.51	22.799
269.88	20.280
270.25	19.639
270.62	19.775
270.99	22.151
271.36	21.245
271.73	19.626
272.10	22.391
272.47	20.000
272.84	22.294
273.21	21.174
273.58	18.122
273.95	20.126
274.32	19.835
274.69	20.343
275.06	20.276
275.43	21.277
275.80	21.242
276.17	19.145
276.54	19.335
276.91	19.170
277.28	19.922
277.65	22.050
278.02	21.532
278.39	23.047
278.76	20.727
279.13	19.811
279.50	18.622
279.87	18.127
280.23	17.764
280.60	18.762
280.97	20.518
281.34	18.407
281.71	21.273
282.08	20.537
282.45	18.364
282.82	19.361
283.19	17.112
283.56	19.649
283.92	21.320
284.29	19.753
284.66	20.145
285.03	20.253
285.40	20.599
285.77	18.182
286.14	18.653
286.51	17.833
286.87	20.000
287.24	20.684
287.61	17.657
287.98	17.532
288.35	19.017
288.72	17.445
289.08	17.684
289.45	18.451
289.82	17.886
290.19	16.170
290.56	17.917
290.93	14.804
291.29	17.638
291.66	20.354
292.03	20.058
292.40	18.209
292.77	18.787
293.13	18.358
293.50	17.930
293.87	19.259
294.24	18.370
294.60	17.904
294.97	19.767
295.34	19.182
295.71	18.892
296.08	17.521
296.44	18.294
296.81	19.155
297.18	18.564
297.55	15.172
297.91	17.942
298.28	17.403
298.65	20.104
299.02	18.445
299.38	17.795
299.75	17.520
300.12	18.391
300.48	18.375
300.85	18.742
301.22	18.854
301.59	17.803
301.95	19.018
302.32	18.100
302.69	19.116
303.05	18.667
303.42	17.531
303.79	20.159
304.15	18.298
304.52	18.656
304.89	18.467
305.25	17.749
305.62	18.800
305.99	18.772
306.35	19.911
306.72	19.395
307.09	19.423
307.45	19.032
307.82	18.973
308.19	20.309
308.55	20.820
308.92	20.945
309.29	19.007
309.65	18.982
310.02	19.556
310.38	20.000
310.75	21.119
311.12	20.368
311.48	21.003
311.85	22.432
312.22	21.748
312.58	20.686
312.95	21.859
313.31	20.194
313.68	21.830
314.05	23.373
314.41	21.910
314.78	22.558
315.14	22.741
315.51	22.348
315.87	22.673
316.24	22.642
316.61	22.710
316.97	22.896
317.34	21.820
317.70	24.187
318.07	24.158
318.43	23.092
318.80	25.773
319.16	24.105
319.53	23.827
319.89	24.762
320.26	26.500
320.62	25.992
320.99	26.465
321.35	25.758
321.72	26.591
322.08	26.259
322.45	28.259
322.81	28.004
323.18	28.516
323.54	28.571
323.91	28.396
324.27	27.342
324.64	28.611
325.00	28.224
325.37	31.119
325.73	30.610
326.10	30.450
326.46	29.122
326.83	29.681
327.19	31.170
327.56	30.226
327.92	31.146
328.29	31.588
328.65	30.663
329.01	30.686
329.38	31.822
329.74	29.455
330.11	30.914
330.47	30.946
330.84	31.250
331.20	31.148
331.56	31.468
331.93	32.870
332.29	32.121
332.66	32.655
333.02	31.261
333.38	32.520
333.75	32.086
334.11	32.117
334.48	31.588
334.84	33.272
335.20	33.818
335.57	31.006
335.93	31.518
336.29	31.319
336.66	32.281
337.02	29.864
337.38	32.130
337.75	30.660
338.11	30.081
338.47	31.308
338.84	31.897
339.20	31.376
339.56	32.482
339.93	29.909
340.29	30.435
340.65	31.016
341.02	31.239
341.38	31.228
341.74	30.351
342.11	31.179
342.47	30.573
342.83	31.164
343.20	31.775
343.56	31.171
343.92	30.965
344.28	30.952
344.65	31.212
345.01	31.061
345.37	30.017
345.73	31.134
346.10	31.714
346.46	31.102
346.82	31.054
347.19	31.746
347.55	30.296
347.91	30.502
348.27	30.731
348.63	31.689
349.00	30.906
349.36	31.117
349.72	31.596
350.08	31.605
350.45	31.001
350.81	30.544
351.17	32.091
351.53	30.549
351.89	30.446
352.26	32.281
352.62	31.275
352.98	31.442
353.34	31.717
353.70	30.033
354.07	31.452
354.43	31.111
354.79	31.134
355.15	30.567
355.51	31.575
355.87	30.939
356.24	30.700
356.60	31.516
356.96	31.617
357.32	31.398
357.68	32.598
358.04	30.721
358.40	31.591
358.77	31.534
359.13	31.728
359.49	32.863
359.85	30.873
360.21	31.659
360.57	32.996
360.93	32.154
361.29	32.124
361.66	31.347
362.02	30.821
362.38	31.711
362.74	31.994
363.10	30.348
363.46	30.814
363.82	32.048
364.18	31.498
364.54	31.798
364.90	32.436
365.26	32.500
365.62	33.309
365.98	31.337
366.35	31.232
366.71	32.610
367.07	32.119
367.43	33.237
367.79	32.477
368.15	33.477
368.51	31.904
368.87	33.048
369.23	32.480
369.59	33.164
369.95	32.353
370.31	32.194
370.67	32.899
371.03	32.959
371.39	32.799
371.75	33.529
372.11	32.077
372.47	33.504
372.83	33.501
373.19	33.092
373.55	33.777
373.91	33.947
374.27	34.227
374.63	33.600
374.99	34.887
375.35	33.426
375.71	34.202
376.07	33.882
376.42	35.351
376.78	34.526
377.14	34.057
377.50	34.768
377.86	34.309
378.22	34.703
378.58	34.211
378.94	33.878
379.30	35.369
379.66	34.645
380.02	34.828
380.38	34.183
380.74	35.234
381.09	35.208
381.45	35.403
381.81	35.811
382.17	35.605
382.53	35.283
382.89	36.358
383.25	36.335
383.61	35.812
383.97	35.522
384.32	35.496
384.68	35.006
385.04	35.771
385.40	35.604
385.76	35.442
386.12	34.780
386.48	36.879
386.83	37.845
387.19	37.106
387.55	36.178
387.91	35.792
388.27	35.561
388.62	36.570
388.98	36.364
389.34	36.170
389.70	35.868
390.06	37.516
390.42	35.992
390.77	36.323
391.13	38.354
391.49	38.261
391.85	36.028
392.20	35.773
392.56	36.995
392.92	36.492
393.28	35.444
393.64	36.631
393.99	36.408
394.35	36.166
394.71	37.077
395.07	37.321
395.42	36.774
395.78	36.705
396.14	36.685
396.50	37.030
396.85	37.699
397.21	36.560
397.57	37.632
397.92	37.500
398.28	35.930
398.64	36.679
399.00	37.157
399.35	35.928
399.71	36.863
400.07	36.428
400.42	36.994
400.78	36.610
401.14	37.195
401.49	36.896
401.85	37.508
402.21	36.168
402.57	35.965
402.92	37.327
403.28	36.415
403.63	36.757
403.99	36.815
404.35	37.152
404.70	36.930
405.06	36.517
405.42	36.494
405.77	35.429
406.13	35.440
406.49	36.724
406.84	35.499
407.20	35.461
407.55	36.758
407.91	36.067
408.27	36.375
408.62	36.303
408.98	35.478
409.34	36.039
409.69	35.161
410.05	35.440
410.40	35.963
410.76	35.484
411.11	35.223
411.47	34.952
411.83	35.431
412.18	35.436
412.54	36.177
412.89	35.000
413.25	35.773
413.60	36.689
413.96	34.608
414.31	34.872
414.67	35.995
415.03	36.026
415.38	35.631
415.74	35.884
416.09	36.512
416.45	34.806
416.80	36.087
417.16	36.059
417.51	35.501
417.87	34.811
418.22	36.215
418.58	34.345
418.93	35.135
419.29	35.201
419.64	35.139
420.00	34.634
420.35	35.594
420.71	35.146
421.06	35.680
421.42	35.263
421.77	35.258
422.12	34.868
422.48	33.621
422.83	35.935
423.19	34.530
423.54	35.926
423.90	35.652
424.25	34.785
424.61	35.476
424.96	35.802
425.31	35.327
425.67	34.157
426.02	34.857
426.38	35.531
426.73	36.396
427.09	36.657
427.44	35.710
427.79	35.480
428.15	35.893
428.50	35.225
428.85	35.459
429.21	35.064
429.56	35.096
429.92	34.977
430.27	35.005
430.62	34.562
430.98	35.288
431.33	35.258
431.68	35.759
432.04	34.665
432.39	35.979
432.74	36.685
433.10	35.937
433.45	36.560
433.80	35.477
434.16	36.004
434.51	35.421
434.86	36.488
435.22	35.631
435.57	36.292
435.92	35.635
436.28	37.782
436.63	36.700
436.98	35.489
437.34	35.778
437.69	36.464
438.04	35.863
438.39	36.836
438.75	36.607
439.10	36.201
439.45	37.190
439.81	35.891
440.16	35.517
440.51	37.083
440.86	36.653
441.22	36.429
441.57	36.730
441.92	35.824
442.27	36.383
442.63	35.756
442.98	37.014
443.33	35.598
443.68	35.622
444.03	35.822
444.39	36.173
444.74	35.335
445.09	36.604
445.44	35.539
445.79	36.714
446.15	34.833
446.50	36.834
446.85	36.331
447.20	36.104
447.55	37.018
447.91	36.790
448.26	36.950
448.61	36.292
448.96	37.043
449.31	37.064
449.66	36.016
450.02	36.602
450.37	35.431
450.72	37.169
451.07	36.137
451.42	35.441
451.77	37.581
452.12	36.605
452.47	37.313
452.83	36.189
453.18	36.614
453.53	38.219
453.88	36.031
454.23	36.461
454.58	37.068
454.93	37.826
455.28	37.157
455.63	36.772
455.98	37.619
456.34	37.060
456.69	36.882
457.04	36.533
457.39	36.704
457.74	36.158
458.09	36.860
458.44	36.260
458.79	35.195
459.14	36.230
459.49	36.602
459.84	35.900
460.19	35.946
460.54	36.343
460.89	36.478
461.24	36.369
461.59	36.781
461.94	36.252
462.29	36.736
462.64	36.886
462.99	36.760
463.34	36.667
463.69	35.897
464.04	36.464
464.39	35.768
464.74	36.482
465.09	35.525
465.44	35.789
465.79	35.962
466.14	34.866
466.49	35.873
466.84	35.668
467.19	35.848
467.54	36.000
467.89	35.954
468.24	36.300
468.59	36.081
468.94	35.492
469.29	36.440
469.64	36.011
469.99	36.401
470.34	36.262
470.68	36.638
471.03	35.850
471.38	36.067
471.73	37.375
472.08	36.579
472.43	35.867
472.78	35.484
473.13	36.393
473.48	36.142
473.83	35.549
474.17	35.345
474.52	35.732
474.87	36.602
475.22	35.171
475.57	34.820
475.92	36.166
476.27	35.795
476.61	35.576
476.96	35.404
477.31	35.374
477.66	34.628
478.01	35.599
478.36	35.960
478.70	34.631
479.05	35.889
479.40	35.977
479.75	34.316
480.10	35.139
480.45	34.365
480.79	34.161
481.14	34.198
481.49	35.263
481.84	34.888
482.19	35.030
482.53	34.771
482.88	35.458
483.23	36.262
483.58	34.440
483.92	35.333
484.27	33.638
484.62	33.879
484.97	34.529
485.31	34.452
485.66	32.891
486.01	31.024
486.36	29.778
486.70	29.484
487.05	29.747
487.40	31.410
487.75	31.846
488.09	32.696
488.44	32.955
488.79	34.250
489.13	33.919
489.48	34.013
489.83	33.448
490.17	34.415
490.52	34.145
490.87	34.645
491.22	34.334
491.56	33.485
491.91	33.876
492.26	33.762
492.60	33.917
492.95	32.928
493.30	34.112
493.64	33.784
493.99	33.751
494.34	34.320
494.68	34.249
495.03	34.164
495.37	34.109
495.72	34.259
496.07	33.875
496.41	32.743
496.76	33.597
497.11	33.048
497.45	33.768
497.80	33.349
498.14	34.010
498.49	34.488
498.84	34.276
499.18	33.476
499.53	34.188
499.87	33.271
500.22	33.161
500.56	33.544
500.91	34.087
501.26	33.713
501.60	33.745
501.95	32.310
502.29	34.114
502.64	33.240
502.98	33.053
503.33	33.135
503.67	32.993
504.02	33.396
504.36	32.616
504.71	33.512
505.06	33.446
505.40	33.495
505.75	32.642
506.09	33.285
506.44	33.103
506.78	33.853
507.13	33.872
507.47	33.990
507.82	33.941
508.16	34.448
508.51	34.145
508.85	32.920
509.19	33.316
509.54	33.520
509.88	33.179
510.23	33.470
510.57	33.953
510.92	33.195
511.26	32.682
511.61	34.025
511.95	33.090
512.30	33.987
512.64	33.907
512.98	34.727
513.33	34.315
513.67	32.657
514.02	32.576
514.36	33.097
514.70	33.481
515.05	32.962
515.39	33.595
515.74	33.221
516.08	33.930
516.42	34.406
516.77	34.002
517.11	33.185
517.46	34.312
517.80	34.030
518.14	32.831
518.49	33.664
518.83	33.182
519.17	33.372
519.52	33.333
519.86	32.972
520.20	34.162
520.55	35.069
520.89	34.246
521.23	34.379
521.58	34.034
521.92	34.905
522.26	32.947
522.61	34.704
522.95	33.579
523.29	34.145
523.64	34.268
523.98	33.826
524.32	33.474
524.66	33.434
525.01	34.007
525.35	33.395
525.69	33.251
526.04	33.022
526.38	33.862
526.72	32.515
527.06	33.710
527.41	32.426
527.75	34.405
528.09	34.040
528.43	33.971
528.78	33.866
529.12	32.788
529.46	34.231
529.80	33.540
530.15	32.960
530.49	32.062
530.83	33.797
531.17	33.681
531.51	34.565
531.86	33.161
532.20	34.355
532.54	34.657
532.88	33.248
533.22	32.605
533.57	32.222
533.91	32.450
534.25	33.171
534.59	32.215
534.93	32.362
535.27	32.046
535.62	32.112
535.96	32.643
536.30	32.041
536.64	33.741
536.98	32.979
537.32	32.126
537.66	33.600
538.01	33.311
538.35	32.450
538.69	31.908
539.03	31.774
539.37	31.246
539.71	31.303
540.05	32.288
540.39	32.625
540.73	31.177
541.07	32.382
541.42	32.224
541.76	32.839
542.10	32.277
542.44	31.788
542.78	31.291
543.12	30.902
543.46	31.607
543.80	32.271
544.14	31.643
544.48	31.937
544.82	31.174
545.16	32.271
545.50	30.784
545.84	31.922
546.18	32.054
546.52	32.416
546.86	31.546
547.20	32.030
547.54	31.597
547.88	31.824
548.22	30.012
548.56	31.509
548.90	29.834
549.24	30.842
549.58	32.196
549.92	32.692
550.26	31.605
550.60	30.567
550.94	31.620
551.28	31.309
551.62	32.423
551.96	30.947
552.30	31.809
552.64	31.305
552.98	32.068
553.32	30.681
553.66	32.038
554.00	31.572
554.34	30.228
554.68	31.044
555.02	31.312
555.36	31.802
555.69	30.379
556.03	32.234
556.37	30.696
556.71	30.559
557.05	30.252
557.39	31.001
557.73	31.616
558.07	32.632
558.41	30.825
558.75	31.374
559.08	31.618
559.42	32.200
559.76	31.544
560.10	31.335
560.44	30.049
560.78	29.075
561.12	29.420
561.45	31.943
561.79	30.257
562.13	30.785
562.47	30.943
562.81	30.614
563.15	29.632
563.48	30.172
563.82	30.137
564.16	29.366
564.50	29.883
564.84	29.140
565.17	30.438
565.51	30.799
565.85	29.188
566.19	29.555
566.52	29.322
566.86	28.210
567.20	29.894
567.54	28.539
567.88	27.811
568.21	29.048
568.55	27.755
568.89	27.578
569.23	26.916
569.56	26.923
569.90	25.962
570.24	26.444
570.57	25.876
570.91	25.048
571.25	25.355
571.59	25.037
571.92	24.885
572.26	24.899
572.60	25.015
572.93	24.858
573.27	25.288
573.61	24.902
573.95	25.116
574.28	24.598
574.62	24.271
574.96	23.704
575.29	23.497
575.63	24.441
575.97	23.874
576.30	24.642
576.64	24.033
576.98	23.991
577.31	23.383
577.65	24.191
577.98	23.422
578.32	23.014
578.66	23.354
578.99	24.013
579.33	23.602
579.67	23.425
580.00	23.639
580.34	23.730
580.67	23.422
581.01	24.219
581.35	23.706
581.68	23.377
582.02	22.512
582.35	22.604
582.69	22.911
583.02	22.808
583.36	23.449
583.70	23.876
584.03	24.399
584.37	24.769
584.70	24.112
585.04	24.095
585.37	23.625
585.71	23.849
586.04	23.411
586.38	24.164
586.72	24.800
587.05	23.390
587.39	23.562
587.72	24.401
588.06	24.013
588.39	24.307
588.73	24.318
589.06	24.712
589.40	25.455
589.73	24.991
590.07	25.516
590.40	24.845
590.73	25.410
591.07	25.926
591.40	25.137
591.74	25.801
592.07	25.873
592.41	25.506
592.74	25.019
593.08	24.117
593.41	24.454
593.75	23.548
594.08	23.466
594.41	24.744
594.75	24.695
595.08	24.767
595.42	24.203
595.75	24.430
596.09	25.310
596.42	25.501
596.75	25.496
597.09	25.368
597.42	24.663
597.75	25.054
598.09	25.174
598.42	25.988
598.76	25.294
599.09	24.819
599.42	24.127
599.76	24.561
600.09	23.570
600.42	23.630
600.76	24.143
601.09	24.117
601.42	23.896
601.76	24.402
602.09	24.308
602.42	24.960
602.76	24.506
603.09	24.784
603.42	24.834
603.76	24.314
604.09	23.614
604.42	24.338
604.76	25.264
605.09	24.902
605.42	25.053
605.75	24.834
606.09	24.481
606.42	24.561
606.75	24.388
607.09	24.487
607.42	24.818
607.75	24.641
608.08	24.316
608.42	25.190
608.75	23.986
609.08	25.624
609.41	24.417
609.75	25.012
610.08	25.353
610.41	24.534
610.74	24.409
611.07	25.593
611.41	25.221
611.74	26.144
612.07	26.242
612.40	26.338
612.73	26.053
613.07	26.078
613.40	26.330
613.73	25.223
614.06	25.645
614.39	25.852
614.72	26.105
615.06	25.683
615.39	25.637
615.72	24.744
616.05	24.402
616.38	26.014
616.71	26.247
617.05	26.855
617.38	25.917
617.71	26.246
618.04	27.103
618.37	25.310
618.70	26.322
619.03	27.500
619.36	27.088
619.69	27.958
620.03	26.580
620.36	27.406
620.69	27.123
621.02	26.917
621.35	27.330
621.68	27.648
622.01	29.334
622.34	28.290
622.67	27.909
623.00	26.412
623.33	26.733
623.66	27.448
623.99	27.688
624.32	26.890
624.65	26.271
624.99	26.487
625.32	27.371
625.65	27.724
625.98	28.209
626.31	28.149
626.64	28.163
626.97	27.764
627.30	26.850
627.63	27.564
627.96	29.773
628.29	28.521
628.62	29.186
628.95	30.283
629.28	29.471
629.61	29.056
629.94	29.619
630.26	29.361
630.59	28.980
630.92	28.640
631.25	29.319
631.58	27.628
631.91	30.629
632.24	28.586
632.57	29.801
632.90	28.728
633.23	32.103
633.56	31.073
633.89	31.370
634.22	30.874
634.55	32.426
634.88	29.940
635.20	31.780
635.53	30.120
635.86	32.550
636.19	30.353
636.52	30.219
636.85	29.553
637.18	30.415
637.51	32.979
637.83	28.730
638.16	32.609
638.49	32.242
638.82	33.881
639.15	31.500
639.48	30.923
639.81	32.976
640.13	31.901
640.46	30.470
640.79	31.836
641.12	29.849
641.45	32.123
641.77	34.168
642.10	33.480
642.43	33.183
642.76	33.127
643.09	34.969
643.41	32.929
643.74	32.253
644.07	32.012
644.40	32.515
644.73	34.016
645.05	35.499
645.38	35.071
645.71	32.367
646.04	35.714
646.36	35.559
646.69	37.291
647.02	32.483
647.35	33.677
647.67	35.221
648.00	34.797
648.33	32.178
648.66	31.818
648.98	32.234
649.31	30.344
649.64	31.540
649.96	32.042
650.29	31.438
650.62	30.259
650.94	34.036
651.27	32.770
651.60	34.443
651.92	31.470
652.25	32.085
652.58	31.776
652.90	32.543
653.23	31.125
653.56	31.969
653.88	33.122
654.21	33.965
654.54	32.673
654.86	30.218
655.19	30.405
655.52	21.040
655.84	17.112
656.17	20.931
656.49	28.562
656.82	28.925
657.15	21.973
657.47	16.539
657.80	13.072
658.13	13.710
658.45	21.125
658.78	22.139
659.10	23.467
659.43	24.949
659.75	25.994
660.08	29.494
660.41	32.030
660.73	32.274
661.06	34.873
661.38	35.091
661.71	36.538
662.03	36.884
662.36	34.990
662.68	32.129
663.01	36.970
663.33	36.518
663.66	35.924
663.98	34.773
664.31	34.874
664.63	35.020
664.96	34.004
665.28	37.295
665.61	34.113
665.93	33.602
666.26	32.657
666.58	35.356
666.91	37.421
667.23	36.854
667.56	34.341
667.88	35.256
668.21	35.394
668.53	35.575
668.86	34.632
669.18	36.034
669.50	35.000
669.83	36.819
670.15	35.556
670.48	35.076
670.80	35.776
671.13	34.607
671.45	32.128
671.77	36.049
672.10	34.381
672.42	30.565
672.75	31.177
673.07	32.923
673.39	31.646
673.72	32.227
674.04	31.569
674.37	33.398
674.69	32.106
675.01	31.590
675.34	38.193
675.66	37.263
675.98	34.827
676.31	32.353
676.63	33.970
676.95	33.333
677.28	35.047
677.60	33.407
677.92	37.553
678.25	34.702
678.57	33.865
678.89	34.068
679.22	31.434
679.54	33.397
679.86	32.661
680.18	30.054
680.51	29.255
680.83	31.139
681.15	32.075
681.48	34.594
681.80	31.528
682.12	32.375
682.44	32.302
682.77	31.976
683.09	35.408
683.41	34.590
683.73	37.748
684.06	35.124
684.38	31.507
684.70	31.589
685.02	29.644
685.34	30.220
685.67	27.098
685.99	27.663
686.31	29.863
686.63	28.799
686.96	28.214
687.28	29.964
687.60	30.616
687.92	30.896
688.24	30.228
688.56	33.333
688.89	33.195
689.21	36.681
689.53	33.612
689.85	32.594
690.17	30.849
690.49	33.970
690.82	35.280
691.14	31.027
691.46	31.013
691.78	29.518
692.10	32.851
692.42	31.737
692.74	30.705
693.06	32.340
693.39	31.417
693.71	32.314
694.03	34.316
694.35	32.900
694.67	29.519
694.99	36.341
695.31	34.069
695.63	34.450
695.95	30.807
696.27	34.264
696.59	34.974
696.91	34.715
697.23	30.516
697.56	31.983
697.88	28.834
698.20	28.125
698.52	31.613
698.84	31.180
699.16	32.258
699.48	31.829
699.80	33.092
700.12	35.844
700.44	37.401
700.76	32.873
701.08	34.770
701.40	33.520
701.72	32.653
702.04	40.909
702.36	32.295
702.68	38.527
703.00	38.227
703.32	34.043
703.64	34.853
703.96	34.262
704.28	34.593
704.60	34.604
704.91	32.938
705.23	34.604
705.55	36.213
705.87	41.528
706.19	37.456
706.51	35.514
706.83	38.788
707.15	35.014
707.47	30.303
707.79	33.170
708.11	33.333
708.43	31.190
708.74	33.418
709.06	35.844
709.38	34.646
709.70	34.884
710.02	37.685
710.34	33.939
710.66	37.910
710.98	34.375
711.29	33.430
711.61	35.398
711.93	40.385
712.25	38.907
712.57	41.176
712.89	40.484
713.20	37.386
713.52	41.118
713.84	36.076
714.16	29.268
714.48	33.621
714.80	39.514
715.11	34.294
715.43	33.234
715.75	35.072
716.07	33.866
716.39	36.050
716.70	42.857
717.02	40.288
717.34	35.689
717.66	40.299
717.97	41.036
718.29	35.556
718.61	31.752
718.93	34.191
719.24	34.602
719.56	35.932
719.88	38.983
720.20	35.135
720.51	35.540
720.83	38.662
721.15	32.463
721.46	33.688
721.78	43.011
722.10	39.623
722.42	39.474
722.73	37.079
723.05	41.393
723.37	39.676
723.68	43.243
724.00	38.211
724.32	41.935
724.63	38.618
724.95	41.004
725.27	39.271
725.58	37.500
725.90	38.321
726.22	40.377
726.53	37.153
726.85	37.543
727.16	32.740
727.48	34.043
727.80	34.848
728.11	39.493
728.43	39.615
728.74	32.258
729.06	38.321
729.38	39.338
729.69	36.299
730.01	32.765
730.32	35.069
730.64	35.786
730.96	33.333
731.27	35.099
731.59	34.557
731.90	33.819
732.22	34.783
732.53	32.508
732.85	33.654
733.16	34.727
733.48	32.890
733.80	33.117
734.11	31.210
734.43	34.024
734.74	31.143
735.06	28.080
735.37	34.971
735.69	34.395
736.00	36.928
736.32	33.333
736.63	30.032
736.95	33.546
737.26	29.592
737.58	30.000
737.89	34.448
738.21	33.788
738.52	36.071
738.83	33.962
739.15	34.231
739.46	34.672
739.78	30.903
740.09	32.615
740.41	32.903
740.72	32.056
741.04	35.185
741.35	33.750
741.66	40.444
741.98	37.736
742.29	41.627
742.61	42.241
742.92	39.367
743.23	39.316
743.55	35.200
743.86	36.842
744.18	45.575
744.49	40.191
744.80	37.559
745.12	43.636
745.43	39.648
745.74	43.243
746.06	42.202
746.37	37.668
746.68	37.104
747.00	45.833
747.31	41.905
747.62	34.513
747.94	35.242
748.25	32.766
748.56	42.731
748.88	38.119
749.19	44.500
749.50	37.209
749.82	36.992
750.13	37.551
750.44	37.226
750.75	36.491
751.07	36.013
751.38	35.540
751.69	31.047
752.01	36.842
752.32	28.520
752.63	37.943
752.94	38.525
753.26	37.200
753.57	30.894
753.88	35.156
754.19	35.000
754.51	36.458
754.82	29.603
755.13	37.736
755.44	36.842
755.75	29.927
756.07	36.879
756.38	31.022
756.69	33.221
757.00	32.335
757.31	26.706
757.63	28.363
757.94	28.686
758.25	29.167
758.56	26.173
758.87	28.226
759.18	32.727
759.50	28.840
759.81	28.660
760.12	29.062
760.43	34.384
760.74	30.978
761.05	30.791
761.36	31.016
761.67	32.386
761.99	29.814
762.30	32.292
762.61	34.351
762.92	37.891
763.23	33.613
763.54	38.400
763.85	35.156
764.16	35.385
764.47	35.361
764.78	33.216
765.10	31.962
765.41	28.909
765.72	27.545
766.03	36.364
766.34	30.333
766.65	41.702
766.96	34.615
767.27	47.208
767.58	45.312
767.89	44.737
768.20	34.483
768.51	43.147
768.82	34.404
769.13	33.740
769.44	29.555
769.75	39.485
770.06	33.486
770.37	36.199
770.68	40.278
770.99	37.333
771.30	30.328
771.61	36.771
771.92	36.066
772.23	42.437
772.54	37.949
772.85	40.838
773.16	44.681
773.47	34.783
773.78	44.162
774.09	44.048
774.39	43.275
774.70	38.889
775.01	47.101
775.32	56.863
775.63	46.711
775.94	45.324
776.25	58.268
776.56	49.254
776.87	50.000
777.18	53.906
777.48	51.908
777.79	56.061
778.10	47.407
778.41	59.821
778.72	42.336
779.03	50.336
779.34	39.597
779.65	43.243
779.95	39.877
780.26	48.366
780.57	50.345
780.88	59.375
781.19	47.368
781.50	43.919
781.80	40.881
782.11	36.158
782.42	39.241
782.73	41.718
783.04	42.568
783.34	50.704
783.65	58.219
783.96	50.000
784.27	37.762
784.57	36.691
784.88	46.296
785.19	57.937
785.50	58.491
785.81	48.507
786.11	57.377
786.42	54.264
786.73	42.478
787.04	51.887
787.34	52.679
787.65	59.000
787.96	53.153
788.26	45.455
788.57	57.627
788.88	52.893
789.19	44.444
789.49	57.576
789.80	44.275
790.11	58.095
790.41	59.406
790.72	66.265
791.03	69.565
791.33	58.140
791.64	62.887
791.95	53.465
792.25	71.111
792.56	68.831
792.87	80.769
793.17	69.620
793.48	72.414
793.79	67.816
794.09	62.500
794.40	50.420
794.70	50.735
795.01	46.667
795.32	50.360
795.62	48.031
795.93	52.586
796.23	53.097
796.54	64.706
796.85	70.270
797.15	91.549
797.46	75.758
797.76	67.470
798.07	81.013
798.37	63.077
798.68	75.758
798.99	53.521
799.29	75.325
799.60	61.364
799.90	75.342
800.21	86.567
800.51	75.862
800.82	82.456
801.12	65.574
801.43	92.424
801.73	63.514
802.04	100.000
802.34	70.370
802.65	73.438
802.95	96.610
803.26	79.688
803.56	74.286
803.87	76.923
804.17	67.647
804.48	103.704
804.78	75.862
805.09	75.000
805.39	88.462
805.70	67.857
806.00	95.082
806.30	68.182
806.61	65.854
806.91	62.025
807.22	71.053
807.52	65.672
807.83	76.056
808.13	78.125
808.43	98.333
808.74	71.053
809.04	85.507
809.35	76.119
809.65	59.211
809.95	83.871
810.26	81.356
810.56	76.190
810.86	102.273
811.17	138.095
811.47	98.333
811.77	75.926
812.08	105.455
812.38	88.000
812.69	105.556
812.99	120.455
813.29	112.245
813.59	85.714
813.90	122.449
814.20	80.000
814.50	66.154
814.81	98.529
815.11	104.082
815.41	88.525
815.72	126.190
816.02	101.818
816.32	90.476
816.62	117.500
816.93	112.195
817.23	116.667
817.53	106.818
817.84	169.697
818.14	106.522
818.44	113.333
818.74	141.176
819.04	90.000
819.35	117.143
819.65	170.588
819.95	139.286
820.25	160.000
820.56	105.128
820.86	106.818
821.16	100.000
821.46	115.385
821.76	96.000
822.07	128.571
822.37	125.000
822.67	142.424
822.97	103.922
823.27	171.429
823.57	116.216
823.88	142.500
824.18	146.667
824.48	135.714
824.78	192.000
825.08	162.500
825.38	102.703
825.69	112.195
825.99	183.333
826.29	137.931
826.59	107.895
826.89	113.158
827.19	132.353
827.49	187.097
827.79	136.364
828.09	106.818
828.39	95.745
828.70	95.918
829.00	144.444
829.30	129.032
829.60	100.000
829.90	246.667
830.20	135.714
830.50	169.565
830.80	221.739
831.10	140.000
831.40	150.000
831.70	165.217
832.00	219.231
832.30	144.444
832.60	231.250
832.90	140.000
833.20	307.143
833.50	161.290
833.80	151.724
834.10	168.750
834.40	188.462
834.70	261.111
835.00	276.190
835.30	134.286
835.60	207.692
835.90	162.069
836.20	307.143
836.50	141.379
836.80	148.000
837.10	141.667
837.40	214.286
837.70	211.765
838.00	188.889
838.30	195.238
838.60	252.381
838.90	184.615
839.19	195.000
839.49	321.429
839.79	295.000
840.09	235.000
840.39	233.333
840.69	217.391
840.99	305.556
841.29	430.000
841.59	233.333
841.88	268.750
842.18	131.034
842.48	185.714
842.78	176.667
843.08	169.565
843.38	128.125
843.68	566.667
843.97	192.308
844.27	137.931
844.57	214.286
844.87	231.250
845.17	155.556
845.47	1100.000
845.76	355.556
846.06	223.529
846.36	375.000
846.66	271.429
846.96	243.750
847.25	245.455
847.55	409.091
847.85	200.000
848.15	350.000
848.44	292.857
848.74	188.889
849.04	300.000
849.34	380.000
849.63	257.895
849.93	272.727
850.23	800.000
850.53	350.000
850.82	2100.000
851.12	-3700.000
851.42	4300.000
851.71	210.000
852.01	-766.667
852.31	187.500
852.61	1500.000
852.90	228.571
853.20	188.000
853.50	294.118
853.79	214.286
854.09	137.500
854.39	312.500
854.68	129.730
854.98	164.516
855.28	176.667
855.57	189.655
855.87	196.296
856.17	163.158
856.46	220.000
856.76	205.882
857.05	144.828
857.35	145.833
857.65	273.333
857.94	165.217
858.24	180.769
858.53	245.000
858.83	222.727
859.13	293.333
859.42	0.000
859.72	477.778
860.01	354.545
860.31	195.455
860.60	226.316
860.90	186.957
861.20	444.444
861.49	466.667
861.79	-3500.000
862.08	500.000
862.38	257.143
862.67	269.231
862.97	311.765
863.26	422.222
863.56	244.444
863.85	308.333
864.15	387.500
864.44	240.000
864.74	750.000
865.03	587.500
865.33	252.632
865.62	427.273
865.92	384.615
866.21	275.000
866.51	0.000
866.80	336.364
867.10	840.000
867.39	369.231
867.69	336.364
867.98	236.842
868.27	400.000
868.57	210.526
868.86	-2400.000
869.16	243.750
869.45	1600.000
869.75	-2600.000
870.04	325.000
870.33	485.714
870.63	625.000
870.92	1700.000
871.22	671.429
871.51	247.059
871.80	180.952
872.10	314.286
>>>>>End Processed Spectral Data<<<<<
