SpectraSuite Data File
++++++++++++++++++++++++++++++++++++
Date: Wed May 13 16:53:37 PDT 2015
User: schluterlab
Dark Spectrum Present: Yes
Reference Spectrum Present: Yes
Number of Sampled Component Spectra: 1
Spectrometers: USB2E3373
Integration Time (usec): 3000 (USB2E3373)
Spectra Averaged: 3 (USB2E3373)
Boxcar Smoothing: 0 (USB2E3373)
Correct for Electrical Dark: No (USB2E3373)
Strobe/Lamp Enabled: No (USB2E3373)
Correct for Detector Non-linearity: No (USB2E3373)
Correct for Stray Light: No (USB2E3373)
Number of Pixels in Processed Spectrum: 2048
>>>>>Begin Processed Spectral Data<<<<<
178.53	0.000
178.91	-1375.000
179.29	-1425.000
179.67	-205.556
180.04	-1475.000
180.42	2500.000
180.80	1020.000
181.18	-1300.000
181.56	657.143
181.94	0.000
182.31	-628.571
182.69	1433.333
183.07	-625.000
183.45	-455.556
183.83	545.455
184.20	-480.000
184.58	2350.000
184.96	4600.000
185.34	-900.000
185.72	-775.000
186.09	-2250.000
186.47	2200.000
186.85	2750.000
187.23	5200.000
187.61	-1733.333
187.98	1400.000
188.36	545.455
188.74	536.364
189.12	-940.000
189.49	610.000
189.87	-5100.000
190.25	-1000.000
190.63	342.857
191.00	461.538
191.38	800.000
191.76	-1225.000
192.14	1200.000
192.51	550.000
192.89	983.333
193.27	537.500
193.65	-1425.000
194.02	520.000
194.40	960.000
194.78	540.000
195.15	516.667
195.53	620.000
195.91	-2250.000
196.29	418.750
196.66	310.526
197.04	-370.000
197.42	0.000
197.79	630.000
198.17	-4400.000
198.55	557.143
198.92	775.000
199.30	820.000
199.68	0.000
200.05	322.222
200.43	757.143
200.81	4100.000
201.18	1900.000
201.56	-1533.333
201.94	633.333
202.31	577.778
202.69	433.333
203.07	610.000
203.44	0.000
203.82	1200.000
204.19	728.571
204.57	378.571
204.95	700.000
205.32	1633.333
205.70	654.545
206.08	342.857
206.45	2850.000
206.83	368.750
207.20	883.333
207.58	940.000
207.96	305.556
208.33	700.000
208.71	-850.000
209.08	800.000
209.46	588.889
209.84	518.182
210.21	-1533.333
210.59	1200.000
210.96	-500.000
211.34	3200.000
211.71	610.000
212.09	716.667
212.46	0.000
212.84	1733.333
213.22	1350.000
213.59	-3800.000
213.97	983.333
214.34	771.429
214.72	527.273
215.09	1100.000
215.47	-2450.000
215.84	-2350.000
216.22	1766.667
216.59	371.429
216.97	1100.000
217.34	418.182
217.72	-816.667
218.09	0.000
218.47	-4800.000
218.84	600.000
219.22	742.857
219.59	1900.000
219.97	-642.857
220.34	980.000
220.72	-1500.000
221.09	378.571
221.47	1550.000
221.84	-850.000
222.22	0.000
222.59	1500.000
222.97	-2700.000
223.34	1060.000
223.72	361.538
224.09	1000.000
224.46	2350.000
224.84	-5000.000
225.21	-1220.000
225.59	-5500.000
225.96	630.000
226.34	325.000
226.71	2850.000
227.08	700.000
227.46	550.000
227.83	-1125.000
228.21	-2400.000
228.58	633.333
228.95	-2700.000
229.33	-2150.000
229.70	1466.667
230.08	857.143
230.45	-920.000
230.82	516.667
231.20	800.000
231.57	742.857
231.95	516.667
232.32	277.273
232.69	372.727
233.07	500.000
233.44	346.154
233.81	-1666.667
234.19	284.211
234.56	416.667
234.93	341.667
235.31	436.364
235.68	338.462
236.05	421.429
236.43	160.606
236.80	326.316
237.17	3600.000
237.55	223.810
237.92	203.571
238.29	195.238
238.67	148.387
239.04	155.172
239.41	133.333
239.79	115.217
240.16	126.190
240.53	115.909
240.91	96.078
241.28	86.000
241.65	116.000
242.02	86.957
242.40	83.871
242.77	71.667
243.14	61.290
243.51	64.045
243.89	56.471
244.26	61.111
244.63	60.215
245.00	40.426
245.38	42.574
245.75	49.533
246.12	40.367
246.49	44.526
246.87	48.800
247.24	35.385
247.61	40.714
247.98	26.797
248.36	31.081
248.73	34.395
249.10	35.669
249.47	26.554
249.84	34.225
250.22	27.273
250.59	26.036
250.96	30.808
251.33	31.280
251.70	28.218
252.08	22.381
252.45	19.283
252.82	21.304
253.19	22.979
253.56	25.882
253.94	24.481
254.31	26.562
254.68	23.077
255.05	19.926
255.42	17.480
255.79	20.221
256.16	21.661
256.54	19.788
256.91	21.708
257.28	20.504
257.65	18.812
258.02	19.255
258.39	16.719
258.76	16.054
259.14	18.452
259.51	17.021
259.88	15.528
260.25	18.731
260.62	17.052
260.99	13.354
261.36	18.318
261.73	15.186
262.10	13.081
262.47	16.620
262.85	14.485
263.22	11.396
263.59	17.664
263.96	15.110
264.33	14.099
264.70	12.895
265.07	14.322
265.44	13.889
265.81	15.815
266.18	15.075
266.55	12.195
266.92	12.285
267.29	15.046
267.66	13.532
268.03	12.500
268.40	13.318
268.77	11.933
269.14	12.613
269.51	14.673
269.88	14.219
270.25	13.544
270.62	12.809
270.99	14.194
271.36	12.876
271.73	13.785
272.10	10.870
272.47	12.258
272.84	11.688
273.21	13.208
273.58	10.480
273.95	10.482
274.32	11.983
274.69	10.064
275.06	10.630
275.43	12.340
275.80	9.619
276.17	11.813
276.54	11.850
276.91	8.893
277.28	10.742
277.65	11.025
278.02	10.145
278.39	12.891
278.76	10.909
279.13	12.453
279.50	11.918
279.87	11.952
280.23	8.982
280.60	7.930
280.97	6.839
281.34	11.681
281.71	11.273
282.08	11.324
282.45	9.455
282.82	9.591
283.19	8.378
283.56	10.351
283.92	10.321
284.29	9.524
284.66	9.619
285.03	7.595
285.40	7.746
285.77	8.923
286.14	7.772
286.51	9.833
286.87	10.427
287.24	10.586
287.61	8.026
287.98	9.253
288.35	9.350
288.72	9.813
289.08	9.859
289.45	9.061
289.82	10.081
290.19	8.477
290.56	8.576
290.93	7.402
291.29	7.822
291.66	7.375
292.03	10.465
292.40	10.573
292.77	9.024
293.13	7.612
293.50	8.892
293.87	7.556
294.24	8.000
294.60	5.822
294.97	7.558
295.34	9.873
295.71	7.670
296.08	6.980
296.44	8.253
296.81	7.662
297.18	10.163
297.55	6.860
297.91	8.575
298.28	9.103
298.65	8.094
299.02	8.300
299.38	7.304
299.75	5.391
300.12	7.535
300.48	8.000
300.85	9.371
301.22	8.025
301.59	7.702
301.95	8.186
302.32	7.831
302.69	8.363
303.05	7.394
303.42	7.037
303.79	8.947
304.15	6.643
304.52	6.489
304.89	7.317
305.25	7.077
305.62	8.381
305.99	8.146
306.35	7.830
306.72	7.511
307.09	7.991
307.45	8.784
307.82	7.366
308.19	9.161
308.55	9.601
308.92	8.915
309.29	7.286
309.65	7.741
310.02	8.774
310.38	8.280
310.75	8.448
311.12	9.110
311.48	8.150
311.85	9.329
312.22	9.365
312.58	9.148
312.95	9.504
313.31	8.835
313.68	9.979
314.05	10.848
314.41	10.854
314.78	9.970
315.14	10.328
315.51	11.226
315.87	10.792
316.24	10.924
316.61	12.086
316.97	11.644
317.34	11.155
317.70	12.333
318.07	12.801
318.43	12.916
318.80	13.121
319.16	12.524
319.53	13.602
319.89	14.286
320.26	15.700
320.62	16.270
320.99	15.960
321.35	16.364
321.72	16.940
322.08	18.361
322.45	20.100
322.81	18.895
323.18	19.461
323.54	19.852
323.91	20.755
324.27	21.128
324.64	20.317
325.00	21.371
325.37	23.567
325.73	23.878
326.10	24.095
326.46	23.835
326.83	26.575
327.19	26.132
327.56	26.394
327.92	27.209
328.29	28.838
328.65	27.716
329.01	28.971
329.38	30.157
329.74	28.901
330.11	31.008
330.47	30.119
330.84	31.710
331.20	30.237
331.56	32.385
331.93	31.204
332.29	32.209
332.66	31.770
333.02	31.993
333.38	32.882
333.75	33.512
334.11	32.562
334.48	33.363
334.84	33.272
335.20	34.182
335.57	32.366
335.93	32.589
336.29	33.242
336.66	33.273
337.02	33.665
337.38	33.981
337.75	33.333
338.11	34.557
338.47	32.873
338.84	35.289
339.20	34.862
339.56	34.763
339.93	34.273
340.29	33.062
340.65	33.957
341.02	34.555
341.38	35.320
341.74	34.649
342.11	35.197
342.47	34.626
342.83	34.161
343.20	35.325
343.56	33.109
343.92	35.263
344.28	34.949
344.65	35.426
345.01	34.007
345.37	33.791
345.73	35.110
346.10	34.527
346.46	34.492
346.82	33.278
347.19	33.584
347.55	32.759
347.91	35.113
348.27	34.675
348.63	34.114
349.00	34.304
349.36	35.222
349.72	34.884
350.08	34.117
350.45	35.232
350.81	34.687
351.17	35.900
351.53	34.152
351.89	33.498
352.26	35.991
352.62	35.044
352.98	34.522
353.34	36.730
353.70	34.206
354.07	34.758
354.43	35.079
354.79	34.755
355.15	35.275
355.51	35.492
355.87	36.082
356.24	34.528
356.60	34.884
356.96	36.203
357.32	36.386
357.68	34.567
358.04	34.838
358.40	35.946
358.77	35.681
359.13	34.570
359.49	35.765
359.85	35.000
360.21	35.805
360.57	37.121
360.93	36.231
361.29	35.223
361.66	35.294
362.02	35.896
362.38	35.665
362.74	35.714
363.10	34.937
363.46	34.336
363.82	36.206
364.18	36.417
364.54	36.924
364.90	36.686
365.26	35.588
365.62	37.838
365.98	36.012
366.35	35.244
366.71	36.081
367.07	35.106
367.43	36.647
367.79	38.401
368.15	37.284
368.51	35.392
368.87	37.045
369.23	36.723
369.59	37.364
369.95	36.618
370.31	35.613
370.67	36.522
371.03	37.378
371.39	38.411
371.75	37.426
372.11	37.127
372.47	38.123
372.83	38.977
373.19	37.139
373.55	38.285
373.91	39.470
374.27	37.113
374.63	38.327
374.99	38.277
375.35	37.125
375.71	37.903
376.07	38.820
376.42	38.790
376.78	38.900
377.14	38.535
377.50	39.139
377.86	38.298
378.22	38.938
378.58	38.471
378.94	39.158
379.30	39.186
379.66	40.292
380.02	40.295
380.38	40.073
380.74	39.136
381.09	40.342
381.45	41.242
381.81	40.602
382.17	40.382
382.53	40.000
382.89	40.741
383.25	39.900
383.61	41.760
383.97	40.525
384.32	40.237
384.68	39.901
385.04	40.627
385.40	40.062
385.76	41.032
386.12	41.580
386.48	41.284
386.83	42.078
387.19	42.733
387.55	41.435
387.91	41.052
388.27	40.650
388.62	41.364
388.98	41.523
389.34	41.677
389.70	40.834
390.06	41.381
390.42	41.894
390.77	41.158
391.13	42.055
391.49	41.751
391.85	41.375
392.20	41.703
392.56	41.919
392.92	42.908
393.28	41.775
393.64	42.206
393.99	41.662
394.35	42.432
394.71	43.225
395.07	41.994
395.42	42.336
395.78	42.303
396.14	41.899
396.50	43.860
396.85	42.339
397.21	41.369
397.57	41.909
397.92	41.767
398.28	40.975
398.64	41.398
399.00	41.578
399.35	40.778
399.71	40.336
400.07	40.863
400.42	41.963
400.78	41.315
401.14	40.000
401.49	41.075
401.85	40.593
402.21	41.317
402.57	41.456
402.92	40.921
403.28	41.037
403.63	40.408
403.99	41.529
404.35	40.485
404.70	41.007
405.06	40.012
405.42	40.986
405.77	40.686
406.13	40.181
406.49	40.272
406.84	40.520
407.20	39.716
407.55	40.651
407.91	40.867
408.27	40.842
408.62	40.397
408.98	39.767
409.34	39.914
409.69	41.742
410.05	39.963
410.40	39.572
410.76	40.323
411.11	40.350
411.47	39.489
411.83	39.890
412.18	40.445
412.54	39.415
412.89	39.036
413.25	38.371
413.60	39.407
413.96	38.737
414.31	39.186
414.67	39.290
415.03	39.603
415.38	39.304
415.74	40.064
416.09	40.431
416.45	39.023
416.80	41.044
417.16	39.812
417.51	40.810
417.87	38.600
418.22	39.874
418.58	39.057
418.93	39.926
419.29	39.784
419.64	40.050
420.00	39.878
420.35	38.725
420.71	39.749
421.06	39.320
421.42	39.415
421.77	38.621
422.12	38.911
422.48	38.910
422.83	39.196
423.19	38.232
423.54	39.118
423.90	39.014
424.25	38.693
424.61	38.929
424.96	39.708
425.31	38.870
425.67	38.258
426.02	38.857
426.38	39.805
426.73	37.858
427.09	39.696
427.44	38.643
427.79	37.953
428.15	38.274
428.50	38.561
428.85	40.167
429.21	38.763
429.56	39.502
429.92	38.752
430.27	38.183
430.62	38.249
430.98	38.713
431.33	37.680
431.68	38.063
432.04	36.422
432.39	37.864
432.74	39.797
433.10	38.993
433.45	38.134
433.80	39.191
434.16	38.942
434.51	37.789
434.86	38.655
435.22	38.633
435.57	38.480
435.92	38.795
436.28	39.027
436.63	37.638
436.98	37.436
437.34	37.746
437.69	38.681
438.04	38.055
438.39	38.806
438.75	39.105
439.10	38.939
439.45	38.666
439.81	38.187
440.16	39.130
440.51	38.196
440.86	39.433
441.22	38.765
441.57	37.580
441.92	37.666
442.27	38.159
442.63	37.546
442.98	39.042
443.33	39.293
443.68	38.513
444.03	37.531
444.39	37.098
444.74	38.745
445.09	37.790
445.44	37.069
445.79	37.754
446.15	37.639
446.50	36.995
446.85	37.564
447.20	37.634
447.55	38.191
447.91	37.507
448.26	38.063
448.61	38.496
448.96	38.206
449.31	37.852
449.66	37.929
450.02	36.992
450.37	37.415
450.72	37.507
451.07	37.294
451.42	36.474
451.77	38.579
452.12	36.605
452.47	37.438
452.83	37.121
453.18	36.430
453.53	37.291
453.88	36.799
454.23	36.521
454.58	37.553
454.93	38.843
455.28	37.095
455.63	37.621
455.98	38.036
456.34	36.495
456.69	37.320
457.04	38.204
457.39	36.587
457.74	36.854
458.09	36.630
458.44	37.115
458.79	35.629
459.14	36.456
459.49	36.427
459.84	36.288
460.19	35.946
460.54	35.301
460.89	36.149
461.24	37.462
461.59	37.827
461.94	36.252
462.29	35.608
462.64	35.737
462.99	36.890
463.34	37.133
463.69	37.211
464.04	36.928
464.39	36.174
464.74	36.126
465.09	35.706
465.44	35.623
465.79	34.452
466.14	35.140
466.49	35.261
466.84	35.902
467.19	34.943
467.54	35.750
467.89	35.654
468.24	35.544
468.59	35.714
468.94	35.186
469.29	34.961
469.64	36.145
469.99	36.468
470.34	36.526
470.68	35.704
471.03	34.830
471.38	36.692
471.73	35.643
472.08	36.513
472.43	35.113
472.78	34.431
473.13	34.724
473.48	34.707
473.83	35.366
474.17	35.034
474.52	35.484
474.87	36.019
475.22	35.403
475.57	34.229
475.92	33.298
476.27	34.667
476.61	35.080
476.96	34.854
477.31	34.432
477.66	34.300
478.01	33.717
478.36	34.585
478.70	35.047
479.05	35.091
479.40	34.493
479.75	34.011
480.10	34.344
480.45	33.984
480.79	33.397
481.14	33.708
481.49	34.314
481.84	34.156
482.19	33.576
482.53	33.670
482.88	33.550
483.23	34.065
483.58	33.803
483.92	33.458
484.27	32.941
484.62	33.966
484.97	33.544
485.31	34.281
485.66	34.169
486.01	32.572
486.36	30.761
486.70	29.520
487.05	30.740
487.40	31.410
487.75	31.380
488.09	32.363
488.44	31.421
488.79	33.165
489.13	32.544
489.48	32.504
489.83	32.628
490.17	33.231
490.52	32.285
490.87	32.248
491.22	32.924
491.56	32.528
491.91	32.387
492.26	31.879
492.60	31.567
492.95	31.899
493.30	31.682
493.64	32.291
493.99	31.662
494.34	32.146
494.68	31.960
495.03	32.660
495.37	32.248
495.72	32.456
496.07	31.694
496.41	31.549
496.76	31.574
497.11	31.517
497.45	32.045
497.80	31.478
498.14	31.884
498.49	31.610
498.84	31.352
499.18	31.476
499.53	31.576
499.87	31.500
500.22	32.595
500.56	32.476
500.91	31.731
501.26	31.532
501.60	32.890
501.95	31.027
502.29	32.474
502.64	31.471
502.98	30.622
503.33	30.987
503.67	31.694
504.02	30.776
504.36	30.557
504.71	30.826
505.06	31.036
505.40	31.016
505.75	31.051
506.09	31.195
506.44	30.439
506.78	31.320
507.13	30.994
507.47	31.263
507.82	31.256
508.16	31.307
508.51	31.304
508.85	30.338
509.19	30.306
509.54	31.173
509.88	30.603
510.23	30.591
510.57	31.631
510.92	30.399
511.26	30.010
511.61	30.342
511.95	29.958
512.30	30.541
512.64	30.629
512.98	32.047
513.33	31.370
513.67	30.203
514.02	30.195
514.36	31.131
514.70	30.659
515.05	31.009
515.39	31.800
515.74	31.025
516.08	30.967
516.42	30.744
516.77	30.992
517.11	30.522
517.46	31.716
517.80	31.185
518.14	30.573
518.49	31.389
518.83	30.909
519.17	30.427
519.52	30.843
519.86	30.576
520.20	31.734
520.55	30.700
520.89	30.474
521.23	30.941
521.58	30.432
521.92	31.047
522.26	30.140
522.61	30.530
522.95	30.448
523.29	30.493
523.64	31.037
523.98	30.437
524.32	30.157
524.66	30.547
525.01	31.740
525.35	30.855
525.69	30.111
526.04	31.277
526.38	30.506
526.72	29.755
527.06	30.257
527.41	29.208
527.75	30.482
528.09	30.636
528.43	31.612
528.78	29.994
529.12	30.000
529.46	31.353
529.80	31.188
530.15	30.592
530.49	29.354
530.83	30.443
531.17	31.136
531.51	31.647
531.86	30.129
532.20	30.965
532.54	30.750
532.88	30.745
533.22	29.419
533.57	30.000
533.91	29.561
534.25	30.194
534.59	29.774
534.93	29.506
535.27	30.175
535.62	29.365
535.96	29.692
536.30	29.180
536.64	30.715
536.98	29.595
537.32	30.086
537.66	29.333
538.01	30.612
538.35	30.187
538.69	31.078
539.03	28.980
539.37	28.690
539.71	28.257
540.05	29.804
540.39	29.900
540.73	28.913
541.07	30.694
541.42	29.811
541.76	29.742
542.10	29.884
542.44	30.199
542.78	29.908
543.12	28.791
543.46	29.574
543.80	29.603
544.14	28.883
544.48	30.032
544.82	28.929
545.16	29.538
545.50	28.085
545.84	28.629
546.18	29.226
546.52	29.594
546.86	29.141
547.20	29.872
547.54	29.125
547.88	30.612
548.22	29.078
548.56	29.623
548.90	28.809
549.24	28.687
549.58	29.263
549.92	29.533
550.26	30.256
550.60	29.046
550.94	29.577
551.28	28.383
551.62	30.841
551.96	29.053
552.30	29.352
552.64	30.291
552.98	29.559
553.32	29.804
553.66	29.243
554.00	29.444
554.34	28.019
554.68	29.614
555.02	29.478
555.36	29.576
555.69	28.552
556.03	29.812
556.37	29.059
556.71	28.718
557.05	28.782
557.39	28.411
557.73	28.934
558.07	28.426
558.41	28.437
558.75	29.831
559.08	28.710
559.42	29.856
559.76	28.824
560.10	29.979
560.44	28.791
560.78	27.745
561.12	28.232
561.45	29.270
561.79	28.609
562.13	29.846
562.47	28.689
562.81	29.149
563.15	28.829
563.48	28.647
563.82	28.767
564.16	28.712
564.50	27.799
564.84	27.813
565.17	28.185
565.51	27.412
565.85	27.982
566.19	27.113
566.52	29.006
566.86	27.848
567.20	29.068
567.54	28.196
567.88	27.702
568.21	28.307
568.55	28.514
568.89	27.481
569.23	27.317
569.56	27.409
569.90	27.547
570.24	27.198
570.57	26.386
570.91	26.212
571.25	26.035
571.59	26.716
571.92	25.547
572.26	26.372
572.60	26.156
572.93	26.237
573.27	26.294
573.61	26.270
573.95	26.615
574.28	26.005
574.62	25.972
574.96	25.568
575.29	25.558
575.63	26.067
575.97	25.749
576.30	26.129
576.64	26.106
576.98	26.228
577.31	26.571
577.65	26.037
577.98	25.211
578.32	25.298
578.66	25.765
578.99	25.337
579.33	25.393
579.67	24.836
580.00	25.653
580.34	25.724
580.67	25.715
581.01	26.085
581.35	25.813
581.68	25.535
582.02	25.066
582.35	25.533
582.69	25.659
583.02	25.528
583.36	25.732
583.70	26.224
584.03	26.123
584.37	26.008
584.70	26.306
585.04	26.076
585.37	25.722
585.71	25.517
586.04	25.586
586.38	25.967
586.72	26.043
587.05	25.564
587.39	25.831
587.72	24.890
588.06	25.347
588.39	25.652
588.73	26.078
589.06	25.771
589.40	26.330
589.73	26.962
590.07	25.801
590.40	25.941
590.73	26.737
591.07	26.414
591.40	26.487
591.74	27.229
592.07	27.269
592.41	26.953
592.74	25.618
593.08	26.316
593.41	26.099
593.75	25.359
594.08	25.846
594.41	25.804
594.75	25.619
595.08	25.984
595.42	26.025
595.75	25.962
596.09	25.986
596.42	25.776
596.75	25.876
597.09	26.970
597.42	25.126
597.75	26.348
598.09	26.087
598.42	25.043
598.76	25.659
599.09	25.428
599.42	25.837
599.76	25.988
600.09	25.392
600.42	25.237
600.76	25.036
601.09	25.027
601.42	24.886
601.76	25.731
602.09	25.613
602.42	25.955
602.76	25.595
603.09	26.161
603.42	25.849
603.76	25.648
604.09	25.785
604.42	25.887
604.76	26.191
605.09	25.251
605.42	25.353
605.75	26.035
606.09	25.661
606.42	25.828
606.75	25.508
607.09	25.492
607.42	26.016
607.75	25.316
608.08	25.185
608.42	26.132
608.75	25.744
609.08	25.301
609.41	24.988
609.75	25.631
610.08	26.343
610.41	25.233
610.74	26.301
611.07	26.087
611.41	26.202
611.74	26.144
612.07	26.035
612.40	25.761
612.73	26.158
613.07	25.808
613.40	25.434
613.73	25.013
614.06	26.183
614.39	24.961
614.72	25.895
615.06	26.366
615.39	25.372
615.72	25.358
616.05	25.837
616.38	26.014
616.71	26.128
617.05	26.266
617.38	26.278
617.71	26.126
618.04	26.623
618.37	26.316
618.70	26.322
619.03	27.895
619.36	27.359
619.69	26.831
620.03	26.854
620.36	26.604
620.69	27.260
621.02	26.696
621.35	25.607
621.68	27.492
622.01	26.858
622.34	27.156
622.67	26.996
623.00	26.632
623.33	26.233
623.66	26.590
623.99	27.467
624.32	26.462
624.65	26.836
624.99	26.133
625.32	26.068
625.65	27.198
625.98	26.672
626.31	26.594
626.64	26.531
626.97	27.016
627.30	26.933
627.63	27.400
627.96	28.427
628.29	27.122
628.62	27.996
628.95	28.774
629.28	27.555
629.61	28.231
629.94	27.524
630.26	27.169
630.59	28.694
630.92	26.149
631.25	26.357
631.58	27.628
631.91	26.978
632.24	25.738
632.57	27.912
632.90	26.425
633.23	27.405
633.56	30.282
633.89	28.426
634.22	28.150
634.55	29.349
634.88	28.862
635.20	27.479
635.53	29.157
635.86	28.218
636.19	26.706
636.52	28.258
636.85	29.210
637.18	27.189
637.51	28.369
637.83	26.017
638.16	29.156
638.49	28.212
638.82	28.698
639.15	27.625
639.48	30.050
639.81	27.748
640.13	29.427
640.46	29.128
640.79	27.741
641.12	27.923
641.45	27.514
641.77	29.455
642.10	30.117
642.43	31.081
642.76	29.721
643.09	29.294
643.41	28.832
643.74	30.401
644.07	28.201
644.40	28.988
644.73	29.764
645.05	31.062
645.38	29.700
645.71	30.757
646.04	30.565
646.36	30.885
646.69	29.264
647.02	30.102
647.35	31.100
647.67	29.027
648.00	28.455
648.33	30.198
648.66	29.697
648.98	29.235
649.31	28.102
649.64	29.746
649.96	28.763
650.29	29.226
650.62	29.126
650.94	27.391
651.27	31.757
651.60	30.782
651.92	29.073
652.25	26.710
652.58	29.128
652.90	31.912
653.23	27.427
653.56	29.606
653.88	29.952
654.21	29.226
654.54	30.033
654.86	28.816
655.19	27.432
655.52	20.980
655.84	19.613
656.17	25.932
656.49	34.451
656.82	34.655
657.15	25.823
657.47	18.873
657.80	14.861
658.13	15.197
658.45	22.245
658.78	22.227
659.10	23.679
659.43	24.541
659.75	25.368
660.08	28.165
660.41	30.726
660.73	30.241
661.06	31.051
661.38	30.182
661.71	33.077
662.03	32.742
662.36	28.628
662.68	30.522
663.01	31.919
663.33	29.936
663.66	28.571
663.98	31.102
664.31	30.882
664.63	29.555
664.96	27.565
665.28	31.148
665.61	30.604
665.93	29.577
666.26	30.629
666.58	29.289
666.91	31.924
667.23	32.360
667.56	29.374
667.88	31.838
668.21	31.130
668.53	30.803
668.86	30.303
669.18	33.262
669.50	30.217
669.83	35.076
670.15	32.000
670.48	29.412
670.80	31.897
671.13	30.573
671.45	27.660
671.77	32.383
672.10	30.684
672.42	29.329
672.75	29.353
673.07	29.049
673.39	27.486
673.72	29.492
674.04	31.373
674.37	26.602
674.69	31.697
675.01	29.498
675.34	33.060
675.66	33.684
675.98	31.365
676.31	31.513
676.63	28.875
676.95	31.866
677.28	31.776
677.60	29.011
677.92	31.435
678.25	33.265
678.57	29.681
678.89	31.864
679.22	28.487
679.54	30.153
679.86	31.009
680.18	30.411
680.51	28.546
680.83	30.427
681.15	30.943
681.48	30.246
681.80	29.594
682.12	29.693
682.44	26.886
682.77	31.161
683.09	33.262
683.41	31.929
683.73	30.243
684.06	31.612
684.38	28.963
684.70	30.620
685.02	32.083
685.34	29.121
685.67	27.448
685.99	28.179
686.31	29.010
686.63	25.618
686.96	30.179
687.28	28.881
687.60	29.167
687.92	29.799
688.24	28.517
688.56	29.317
688.89	31.950
689.21	32.096
689.53	31.942
689.85	31.264
690.17	28.364
690.49	30.998
690.82	33.879
691.14	29.241
691.46	28.903
691.78	30.723
692.10	31.612
692.42	32.535
692.74	29.046
693.06	31.915
693.39	32.033
693.71	32.751
694.03	33.053
694.35	28.571
694.67	31.350
694.99	35.366
695.31	30.392
695.63	32.536
695.95	30.807
696.27	28.680
696.59	31.865
696.91	30.829
697.23	29.812
697.56	29.851
697.88	28.425
698.20	28.958
698.52	28.817
698.84	32.294
699.16	28.571
699.48	32.542
699.80	32.609
700.12	35.844
700.44	31.830
700.76	33.149
701.08	29.885
701.40	33.520
701.72	32.945
702.04	39.205
702.36	30.878
702.68	33.711
703.00	32.133
703.32	30.851
703.64	34.048
703.96	31.755
704.28	35.756
704.60	34.897
704.91	34.125
705.23	36.950
705.55	36.877
705.87	39.867
706.19	35.336
706.51	36.449
706.83	33.333
707.15	35.014
707.47	31.061
707.79	33.907
708.11	30.137
708.43	30.714
708.74	30.867
709.06	33.247
709.38	31.759
709.70	31.686
710.02	36.202
710.34	35.152
710.66	35.224
710.98	34.091
711.29	37.209
711.61	35.988
711.93	32.372
712.25	37.621
712.57	36.397
712.89	35.640
713.20	36.474
713.52	37.171
713.84	31.329
714.16	33.232
714.48	31.034
714.80	38.602
715.11	34.582
715.43	36.202
715.75	34.203
716.07	36.741
716.39	34.483
716.70	36.213
717.02	37.050
717.34	37.809
717.66	40.672
717.97	42.231
718.29	35.185
718.61	33.577
718.93	36.029
719.24	38.062
719.56	31.525
719.88	35.932
720.20	38.176
720.51	35.889
720.83	36.431
721.15	36.194
721.46	37.234
721.78	42.294
722.10	37.736
722.42	37.970
722.73	37.453
723.05	35.656
723.37	34.008
723.68	40.927
724.00	39.837
724.32	38.306
724.63	38.618
724.95	39.749
725.27	38.462
725.58	36.719
725.90	41.241
726.22	35.849
726.53	34.375
726.85	36.860
727.16	39.502
727.48	33.333
727.80	35.985
728.11	37.319
728.43	35.385
728.74	40.143
729.06	43.431
729.38	37.868
729.69	38.434
730.01	35.495
730.32	35.417
730.64	34.114
730.96	33.003
731.27	37.417
731.59	34.557
731.90	37.026
732.22	31.988
732.53	30.650
732.85	33.654
733.16	31.833
733.48	39.535
733.80	34.740
734.11	37.261
734.43	36.391
734.74	34.571
735.06	29.799
735.37	39.595
735.69	37.261
736.00	32.680
736.32	36.760
736.63	34.505
736.95	34.505
737.26	28.912
737.58	33.871
737.89	36.789
738.21	32.423
738.52	40.357
738.83	36.604
739.15	37.692
739.46	40.146
739.78	34.375
740.09	36.615
740.41	37.419
740.72	33.449
741.04	37.037
741.35	35.417
741.66	42.667
741.98	39.623
742.29	44.976
742.61	42.241
742.92	36.199
743.23	38.034
743.55	41.600
743.86	39.035
744.18	45.133
744.49	47.368
744.80	48.826
745.12	46.818
745.43	38.326
745.74	39.189
746.06	44.037
746.37	41.256
746.68	35.294
747.00	42.593
747.31	37.143
747.62	35.398
747.94	39.207
748.25	37.872
748.56	40.088
748.88	41.584
749.19	47.000
749.50	40.000
749.82	41.057
750.13	33.878
750.44	38.686
750.75	35.439
751.07	39.871
751.38	37.631
751.69	39.711
752.01	32.707
752.32	32.491
752.63	37.943
752.94	37.705
753.26	44.000
753.57	37.398
753.88	35.547
754.19	36.071
754.51	36.806
754.82	31.769
755.13	39.245
755.44	37.218
755.75	31.387
756.07	35.816
756.38	30.657
756.69	38.255
757.00	30.838
757.31	31.751
757.63	33.918
757.94	26.273
758.25	29.412
758.56	30.123
758.87	30.645
759.18	36.061
759.50	34.796
759.81	34.891
760.12	30.000
760.43	32.378
760.74	31.250
761.05	33.051
761.36	29.412
761.67	35.227
761.99	31.366
762.30	36.111
762.61	35.878
762.92	37.891
763.23	39.076
763.54	40.800
763.85	37.109
764.16	39.615
764.47	34.601
764.78	36.749
765.10	30.380
765.41	33.038
765.72	30.838
766.03	34.169
766.34	34.333
766.65	34.468
766.96	40.171
767.27	39.086
767.58	46.354
767.89	45.263
768.20	48.276
768.51	37.563
768.82	46.330
769.13	34.553
769.44	38.462
769.75	36.910
770.06	37.615
770.37	42.534
770.68	41.667
770.99	40.000
771.30	33.607
771.61	36.771
771.92	34.836
772.23	42.857
772.54	51.795
772.85	42.408
773.16	47.340
773.47	46.196
773.78	48.223
774.09	39.286
774.39	46.784
774.70	48.765
775.01	48.551
775.32	49.673
775.63	46.711
775.94	51.079
776.25	59.055
776.56	51.493
776.87	50.820
777.18	53.125
777.48	58.015
777.79	54.545
778.10	53.333
778.41	46.429
778.72	51.825
779.03	52.349
779.34	48.993
779.65	50.000
779.95	47.853
780.26	49.673
780.57	48.276
780.88	59.375
781.19	49.624
781.50	52.703
781.80	50.943
782.11	48.588
782.42	45.570
782.73	47.853
783.04	45.270
783.34	54.225
783.65	57.534
783.96	61.194
784.27	48.951
784.57	48.921
784.88	51.852
785.19	52.381
785.50	64.151
785.81	55.224
786.11	62.295
786.42	56.589
786.73	59.292
787.04	60.377
787.34	65.179
787.65	68.000
787.96	66.667
788.26	56.198
788.57	68.644
788.88	61.983
789.19	53.472
789.49	60.606
789.80	54.962
790.11	80.000
790.41	71.287
790.72	65.060
791.03	66.304
791.33	73.256
791.64	63.918
791.95	66.337
792.25	74.444
792.56	76.623
792.87	92.308
793.17	83.544
793.48	82.759
793.79	66.667
794.09	75.000
794.40	61.345
794.70	60.294
795.01	55.556
795.32	51.079
795.62	53.543
795.93	58.621
796.23	51.327
796.54	65.882
796.85	94.595
797.15	95.775
797.46	86.364
797.76	77.108
798.07	74.684
798.37	87.692
798.68	86.364
798.99	74.648
799.29	96.104
799.60	68.182
799.90	93.151
800.21	101.493
800.51	79.310
800.82	107.018
801.12	106.557
801.43	95.455
801.73	83.784
802.04	82.540
802.34	87.654
802.65	96.875
802.95	101.695
803.26	106.250
803.56	81.429
803.87	89.231
804.17	86.765
804.48	116.667
804.78	115.517
805.09	86.765
805.39	88.462
805.70	110.714
806.00	111.475
806.30	81.818
806.61	84.146
806.91	79.747
807.22	72.368
807.52	88.060
807.83	70.423
808.13	87.500
808.43	90.000
808.74	82.895
809.04	78.261
809.35	89.552
809.65	84.211
809.95	116.129
810.26	116.949
810.56	103.175
810.86	115.909
811.17	152.381
811.47	93.333
811.77	111.111
812.08	112.727
812.38	118.000
812.69	141.667
812.99	156.818
813.29	118.367
813.59	90.476
813.90	102.041
814.20	101.818
814.50	89.231
814.81	102.941
815.11	124.490
815.41	111.475
815.72	123.810
816.02	125.455
816.32	159.524
816.62	137.500
816.93	112.195
817.23	128.571
817.53	152.273
817.84	187.879
818.14	136.957
818.44	135.556
818.74	188.235
819.04	147.500
819.35	154.286
819.65	170.588
819.95	185.714
820.25	270.000
820.56	169.231
820.86	152.273
821.16	137.209
821.46	141.026
821.76	120.000
822.07	177.143
822.37	137.500
822.67	190.909
822.97	115.686
823.27	207.143
823.57	135.135
823.88	162.500
824.18	210.000
824.48	157.143
824.78	200.000
825.08	145.833
825.38	164.865
825.69	141.463
825.99	195.833
826.29	165.517
826.59	176.316
826.89	136.842
827.19	188.235
827.49	196.774
827.79	143.182
828.09	136.364
828.39	129.787
828.70	120.408
829.00	159.259
829.30	161.290
829.60	142.500
829.90	266.667
830.20	164.286
830.50	191.304
830.80	191.304
831.10	223.333
831.40	193.333
831.70	147.826
832.00	219.231
832.30	229.630
832.60	300.000
832.90	193.333
833.20	392.857
833.50	212.903
833.80	175.862
834.10	187.500
834.40	265.385
834.70	333.333
835.00	290.476
835.30	128.571
835.60	292.308
835.90	203.448
836.20	392.857
836.50	172.414
836.80	172.000
837.10	186.111
837.40	257.143
837.70	323.529
838.00	218.519
838.30	223.810
838.60	266.667
838.90	265.385
839.19	260.000
839.49	364.286
839.79	305.000
840.09	290.000
840.39	252.381
840.69	213.043
840.99	277.778
841.29	460.000
841.59	341.667
841.88	331.250
842.18	172.414
842.48	314.286
842.78	216.667
843.08	226.087
843.38	187.500
843.68	850.000
843.97	230.769
844.27	179.310
844.57	290.476
844.87	318.750
845.17	207.407
845.47	1500.000
845.76	400.000
846.06	317.647
846.36	475.000
846.66	400.000
846.96	268.750
847.25	372.727
847.55	409.091
847.85	226.087
848.15	420.000
848.44	292.857
848.74	283.333
849.04	264.706
849.34	550.000
849.63	273.684
849.93	463.636
850.23	1140.000
850.53	350.000
850.82	2550.000
851.12	-4700.000
851.42	4400.000
851.71	310.000
852.01	-1366.667
852.31	266.667
852.61	1600.000
852.90	247.619
853.20	244.000
853.50	347.059
853.79	300.000
854.09	183.333
854.39	356.250
854.68	162.162
854.98	180.645
855.28	183.333
855.57	241.379
855.87	214.815
856.17	284.211
856.46	326.667
856.76	335.294
857.05	203.448
857.35	225.000
857.65	326.667
857.94	273.913
858.24	257.692
858.53	285.000
858.83	245.455
859.13	360.000
859.42	0.000
859.72	633.333
860.01	427.273
860.31	227.273
860.60	284.211
860.90	243.478
861.20	477.778
861.49	483.333
861.79	-4200.000
862.08	625.000
862.38	276.190
862.67	330.769
862.97	341.176
863.26	511.111
863.56	300.000
863.85	425.000
864.15	625.000
864.44	333.333
864.74	950.000
865.03	575.000
865.33	294.737
865.62	454.545
865.92	453.846
866.21	358.333
866.51	0.000
866.80	400.000
867.10	980.000
867.39	523.077
867.69	518.182
867.98	247.368
868.27	363.636
868.57	289.474
868.86	-5000.000
869.16	406.250
869.45	2450.000
869.75	-3500.000
870.04	441.667
870.33	785.714
870.63	1300.000
870.92	2400.000
871.22	671.429
871.51	305.882
871.80	228.571
872.10	350.000
>>>>>End Processed Spectral Data<<<<<
