SpectraSuite Data File
++++++++++++++++++++++++++++++++++++
Date: Wed May 13 16:25:18 PDT 2015
User: schluterlab
Dark Spectrum Present: Yes
Reference Spectrum Present: Yes
Number of Sampled Component Spectra: 1
Spectrometers: USB2E3373
Integration Time (usec): 3000 (USB2E3373)
Spectra Averaged: 3 (USB2E3373)
Boxcar Smoothing: 0 (USB2E3373)
Correct for Electrical Dark: No (USB2E3373)
Strobe/Lamp Enabled: No (USB2E3373)
Correct for Detector Non-linearity: No (USB2E3373)
Correct for Stray Light: No (USB2E3373)
Number of Pixels in Processed Spectrum: 2048
>>>>>Begin Processed Spectral Data<<<<<
178.53	0.000
178.91	-1350.000
179.29	-1400.000
179.67	-205.556
180.04	-1225.000
180.42	2650.000
180.80	1080.000
181.18	-1175.000
181.56	614.286
181.94	0.000
182.31	-600.000
182.69	1833.333
183.07	-550.000
183.45	-611.111
183.83	427.273
184.20	-420.000
184.58	2400.000
184.96	6600.000
185.34	-820.000
185.72	-700.000
186.09	-2600.000
186.47	2400.000
186.85	2600.000
187.23	5000.000
187.61	-1833.333
187.98	1075.000
188.36	527.273
188.74	527.273
189.12	-900.000
189.49	500.000
189.87	-4100.000
190.25	-1175.000
190.63	435.714
191.00	423.077
191.38	833.333
191.76	-950.000
192.14	1375.000
192.51	562.500
192.89	1066.667
193.27	700.000
193.65	-1075.000
194.02	560.000
194.40	1020.000
194.78	560.000
195.15	441.667
195.53	600.000
195.91	-1750.000
196.29	325.000
196.66	278.947
197.04	-360.000
197.42	0.000
197.79	600.000
198.17	-5100.000
198.55	657.143
198.92	537.500
199.30	960.000
199.68	0.000
200.05	316.667
200.43	728.571
200.81	4400.000
201.18	1500.000
201.56	-1766.667
201.94	544.444
202.31	544.444
202.69	475.000
203.07	570.000
203.44	0.000
203.82	1250.000
204.19	800.000
204.57	464.286
204.95	637.500
205.32	1733.333
205.70	563.636
206.08	342.857
206.45	2250.000
206.83	337.500
207.20	883.333
207.58	580.000
207.96	305.556
208.33	625.000
208.71	-783.333
209.08	728.571
209.46	577.778
209.84	472.727
210.21	-1466.667
210.59	1275.000
210.96	-487.500
211.34	2650.000
211.71	540.000
212.09	716.667
212.46	0.000
212.84	1833.333
213.22	1250.000
213.59	-4100.000
213.97	800.000
214.34	857.143
214.72	490.909
215.09	1140.000
215.47	-2150.000
215.84	-2150.000
216.22	1566.667
216.59	371.429
216.97	1375.000
217.34	454.545
217.72	-666.667
218.09	0.000
218.47	-4800.000
218.84	600.000
219.22	714.286
219.59	1700.000
219.97	-571.429
220.34	1000.000
220.72	-1266.667
221.09	342.857
221.47	1525.000
221.84	-833.333
222.22	0.000
222.59	1375.000
222.97	-2700.000
223.34	1160.000
223.72	361.538
224.09	1060.000
224.46	1950.000
224.84	-4700.000
225.21	-940.000
225.59	-4200.000
225.96	580.000
226.34	290.000
226.71	2850.000
227.08	575.000
227.46	520.000
227.83	-1175.000
228.21	-2150.000
228.58	666.667
228.95	-2650.000
229.33	-2250.000
229.70	1933.333
230.08	814.286
230.45	-920.000
230.82	391.667
231.20	1000.000
231.57	514.286
231.95	441.667
232.32	231.818
232.69	372.727
233.07	571.429
233.44	384.615
233.81	-1600.000
234.19	236.842
234.56	333.333
234.93	325.000
235.31	381.818
235.68	361.538
236.05	307.143
236.43	160.606
236.80	215.789
237.17	3500.000
237.55	133.333
237.92	178.571
238.29	252.381
238.67	167.742
239.04	165.517
239.41	133.333
239.79	106.522
240.16	145.238
240.53	109.091
240.91	105.882
241.28	92.000
241.65	80.000
242.02	75.362
242.40	79.032
242.77	75.000
243.14	58.065
243.51	62.921
243.89	68.235
244.26	47.778
244.63	63.441
245.00	51.064
245.38	48.515
245.75	41.121
246.12	48.624
246.49	48.905
246.87	56.000
247.24	44.615
247.61	38.571
247.98	38.562
248.36	30.405
248.73	31.847
249.10	40.127
249.47	31.638
249.84	33.690
250.22	28.342
250.59	31.953
250.96	29.798
251.33	30.332
251.70	32.178
252.08	25.714
252.45	26.009
252.82	22.609
253.19	27.234
253.56	24.314
253.94	28.631
254.31	25.391
254.68	26.154
255.05	22.509
255.42	21.951
255.79	23.529
256.16	26.715
256.54	20.495
256.91	23.843
257.28	18.345
257.65	23.102
258.02	21.429
258.39	19.558
258.76	19.064
259.14	18.750
259.51	19.453
259.88	18.323
260.25	21.752
260.62	19.653
260.99	17.391
261.36	20.120
261.73	15.186
262.10	16.860
262.47	21.127
262.85	19.777
263.22	15.670
263.59	19.373
263.96	22.527
264.33	19.321
264.70	17.895
265.07	17.903
265.44	17.172
265.81	17.518
266.18	14.824
266.55	17.073
266.92	16.216
267.29	16.898
267.66	16.284
268.03	17.727
268.40	14.953
268.77	15.990
269.14	13.514
269.51	16.253
269.88	17.483
270.25	17.381
270.62	17.528
270.99	18.495
271.36	17.167
271.73	14.019
272.10	15.652
272.47	15.914
272.84	15.801
273.21	15.723
273.58	13.755
273.95	14.046
274.32	12.810
274.69	14.989
275.06	14.370
275.43	14.894
275.80	14.228
276.17	14.664
276.54	13.721
276.91	15.217
277.28	13.672
277.65	15.280
278.02	11.180
278.39	14.844
278.76	15.818
279.13	15.094
279.50	14.898
279.87	12.749
280.23	13.573
280.60	14.120
280.97	13.309
281.34	15.929
281.71	14.364
282.08	16.315
282.45	13.636
282.82	13.321
283.19	12.299
283.56	15.439
283.92	11.844
284.29	13.933
284.66	13.249
285.03	12.839
285.40	12.852
285.77	12.963
286.14	12.781
286.51	14.667
286.87	14.017
287.24	12.704
287.61	11.717
287.98	14.448
288.35	12.044
288.72	12.461
289.08	12.676
289.45	12.191
289.82	10.569
290.19	8.791
290.56	11.332
290.93	10.574
291.29	10.276
291.66	11.652
292.03	13.517
292.40	12.482
292.77	11.982
293.13	11.940
293.50	11.516
293.87	11.556
294.24	11.704
294.60	9.898
294.97	11.773
295.34	12.412
295.71	10.085
296.08	10.114
296.44	10.867
296.81	10.700
297.18	10.976
297.55	8.311
297.91	10.158
298.28	11.513
298.65	12.533
299.02	10.145
299.38	10.093
299.75	9.434
300.12	9.579
300.48	9.500
300.85	10.358
301.22	10.573
301.59	9.343
301.95	10.579
302.32	10.398
302.69	10.155
303.05	10.424
303.42	10.123
303.79	8.947
304.15	9.441
304.52	8.806
304.89	9.756
305.25	11.021
305.62	10.646
305.99	11.570
306.35	10.850
306.72	9.978
307.09	11.765
307.45	10.811
307.82	8.147
308.19	10.486
308.55	9.709
308.92	10.741
309.29	9.926
309.65	9.862
310.02	9.831
310.38	10.968
310.75	11.616
311.12	10.645
311.48	10.972
311.85	11.845
312.22	12.175
312.58	11.123
312.95	11.510
313.31	11.359
313.68	12.058
314.05	13.116
314.41	11.558
314.78	11.782
315.14	13.208
315.51	13.182
315.87	14.752
316.24	13.208
316.61	13.255
316.97	13.307
317.34	12.524
317.70	14.627
318.07	15.111
318.43	14.971
318.80	16.495
319.16	16.667
319.53	16.135
319.89	17.048
320.26	16.800
320.62	18.452
320.99	18.384
321.35	18.990
321.72	19.199
322.08	19.941
322.45	22.388
322.81	21.415
323.18	22.351
323.54	23.748
323.91	23.585
324.27	24.857
324.64	23.858
325.00	25.518
325.37	26.661
325.73	27.828
326.10	27.538
326.46	28.405
326.83	30.544
327.19	31.682
327.56	30.749
327.92	33.508
328.29	35.670
328.65	34.162
329.01	34.567
329.38	35.615
329.74	36.657
330.11	37.323
330.47	39.118
330.84	39.063
331.20	39.162
331.56	39.083
331.93	39.167
332.29	38.953
332.66	40.796
333.02	41.316
333.38	42.728
333.75	41.266
334.11	42.260
334.48	41.526
334.84	44.210
335.20	43.636
335.57	43.518
335.93	41.696
336.29	44.872
336.66	44.004
337.02	43.620
337.38	43.796
337.75	42.335
338.11	43.420
338.47	45.672
338.84	45.555
339.20	44.312
339.56	46.533
339.93	44.636
340.29	44.837
340.65	46.078
341.02	44.066
341.38	46.263
341.74	45.000
342.11	45.240
342.47	45.374
342.83	44.435
343.20	45.628
343.56	44.650
343.92	45.702
344.28	44.558
344.65	46.002
345.01	45.202
345.37	44.597
345.73	46.193
346.10	45.780
346.46	44.915
346.82	46.129
347.19	45.614
347.55	46.634
347.91	46.197
348.27	46.343
348.63	45.569
349.00	46.278
349.36	45.895
349.72	46.111
350.08	44.489
350.45	46.867
350.81	46.141
351.17	46.191
351.53	45.209
351.89	47.112
352.26	46.488
352.62	46.191
352.98	46.596
353.34	46.508
353.70	46.890
354.07	46.613
354.43	44.603
354.79	45.937
355.15	46.449
355.51	47.722
355.87	47.510
356.24	47.150
356.60	46.191
356.96	48.753
357.32	47.179
357.68	48.346
358.04	47.348
358.40	47.981
358.77	47.340
359.13	47.672
359.49	47.686
359.85	47.302
360.21	47.608
360.57	47.782
360.93	47.846
361.29	47.846
361.66	48.297
362.02	48.060
362.38	47.681
362.74	48.214
363.10	47.446
363.46	48.129
363.82	49.055
364.18	49.486
364.54	48.588
364.90	47.946
365.26	48.971
365.62	49.014
365.98	49.233
366.35	48.782
366.71	49.747
367.07	50.182
367.43	50.435
367.79	51.035
368.15	51.006
368.51	49.346
368.87	49.536
369.23	50.402
369.59	50.543
369.95	50.735
370.31	49.644
370.67	50.000
371.03	50.787
371.39	51.385
371.75	51.324
372.11	49.502
372.47	50.806
372.83	52.522
373.19	50.939
373.55	52.254
373.91	52.651
374.27	50.928
374.63	52.073
374.99	53.107
375.35	52.198
375.71	52.296
376.07	52.332
376.42	52.613
376.78	52.087
377.14	51.696
377.50	52.450
377.86	51.729
378.22	53.161
378.58	52.193
378.94	51.226
379.30	53.117
379.66	54.695
380.02	52.211
380.38	52.823
380.74	53.121
381.09	54.462
381.45	53.780
381.81	53.686
382.17	53.567
382.53	54.906
382.89	55.247
383.25	54.972
383.61	55.204
383.97	54.597
384.32	54.086
384.68	54.151
385.04	55.071
385.40	54.241
385.76	54.115
386.12	54.339
386.48	54.940
386.83	56.575
387.19	56.957
387.55	55.411
387.91	54.776
388.27	55.181
388.62	55.747
388.98	55.958
389.34	55.632
389.70	55.365
390.06	56.781
390.42	55.123
390.77	55.662
391.13	57.179
391.49	56.599
391.85	56.206
392.20	55.142
392.56	55.745
392.92	56.857
393.28	55.858
393.64	56.415
393.99	56.323
394.35	55.583
394.71	55.144
395.07	54.766
395.42	56.613
395.78	55.980
396.14	54.873
396.50	56.579
396.85	56.834
397.21	55.425
397.57	55.611
397.92	57.091
398.28	55.661
398.64	55.197
399.00	56.016
399.35	54.371
399.71	55.729
400.07	56.121
400.42	56.626
400.78	56.393
401.14	56.463
401.49	56.358
401.85	56.322
402.21	55.569
402.57	55.891
402.92	57.125
403.28	58.339
403.63	55.817
403.99	56.688
404.35	56.242
404.70	55.635
405.06	56.843
405.42	57.392
405.77	55.600
406.13	55.418
406.49	56.121
406.84	54.932
407.20	55.201
407.55	57.626
407.91	56.933
408.27	57.052
408.62	56.893
408.98	56.250
409.34	57.503
409.69	56.645
410.05	56.753
410.40	55.841
410.76	54.659
411.11	55.911
411.47	55.911
411.83	55.345
412.18	55.535
412.54	56.040
412.89	55.723
413.25	57.025
413.60	55.899
413.96	55.009
414.31	55.346
414.67	55.323
415.03	56.026
415.38	55.735
415.74	55.434
416.09	56.042
416.45	55.957
416.80	56.444
417.16	57.306
417.51	56.536
417.87	56.390
418.22	57.539
418.58	56.553
418.93	56.572
419.29	56.334
419.64	56.486
420.00	56.280
420.35	54.841
420.71	55.649
421.06	55.310
421.42	54.912
421.77	56.110
422.12	55.531
422.48	55.855
422.83	56.203
423.19	56.188
423.54	55.659
423.90	55.826
424.25	55.276
424.61	55.714
424.96	56.793
425.31	56.866
425.67	55.000
426.02	55.143
426.38	56.349
426.73	56.290
427.09	56.960
427.44	55.952
427.79	55.607
428.15	55.774
428.50	55.998
428.85	56.555
429.21	55.881
429.56	55.521
429.92	56.115
430.27	55.065
430.62	54.224
430.98	55.475
431.33	54.124
431.68	55.864
432.04	54.792
432.39	56.425
432.74	56.852
433.10	56.593
433.45	56.035
433.80	56.375
434.16	56.357
434.51	54.684
434.86	56.271
435.22	56.476
435.57	57.386
435.92	56.056
436.28	57.533
436.63	57.395
436.98	56.039
437.34	56.768
437.69	57.176
438.04	56.942
438.39	57.015
438.75	57.002
439.10	56.816
439.45	56.021
439.81	57.462
440.16	56.522
440.51	56.532
440.86	57.325
441.22	56.118
441.57	56.900
441.92	56.448
442.27	57.104
442.63	56.029
442.98	58.479
443.33	54.783
443.68	56.014
444.03	56.076
444.39	55.599
444.74	56.439
445.09	56.280
445.44	56.096
445.79	55.121
446.15	56.750
446.50	56.489
446.85	56.423
447.20	56.247
447.55	56.337
447.91	56.977
448.26	56.761
448.61	56.812
448.96	56.312
449.31	56.637
449.66	56.500
450.02	56.156
450.37	55.612
450.72	56.458
451.07	56.673
451.42	56.474
451.77	56.136
452.12	57.044
452.47	56.343
452.83	56.818
453.18	56.601
453.53	57.514
453.88	57.295
454.23	57.741
454.58	57.238
454.93	58.487
455.28	57.606
455.63	57.282
455.98	58.988
456.34	56.344
456.69	57.295
457.04	58.700
457.39	56.049
457.74	58.677
458.09	55.894
458.44	56.727
458.79	55.911
459.14	56.264
459.49	57.268
459.84	55.900
460.19	56.688
460.54	54.340
460.89	56.061
461.24	57.498
461.59	57.583
461.94	56.227
462.29	57.211
462.64	56.605
462.99	55.433
463.34	56.667
463.69	58.161
464.04	56.406
464.39	56.232
464.74	55.556
465.09	56.755
465.44	56.676
465.79	56.376
466.14	54.570
466.49	54.672
466.84	55.867
467.19	56.548
467.54	56.500
467.89	56.182
468.24	56.021
468.59	56.349
468.94	54.307
469.29	55.463
469.64	58.434
469.99	56.428
470.34	56.077
470.68	58.477
471.03	57.483
471.38	58.304
471.73	56.496
472.08	56.447
472.43	56.156
472.78	55.826
473.13	55.584
473.48	56.742
473.83	55.793
474.17	56.005
474.52	56.886
474.87	56.334
475.22	55.078
475.57	54.917
475.92	55.284
476.27	56.483
476.61	55.433
476.96	56.020
477.31	54.369
477.66	55.689
478.01	54.783
478.36	55.473
478.70	55.348
479.05	55.325
479.40	54.913
479.75	56.177
480.10	55.915
480.45	54.022
480.79	54.754
481.14	54.795
481.49	54.865
481.84	54.778
482.19	54.339
482.53	54.771
482.88	53.886
483.23	54.813
483.58	54.186
483.92	55.014
484.27	53.420
484.62	55.517
484.97	54.040
485.31	56.096
485.66	54.671
486.01	52.063
486.36	49.146
486.70	48.591
487.05	49.188
487.40	51.175
487.75	50.931
488.09	52.260
488.44	52.001
488.79	54.430
489.13	53.858
489.48	54.201
489.83	53.388
490.17	54.888
490.52	53.499
490.87	54.862
491.22	53.615
491.56	54.169
491.91	54.025
492.26	52.871
492.60	53.733
492.95	53.274
493.30	52.991
493.64	54.036
493.99	52.925
494.34	52.821
494.68	54.258
495.03	54.135
495.37	52.629
495.72	54.045
496.07	53.828
496.41	53.142
496.76	53.958
497.11	52.454
497.45	53.144
497.80	53.263
498.14	52.705
498.49	53.463
498.84	54.506
499.18	53.571
499.53	53.799
499.87	54.520
500.22	52.991
500.56	54.466
500.91	52.452
501.26	53.106
501.60	54.248
501.95	52.154
502.29	53.843
502.64	53.771
502.98	53.436
503.33	53.062
503.67	52.390
504.02	53.087
504.36	52.504
504.71	53.395
505.06	53.446
505.40	51.774
505.75	52.073
506.09	52.527
506.44	53.429
506.78	52.898
507.13	53.862
507.47	52.727
507.82	53.495
508.16	53.850
508.51	53.729
508.85	52.632
509.19	53.010
509.54	52.755
509.88	53.168
510.23	54.087
510.57	54.902
510.92	53.081
511.26	52.055
511.61	53.838
511.95	52.401
512.30	53.234
512.64	54.379
512.98	53.966
513.33	53.212
513.67	52.615
514.02	52.056
514.36	54.233
514.70	52.905
515.05	53.318
515.39	53.225
515.74	53.491
516.08	53.102
516.42	53.774
516.77	54.181
517.11	52.497
517.46	52.765
517.80	54.239
518.14	53.619
518.49	54.434
518.83	54.318
519.17	53.695
519.52	53.933
519.86	53.793
520.20	54.277
520.55	54.698
520.89	54.866
521.23	55.187
521.58	54.202
521.92	55.297
522.26	52.166
522.61	55.514
522.95	53.959
523.29	54.230
523.64	55.000
523.98	54.652
524.32	53.981
524.66	53.758
525.01	54.718
525.35	52.850
525.69	54.372
526.04	54.206
526.38	53.081
526.72	53.620
527.06	54.865
527.41	52.290
527.75	54.469
528.09	55.363
528.43	54.748
528.78	53.780
529.12	52.727
529.46	53.705
529.80	54.084
530.15	53.396
530.49	51.938
530.83	53.544
531.17	55.287
531.51	54.475
531.86	53.548
532.20	54.107
532.54	53.940
532.88	53.915
533.22	53.467
533.57	53.086
533.91	52.679
534.25	53.341
534.59	53.569
534.93	51.993
535.27	52.806
535.62	52.930
535.96	53.986
536.30	52.829
536.64	52.415
536.98	55.474
537.32	52.798
537.66	52.933
538.01	53.325
538.35	53.458
538.69	53.159
539.03	52.307
539.37	52.524
539.71	52.366
540.05	53.072
540.39	52.492
540.73	51.682
541.07	53.277
541.42	53.359
541.76	52.710
542.10	52.393
542.44	52.914
542.78	53.887
543.12	50.608
543.46	53.639
543.80	52.375
544.14	51.990
544.48	52.698
544.82	52.341
545.16	53.611
545.50	51.799
545.84	52.151
546.18	52.525
546.52	52.925
546.86	52.921
547.20	52.798
547.54	53.507
547.88	53.253
548.22	51.183
548.56	51.950
548.90	52.113
549.24	52.727
549.58	52.660
549.92	52.610
550.26	53.622
550.60	52.905
550.94	53.662
551.28	52.597
551.62	52.193
551.96	53.263
552.30	52.901
552.64	53.076
552.98	52.678
553.32	51.315
553.66	53.647
554.00	52.505
554.34	51.760
554.68	53.147
555.02	51.763
555.36	52.958
555.69	51.083
556.03	52.557
556.37	51.432
556.71	52.046
557.05	52.731
557.39	52.344
557.73	51.658
558.07	54.677
558.41	52.098
558.75	53.417
559.08	52.722
559.42	53.364
559.76	51.544
560.10	51.820
560.44	52.201
560.78	50.499
561.12	52.243
561.45	51.304
561.79	50.560
562.13	52.649
562.47	51.844
562.81	52.232
563.15	51.304
563.48	51.525
563.82	52.316
564.16	50.098
564.50	50.586
564.84	50.379
565.17	52.960
565.51	51.182
565.85	50.888
566.19	51.346
566.52	52.185
566.86	51.115
567.20	51.592
567.54	50.742
567.88	49.647
568.21	49.788
568.55	49.191
568.89	48.930
569.23	49.287
569.56	47.530
569.90	48.038
570.24	47.650
570.57	47.501
570.91	45.572
571.25	45.954
571.59	46.186
571.92	45.795
572.26	45.638
572.60	46.336
572.93	45.907
573.27	46.022
573.61	45.310
573.95	46.150
574.28	45.930
574.62	44.752
574.96	44.636
575.29	45.053
575.63	44.741
575.97	44.650
576.30	45.114
576.64	45.691
576.98	45.114
577.31	44.848
577.65	45.320
577.98	44.331
578.32	44.023
578.66	43.774
578.99	44.533
579.33	44.009
579.67	44.515
580.00	45.217
580.34	45.064
580.67	44.718
581.01	44.862
581.35	44.222
581.68	44.504
582.02	43.764
582.35	44.159
582.69	43.794
583.02	43.545
583.36	44.524
583.70	45.280
584.03	45.455
584.37	45.534
584.70	45.611
585.04	44.545
585.37	44.944
585.71	44.361
586.04	44.455
586.38	45.455
586.72	45.374
587.05	45.124
587.39	45.172
587.72	45.117
588.06	44.584
588.39	45.130
588.73	45.175
589.06	46.588
589.40	46.599
589.73	46.779
590.07	46.477
590.40	45.524
590.73	45.433
591.07	47.334
591.40	45.888
591.74	47.403
592.07	47.339
592.41	46.838
592.74	46.592
593.08	45.370
593.41	45.239
593.75	44.472
594.08	45.256
594.41	45.316
594.75	46.026
595.08	45.562
595.42	45.289
595.75	46.118
596.09	45.663
596.42	46.208
596.75	46.602
597.09	46.320
597.42	45.363
597.75	47.391
598.09	46.348
598.42	45.662
598.76	44.670
599.09	45.382
599.42	44.833
599.76	44.546
600.09	45.173
600.42	44.741
600.76	44.179
601.09	45.027
601.42	45.738
601.76	45.427
602.09	45.138
602.42	45.900
602.76	45.990
603.09	45.948
603.42	46.193
603.76	45.312
604.09	44.591
604.42	45.781
604.76	46.394
605.09	45.609
605.42	45.276
605.75	45.613
606.09	45.832
606.42	46.056
606.75	45.209
607.09	45.458
607.42	45.828
607.75	44.430
608.08	46.374
608.42	45.988
608.75	45.221
609.08	44.912
609.41	45.121
609.75	45.355
610.08	45.806
610.41	45.484
610.74	46.405
611.07	47.579
611.41	45.486
611.74	47.109
612.07	47.723
612.40	46.695
612.73	47.105
613.07	47.845
613.40	47.130
613.73	45.254
614.06	47.688
614.39	45.674
614.72	46.421
615.06	45.746
615.39	45.966
615.72	46.268
616.05	45.667
616.38	47.026
616.71	47.803
617.05	46.525
617.38	46.843
617.71	46.847
618.04	48.137
618.37	46.718
618.70	47.293
619.03	48.947
619.36	48.676
619.69	49.085
620.03	49.451
620.36	48.128
620.69	48.082
621.02	47.419
621.35	48.708
621.68	48.676
622.01	49.303
622.34	48.790
622.67	49.049
623.00	47.909
623.33	47.820
623.66	48.463
623.99	49.190
624.32	48.359
624.65	48.093
624.99	47.025
625.32	46.995
625.65	49.136
625.98	48.194
626.31	49.145
626.64	49.878
626.97	50.291
627.30	50.291
627.63	49.139
627.96	50.126
628.29	49.519
628.62	49.588
628.95	52.925
629.28	50.547
629.61	51.421
629.94	52.095
630.26	50.810
630.59	49.762
630.92	50.479
631.25	50.839
631.58	49.449
631.91	50.710
632.24	50.105
632.57	51.626
632.90	51.974
633.23	51.342
633.56	52.203
633.89	52.888
634.22	52.327
634.55	54.320
634.88	52.814
635.20	54.361
635.53	52.410
635.86	52.970
636.19	49.882
636.52	52.364
636.85	52.005
637.18	50.230
637.51	52.364
637.83	49.568
638.16	53.836
638.49	51.889
638.82	52.718
639.15	52.625
639.48	53.242
639.81	55.228
640.13	51.172
640.46	53.423
640.79	53.501
641.12	52.957
641.45	53.212
641.77	56.112
642.10	55.556
642.43	55.706
642.76	54.954
643.09	55.828
643.41	55.690
643.74	57.562
644.07	54.116
644.40	56.442
644.73	56.220
645.05	56.894
645.38	52.765
645.71	51.530
646.04	55.316
646.36	57.930
646.69	56.522
647.02	55.782
647.35	57.045
647.67	58.230
648.00	54.146
648.33	53.795
648.66	51.212
648.98	53.523
649.31	52.466
649.64	51.719
649.96	55.738
650.29	52.449
650.62	51.456
650.94	53.160
651.27	55.912
651.60	55.075
651.92	54.952
652.25	53.094
652.58	52.336
652.90	53.081
653.23	52.080
653.56	53.701
653.88	52.773
654.21	53.081
654.54	53.795
654.86	53.894
655.19	50.676
655.52	38.135
655.84	35.796
656.17	45.708
656.49	61.044
656.82	61.170
657.15	45.370
657.47	34.012
657.80	26.321
658.13	27.721
658.45	41.356
658.78	41.423
659.10	43.605
659.43	45.235
659.75	47.789
660.08	50.633
660.41	54.935
660.73	57.306
661.06	56.051
661.38	58.545
661.71	58.077
662.03	56.805
662.36	53.479
662.68	53.012
663.01	54.545
663.33	59.023
663.66	55.672
663.98	54.644
664.31	58.824
664.63	56.275
664.96	53.722
665.28	58.402
665.61	52.827
665.93	52.113
666.26	54.564
666.58	56.067
666.91	58.140
667.23	58.652
667.56	54.644
667.88	55.983
668.21	54.584
668.53	53.362
668.86	55.195
669.18	57.783
669.50	56.304
669.83	57.516
670.15	56.000
670.48	56.645
670.80	56.466
671.13	57.325
671.45	54.894
671.77	54.990
672.10	53.974
672.42	53.534
672.75	51.078
673.07	51.408
673.39	52.622
673.72	56.055
674.04	52.353
674.37	52.233
674.69	53.988
675.01	54.812
675.34	54.415
675.66	56.842
675.98	54.582
676.31	55.252
676.63	53.715
676.95	57.023
677.28	55.140
677.60	56.703
677.92	53.797
678.25	52.977
678.57	53.386
678.89	54.709
679.22	51.277
679.54	53.244
679.86	52.844
680.18	52.594
680.51	54.433
680.83	52.313
681.15	54.906
681.48	53.875
681.80	51.257
682.12	52.874
682.44	51.064
682.77	53.768
683.09	56.652
683.41	53.215
683.73	55.408
684.06	52.479
684.38	53.033
684.70	54.457
685.02	51.220
685.34	52.930
685.67	50.350
685.99	49.828
686.31	49.488
686.63	50.000
686.96	50.536
687.28	48.917
687.60	51.449
687.92	52.834
688.24	51.901
688.56	53.213
688.89	53.734
689.21	55.240
689.53	52.610
689.85	55.654
690.17	50.518
690.49	53.503
690.82	54.439
691.14	53.348
691.46	50.633
691.78	51.807
692.10	54.132
692.42	53.094
692.74	51.867
693.06	53.191
693.39	53.593
693.71	52.620
694.03	51.368
694.35	50.649
694.67	51.945
694.99	55.610
695.31	54.902
695.63	53.589
695.95	58.191
696.27	58.629
696.59	53.627
696.91	53.109
697.23	51.174
697.56	53.092
697.88	50.511
698.20	50.000
698.52	50.968
698.84	51.893
699.16	53.456
699.48	52.019
699.80	54.348
700.12	60.519
700.44	55.438
700.76	53.039
701.08	58.333
701.40	55.307
701.72	61.516
702.04	61.932
702.36	54.108
702.68	54.108
703.00	54.848
703.32	55.851
703.64	53.351
703.96	55.432
704.28	55.233
704.60	58.944
704.91	59.050
705.23	55.718
705.55	58.804
705.87	60.133
706.19	60.071
706.51	57.009
706.83	56.364
707.15	58.543
707.47	51.768
707.79	52.580
708.11	50.457
708.43	50.952
708.74	54.337
709.06	53.247
709.38	54.593
709.70	56.686
710.02	55.193
710.34	57.879
710.66	56.418
710.98	54.261
711.29	57.267
711.61	59.292
711.93	55.769
712.25	60.772
712.57	65.441
712.89	57.093
713.20	52.280
713.52	56.250
713.84	53.797
714.16	57.622
714.48	54.023
714.80	55.623
715.11	52.738
715.43	55.490
715.75	56.812
716.07	52.396
716.39	55.172
716.70	54.485
717.02	56.835
717.34	53.357
717.66	60.821
717.97	63.745
718.29	63.333
718.61	57.664
718.93	61.397
719.24	59.516
719.56	54.237
719.88	57.966
720.20	60.135
720.51	55.749
720.83	59.480
721.15	56.716
721.46	55.319
721.78	63.441
722.10	62.264
722.42	61.654
722.73	55.431
723.05	63.115
723.37	59.109
723.68	57.529
724.00	60.976
724.32	65.323
724.63	56.504
724.95	59.833
725.27	62.348
725.58	59.375
725.90	57.664
726.22	56.981
726.53	54.861
726.85	54.608
727.16	58.363
727.48	56.028
727.80	55.303
728.11	55.072
728.43	56.923
728.74	58.781
729.06	56.569
729.38	58.088
729.69	54.804
730.01	53.584
730.32	53.472
730.64	55.184
730.96	49.175
731.27	58.609
731.59	54.434
731.90	49.563
732.22	52.174
732.53	49.226
732.85	52.244
733.16	51.125
733.48	54.817
733.80	53.247
734.11	55.732
734.43	50.296
734.74	48.857
735.06	51.576
735.37	55.202
735.69	53.503
736.00	54.902
736.32	53.271
736.63	46.965
736.95	53.355
737.26	49.320
737.58	49.032
737.89	53.846
738.21	59.044
738.52	53.929
738.83	56.226
739.15	54.615
739.46	57.664
739.78	56.250
740.09	51.692
740.41	50.968
740.72	51.220
741.04	54.444
741.35	52.500
741.66	67.556
741.98	59.434
742.29	62.201
742.61	56.034
742.92	61.991
743.23	59.402
743.55	57.600
743.86	57.456
744.18	60.177
744.49	64.115
744.80	62.911
745.12	60.909
745.43	58.590
745.74	66.216
746.06	57.798
746.37	62.332
746.68	57.919
747.00	57.870
747.31	58.571
747.62	56.195
747.94	53.304
748.25	54.894
748.56	64.317
748.88	60.396
749.19	65.500
749.50	58.140
749.82	58.943
750.13	51.020
750.44	52.920
750.75	55.088
751.07	53.698
751.38	56.794
751.69	53.430
752.01	55.639
752.32	54.513
752.63	54.610
752.94	60.246
753.26	58.400
753.57	52.439
753.88	57.422
754.19	54.286
754.51	53.819
754.82	52.347
755.13	55.472
755.44	56.391
755.75	51.460
756.07	51.064
756.38	49.635
756.69	53.356
757.00	51.497
757.31	45.994
757.63	49.123
757.94	46.649
758.25	44.118
758.56	45.432
758.87	50.000
759.18	44.848
759.50	47.022
759.81	48.598
760.12	45.000
760.43	50.430
760.74	46.739
761.05	48.305
761.36	47.059
761.67	47.443
761.99	46.584
762.30	50.694
762.61	49.618
762.92	56.250
763.23	55.462
763.54	57.600
763.85	53.125
764.16	52.308
764.47	54.753
764.78	44.523
765.10	43.671
765.41	48.968
765.72	49.102
766.03	46.082
766.34	46.333
766.65	57.021
766.96	53.846
767.27	62.944
767.58	60.417
767.89	66.316
768.20	66.092
768.51	55.838
768.82	57.798
769.13	52.033
769.44	48.583
769.75	52.361
770.06	55.963
770.37	59.276
770.68	59.722
770.99	56.444
771.30	49.590
771.61	56.054
771.92	53.689
772.23	54.622
772.54	60.000
772.85	56.545
773.16	56.383
773.47	61.957
773.78	62.437
774.09	60.119
774.39	63.743
774.70	62.346
775.01	75.362
775.32	74.510
775.63	71.053
775.94	72.662
776.25	79.528
776.56	71.642
776.87	80.328
777.18	67.187
777.48	70.992
777.79	70.455
778.10	68.148
778.41	78.571
778.72	64.964
779.03	63.758
779.34	69.128
779.65	60.811
779.95	68.098
780.26	71.895
780.57	69.655
780.88	78.906
781.19	69.925
781.50	62.838
781.80	65.409
782.11	57.627
782.42	56.329
782.73	62.577
783.04	62.162
783.34	69.014
783.65	71.918
783.96	83.582
784.27	70.629
784.57	67.626
784.88	79.630
785.19	73.016
785.50	77.358
785.81	74.627
786.11	74.590
786.42	71.318
786.73	86.726
787.04	82.075
787.34	80.357
787.65	97.000
787.96	71.171
788.26	73.554
788.57	83.898
788.88	73.554
789.19	70.139
789.49	83.333
789.80	60.305
790.11	83.810
790.41	81.188
790.72	93.976
791.03	86.957
791.33	75.581
791.64	80.412
791.95	94.059
792.25	88.889
792.56	94.805
792.87	110.256
793.17	98.734
793.48	87.356
793.79	89.655
794.09	96.591
794.40	73.109
794.70	71.324
795.01	69.630
795.32	73.381
795.62	66.142
795.93	76.724
796.23	77.876
796.54	77.647
796.85	91.892
797.15	105.634
797.46	93.939
797.76	87.952
798.07	92.405
798.37	86.154
798.68	98.485
798.99	85.915
799.29	81.818
799.60	80.682
799.90	108.219
800.21	102.985
800.51	113.793
800.82	121.053
801.12	104.918
801.43	107.576
801.73	95.946
802.04	104.762
802.34	104.938
802.65	100.000
802.95	116.949
803.26	109.375
803.56	85.714
803.87	83.077
804.17	100.000
804.48	135.185
804.78	101.724
805.09	100.000
805.39	121.154
805.70	101.786
806.00	118.033
806.30	101.515
806.61	90.244
806.91	101.266
807.22	102.632
807.52	83.582
807.83	95.775
808.13	96.875
808.43	108.333
808.74	82.895
809.04	115.942
809.35	108.955
809.65	94.737
809.95	133.871
810.26	103.390
810.56	90.476
810.86	159.091
811.17	154.762
811.47	133.333
811.77	116.667
812.08	129.091
812.38	134.000
812.69	180.556
812.99	165.909
813.29	136.735
813.59	130.952
813.90	148.980
814.20	125.455
814.50	104.615
814.81	105.882
815.11	126.531
815.41	113.115
815.72	173.810
816.02	110.909
816.32	157.143
816.62	167.500
816.93	148.780
817.23	164.286
817.53	131.818
817.84	196.970
818.14	132.609
818.44	113.333
818.74	170.588
819.04	132.500
819.35	137.143
819.65	185.294
819.95	185.714
820.25	275.000
820.56	169.231
820.86	156.818
821.16	130.233
821.46	117.949
821.76	146.000
822.07	154.286
822.37	152.500
822.67	157.576
822.97	117.647
823.27	225.000
823.57	175.676
823.88	177.500
824.18	210.000
824.48	180.952
824.78	240.000
825.08	179.167
825.38	156.757
825.69	151.220
825.99	254.167
826.29	162.069
826.59	152.632
826.89	152.632
827.19	170.588
827.49	164.516
827.79	172.727
828.09	159.091
828.39	112.766
828.70	130.612
829.00	207.407
829.30	183.871
829.60	132.500
829.90	286.667
830.20	175.000
830.50	204.348
830.80	230.435
831.10	193.333
831.40	186.667
831.70	200.000
832.00	219.231
832.30	203.704
832.60	243.750
832.90	213.333
833.20	400.000
833.50	164.516
833.80	175.862
834.10	193.750
834.40	226.923
834.70	300.000
835.00	328.571
835.30	151.429
835.60	323.077
835.90	244.828
836.20	292.857
836.50	196.552
836.80	192.000
837.10	169.444
837.40	295.238
837.70	294.118
838.00	200.000
838.30	238.095
838.60	252.381
838.90	203.846
839.19	250.000
839.49	350.000
839.79	295.000
840.09	305.000
840.39	261.905
840.69	295.652
840.99	277.778
841.29	480.000
841.59	400.000
841.88	312.500
842.18	175.862
842.48	238.095
842.78	190.000
843.08	273.913
843.38	168.750
843.68	833.333
843.97	207.692
844.27	193.103
844.57	266.667
844.87	343.750
845.17	240.741
845.47	1833.333
845.76	533.333
846.06	270.588
846.36	512.500
846.66	342.857
846.96	225.000
847.25	490.909
847.55	427.273
847.85	247.826
848.15	560.000
848.44	321.429
848.74	261.111
849.04	335.294
849.34	550.000
849.63	242.105
849.93	427.273
850.23	1060.000
850.53	385.714
850.82	2250.000
851.12	-4400.000
851.42	4000.000
851.71	265.000
852.01	-1500.000
852.31	266.667
852.61	1533.333
852.90	238.095
853.20	200.000
853.50	358.824
853.79	285.714
854.09	208.333
854.39	306.250
854.68	170.270
854.98	170.968
855.28	153.333
855.57	220.690
855.87	192.593
856.17	278.947
856.46	353.333
856.76	264.706
857.05	189.655
857.35	283.333
857.65	360.000
857.94	217.391
858.24	207.692
858.53	295.000
858.83	218.182
859.13	366.667
859.42	0.000
859.72	500.000
860.01	436.364
860.31	272.727
860.60	247.368
860.90	230.435
861.20	511.111
861.49	450.000
861.79	-4300.000
862.08	575.000
862.38	295.238
862.67	330.769
862.97	311.765
863.26	500.000
863.56	255.556
863.85	433.333
864.15	487.500
864.44	333.333
864.74	916.667
865.03	575.000
865.33	294.737
865.62	454.545
865.92	446.154
866.21	416.667
866.51	0.000
866.80	500.000
867.10	1160.000
867.39	415.385
867.69	363.636
867.98	268.421
868.27	445.455
868.57	268.421
868.86	-5300.000
869.16	387.500
869.45	2050.000
869.75	-4100.000
870.04	383.333
870.33	614.286
870.63	1075.000
870.92	2550.000
871.22	685.714
871.51	347.059
871.80	219.048
872.10	321.429
>>>>>End Processed Spectral Data<<<<<
