SpectraSuite Data File
++++++++++++++++++++++++++++++++++++
Date: Wed May 13 16:29:11 PDT 2015
User: schluterlab
Dark Spectrum Present: Yes
Reference Spectrum Present: Yes
Number of Sampled Component Spectra: 1
Spectrometers: USB2E3373
Integration Time (usec): 3000 (USB2E3373)
Spectra Averaged: 3 (USB2E3373)
Boxcar Smoothing: 0 (USB2E3373)
Correct for Electrical Dark: No (USB2E3373)
Strobe/Lamp Enabled: No (USB2E3373)
Correct for Detector Non-linearity: No (USB2E3373)
Correct for Stray Light: No (USB2E3373)
Number of Pixels in Processed Spectrum: 2048
>>>>>Begin Processed Spectral Data<<<<<
178.53	0.000
178.91	-1450.000
179.29	-900.000
179.67	-222.222
180.04	-1125.000
180.42	2900.000
180.80	1020.000
181.18	-900.000
181.56	628.571
181.94	0.000
182.31	-542.857
182.69	1533.333
183.07	-587.500
183.45	-511.111
183.83	490.909
184.20	-310.000
184.58	2000.000
184.96	3700.000
185.34	-760.000
185.72	-425.000
186.09	-2250.000
186.47	2850.000
186.85	2500.000
187.23	5100.000
187.61	-1566.667
187.98	1225.000
188.36	545.455
188.74	390.909
189.12	-900.000
189.49	530.000
189.87	-4000.000
190.25	-1125.000
190.63	292.857
191.00	361.538
191.38	733.333
191.76	-925.000
192.14	1525.000
192.51	587.500
192.89	716.667
193.27	412.500
193.65	-1225.000
194.02	490.000
194.40	740.000
194.78	480.000
195.15	458.333
195.53	590.000
195.91	-2250.000
196.29	306.250
196.66	284.211
197.04	-350.000
197.42	0.000
197.79	560.000
198.17	-3900.000
198.55	514.286
198.92	587.500
199.30	880.000
199.68	0.000
200.05	294.444
200.43	685.714
200.81	4100.000
201.18	1466.667
201.56	-1433.333
201.94	488.889
202.31	422.222
202.69	383.333
203.07	490.000
203.44	0.000
203.82	1125.000
204.19	728.571
204.57	428.571
204.95	587.500
205.32	1533.333
205.70	490.909
206.08	321.429
206.45	2250.000
206.83	262.500
207.20	1000.000
207.58	820.000
207.96	250.000
208.33	687.500
208.71	-733.333
209.08	814.286
209.46	555.556
209.84	445.455
210.21	-1533.333
210.59	1350.000
210.96	-462.500
211.34	2500.000
211.71	540.000
212.09	666.667
212.46	0.000
212.84	1766.667
213.22	1075.000
213.59	-3900.000
213.97	683.333
214.34	914.286
214.72	509.091
215.09	800.000
215.47	-2300.000
215.84	-2550.000
216.22	1500.000
216.59	342.857
216.97	1275.000
217.34	509.091
217.72	-600.000
218.09	0.000
218.47	-4300.000
218.84	644.444
219.22	685.714
219.59	1633.333
219.97	-657.143
220.34	780.000
220.72	-1466.667
221.09	414.286
221.47	1300.000
221.84	-700.000
222.22	0.000
222.59	1200.000
222.97	-2150.000
223.34	1100.000
223.72	361.538
224.09	940.000
224.46	2200.000
224.84	-4000.000
225.21	-760.000
225.59	-5200.000
225.96	520.000
226.34	310.000
226.71	2350.000
227.08	612.500
227.46	540.000
227.83	-850.000
228.21	-2200.000
228.58	566.667
228.95	-2550.000
229.33	-2500.000
229.70	1566.667
230.08	657.143
230.45	-720.000
230.82	475.000
231.20	750.000
231.57	614.286
231.95	425.000
232.32	177.273
232.69	445.455
233.07	642.857
233.44	346.154
233.81	-1500.000
234.19	273.684
234.56	450.000
234.93	333.333
235.31	454.545
235.68	323.077
236.05	250.000
236.43	169.697
236.80	268.421
237.17	4700.000
237.55	209.524
237.92	182.143
238.29	209.524
238.67	145.161
239.04	179.310
239.41	138.889
239.79	113.043
240.16	128.571
240.53	111.364
240.91	96.078
241.28	86.000
241.65	88.000
242.02	88.406
242.40	69.355
242.77	73.333
243.14	59.140
243.51	52.809
243.89	58.824
244.26	53.333
244.63	55.914
245.00	42.553
245.38	46.535
245.75	49.533
246.12	48.624
246.49	46.715
246.87	51.200
247.24	46.923
247.61	39.286
247.98	37.908
248.36	35.811
248.73	35.669
249.10	31.847
249.47	33.898
249.84	33.690
250.22	28.877
250.59	30.769
250.96	30.303
251.33	30.332
251.70	32.673
252.08	28.095
252.45	22.870
252.82	26.087
253.19	29.362
253.56	29.020
253.94	26.971
254.31	23.047
254.68	28.846
255.05	24.354
255.42	23.577
255.79	25.000
256.16	26.354
256.54	20.848
256.91	23.488
257.28	19.784
257.65	20.792
258.02	22.050
258.39	24.606
258.76	23.411
259.14	19.940
259.51	18.237
259.88	14.907
260.25	22.054
260.62	21.387
260.99	19.255
261.36	19.820
261.73	20.057
262.10	17.151
262.47	18.592
262.85	20.056
263.22	16.809
263.59	20.228
263.96	19.780
264.33	18.799
264.70	18.158
265.07	17.903
265.44	17.424
265.81	17.762
266.18	18.090
266.55	18.293
266.92	18.428
267.29	18.056
267.66	16.514
268.03	17.273
268.40	17.523
268.77	15.752
269.14	18.919
269.51	18.962
269.88	16.783
270.25	18.284
270.62	14.382
270.99	16.989
271.36	16.524
271.73	16.121
272.10	15.870
272.47	16.344
272.84	17.100
273.21	15.933
273.58	15.502
273.95	14.885
274.32	16.736
274.69	15.846
275.06	14.764
275.43	16.809
275.80	15.631
276.17	15.071
276.54	16.216
276.91	13.043
277.28	15.039
277.65	15.861
278.02	14.700
278.39	17.187
278.76	16.364
279.13	15.660
279.50	16.015
279.87	16.534
280.23	12.974
280.60	14.120
280.97	14.787
281.34	16.106
281.71	16.545
282.08	15.355
282.45	15.091
282.82	14.210
283.19	12.656
283.56	14.737
283.92	13.536
284.29	13.933
284.66	14.882
285.03	14.105
285.40	12.852
285.77	13.300
286.14	12.608
286.51	15.000
286.87	13.333
287.24	14.495
287.61	13.162
287.98	14.773
288.35	13.312
288.72	13.084
289.08	13.459
289.45	13.180
289.82	14.309
290.19	11.617
290.56	11.639
290.93	9.970
291.29	11.810
291.66	12.242
292.03	15.262
292.40	13.803
292.77	12.574
293.13	12.090
293.50	11.662
293.87	12.000
294.24	11.407
294.60	13.392
294.97	12.355
295.34	12.694
295.71	11.506
296.08	10.969
296.44	11.142
296.81	10.568
297.18	12.737
297.55	9.235
297.91	12.401
298.28	12.316
298.65	12.402
299.02	10.540
299.38	9.695
299.75	9.838
300.12	10.089
300.48	11.000
300.85	10.851
301.22	10.955
301.59	9.596
301.95	9.950
302.32	10.013
302.69	10.992
303.05	9.576
303.42	9.259
303.79	9.853
304.15	8.741
304.52	9.386
304.89	8.595
305.25	9.861
305.62	10.985
305.99	9.327
306.35	8.725
306.72	9.305
307.09	9.989
307.45	11.712
307.82	8.371
308.19	9.934
308.55	10.572
308.92	9.989
309.29	10.032
309.65	9.438
310.02	9.091
310.38	9.032
310.75	8.765
311.12	8.598
311.48	9.509
311.85	10.377
312.22	9.886
312.58	9.252
312.95	9.926
313.31	8.350
313.68	9.356
314.05	10.552
314.41	9.849
314.78	10.070
315.14	9.732
315.51	9.475
315.87	9.307
316.24	9.732
316.61	9.357
316.97	9.002
317.34	8.219
317.70	9.560
318.07	10.876
318.43	9.393
318.80	11.434
319.16	9.040
319.53	9.193
319.89	10.667
320.26	10.200
320.62	10.020
320.99	11.212
321.35	10.404
321.72	10.883
322.08	11.846
322.45	11.642
322.81	11.047
323.18	11.368
323.54	11.688
323.91	11.604
324.27	10.325
324.64	9.413
325.00	9.288
325.37	12.375
325.73	10.503
326.10	10.062
326.46	11.111
326.83	11.907
327.19	11.443
327.56	10.627
327.92	10.936
328.29	11.801
328.65	12.155
329.01	10.560
329.38	11.008
329.74	11.450
330.11	10.933
330.47	12.489
330.84	12.040
331.20	11.840
331.56	11.743
331.93	10.185
332.29	11.358
332.66	12.478
333.02	10.878
333.38	11.743
333.75	11.765
334.11	11.299
334.48	11.269
334.84	11.121
335.20	12.000
335.57	11.695
335.93	10.357
336.29	10.989
336.66	12.173
337.02	10.950
337.38	11.759
337.75	11.230
338.11	11.728
338.47	10.958
338.84	11.641
339.20	10.367
339.56	12.226
339.93	10.909
340.29	10.054
340.65	10.963
341.02	11.780
341.38	11.744
341.74	11.667
342.11	11.092
342.47	11.718
342.83	11.216
343.20	11.602
343.56	11.289
343.92	11.842
344.28	11.224
344.65	11.350
345.01	11.027
345.37	10.292
345.73	11.252
346.10	10.997
346.46	11.864
346.82	11.532
347.19	10.693
347.55	11.084
347.91	10.922
348.27	12.572
348.63	10.953
349.00	11.165
349.36	11.002
349.72	12.029
350.08	11.183
350.45	11.554
350.81	11.779
351.17	10.940
351.53	11.138
351.89	10.231
352.26	10.892
352.62	11.548
352.98	11.426
353.34	10.764
353.70	10.556
354.07	10.242
354.43	11.111
354.79	11.504
355.15	11.093
355.51	11.031
355.87	11.592
356.24	11.075
356.60	10.746
356.96	10.539
357.32	10.957
357.68	12.126
358.04	11.481
358.40	11.560
358.77	11.737
359.13	10.576
359.49	10.118
359.85	8.889
360.21	10.128
360.57	10.817
360.93	11.385
361.29	11.338
361.66	9.752
362.02	10.224
362.38	11.787
362.74	11.607
363.10	10.437
363.46	10.638
363.82	10.658
364.18	12.115
364.54	12.259
364.90	11.615
365.26	10.441
365.62	11.760
365.98	10.738
366.35	10.100
366.71	11.569
367.07	11.143
367.43	11.393
367.79	11.777
368.15	11.710
368.51	10.828
368.87	11.064
369.23	10.680
369.59	11.586
369.95	10.735
370.31	11.538
370.67	11.159
371.03	12.959
371.39	11.808
371.75	11.250
372.11	11.807
372.47	13.343
372.83	12.464
373.19	11.994
373.55	11.530
373.91	12.666
374.27	11.271
374.63	11.200
374.99	11.935
375.35	11.375
375.71	10.692
376.07	12.209
376.42	11.554
376.78	12.790
377.14	11.533
377.50	12.185
377.86	11.769
378.22	11.757
378.58	10.652
378.94	11.502
379.30	11.260
379.66	12.056
380.02	12.469
380.38	11.840
380.74	12.845
381.09	12.775
381.45	12.907
381.81	12.469
382.17	13.694
382.53	12.264
382.89	12.407
383.25	11.695
383.61	12.825
383.97	13.133
384.32	13.163
384.68	12.949
385.04	12.723
385.40	12.198
385.76	12.715
386.12	13.148
386.48	13.090
386.83	12.572
387.19	13.482
387.55	13.296
387.91	12.636
388.27	13.059
388.62	12.846
388.98	12.531
389.34	13.892
389.70	13.243
390.06	14.385
390.42	13.294
390.77	13.868
391.13	13.210
391.49	14.086
391.85	13.431
392.20	12.871
392.56	13.258
392.92	14.891
393.28	12.130
393.64	14.269
393.99	14.356
394.35	13.772
394.71	13.802
395.07	13.956
395.42	14.153
395.78	13.740
396.14	13.532
396.50	14.662
396.85	14.876
397.21	14.982
397.57	14.383
397.92	14.303
398.28	12.892
398.64	14.337
399.00	13.654
399.35	13.311
399.71	14.468
400.07	14.429
400.42	14.233
400.78	14.174
401.14	14.024
401.49	13.970
401.85	13.672
402.21	13.653
402.57	13.880
402.92	15.006
403.28	14.116
403.63	14.109
403.99	13.822
404.35	14.303
404.70	13.369
405.06	13.395
405.42	14.161
405.77	14.343
406.13	13.488
406.49	14.902
406.84	14.885
407.20	13.771
407.55	14.040
407.91	14.400
408.27	14.614
408.62	14.810
408.98	14.828
409.34	13.961
409.69	14.903
410.05	14.064
410.40	13.700
410.76	13.919
411.11	14.958
411.47	14.505
411.83	14.844
412.18	13.605
412.54	15.006
412.89	14.398
413.25	14.876
413.60	14.515
413.96	14.572
414.31	15.128
414.67	15.146
415.03	13.907
415.38	14.497
415.74	14.405
416.09	14.762
416.45	14.926
416.80	13.549
417.16	15.013
417.51	14.731
417.87	13.744
418.22	14.763
418.58	15.429
418.93	15.602
419.29	13.940
419.64	14.610
420.00	14.817
420.35	14.783
420.71	14.883
421.06	14.021
421.42	15.146
421.77	15.359
422.12	13.644
422.48	13.977
422.83	14.619
423.19	15.249
423.54	14.800
423.90	14.783
424.25	15.299
424.61	14.762
424.96	14.344
425.31	14.618
425.67	14.045
426.02	15.086
426.38	15.079
426.73	14.980
427.09	14.772
427.44	14.434
427.79	14.721
428.15	15.774
428.50	14.980
428.85	14.899
429.21	14.633
429.56	13.893
429.92	13.639
430.27	14.201
430.62	13.569
430.98	14.427
431.33	14.794
431.68	14.660
432.04	14.856
432.39	14.392
432.74	15.141
433.10	14.771
433.45	15.160
433.80	15.299
434.16	15.064
434.51	14.842
434.86	14.424
435.22	14.452
435.57	14.590
435.92	14.980
436.28	15.184
436.63	14.680
436.98	14.596
437.34	15.802
437.69	15.286
438.04	14.784
438.39	15.284
438.75	15.456
439.10	15.251
439.45	14.345
439.81	14.743
440.16	14.963
440.51	15.407
440.86	15.171
441.22	14.405
441.57	14.968
441.92	14.739
442.27	14.855
442.63	14.639
442.98	15.268
443.33	15.000
443.68	15.436
444.03	15.373
444.39	14.362
444.74	14.719
445.09	14.879
445.44	15.254
445.79	14.993
446.15	15.193
446.50	15.078
446.85	15.262
447.20	14.329
447.55	14.461
447.91	15.334
448.26	15.415
448.61	15.093
448.96	16.113
449.31	15.804
449.66	15.025
450.02	14.875
450.37	15.476
450.72	14.157
451.07	15.052
451.42	14.954
451.77	15.502
452.12	15.473
452.47	15.672
452.83	15.676
453.18	15.648
453.53	16.141
453.88	15.003
454.23	15.900
454.58	15.869
454.93	16.338
455.28	15.337
455.63	15.716
455.98	16.250
456.34	15.829
456.69	15.967
457.04	16.099
457.39	15.546
457.74	15.902
458.09	15.411
458.44	15.735
458.79	14.479
459.14	15.576
459.49	15.762
459.84	15.623
460.19	15.085
460.54	15.567
460.89	15.634
461.24	15.361
461.59	16.095
461.94	15.783
462.29	16.320
462.64	15.890
462.99	15.420
463.34	16.800
463.69	15.760
464.04	14.957
464.39	15.942
464.74	15.924
465.09	14.656
465.44	15.235
465.79	14.765
466.14	14.724
466.49	15.295
466.84	16.054
467.19	16.355
467.54	15.813
467.89	15.786
468.24	15.590
468.59	15.507
468.94	15.272
469.29	15.424
469.64	17.470
469.99	16.103
470.34	15.588
470.68	16.451
471.03	17.007
471.38	16.817
471.73	17.122
472.08	16.711
472.43	16.583
472.78	16.195
473.13	16.752
473.48	16.854
473.83	16.037
474.17	15.370
474.52	16.253
474.87	16.988
475.22	16.367
475.57	16.174
475.92	15.348
476.27	15.502
476.61	16.106
476.96	15.063
477.31	15.646
477.66	16.247
478.01	15.630
478.36	16.182
478.70	15.213
479.05	15.442
479.40	15.558
479.75	16.472
480.10	15.507
480.45	15.612
480.79	15.241
481.14	15.802
481.49	15.662
481.84	15.181
482.19	14.993
482.53	15.092
482.88	16.007
483.23	15.327
483.58	15.833
483.92	15.604
484.27	15.120
484.62	15.302
484.97	15.057
485.31	15.240
485.66	13.791
486.01	12.915
486.36	12.536
486.70	12.463
487.05	13.171
487.40	13.764
487.75	14.376
488.09	14.134
488.44	14.443
488.79	15.624
489.13	15.279
489.48	14.356
489.83	14.588
490.17	16.089
490.52	15.810
490.87	15.378
491.22	14.779
491.56	14.624
491.91	15.030
492.26	15.158
492.60	15.207
492.95	14.780
493.30	15.093
493.64	15.306
493.99	15.274
494.34	15.587
494.68	15.980
495.03	16.729
495.37	15.821
495.72	15.351
496.07	15.220
496.41	14.690
496.76	14.776
497.11	15.173
497.45	15.091
497.80	15.643
498.14	15.556
498.49	15.805
498.84	15.628
499.18	14.905
499.53	15.005
499.87	15.331
500.22	15.827
500.56	16.456
500.91	15.144
501.26	15.695
501.60	15.710
501.95	14.940
502.29	16.307
502.64	15.317
502.98	15.802
503.33	15.676
503.67	15.313
504.02	15.154
504.36	16.004
504.71	15.926
505.06	16.096
505.40	15.751
505.75	16.635
506.09	15.743
506.44	15.639
506.78	15.441
507.13	16.406
507.47	16.515
507.82	15.805
508.16	16.667
508.51	16.032
508.85	15.690
509.19	16.071
509.54	16.531
509.88	15.971
510.23	16.093
510.57	16.512
510.92	15.847
511.26	16.393
511.61	16.338
511.95	15.710
512.30	15.270
512.64	16.550
512.98	16.613
513.33	16.916
513.67	16.435
514.02	16.180
514.36	16.384
514.70	16.602
515.05	16.509
515.39	17.330
515.74	16.892
516.08	17.999
516.42	17.481
516.77	17.781
517.11	15.982
517.46	17.156
517.80	17.247
518.14	16.792
518.49	16.336
518.83	16.989
519.17	16.859
519.52	17.035
519.86	17.855
520.20	17.283
520.55	17.594
520.89	17.701
521.23	18.516
521.58	18.427
521.92	16.901
522.26	17.084
522.61	17.508
522.95	17.373
523.29	17.468
523.64	18.293
523.98	18.299
524.32	18.516
524.66	18.100
525.01	18.321
525.35	17.782
525.69	17.611
526.04	17.321
526.38	17.999
526.72	18.037
527.06	18.016
527.41	16.770
527.75	18.392
528.09	18.561
528.43	18.993
528.78	18.992
529.12	17.394
529.46	19.045
529.80	18.626
530.15	18.006
530.49	17.600
530.83	17.848
531.17	19.386
531.51	18.936
531.86	18.452
532.20	18.449
532.54	19.218
532.88	19.063
533.22	18.301
533.57	17.531
533.91	17.700
534.25	17.922
534.59	17.389
534.93	17.311
535.27	17.803
535.62	18.254
535.96	18.393
536.30	17.546
536.64	18.094
536.98	18.182
537.32	18.631
537.66	17.867
538.01	18.367
538.35	18.940
538.69	19.145
539.03	17.544
539.37	17.955
539.71	16.656
540.05	18.627
540.39	17.209
540.73	17.658
541.07	19.338
541.42	18.200
541.76	19.097
542.10	17.788
542.44	17.483
542.78	18.643
543.12	17.850
543.46	17.115
543.80	17.502
544.14	16.945
544.48	18.222
544.82	18.024
545.16	17.567
545.50	18.380
545.84	17.608
546.18	18.653
546.52	18.995
546.86	18.351
547.20	18.071
547.54	18.971
547.88	18.814
548.22	17.870
548.56	17.421
548.90	17.478
549.24	17.980
549.58	18.486
549.92	18.475
550.26	18.111
550.60	18.257
550.94	18.732
551.28	18.361
551.62	18.979
551.96	18.246
552.30	18.294
552.64	17.985
552.98	18.576
553.32	18.881
553.66	19.018
554.00	18.531
554.34	18.219
554.68	18.670
555.02	17.630
555.36	19.137
555.69	17.997
556.03	17.362
556.37	18.622
556.71	18.417
557.05	18.067
557.39	19.524
557.73	18.490
558.07	19.289
558.41	18.017
558.75	18.883
559.08	18.941
559.42	18.745
559.76	18.824
560.10	18.201
560.44	18.029
560.78	18.363
561.12	17.876
561.45	18.840
561.79	18.326
562.13	17.975
562.47	18.169
562.81	18.201
563.15	17.726
563.48	18.369
563.82	18.526
564.16	17.528
564.50	17.318
564.84	17.257
565.17	17.825
565.51	17.827
565.85	17.703
566.19	16.719
566.52	17.796
566.86	16.757
567.20	17.571
567.54	17.295
567.88	16.024
568.21	17.143
568.55	16.481
568.89	16.634
569.23	16.087
569.56	15.547
569.90	15.434
570.24	15.106
570.57	14.757
570.91	14.867
571.25	14.237
571.59	14.786
571.92	14.459
572.26	14.327
572.60	14.625
572.93	14.303
573.27	14.493
573.61	14.964
573.95	14.367
574.28	14.020
574.62	14.334
574.96	13.740
575.29	13.894
575.63	13.897
575.97	13.929
576.30	14.100
576.64	14.001
576.98	14.123
577.31	13.817
577.65	13.572
577.98	13.309
578.32	13.284
578.66	13.899
578.99	13.878
579.33	13.725
579.67	13.963
580.00	14.145
580.34	13.953
580.67	14.181
581.01	14.167
581.35	13.663
581.68	13.446
582.02	12.909
582.35	13.363
582.69	13.436
583.02	13.831
583.36	13.904
583.70	14.036
584.03	14.446
584.37	14.862
584.70	14.185
585.04	13.772
585.37	13.607
585.71	13.816
586.04	13.916
586.38	13.767
586.72	14.582
587.05	13.610
587.39	13.668
587.72	14.249
588.06	13.981
588.39	14.568
588.73	14.344
589.06	15.051
589.40	14.343
589.73	14.960
590.07	15.018
590.40	14.907
590.73	15.027
591.07	15.751
591.40	15.816
591.74	16.364
592.07	15.707
592.41	15.626
592.74	14.869
593.08	14.957
593.41	14.742
593.75	13.929
594.08	14.247
594.41	14.175
594.75	14.824
595.08	14.460
595.42	14.711
595.75	14.494
596.09	15.434
596.42	15.953
596.75	15.450
597.09	16.364
597.42	14.924
597.75	15.567
598.09	15.478
598.42	14.734
598.76	15.120
599.09	14.253
599.42	14.447
599.76	14.898
600.09	14.390
600.42	14.573
600.76	14.393
601.09	14.645
601.42	14.422
601.76	15.028
602.09	14.822
602.42	14.809
602.76	15.518
603.09	14.713
603.42	15.072
603.76	14.710
604.09	14.734
604.42	14.431
604.76	15.268
605.09	15.596
605.42	14.664
605.75	14.652
606.09	14.477
606.42	14.467
606.75	14.973
607.09	15.320
607.42	15.062
607.75	14.557
608.08	14.633
608.42	15.419
608.75	15.284
609.08	14.662
609.41	15.850
609.75	15.484
610.08	15.975
610.41	14.804
610.74	14.948
611.07	15.168
611.41	16.094
611.74	16.189
612.07	16.149
612.40	16.002
612.73	15.632
613.07	15.841
613.40	16.114
613.73	14.473
614.06	15.914
614.39	16.046
614.72	15.579
615.06	16.229
615.39	15.711
615.72	15.031
616.05	15.045
616.38	16.009
616.71	16.152
617.05	16.254
617.38	16.115
617.71	15.916
618.04	16.647
618.37	16.203
618.70	16.988
619.03	17.434
619.36	16.565
619.69	17.394
620.03	17.926
620.36	17.112
620.69	17.808
621.02	17.552
621.35	18.011
621.68	16.433
622.01	17.957
622.34	17.700
622.67	17.490
623.00	16.801
623.33	17.227
623.66	17.298
623.99	16.789
624.32	17.190
624.65	16.525
624.99	16.147
625.32	16.799
625.65	17.355
625.98	17.064
626.31	18.663
626.64	18.367
626.97	18.371
627.30	17.539
627.63	18.458
627.96	18.167
628.29	17.410
628.62	18.847
628.95	20.472
629.28	18.978
629.61	19.432
629.94	19.143
630.26	17.731
630.59	19.733
630.92	18.582
631.25	18.559
631.58	19.319
631.91	17.546
632.24	18.460
632.57	20.357
632.90	19.518
633.23	19.799
633.56	20.678
633.89	22.197
634.22	19.977
634.55	20.000
634.88	20.719
635.20	19.833
635.53	19.880
635.86	20.173
636.19	21.529
636.52	20.531
636.85	20.504
637.18	20.046
637.51	18.794
637.83	18.126
638.16	19.821
638.49	21.537
638.82	21.239
639.15	21.000
639.48	21.197
639.81	22.118
640.13	22.396
640.46	20.940
640.79	21.797
641.12	19.670
641.45	19.693
641.77	21.944
642.10	20.175
642.43	21.922
642.76	22.136
643.09	25.000
643.41	21.851
643.74	23.920
644.07	22.409
644.40	21.933
644.73	23.622
645.05	22.979
645.38	22.117
645.71	23.833
646.04	23.422
646.36	25.876
646.69	23.411
647.02	23.469
647.35	24.742
647.67	23.717
648.00	25.366
648.33	23.267
648.66	22.121
648.98	21.739
649.31	22.123
649.64	21.973
649.96	21.311
650.29	21.169
650.62	21.845
650.94	25.770
651.27	23.986
651.60	23.295
651.92	21.885
652.25	21.987
652.58	21.495
652.90	20.695
653.23	20.647
653.56	22.205
653.88	21.395
654.21	23.065
654.54	23.267
654.86	21.184
655.19	20.541
655.52	12.253
655.84	9.916
656.17	12.083
656.49	16.275
656.82	17.145
657.15	13.331
657.47	9.835
657.80	8.024
658.13	8.795
658.45	12.861
658.78	13.332
659.10	14.403
659.43	15.351
659.75	17.195
660.08	17.468
660.41	20.764
660.73	22.109
661.06	22.293
661.38	24.909
661.71	24.423
662.03	26.627
662.36	23.658
662.68	25.502
663.01	23.636
663.33	23.142
663.66	26.471
663.98	23.326
664.31	24.160
664.63	24.291
664.96	25.352
665.28	25.820
665.61	25.536
665.93	24.346
666.26	23.732
666.58	24.059
666.91	25.370
667.23	27.640
667.56	24.838
667.88	28.205
668.21	25.586
668.53	24.946
668.86	23.377
669.18	26.226
669.50	24.348
669.83	27.015
670.15	26.667
670.48	25.708
670.80	25.647
671.13	25.053
671.45	24.681
671.77	25.866
672.10	23.475
672.42	23.145
672.75	20.896
673.07	21.479
673.39	22.604
673.72	22.070
674.04	25.686
674.37	25.631
674.69	24.949
675.01	24.477
675.34	23.614
675.66	24.842
675.98	25.458
676.31	26.261
676.63	25.265
676.95	27.044
677.28	26.636
677.60	24.615
677.92	27.426
678.25	23.614
678.57	23.904
678.89	23.647
679.22	23.969
679.54	23.855
679.86	25.872
680.18	21.288
680.51	22.163
680.83	24.377
681.15	23.019
681.48	23.819
681.80	22.824
682.12	21.648
682.44	22.050
682.77	22.403
683.09	26.824
683.41	23.947
683.73	24.062
684.06	24.174
684.38	25.245
684.70	22.287
685.02	22.514
685.34	20.330
685.67	20.979
685.99	21.649
686.31	21.160
686.63	17.845
686.96	21.429
687.28	23.285
687.60	20.652
687.92	24.132
688.24	20.722
688.56	22.088
688.89	25.519
689.21	27.511
689.53	23.800
689.85	24.169
690.17	22.981
690.49	27.176
690.82	25.234
691.14	22.768
691.46	22.785
691.78	23.896
692.10	23.140
692.42	22.555
692.74	22.614
693.06	23.830
693.39	24.641
693.71	22.926
694.03	26.526
694.35	23.593
694.67	22.883
694.99	25.610
695.31	24.510
695.63	26.316
695.95	27.139
696.27	26.396
696.59	24.352
696.91	26.425
697.23	22.300
697.56	23.454
697.88	21.063
698.20	23.958
698.52	23.656
698.84	26.503
699.16	22.350
699.48	22.565
699.80	23.188
700.12	26.494
700.44	27.321
700.76	29.006
701.08	29.023
701.40	27.095
701.72	30.612
702.04	30.682
702.36	26.629
702.68	28.612
703.00	26.316
703.32	24.734
703.64	26.005
703.96	26.741
704.28	23.547
704.60	27.273
704.91	29.377
705.23	26.979
705.55	28.904
705.87	29.236
706.19	24.735
706.51	28.972
706.83	29.697
707.15	30.812
707.47	25.253
707.79	25.799
708.11	23.059
708.43	24.286
708.74	24.490
709.06	27.792
709.38	26.247
709.70	29.942
710.02	29.377
710.34	28.182
710.66	29.254
710.98	25.852
711.29	27.326
711.61	32.153
711.93	26.923
712.25	29.582
712.57	29.044
712.89	29.758
713.20	25.228
713.52	28.618
713.84	27.215
714.16	31.707
714.48	25.287
714.80	34.954
715.11	29.107
715.43	27.893
715.75	27.826
716.07	27.157
716.39	28.840
716.70	28.571
717.02	30.935
717.34	28.622
717.66	33.955
717.97	34.661
718.29	25.926
718.61	28.102
718.93	31.250
719.24	31.488
719.56	27.797
719.88	31.186
720.20	28.716
720.51	29.617
720.83	33.457
721.15	27.239
721.46	32.270
721.78	30.824
722.10	32.075
722.42	30.451
722.73	31.835
723.05	29.918
723.37	33.198
723.68	34.363
724.00	31.301
724.32	32.661
724.63	33.740
724.95	30.962
725.27	29.555
725.58	33.203
725.90	32.482
726.22	30.566
726.53	27.778
726.85	32.082
727.16	27.046
727.48	26.241
727.80	30.303
728.11	29.710
728.43	28.462
728.74	30.108
729.06	30.292
729.38	32.353
729.69	32.740
730.01	25.939
730.32	27.778
730.64	29.097
730.96	25.413
731.27	27.483
731.59	27.523
731.90	25.656
732.22	25.466
732.53	25.697
732.85	27.244
733.16	27.010
733.48	24.252
733.80	23.377
734.11	27.389
734.43	28.698
734.74	24.571
735.06	23.496
735.37	28.324
735.69	26.115
736.00	29.739
736.32	26.791
736.63	27.796
736.95	29.393
737.26	23.469
737.58	22.581
737.89	27.090
738.21	29.010
738.52	30.000
738.83	27.547
739.15	26.923
739.46	29.197
739.78	26.042
740.09	28.308
740.41	27.097
740.72	22.997
741.04	34.444
741.35	32.083
741.66	35.556
741.98	26.415
742.29	35.885
742.61	39.655
742.92	29.864
743.23	34.188
743.55	33.600
743.86	35.965
744.18	38.496
744.49	33.971
744.80	38.967
745.12	37.727
745.43	32.159
745.74	36.036
746.06	29.358
746.37	33.184
746.68	34.842
747.00	38.889
747.31	38.571
747.62	29.204
747.94	37.445
748.25	25.106
748.56	37.885
748.88	31.188
749.19	39.500
749.50	32.558
749.82	27.642
750.13	26.122
750.44	29.197
750.75	30.877
751.07	30.868
751.38	32.404
751.69	28.881
752.01	26.316
752.32	27.437
752.63	29.433
752.94	28.689
753.26	32.000
753.57	26.829
753.88	31.641
754.19	27.857
754.51	32.986
754.82	24.549
755.13	32.075
755.44	32.331
755.75	29.562
756.07	23.050
756.38	24.453
756.69	25.503
757.00	24.850
757.31	26.409
757.63	21.345
757.94	21.716
758.25	24.265
758.56	20.247
758.87	23.656
759.18	26.364
759.50	23.511
759.81	28.349
760.12	18.750
760.43	25.501
760.74	22.283
761.05	22.881
761.36	22.995
761.67	26.136
761.99	24.534
762.30	27.778
762.61	30.153
762.92	35.156
763.23	28.571
763.54	30.800
763.85	27.344
764.16	33.846
764.47	29.278
764.78	26.148
765.10	25.000
765.41	23.894
765.72	24.551
766.03	26.019
766.34	26.333
766.65	33.191
766.96	32.479
767.27	38.579
767.58	38.021
767.89	37.368
768.20	41.379
768.51	35.533
768.82	33.486
769.13	27.236
769.44	28.745
769.75	28.755
770.06	27.523
770.37	37.557
770.68	37.500
770.99	28.889
771.30	28.689
771.61	30.493
771.92	29.918
772.23	36.134
772.54	41.026
772.85	38.220
773.16	34.043
773.47	36.413
773.78	39.594
774.09	39.286
774.39	44.444
774.70	35.185
775.01	45.652
775.32	48.366
775.63	47.368
775.94	46.763
776.25	43.307
776.56	47.761
776.87	49.180
777.18	44.531
777.48	48.855
777.79	57.576
778.10	40.000
778.41	55.357
778.72	45.985
779.03	42.953
779.34	36.913
779.65	37.162
779.95	42.331
780.26	40.523
780.57	46.207
780.88	47.656
781.19	45.865
781.50	46.622
781.80	35.220
782.11	36.158
782.42	41.772
782.73	35.583
783.04	47.297
783.34	40.141
783.65	49.315
783.96	49.254
784.27	33.566
784.57	40.288
784.88	43.519
785.19	49.206
785.50	57.547
785.81	53.731
786.11	50.820
786.42	47.287
786.73	49.558
787.04	57.547
787.34	49.107
787.65	50.000
787.96	53.153
788.26	42.149
788.57	53.390
788.88	44.628
789.19	52.083
789.49	57.576
789.80	50.382
790.11	64.762
790.41	56.436
790.72	67.470
791.03	60.870
791.33	56.977
791.64	68.041
791.95	68.317
792.25	62.222
792.56	72.727
792.87	73.077
793.17	94.937
793.48	66.667
793.79	65.517
794.09	51.136
794.40	52.101
794.70	47.794
795.01	45.185
795.32	47.482
795.62	43.307
795.93	43.966
796.23	47.788
796.54	54.118
796.85	72.973
797.15	91.549
797.46	83.333
797.76	68.675
798.07	70.886
798.37	72.308
798.68	78.788
798.99	60.563
799.29	74.026
799.60	67.045
799.90	78.082
800.21	80.597
800.51	87.931
800.82	103.509
801.12	81.967
801.43	80.303
801.73	62.162
802.04	74.603
802.34	83.951
802.65	85.938
802.95	100.000
803.26	93.750
803.56	72.857
803.87	81.538
804.17	75.000
804.48	114.815
804.78	65.517
805.09	89.706
805.39	98.077
805.70	80.357
806.00	96.721
806.30	54.545
806.61	82.927
806.91	54.430
807.22	57.895
807.52	67.164
807.83	84.507
808.13	85.938
808.43	78.333
808.74	60.526
809.04	79.710
809.35	88.060
809.65	65.789
809.95	112.903
810.26	88.136
810.56	93.651
810.86	113.636
811.17	114.286
811.47	103.333
811.77	100.000
812.08	101.818
812.38	106.000
812.69	136.111
812.99	125.000
813.29	112.245
813.59	119.048
813.90	120.408
814.20	96.364
814.50	66.154
814.81	77.941
815.11	120.408
815.41	83.607
815.72	128.571
816.02	110.909
816.32	126.190
816.62	112.500
816.93	104.878
817.23	128.571
817.53	125.000
817.84	145.455
818.14	128.261
818.44	111.111
818.74	150.000
819.04	135.000
819.35	145.714
819.65	182.353
819.95	175.000
820.25	200.000
820.56	120.513
820.86	134.091
821.16	130.233
821.46	115.385
821.76	110.000
822.07	117.143
822.37	130.000
822.67	145.455
822.97	103.922
823.27	160.714
823.57	129.730
823.88	157.500
824.18	156.667
824.48	145.238
824.78	152.000
825.08	154.167
825.38	116.216
825.69	119.512
825.99	158.333
826.29	151.724
826.59	126.316
826.89	136.842
827.19	170.588
827.49	154.839
827.79	138.636
828.09	109.091
828.39	110.638
828.70	122.449
829.00	144.444
829.30	132.258
829.60	112.500
829.90	253.333
830.20	146.429
830.50	191.304
830.80	204.348
831.10	180.000
831.40	143.333
831.70	160.870
832.00	188.462
832.30	137.037
832.60	231.250
832.90	200.000
833.20	321.429
833.50	187.097
833.80	186.207
834.10	181.250
834.40	169.231
834.70	283.333
835.00	266.667
835.30	145.714
835.60	330.769
835.90	186.207
836.20	264.286
836.50	175.862
836.80	164.000
837.10	161.111
837.40	209.524
837.70	252.941
838.00	207.407
838.30	223.810
838.60	271.429
838.90	196.154
839.19	275.000
839.49	350.000
839.79	275.000
840.09	240.000
840.39	271.429
840.69	256.522
840.99	250.000
841.29	490.000
841.59	350.000
841.88	325.000
842.18	162.069
842.48	266.667
842.78	190.000
843.08	221.739
843.38	165.625
843.68	700.000
843.97	211.538
844.27	186.207
844.57	276.190
844.87	331.250
845.17	185.185
845.47	1266.667
845.76	400.000
846.06	229.412
846.36	400.000
846.66	307.143
846.96	275.000
847.25	345.455
847.55	363.636
847.85	182.609
848.15	360.000
848.44	321.429
848.74	250.000
849.04	300.000
849.34	530.000
849.63	252.632
849.93	345.455
850.23	800.000
850.53	342.857
850.82	1900.000
851.12	-4300.000
851.42	4400.000
851.71	255.000
852.01	-1166.667
852.31	216.667
852.61	1500.000
852.90	223.810
853.20	196.000
853.50	317.647
853.79	204.762
854.09	208.333
854.39	237.500
854.68	127.027
854.98	209.677
855.28	170.000
855.57	220.690
855.87	203.704
856.17	184.211
856.46	280.000
856.76	264.706
857.05	200.000
857.35	191.667
857.65	333.333
857.94	195.652
858.24	196.154
858.53	260.000
858.83	236.364
859.13	373.333
859.42	0.000
859.72	400.000
860.01	372.727
860.31	250.000
860.60	221.053
860.90	191.304
861.20	544.444
861.49	458.333
861.79	-3800.000
862.08	650.000
862.38	209.524
862.67	376.923
862.97	300.000
863.26	500.000
863.56	238.889
863.85	375.000
864.15	700.000
864.44	353.333
864.74	800.000
865.03	587.500
865.33	284.211
865.62	354.545
865.92	430.769
866.21	366.667
866.51	0.000
866.80	454.545
867.10	980.000
867.39	330.769
867.69	454.545
867.98	300.000
868.27	372.727
868.57	331.579
868.86	-3900.000
869.16	281.250
869.45	1850.000
869.75	-2900.000
870.04	425.000
870.33	542.857
870.63	775.000
870.92	2200.000
871.22	628.571
871.51	258.824
871.80	219.048
872.10	342.857
>>>>>End Processed Spectral Data<<<<<
