SpectraSuite Data File
++++++++++++++++++++++++++++++++++++
Date: Wed May 13 16:37:57 PDT 2015
User: schluterlab
Dark Spectrum Present: Yes
Reference Spectrum Present: Yes
Number of Sampled Component Spectra: 1
Spectrometers: USB2E3373
Integration Time (usec): 3000 (USB2E3373)
Spectra Averaged: 3 (USB2E3373)
Boxcar Smoothing: 0 (USB2E3373)
Correct for Electrical Dark: No (USB2E3373)
Strobe/Lamp Enabled: No (USB2E3373)
Correct for Detector Non-linearity: No (USB2E3373)
Correct for Stray Light: No (USB2E3373)
Number of Pixels in Processed Spectrum: 2048
>>>>>Begin Processed Spectral Data<<<<<
178.53	0.000
178.91	-1175.000
179.29	-1200.000
179.67	-211.111
180.04	-1200.000
180.42	2450.000
180.80	1160.000
181.18	-1150.000
181.56	714.286
181.94	0.000
182.31	-657.143
182.69	1633.333
183.07	-550.000
183.45	-477.778
183.83	536.364
184.20	-440.000
184.58	2350.000
184.96	5300.000
185.34	-840.000
185.72	-612.500
186.09	-2300.000
186.47	2650.000
186.85	2550.000
187.23	5000.000
187.61	-1500.000
187.98	1275.000
188.36	490.909
188.74	481.818
189.12	-960.000
189.49	530.000
189.87	-4500.000
190.25	-1050.000
190.63	371.429
191.00	407.692
191.38	966.667
191.76	-1250.000
192.14	1350.000
192.51	612.500
192.89	1033.333
193.27	637.500
193.65	-1025.000
194.02	500.000
194.40	1060.000
194.78	560.000
195.15	475.000
195.53	630.000
195.91	-2000.000
196.29	325.000
196.66	300.000
197.04	-440.000
197.42	0.000
197.79	620.000
198.17	-4600.000
198.55	628.571
198.92	762.500
199.30	860.000
199.68	0.000
200.05	350.000
200.43	828.571
200.81	4400.000
201.18	2033.333
201.56	-1433.333
201.94	577.778
202.31	588.889
202.69	433.333
203.07	520.000
203.44	0.000
203.82	1300.000
204.19	828.571
204.57	392.857
204.95	712.500
205.32	1200.000
205.70	554.545
206.08	385.714
206.45	2450.000
206.83	431.250
207.20	816.667
207.58	700.000
207.96	283.333
208.33	750.000
208.71	-700.000
209.08	700.000
209.46	600.000
209.84	418.182
210.21	-1400.000
210.59	1350.000
210.96	-500.000
211.34	2400.000
211.71	600.000
212.09	883.333
212.46	0.000
212.84	1433.333
213.22	1400.000
213.59	-3800.000
213.97	800.000
214.34	842.857
214.72	581.818
215.09	940.000
215.47	-2200.000
215.84	-2100.000
216.22	1866.667
216.59	342.857
216.97	1525.000
217.34	463.636
217.72	-783.333
218.09	0.000
218.47	-3500.000
218.84	633.333
219.22	742.857
219.59	1700.000
219.97	-771.429
220.34	900.000
220.72	-1900.000
221.09	428.571
221.47	1275.000
221.84	-816.667
222.22	0.000
222.59	1275.000
222.97	-2650.000
223.34	1160.000
223.72	500.000
224.09	980.000
224.46	1750.000
224.84	-4600.000
225.21	-1120.000
225.59	-4400.000
225.96	550.000
226.34	310.000
226.71	2900.000
227.08	675.000
227.46	530.000
227.83	-875.000
228.21	-1950.000
228.58	600.000
228.95	-2200.000
229.33	-2200.000
229.70	1700.000
230.08	714.286
230.45	-760.000
230.82	425.000
231.20	916.667
231.57	671.429
231.95	458.333
232.32	254.545
232.69	381.818
233.07	528.571
233.44	376.923
233.81	-1600.000
234.19	257.895
234.56	391.667
234.93	350.000
235.31	418.182
235.68	338.462
236.05	335.714
236.43	154.545
236.80	205.263
237.17	3800.000
237.55	195.238
237.92	175.000
238.29	214.286
238.67	180.645
239.04	210.345
239.41	133.333
239.79	100.000
240.16	126.190
240.53	111.364
240.91	76.471
241.28	74.000
241.65	82.000
242.02	88.406
242.40	74.194
242.77	56.667
243.14	65.591
243.51	64.045
243.89	50.588
244.26	44.444
244.63	47.312
245.00	46.809
245.38	53.465
245.75	35.514
246.12	34.862
246.49	44.526
246.87	48.000
247.24	40.769
247.61	45.000
247.98	33.333
248.36	27.703
248.73	33.121
249.10	30.573
249.47	31.073
249.84	33.690
250.22	27.807
250.59	23.077
250.96	28.283
251.33	23.697
251.70	28.218
252.08	26.190
252.45	21.973
252.82	23.478
253.19	26.809
253.56	23.529
253.94	21.992
254.31	23.828
254.68	21.923
255.05	20.664
255.42	21.951
255.79	17.279
256.16	19.856
256.54	13.781
256.91	20.285
257.28	11.511
257.65	15.512
258.02	18.944
258.39	15.142
258.76	16.722
259.14	17.560
259.51	13.374
259.88	13.665
260.25	14.804
260.62	10.694
260.99	13.975
261.36	18.018
261.73	14.327
262.10	9.302
262.47	14.648
262.85	13.370
263.22	10.256
263.59	15.100
263.96	12.637
264.33	15.144
264.70	12.632
265.07	15.090
265.44	12.879
265.81	11.436
266.18	13.065
266.55	13.659
266.92	13.514
267.29	12.037
267.66	12.156
268.03	12.500
268.40	12.617
268.77	12.411
269.14	12.162
269.51	14.898
269.88	10.956
270.25	12.415
270.62	12.584
270.99	15.269
271.36	12.232
271.73	9.346
272.10	10.652
272.47	13.118
272.84	12.987
273.21	14.675
273.58	8.734
273.95	8.176
274.32	8.884
274.69	10.921
275.06	9.646
275.43	11.277
275.80	11.423
276.17	9.776
276.54	12.266
276.91	10.277
277.28	11.133
277.65	10.832
278.02	8.282
278.39	14.062
278.76	9.636
279.13	11.321
279.50	11.732
279.87	10.956
280.23	9.182
280.60	9.865
280.97	9.242
281.34	11.504
281.71	11.636
282.08	10.749
282.45	9.455
282.82	10.302
283.19	6.952
283.56	10.000
283.92	9.983
284.29	9.700
284.66	9.619
285.03	8.137
285.40	7.746
285.77	7.744
286.14	9.326
286.51	9.500
286.87	9.573
287.24	10.098
287.61	8.186
287.98	9.416
288.35	8.241
288.72	8.567
289.08	8.451
289.45	8.731
289.82	8.130
290.19	8.477
290.56	7.504
290.93	8.761
291.29	8.436
291.66	7.227
292.03	10.756
292.40	9.985
292.77	7.396
293.13	9.104
293.50	7.143
293.87	8.444
294.24	7.556
294.60	6.259
294.97	7.558
295.34	10.155
295.71	7.386
296.08	7.835
296.44	7.840
296.81	7.001
297.18	7.724
297.55	6.201
297.91	6.992
298.28	7.363
298.65	8.094
299.02	8.696
299.38	6.242
299.75	5.121
300.12	5.747
300.48	6.125
300.85	7.028
301.22	7.006
301.59	5.682
301.95	7.557
302.32	6.675
302.69	6.930
303.05	6.303
303.42	5.556
303.79	6.342
304.15	5.594
304.52	5.678
304.89	6.272
305.25	6.148
305.62	7.361
305.99	7.556
306.35	6.264
306.72	6.502
307.09	6.659
307.45	7.320
307.82	5.246
308.19	6.291
308.55	7.551
308.92	5.908
309.29	4.857
309.65	6.045
310.02	6.342
310.38	5.591
310.75	6.336
311.12	6.653
311.48	6.061
311.85	6.499
312.22	6.556
312.58	5.613
312.95	6.547
313.31	5.243
313.68	6.965
314.05	7.692
314.41	7.236
314.78	6.445
315.14	6.256
315.51	5.973
315.87	6.931
316.24	7.051
316.61	5.750
316.97	6.164
317.34	5.773
317.70	6.119
318.07	7.122
318.43	6.262
318.80	6.935
319.16	6.121
319.53	6.191
319.89	7.619
320.26	6.800
320.62	7.143
320.99	6.465
321.35	6.061
321.72	6.366
322.08	7.206
322.45	7.463
322.81	7.655
323.18	7.418
323.54	7.143
323.91	7.170
324.27	6.979
324.64	5.499
325.00	5.771
325.37	7.188
325.73	7.720
326.10	6.973
326.46	6.272
326.83	7.506
327.19	6.917
327.56	6.359
327.92	7.262
328.29	8.163
328.65	7.182
329.01	7.040
329.38	6.383
329.74	7.018
330.11	7.352
330.47	7.438
330.84	8.180
331.20	6.557
331.56	7.431
331.93	6.574
332.29	8.163
332.66	6.991
333.02	7.404
333.38	6.504
333.75	7.754
334.11	6.940
334.48	7.720
334.84	7.261
335.20	7.545
335.57	6.528
335.93	6.786
336.29	5.952
336.66	6.492
337.02	6.516
337.38	7.778
337.75	6.684
338.11	6.804
338.47	6.538
338.84	7.883
339.20	5.688
339.56	6.752
339.93	5.727
340.29	7.065
340.65	6.684
341.02	7.068
341.38	6.673
341.74	6.842
342.11	6.725
342.47	6.608
342.83	7.705
343.20	7.186
343.56	7.245
343.92	7.018
344.28	6.973
344.65	6.621
345.01	5.892
345.37	6.775
345.73	6.345
346.10	6.820
346.46	6.610
346.82	6.919
347.19	5.263
347.55	6.240
347.91	7.039
348.27	6.902
348.63	6.020
349.00	7.362
349.36	5.829
349.72	6.897
350.08	6.402
350.45	6.672
350.81	6.499
351.17	6.564
351.53	6.224
351.89	4.950
352.26	6.472
352.62	6.816
352.98	6.726
353.34	6.081
353.70	5.565
354.07	6.694
354.43	6.032
354.79	6.516
355.15	7.183
355.51	5.755
355.87	6.122
356.24	6.189
356.60	6.175
356.96	5.873
357.32	5.315
357.68	6.457
358.04	6.730
358.40	6.968
358.77	6.808
359.13	6.156
359.49	6.039
359.85	4.286
360.21	5.582
360.57	7.160
360.93	5.692
361.29	5.971
361.66	5.960
362.02	5.821
362.38	6.236
362.74	6.176
363.10	5.699
363.46	4.916
363.82	6.274
364.18	5.874
364.54	5.646
364.90	6.161
365.26	5.368
365.62	6.282
365.98	5.186
366.35	5.229
366.71	6.001
367.07	5.899
367.43	5.588
367.79	5.425
368.15	6.466
368.51	5.451
368.87	6.138
369.23	5.852
369.59	5.431
369.95	4.338
370.31	5.769
370.67	4.928
371.03	6.517
371.39	6.122
371.75	5.147
372.11	5.690
372.47	6.452
372.83	6.556
373.19	5.419
373.55	5.617
373.91	6.775
374.27	5.842
374.63	5.309
374.99	6.992
375.35	4.955
375.71	5.552
376.07	6.653
376.42	5.708
376.78	6.494
377.14	5.631
377.50	6.093
377.86	5.386
378.22	6.258
378.58	5.138
378.94	5.217
379.30	4.962
379.66	5.711
380.02	6.327
380.38	5.707
380.74	5.522
381.09	5.501
381.45	6.454
381.81	6.511
382.17	6.178
382.53	5.220
382.89	6.790
383.25	5.003
383.61	6.815
383.97	6.254
384.32	5.802
384.68	5.762
385.04	5.839
385.40	5.697
385.76	6.204
386.12	5.505
386.48	6.356
386.83	6.928
387.19	6.246
387.55	6.308
387.91	5.865
388.27	6.131
388.62	7.068
388.98	5.528
389.34	6.383
389.70	6.990
390.06	6.971
390.42	6.355
390.77	6.107
391.13	6.190
391.49	7.297
391.85	6.174
392.20	5.552
392.56	5.934
392.92	6.062
393.28	5.503
393.64	6.535
393.99	6.292
394.35	5.893
394.71	6.399
395.07	5.919
395.42	6.922
395.78	6.361
396.14	6.083
396.50	6.767
396.85	7.057
397.21	5.672
397.57	6.076
397.92	6.611
398.28	5.325
398.64	6.272
399.00	6.435
399.35	5.697
399.71	5.845
400.07	6.328
400.42	6.503
400.78	6.514
401.14	5.549
401.49	6.269
401.85	5.808
402.21	6.168
402.57	6.046
402.92	5.675
403.28	6.621
403.63	6.064
403.99	5.541
404.35	6.121
404.70	5.336
405.06	5.533
405.42	5.614
405.77	5.314
406.13	5.192
406.49	5.736
406.84	6.025
407.20	5.556
407.55	5.999
407.91	5.400
408.27	5.616
408.62	6.321
408.98	5.515
409.34	5.781
409.69	5.871
410.05	5.576
410.40	6.055
410.76	5.376
411.11	6.273
411.47	5.367
411.83	5.376
412.18	5.504
412.54	5.978
412.89	6.386
413.25	6.139
413.60	6.362
413.96	6.011
414.31	5.772
414.67	5.703
415.03	5.629
415.38	6.314
415.74	6.238
416.09	6.532
416.45	5.556
416.80	6.411
417.16	6.702
417.51	6.304
417.87	6.037
418.22	5.552
418.58	6.391
418.93	5.958
419.29	6.429
419.64	6.360
420.00	6.280
420.35	6.667
420.71	5.977
421.06	5.549
421.42	6.257
421.77	6.054
422.12	5.615
422.48	4.857
422.83	5.882
423.19	5.691
423.54	5.514
423.90	6.493
424.25	5.807
424.61	5.536
424.96	5.773
425.31	5.703
425.67	5.618
426.02	5.657
426.38	6.410
426.73	6.027
427.09	6.930
427.44	5.808
427.79	5.750
428.15	7.024
428.50	6.202
428.85	6.615
429.21	5.687
429.56	5.184
429.92	5.184
430.27	5.065
430.62	5.069
430.98	6.435
431.33	5.515
431.68	5.288
432.04	5.804
432.39	5.197
432.74	5.984
433.10	5.942
433.45	5.714
433.80	5.543
434.16	5.609
434.51	5.632
434.86	6.385
435.22	6.392
435.57	5.897
435.92	6.261
436.28	5.991
436.63	6.678
436.98	6.239
437.34	6.142
437.69	5.718
438.04	5.621
438.39	6.507
438.75	6.508
439.10	5.754
439.45	6.553
439.81	5.680
440.16	5.534
440.51	6.151
440.86	7.064
441.22	5.339
441.57	5.945
441.92	5.425
442.27	5.920
442.63	5.003
442.98	6.310
443.33	6.196
443.68	5.576
444.03	5.857
444.39	5.794
444.74	6.385
445.09	5.930
445.44	6.342
445.79	5.938
446.15	6.406
446.50	5.708
446.85	5.961
447.20	5.966
447.55	5.863
447.91	5.902
448.26	6.400
448.61	5.596
448.96	6.257
449.31	6.187
449.66	5.853
450.02	6.128
450.37	6.746
450.72	5.979
451.07	6.094
451.42	6.687
451.77	6.400
452.12	6.120
452.47	6.219
452.83	6.352
453.18	6.601
453.53	6.741
453.88	5.789
454.23	6.575
454.58	6.420
454.93	6.993
455.28	5.923
455.63	6.553
455.98	6.786
456.34	6.030
456.69	6.637
457.04	5.449
457.39	6.604
457.74	6.384
458.09	6.843
458.44	6.784
458.79	5.369
459.14	7.111
459.49	6.421
459.84	6.205
460.19	6.423
460.54	6.655
460.89	6.253
461.24	6.557
461.59	7.496
461.94	6.720
462.29	6.588
462.64	6.828
462.99	6.116
463.34	8.000
463.69	6.692
464.04	7.362
464.39	6.609
464.74	6.714
465.09	6.333
465.44	6.260
465.79	5.817
466.14	6.294
466.49	6.174
466.84	6.772
467.19	7.302
467.54	6.937
467.89	6.182
468.24	6.283
468.59	7.265
468.94	6.659
469.29	6.105
469.64	6.827
469.99	7.916
470.34	6.605
470.68	6.897
471.03	6.190
471.38	7.227
471.73	7.462
472.08	7.829
472.43	6.721
472.78	6.912
473.13	7.638
473.48	7.054
473.83	6.159
474.17	6.036
474.52	6.700
474.87	7.180
475.22	6.790
475.57	6.502
475.92	6.213
476.27	6.370
476.61	6.343
476.96	5.717
477.31	5.704
477.66	6.018
478.01	6.796
478.36	6.663
478.70	5.919
479.05	6.603
479.40	6.397
479.75	6.304
480.10	6.014
480.45	5.521
480.79	5.733
481.14	5.871
481.49	6.075
481.84	6.081
482.19	5.816
482.53	5.596
482.88	6.515
483.23	5.421
483.58	6.506
483.92	6.279
484.27	5.142
484.62	5.474
484.97	5.715
485.31	5.479
485.66	4.843
486.01	4.366
486.36	3.996
486.70	4.045
487.05	4.556
487.40	4.801
487.75	4.847
488.09	5.156
488.44	4.937
488.79	5.497
489.13	5.691
489.48	5.587
489.83	5.222
490.17	5.261
490.52	5.802
490.87	6.015
491.22	6.094
491.56	5.558
491.91	5.956
492.26	5.880
492.60	5.668
492.95	5.145
493.30	5.794
493.64	5.646
493.99	5.292
494.34	6.614
494.68	5.861
495.03	6.297
495.37	5.491
495.72	6.092
496.07	6.404
496.41	5.841
496.76	5.849
497.11	6.168
497.45	5.822
497.80	6.046
498.14	5.990
498.49	5.561
498.84	6.232
499.18	5.714
499.53	6.030
499.87	6.104
500.22	5.888
500.56	6.505
500.91	5.865
501.26	5.927
501.60	6.597
501.95	5.683
502.29	6.045
502.64	5.633
502.98	6.078
503.33	5.576
503.67	5.522
504.02	5.659
504.36	6.458
504.71	6.400
505.06	6.265
505.40	6.223
505.75	5.641
506.09	5.734
506.44	6.068
506.78	5.991
507.13	6.058
507.47	7.020
507.82	5.927
508.16	6.687
508.51	5.835
508.85	5.909
509.19	5.510
509.54	6.327
509.88	5.719
510.23	6.324
510.57	6.502
510.92	6.473
511.26	6.732
511.61	7.054
511.95	6.106
512.30	6.416
512.64	6.341
512.98	7.020
513.33	7.066
513.67	6.564
514.02	6.602
514.36	6.608
514.70	7.028
515.05	5.968
515.39	7.067
515.74	6.306
516.08	7.155
516.42	7.103
516.77	7.191
517.11	6.437
517.46	6.321
517.80	7.317
518.14	6.427
518.49	6.534
518.83	7.045
519.17	7.506
519.52	7.414
519.86	6.959
520.20	7.977
520.55	7.840
520.89	7.482
521.23	7.539
521.58	7.323
521.92	7.532
522.26	6.833
522.61	7.040
522.95	7.305
523.29	6.878
523.64	7.622
523.98	6.716
524.32	7.117
524.66	7.577
525.01	6.556
525.35	7.001
525.69	7.451
526.04	7.103
526.38	7.444
526.72	7.423
527.06	7.659
527.41	6.931
527.75	7.267
528.09	7.643
528.43	7.776
528.78	7.560
529.12	7.576
529.46	7.287
529.80	7.797
530.15	7.913
530.49	7.262
530.83	7.405
531.17	8.420
531.51	7.782
531.86	7.484
532.20	8.605
532.54	7.816
532.88	8.023
533.22	6.558
533.57	7.778
533.91	7.706
534.25	7.230
534.59	7.016
534.93	7.079
535.27	7.483
535.62	7.631
535.96	8.223
536.30	7.120
536.64	7.985
536.98	6.901
537.32	7.571
537.66	7.467
538.01	7.834
538.35	8.274
538.69	7.977
539.03	7.342
539.37	6.901
539.71	6.222
540.05	7.320
540.39	7.110
540.73	7.374
541.07	8.371
541.42	7.306
541.76	8.581
542.10	8.344
542.44	7.020
542.78	8.169
543.12	6.974
543.46	7.344
543.80	7.482
544.14	7.253
544.48	7.746
544.82	7.441
545.16	7.807
545.50	7.648
545.84	7.527
546.18	7.744
546.52	7.571
546.86	7.354
547.20	7.755
547.54	7.682
547.88	8.291
548.22	7.285
548.56	7.170
548.90	6.658
549.24	7.205
549.58	8.458
549.92	8.104
550.26	8.168
550.60	8.299
550.94	7.535
551.28	6.876
551.62	8.483
551.96	7.509
552.30	8.464
552.64	8.249
552.98	7.254
553.32	7.485
553.66	8.180
554.00	7.893
554.34	8.282
554.68	8.298
555.02	7.616
555.36	8.212
555.69	7.510
556.03	8.143
556.37	7.708
556.71	7.231
557.05	7.913
557.39	8.188
557.73	8.186
558.07	8.412
558.41	6.946
558.75	8.156
559.08	8.128
559.42	7.256
559.76	8.088
560.10	8.351
560.44	8.595
560.78	7.851
561.12	8.641
561.45	8.344
561.79	8.306
562.13	7.713
562.47	7.650
562.81	8.159
563.15	7.960
563.48	7.294
563.82	8.219
564.16	7.521
564.50	7.161
564.84	7.901
565.17	7.079
565.51	7.732
565.85	7.487
566.19	7.389
566.52	7.473
566.86	6.811
567.20	7.370
567.54	7.534
567.88	7.007
568.21	7.884
568.55	7.381
568.89	6.566
569.23	6.150
569.56	6.113
569.90	6.189
570.24	5.813
570.57	5.848
570.91	5.753
571.25	5.960
571.59	5.626
571.92	5.530
572.26	5.604
572.60	5.736
572.93	5.787
573.27	6.004
573.61	5.946
573.95	5.556
574.28	5.352
574.62	5.418
574.96	5.066
575.29	5.456
575.63	5.335
575.97	5.519
576.30	5.497
576.64	5.408
576.98	5.226
577.31	5.083
577.65	5.168
577.98	5.167
578.32	5.143
578.66	4.990
578.99	5.478
579.33	5.132
579.67	5.035
580.00	5.131
580.34	5.197
580.67	5.460
581.01	5.532
581.35	5.052
581.68	5.133
582.02	4.950
582.35	4.955
582.69	5.135
583.02	5.106
583.36	5.395
583.70	5.445
584.03	5.355
584.37	5.823
584.70	5.486
585.04	5.479
585.37	5.755
585.71	5.780
586.04	5.678
586.38	5.669
586.72	5.965
587.05	5.515
587.39	5.435
587.72	5.643
588.06	5.790
588.39	5.652
588.73	5.867
589.06	5.983
589.40	5.960
589.73	6.477
590.07	6.263
590.40	6.028
590.73	6.167
591.07	6.471
591.40	6.917
591.74	6.970
592.07	7.024
592.41	6.573
592.74	6.779
593.08	5.763
593.41	6.074
593.75	5.809
594.08	5.900
594.41	6.504
594.75	6.359
595.08	6.263
595.42	6.515
595.75	5.947
596.09	6.534
596.42	6.680
596.75	6.669
597.09	7.619
597.42	6.408
597.75	6.555
598.09	6.435
598.42	6.186
598.76	6.283
599.09	6.423
599.42	6.587
599.76	6.076
600.09	6.084
600.42	6.282
600.76	6.107
601.09	6.448
601.42	6.317
601.76	6.186
602.09	6.443
602.42	6.887
602.76	6.610
603.09	6.412
603.42	6.521
603.76	6.593
604.09	6.204
604.42	6.319
604.76	7.254
605.09	6.684
605.42	6.242
605.75	6.374
606.09	6.141
606.42	6.457
606.75	6.678
607.09	7.116
607.42	6.718
607.75	6.245
608.08	6.513
608.42	6.813
608.75	6.763
609.08	6.707
609.41	7.092
609.75	7.194
610.08	7.446
610.41	6.471
610.74	6.812
611.07	6.571
611.41	6.575
611.74	7.592
612.07	7.505
612.40	7.608
612.73	6.526
613.07	7.220
613.40	7.214
613.73	7.027
614.06	6.290
614.39	7.551
614.72	7.526
615.06	7.721
615.39	6.847
615.72	7.260
616.05	6.911
616.38	7.838
616.71	6.888
617.05	7.067
617.38	7.035
617.71	7.387
618.04	7.812
618.37	6.978
618.70	7.716
619.03	8.553
619.36	7.536
619.69	8.099
620.03	8.379
620.36	8.422
620.69	8.904
621.02	8.628
621.35	7.909
621.68	7.555
622.01	7.585
622.34	8.094
622.67	8.289
623.00	7.557
623.33	7.577
623.66	8.435
623.99	7.437
624.32	7.703
624.65	8.404
624.99	6.799
625.32	7.603
625.65	7.739
625.98	7.686
626.31	8.554
626.64	8.490
626.97	8.063
627.30	8.562
627.63	8.942
627.96	9.504
628.29	8.399
628.62	9.332
628.95	10.377
629.28	8.942
629.61	10.632
629.94	8.857
630.26	8.866
630.59	9.533
630.92	9.674
631.25	8.983
631.58	10.210
631.91	8.722
632.24	9.599
632.57	9.759
632.90	9.649
633.23	10.850
633.56	10.282
633.89	11.438
634.22	9.875
634.55	11.834
634.88	8.982
635.20	10.155
635.53	10.482
635.86	10.149
636.19	10.941
636.52	9.573
636.85	10.080
637.18	8.871
637.51	12.057
637.83	9.125
638.16	10.614
638.49	11.461
638.82	12.769
639.15	11.250
639.48	12.219
639.81	12.466
640.13	11.328
640.46	10.738
640.79	12.153
641.12	9.491
641.45	13.687
641.77	10.015
642.10	13.889
642.43	11.411
642.76	11.765
643.09	11.656
643.41	11.077
643.74	12.500
644.07	12.652
644.40	14.877
644.73	13.858
645.05	15.531
645.38	12.164
645.71	10.950
646.04	13.289
646.36	13.022
646.69	14.716
647.02	13.776
647.35	13.402
647.67	13.805
648.00	11.870
648.33	11.056
648.66	11.515
648.98	12.444
649.31	11.958
649.64	11.360
649.96	11.475
650.29	13.428
650.62	12.945
650.94	12.156
651.27	13.514
651.60	13.311
651.92	11.821
652.25	11.889
652.58	12.773
652.90	12.638
653.23	12.327
653.56	12.441
653.88	14.105
654.21	13.270
654.54	12.706
654.86	13.084
655.19	10.135
655.52	5.798
655.84	4.242
656.17	5.035
656.49	6.933
656.82	6.815
657.15	5.207
657.47	3.912
657.80	3.155
658.13	3.169
658.45	4.958
658.78	5.096
659.10	5.523
659.43	6.059
659.75	6.655
660.08	7.405
660.41	10.335
660.73	11.817
661.06	10.987
661.38	15.273
661.71	14.615
662.03	16.371
662.36	13.320
662.68	13.253
663.01	13.131
663.33	13.163
663.66	17.227
663.98	14.471
664.31	14.706
664.63	13.360
664.96	13.280
665.28	17.008
665.61	15.010
665.93	13.280
666.26	11.765
666.58	14.017
666.91	16.068
667.23	15.056
667.56	15.335
667.88	17.735
668.21	15.778
668.53	10.846
668.86	16.017
669.18	14.925
669.50	15.870
669.83	15.468
670.15	12.889
670.48	13.072
670.80	15.948
671.13	16.561
671.45	14.043
671.77	15.071
672.10	15.712
672.42	13.428
672.75	13.433
673.07	12.148
673.39	11.031
673.72	13.477
674.04	12.745
674.37	12.816
674.69	12.679
675.01	12.971
675.34	15.195
675.66	16.000
675.98	16.293
676.31	16.176
676.63	14.437
676.95	16.143
677.28	14.019
677.60	14.286
677.92	17.722
678.25	15.606
678.57	12.749
678.89	15.431
679.22	13.360
679.54	14.313
679.86	15.229
680.18	12.701
680.51	13.652
680.83	13.879
681.15	15.094
681.48	14.556
681.80	12.379
682.12	12.452
682.44	10.058
682.77	16.293
683.09	16.953
683.41	14.856
683.73	16.336
684.06	14.876
684.38	13.894
684.70	13.566
685.02	12.195
685.34	13.919
685.67	13.112
685.99	12.027
686.31	12.628
686.63	11.837
686.96	11.607
687.28	14.440
687.60	12.681
687.92	13.346
688.24	13.308
688.56	14.859
688.89	15.975
689.21	15.284
689.53	13.570
689.85	16.408
690.17	13.251
690.49	15.924
690.82	14.019
691.14	14.062
691.46	14.557
691.78	13.052
692.10	13.843
692.42	15.369
692.74	14.730
693.06	13.404
693.39	16.016
693.71	13.537
694.03	16.421
694.35	14.935
694.67	15.561
694.99	16.341
695.31	16.176
695.63	13.636
695.95	17.848
696.27	13.706
696.59	13.472
696.91	16.062
697.23	13.146
697.56	15.778
697.88	13.906
698.20	12.500
698.52	14.839
698.84	16.481
699.16	15.668
699.48	14.964
699.80	16.184
700.12	18.182
700.44	17.241
700.76	16.022
701.08	16.667
701.40	18.156
701.72	17.784
702.04	25.284
702.36	13.598
702.68	20.397
703.00	18.006
703.32	15.957
703.64	16.086
703.96	18.663
704.28	19.186
704.60	19.062
704.91	19.288
705.23	18.768
705.55	19.269
705.87	21.595
706.19	20.495
706.51	21.495
706.83	15.455
707.15	17.087
707.47	16.414
707.79	16.708
708.11	16.438
708.43	17.143
708.74	11.990
709.06	16.623
709.38	18.373
709.70	19.767
710.02	20.178
710.34	16.667
710.66	19.403
710.98	20.455
711.29	19.477
711.61	22.419
711.93	18.590
712.25	21.222
712.57	21.324
712.89	19.377
713.20	20.669
713.52	22.697
713.84	18.671
714.16	18.598
714.48	20.402
714.80	22.492
715.11	18.156
715.43	18.101
715.75	16.232
716.07	19.808
716.39	20.376
716.70	19.934
717.02	20.504
717.34	20.495
717.66	27.612
717.97	21.514
718.29	19.259
718.61	19.343
718.93	25.000
719.24	20.415
719.56	21.695
719.88	22.034
720.20	23.311
720.51	20.209
720.83	22.677
721.15	23.134
721.46	21.631
721.78	23.656
722.10	22.264
722.42	23.684
722.73	23.221
723.05	20.492
723.37	21.862
723.68	26.255
724.00	20.325
724.32	24.194
724.63	21.138
724.95	25.523
725.27	24.291
725.58	26.172
725.90	22.263
726.22	20.755
726.53	20.833
726.85	22.526
727.16	24.911
727.48	20.922
727.80	20.833
728.11	27.174
728.43	22.308
728.74	19.713
729.06	25.182
729.38	21.691
729.69	23.843
730.01	19.454
730.32	16.667
730.64	17.726
730.96	18.152
731.27	18.212
731.59	20.183
731.90	18.076
732.22	18.012
732.53	18.576
732.85	20.513
733.16	20.257
733.48	19.934
733.80	19.805
734.11	21.338
734.43	22.189
734.74	17.143
735.06	18.052
735.37	21.965
735.69	15.924
736.00	21.569
736.32	22.118
736.63	17.252
736.95	22.045
737.26	12.925
737.58	19.355
737.89	22.074
738.21	18.089
738.52	20.714
738.83	20.000
739.15	20.769
739.46	21.533
739.78	19.792
740.09	22.154
740.41	23.871
740.72	19.512
741.04	22.222
741.35	25.417
741.66	24.889
741.98	23.113
742.29	27.273
742.61	29.741
742.92	21.719
743.23	23.504
743.55	26.400
743.86	21.930
744.18	31.416
744.49	24.402
744.80	27.700
745.12	30.000
745.43	29.075
745.74	29.730
746.06	27.523
746.37	28.700
746.68	26.697
747.00	28.241
747.31	28.095
747.62	25.221
747.94	24.229
748.25	20.426
748.56	27.313
748.88	30.198
749.19	28.500
749.50	20.465
749.82	19.106
750.13	22.041
750.44	19.343
750.75	25.263
751.07	23.473
751.38	20.906
751.69	20.217
752.01	21.429
752.32	22.383
752.63	19.149
752.94	26.639
753.26	27.200
753.57	19.919
753.88	28.516
754.19	21.786
754.51	19.792
754.82	22.744
755.13	22.264
755.44	19.173
755.75	20.438
756.07	18.085
756.38	15.328
756.69	23.490
757.00	16.467
757.31	20.178
757.63	19.006
757.94	16.622
758.25	17.892
758.56	15.309
758.87	15.323
759.18	19.394
759.50	21.003
759.81	19.938
760.12	15.937
760.43	16.332
760.74	17.120
761.05	19.492
761.36	17.112
761.67	19.318
761.99	16.149
762.30	23.611
762.61	24.046
762.92	25.781
763.23	23.529
763.54	23.200
763.85	19.531
764.16	26.154
764.47	23.194
764.78	20.141
765.10	18.038
765.41	17.994
765.72	20.359
766.03	21.003
766.34	19.667
766.65	25.106
766.96	26.496
767.27	27.919
767.58	26.562
767.89	33.684
768.20	34.483
768.51	33.503
768.82	28.899
769.13	24.390
769.44	25.506
769.75	21.030
770.06	21.560
770.37	29.864
770.68	24.537
770.99	22.222
771.30	18.033
771.61	24.215
771.92	24.180
772.23	24.370
772.54	23.590
772.85	31.414
773.16	34.574
773.47	30.978
773.78	31.980
774.09	31.548
774.39	25.146
774.70	26.543
775.01	30.435
775.32	39.869
775.63	36.842
775.94	39.568
776.25	44.094
776.56	35.075
776.87	36.885
777.18	46.094
777.48	44.275
777.79	40.909
778.10	46.667
778.41	37.500
778.72	40.876
779.03	42.282
779.34	37.584
779.65	27.027
779.95	37.423
780.26	39.216
780.57	46.207
780.88	44.531
781.19	41.353
781.50	40.541
781.80	32.704
782.11	28.249
782.42	31.646
782.73	30.675
783.04	37.162
783.34	37.324
783.65	45.890
783.96	38.806
784.27	32.867
784.57	33.094
784.88	39.815
785.19	53.968
785.50	44.340
785.81	46.269
786.11	50.820
786.42	44.961
786.73	46.903
787.04	48.113
787.34	39.286
787.65	45.000
787.96	46.847
788.26	44.628
788.57	46.610
788.88	51.240
789.19	47.222
789.49	50.000
789.80	45.038
790.11	53.333
790.41	60.396
790.72	55.422
791.03	55.435
791.33	59.302
791.64	59.794
791.95	62.376
792.25	64.444
792.56	68.831
792.87	75.641
793.17	74.684
793.48	62.069
793.79	68.966
794.09	48.864
794.40	48.739
794.70	40.441
795.01	39.259
795.32	38.129
795.62	40.945
795.93	40.517
796.23	53.097
796.54	50.588
796.85	58.108
797.15	78.873
797.46	71.212
797.76	61.446
798.07	62.025
798.37	67.692
798.68	74.242
798.99	63.380
799.29	68.831
799.60	61.364
799.90	73.973
800.21	80.597
800.51	74.138
800.82	84.211
801.12	81.967
801.43	89.394
801.73	70.270
802.04	79.365
802.34	77.778
802.65	81.250
802.95	101.695
803.26	93.750
803.56	67.143
803.87	73.846
804.17	75.000
804.48	103.704
804.78	87.931
805.09	80.882
805.39	88.462
805.70	92.857
806.00	86.885
806.30	68.182
806.61	67.073
806.91	64.557
807.22	67.105
807.52	55.224
807.83	71.831
808.13	81.250
808.43	80.000
808.74	59.211
809.04	76.812
809.35	77.612
809.65	77.632
809.95	106.452
810.26	79.661
810.56	93.651
810.86	113.636
811.17	116.667
811.47	96.667
811.77	87.037
812.08	109.091
812.38	104.000
812.69	130.556
812.99	156.818
813.29	126.531
813.59	92.857
813.90	104.082
814.20	107.273
814.50	86.154
814.81	97.059
815.11	89.796
815.41	77.049
815.72	152.381
816.02	103.636
816.32	114.286
816.62	102.500
816.93	104.878
817.23	135.714
817.53	127.273
817.84	151.515
818.14	126.087
818.44	120.000
818.74	173.529
819.04	132.500
819.35	148.571
819.65	138.235
819.95	157.143
820.25	155.000
820.56	146.154
820.86	131.818
821.16	123.256
821.46	117.949
821.76	108.000
822.07	154.286
822.37	125.000
822.67	157.576
822.97	105.882
823.27	157.143
823.57	159.459
823.88	155.000
824.18	156.667
824.48	119.048
824.78	220.000
825.08	191.667
825.38	159.459
825.69	121.951
825.99	150.000
826.29	168.966
826.59	139.474
826.89	126.316
827.19	158.824
827.49	154.839
827.79	143.182
828.09	111.364
828.39	123.404
828.70	108.163
829.00	162.963
829.30	145.161
829.60	132.500
829.90	273.333
830.20	200.000
830.50	169.565
830.80	226.087
831.10	160.000
831.40	176.667
831.70	143.478
832.00	250.000
832.30	177.778
832.60	318.750
832.90	170.000
833.20	321.429
833.50	187.097
833.80	148.276
834.10	203.125
834.40	211.538
834.70	294.444
835.00	276.190
835.30	120.000
835.60	269.231
835.90	206.897
836.20	335.714
836.50	179.310
836.80	172.000
837.10	163.889
837.40	252.381
837.70	311.765
838.00	181.481
838.30	266.667
838.60	271.429
838.90	223.077
839.19	230.000
839.49	292.857
839.79	325.000
840.09	260.000
840.39	252.381
840.69	221.739
840.99	255.556
841.29	460.000
841.59	300.000
841.88	337.500
842.18	162.069
842.48	266.667
842.78	176.667
843.08	256.522
843.38	171.875
843.68	950.000
843.97	226.923
844.27	227.586
844.57	309.524
844.87	356.250
845.17	170.370
845.47	1400.000
845.76	355.556
846.06	264.706
846.36	437.500
846.66	350.000
846.96	293.750
847.25	436.364
847.55	336.364
847.85	239.130
848.15	530.000
848.44	371.429
848.74	238.889
849.04	317.647
849.34	510.000
849.63	268.421
849.93	536.364
850.23	1220.000
850.53	485.714
850.82	2450.000
851.12	-4900.000
851.42	4300.000
851.71	275.000
852.01	-966.667
852.31	191.667
852.61	1400.000
852.90	276.190
853.20	212.000
853.50	294.118
853.79	242.857
854.09	204.167
854.39	331.250
854.68	148.649
854.98	200.000
855.28	156.667
855.57	182.759
855.87	188.889
856.17	205.263
856.46	226.667
856.76	258.824
857.05	179.310
857.35	191.667
857.65	326.667
857.94	239.130
858.24	226.923
858.53	245.000
858.83	222.727
859.13	346.667
859.42	0.000
859.72	588.889
860.01	536.364
860.31	250.000
860.60	284.211
860.90	230.435
861.20	488.889
861.49	516.667
861.79	-4900.000
862.08	550.000
862.38	266.667
862.67	338.462
862.97	335.294
863.26	466.667
863.56	238.889
863.85	341.667
864.15	475.000
864.44	300.000
864.74	800.000
865.03	600.000
865.33	300.000
865.62	463.636
865.92	376.923
866.21	333.333
866.51	0.000
866.80	354.545
867.10	1180.000
867.39	484.615
867.69	445.455
867.98	263.158
868.27	418.182
868.57	300.000
868.86	-4800.000
869.16	318.750
869.45	2250.000
869.75	-4700.000
870.04	425.000
870.33	785.714
870.63	1200.000
870.92	2450.000
871.22	771.429
871.51	300.000
871.80	219.048
872.10	364.286
>>>>>End Processed Spectral Data<<<<<
