SpectraSuite Data File
++++++++++++++++++++++++++++++++++++
Date: Wed May 13 16:45:07 PDT 2015
User: schluterlab
Dark Spectrum Present: Yes
Reference Spectrum Present: Yes
Number of Sampled Component Spectra: 1
Spectrometers: USB2E3373
Integration Time (usec): 3000 (USB2E3373)
Spectra Averaged: 3 (USB2E3373)
Boxcar Smoothing: 0 (USB2E3373)
Correct for Electrical Dark: No (USB2E3373)
Strobe/Lamp Enabled: No (USB2E3373)
Correct for Detector Non-linearity: No (USB2E3373)
Correct for Stray Light: No (USB2E3373)
Number of Pixels in Processed Spectrum: 2048
>>>>>Begin Processed Spectral Data<<<<<
178.53	0.000
178.91	-1175.000
179.29	-1325.000
179.67	-227.778
180.04	-1275.000
180.42	2600.000
180.80	1080.000
181.18	-1025.000
181.56	685.714
181.94	0.000
182.31	-671.429
182.69	1166.667
183.07	-437.500
183.45	-500.000
183.83	527.273
184.20	-420.000
184.58	1750.000
184.96	5900.000
185.34	-880.000
185.72	-587.500
186.09	-2700.000
186.47	2700.000
186.85	2050.000
187.23	5000.000
187.61	-1600.000
187.98	1275.000
188.36	609.091
188.74	490.909
189.12	-780.000
189.49	460.000
189.87	-5700.000
190.25	-1225.000
190.63	357.143
191.00	438.462
191.38	916.667
191.76	-1025.000
192.14	1525.000
192.51	600.000
192.89	983.333
193.27	612.500
193.65	-1275.000
194.02	510.000
194.40	860.000
194.78	530.000
195.15	508.333
195.53	570.000
195.91	-2000.000
196.29	318.750
196.66	310.526
197.04	-360.000
197.42	0.000
197.79	540.000
198.17	-4300.000
198.55	714.286
198.92	637.500
199.30	820.000
199.68	0.000
200.05	311.111
200.43	814.286
200.81	5000.000
201.18	1666.667
201.56	-1766.667
201.94	522.222
202.31	566.667
202.69	408.333
203.07	450.000
203.44	0.000
203.82	1375.000
204.19	828.571
204.57	421.429
204.95	625.000
205.32	1666.667
205.70	409.091
206.08	442.857
206.45	2550.000
206.83	368.750
207.20	983.333
207.58	780.000
207.96	300.000
208.33	700.000
208.71	-750.000
209.08	642.857
209.46	600.000
209.84	472.727
210.21	-1666.667
210.59	1325.000
210.96	-525.000
211.34	2650.000
211.71	490.000
212.09	700.000
212.46	0.000
212.84	1766.667
213.22	1250.000
213.59	-4500.000
213.97	916.667
214.34	700.000
214.72	627.273
215.09	1240.000
215.47	-2400.000
215.84	-2150.000
216.22	1700.000
216.59	378.571
216.97	1075.000
217.34	454.545
217.72	-683.333
218.09	0.000
218.47	-4700.000
218.84	722.222
219.22	671.429
219.59	1900.000
219.97	-614.286
220.34	820.000
220.72	-1633.333
221.09	364.286
221.47	1350.000
221.84	-716.667
222.22	0.000
222.59	1450.000
222.97	-2400.000
223.34	1220.000
223.72	469.231
224.09	1000.000
224.46	2250.000
224.84	-4600.000
225.21	-940.000
225.59	-4600.000
225.96	590.000
226.34	295.000
226.71	2550.000
227.08	487.500
227.46	500.000
227.83	-950.000
228.21	-1950.000
228.58	444.444
228.95	-2650.000
229.33	-2250.000
229.70	1466.667
230.08	642.857
230.45	-700.000
230.82	408.333
231.20	833.333
231.57	728.571
231.95	416.667
232.32	286.364
232.69	372.727
233.07	628.571
233.44	415.385
233.81	-1633.333
234.19	273.684
234.56	425.000
234.93	325.000
235.31	427.273
235.68	376.923
236.05	271.429
236.43	139.394
236.80	252.632
237.17	3700.000
237.55	219.048
237.92	228.571
238.29	280.952
238.67	180.645
239.04	206.897
239.41	130.556
239.79	95.652
240.16	121.429
240.53	129.545
240.91	98.039
241.28	92.000
241.65	106.000
242.02	89.855
242.40	83.871
242.77	71.667
243.14	51.613
243.51	74.157
243.89	69.412
244.26	56.667
244.63	55.914
245.00	64.894
245.38	50.495
245.75	59.813
246.12	43.119
246.49	59.854
246.87	53.600
247.24	54.615
247.61	45.714
247.98	40.523
248.36	40.541
248.73	38.854
249.10	49.045
249.47	36.158
249.84	38.503
250.22	27.807
250.59	32.544
250.96	38.384
251.33	34.123
251.70	39.604
252.08	33.333
252.45	32.287
252.82	26.957
253.19	30.213
253.56	32.549
253.94	33.610
254.31	31.250
254.68	31.923
255.05	26.937
255.42	32.927
255.79	29.044
256.16	32.130
256.54	27.208
256.91	31.317
257.28	26.259
257.65	24.092
258.02	28.882
258.39	24.606
258.76	23.746
259.14	25.298
259.51	23.404
259.88	22.981
260.25	25.378
260.62	21.387
260.99	27.019
261.36	22.523
261.73	24.642
262.10	22.674
262.47	25.070
262.85	22.284
263.22	22.222
263.59	25.926
263.96	22.253
264.33	21.410
264.70	21.053
265.07	23.018
265.44	23.232
265.81	19.951
266.18	20.603
266.55	20.732
266.92	22.604
267.29	21.759
267.66	22.936
268.03	20.909
268.40	20.561
268.77	17.900
269.14	21.622
269.51	21.219
269.88	19.580
270.25	18.284
270.62	18.876
270.99	20.645
271.36	20.815
271.73	18.925
272.10	21.522
272.47	20.215
272.84	20.563
273.21	18.658
273.58	21.616
273.95	19.497
274.32	19.421
274.69	20.557
275.06	17.126
275.43	19.362
275.80	20.441
276.17	19.552
276.54	20.998
276.91	16.798
277.28	18.164
277.65	19.923
278.02	17.598
278.39	19.531
278.76	17.636
279.13	19.245
279.50	18.808
279.87	18.924
280.23	18.762
280.60	18.569
280.97	17.930
281.34	17.345
281.71	19.818
282.08	20.154
282.45	16.909
282.82	18.117
283.19	16.578
283.56	17.368
283.92	17.766
284.29	17.284
284.66	16.152
285.03	16.456
285.40	16.197
285.77	15.825
286.14	16.753
286.51	17.000
286.87	17.436
287.24	18.078
287.61	17.657
287.98	17.370
288.35	14.263
288.72	17.445
289.08	17.214
289.45	17.298
289.82	17.886
290.19	14.757
290.56	15.773
290.93	14.502
291.29	14.724
291.66	15.782
292.03	18.169
292.40	16.593
292.77	14.645
293.13	16.567
293.50	15.743
293.87	15.852
294.24	14.667
294.60	15.721
294.97	16.424
295.34	14.669
295.71	15.767
296.08	13.390
296.44	13.893
296.81	14.135
297.18	16.396
297.55	12.005
297.91	13.720
298.28	15.930
298.65	15.274
299.02	14.888
299.38	14.608
299.75	10.916
300.12	13.410
300.48	13.250
300.85	13.564
301.22	14.140
301.59	12.374
301.95	13.980
302.32	12.195
302.69	13.501
303.05	13.212
303.42	12.346
303.79	12.344
304.15	12.587
304.52	12.283
304.89	11.266
305.25	13.457
305.62	13.930
305.99	12.751
306.35	12.975
306.72	13.901
307.09	13.430
307.45	13.288
307.82	12.165
308.19	13.355
308.55	12.945
308.92	12.352
309.29	12.249
309.65	11.983
310.02	13.319
310.38	13.226
310.75	12.883
311.12	13.101
311.48	13.689
311.85	13.522
312.22	13.736
312.58	12.682
312.95	13.622
313.31	13.398
313.68	14.033
314.05	13.807
314.41	13.367
314.78	13.696
315.14	14.002
315.51	14.624
315.87	14.257
316.24	14.499
316.61	14.522
316.97	14.579
317.34	13.992
317.70	15.296
318.07	15.399
318.43	15.166
318.80	17.901
319.16	16.008
319.53	15.666
319.89	17.048
320.26	17.400
320.62	17.262
320.99	17.172
321.35	19.091
321.72	19.097
322.08	19.447
322.45	20.000
322.81	19.961
323.18	21.484
323.54	19.852
323.91	20.660
324.27	20.268
324.64	20.224
325.00	20.469
325.37	22.202
325.73	21.634
326.10	22.065
326.46	21.953
326.83	23.296
327.19	22.972
327.56	23.345
327.92	23.710
328.29	22.893
328.65	25.506
329.01	25.090
329.38	23.867
329.74	26.223
330.11	25.825
330.47	25.253
330.84	26.195
331.20	25.410
331.56	25.963
331.93	26.759
332.29	25.200
332.66	25.487
333.02	26.325
333.38	26.649
333.75	27.540
334.11	27.135
334.48	26.708
334.84	26.011
335.20	26.364
335.57	26.927
335.93	24.464
336.29	26.557
336.66	26.871
337.02	26.697
337.38	27.315
337.75	27.273
338.11	26.589
338.47	26.796
338.84	27.681
339.20	25.872
339.56	26.825
339.93	26.000
340.29	25.091
340.65	26.649
341.02	26.440
341.38	27.491
341.74	25.789
342.11	26.725
342.47	28.546
342.83	26.199
343.20	27.619
343.56	27.464
343.92	26.754
344.28	25.935
344.65	26.827
345.01	25.673
345.37	26.587
345.73	26.481
346.10	27.280
346.46	25.932
346.82	27.183
347.19	25.731
347.55	27.176
347.91	26.942
348.27	27.362
348.63	25.251
349.00	25.809
349.36	25.698
349.72	25.662
350.08	25.689
350.45	27.095
350.81	25.183
351.17	26.013
351.53	25.962
351.89	25.743
352.26	25.178
352.62	26.624
352.98	26.013
353.34	25.883
353.70	26.514
354.07	26.694
354.43	25.952
354.79	26.388
355.15	25.778
355.51	26.938
355.87	26.041
356.24	26.221
356.60	25.100
356.96	25.503
357.32	25.756
357.68	26.299
358.04	26.207
358.40	26.049
358.77	25.900
359.13	26.204
359.49	25.804
359.85	24.444
360.21	25.917
360.57	26.926
360.93	25.385
361.29	26.002
361.66	26.161
362.02	25.149
362.38	26.464
362.74	25.223
363.10	25.907
363.46	24.431
363.82	25.624
364.18	26.652
364.54	26.672
364.90	26.771
365.26	27.500
365.62	26.150
365.98	26.589
366.35	25.072
366.71	26.464
367.07	25.346
367.43	26.343
367.79	26.981
368.15	27.371
368.51	26.090
368.87	26.767
369.23	26.481
369.59	26.575
369.95	26.250
370.31	26.425
370.67	26.014
371.03	27.865
371.39	26.749
371.75	26.324
372.11	26.031
372.47	27.859
372.83	27.666
373.19	26.228
373.55	26.903
373.91	27.909
374.27	26.254
374.63	27.418
374.99	28.178
375.35	26.727
375.71	27.485
376.07	25.995
376.42	27.579
376.78	27.966
377.14	27.748
377.50	28.675
377.86	27.261
378.22	27.876
378.58	26.441
378.94	26.524
379.30	27.672
379.66	27.157
380.02	27.396
380.38	26.230
380.74	28.211
381.09	27.445
381.45	28.457
381.81	27.641
382.17	28.662
382.53	27.484
382.89	27.901
383.25	27.705
383.61	28.315
383.97	28.518
384.32	28.384
384.68	27.881
385.04	28.457
385.40	28.111
385.76	28.194
386.12	27.396
386.48	29.012
386.83	28.865
387.19	28.942
387.55	27.891
387.91	27.872
388.27	27.590
388.62	29.133
388.98	27.518
389.34	28.849
389.70	28.265
390.06	28.517
390.42	28.599
390.77	28.244
391.13	28.462
391.49	28.744
391.85	27.371
392.20	27.823
392.56	27.841
392.92	28.428
393.28	27.160
393.64	28.477
393.99	27.978
394.35	28.846
394.71	27.854
395.07	27.726
395.42	28.059
395.78	28.753
396.14	28.057
396.50	28.822
396.85	27.273
397.21	28.113
397.57	28.022
397.92	28.726
398.28	27.074
398.64	27.718
399.00	27.756
399.35	27.580
399.71	27.662
400.07	28.563
400.42	28.589
400.78	29.433
401.14	28.232
401.49	28.478
401.85	27.405
402.21	28.024
402.57	27.020
402.92	27.743
403.28	28.982
403.63	27.599
403.99	27.070
404.35	27.697
404.70	27.938
405.06	26.966
405.42	27.823
405.77	27.086
406.13	27.370
406.49	27.144
406.84	27.643
407.20	26.891
407.55	27.441
407.91	28.067
408.27	28.143
408.62	27.634
408.98	27.819
409.34	27.368
409.69	27.419
410.05	26.952
410.40	26.972
410.76	26.583
411.11	27.382
411.47	26.965
411.83	27.489
412.18	26.407
412.54	27.460
412.89	26.084
413.25	27.509
413.60	27.486
413.96	26.715
414.31	26.367
414.67	27.567
415.03	26.689
415.38	27.191
415.74	27.781
416.09	26.649
416.45	26.573
416.80	27.098
417.16	27.547
417.51	27.140
417.87	27.746
418.22	27.066
418.58	26.727
418.93	27.457
419.29	27.626
419.64	26.763
420.00	26.585
420.35	26.841
420.71	26.898
421.06	27.387
421.42	27.251
421.77	26.682
422.12	26.334
422.48	26.012
422.83	27.024
423.19	26.740
423.54	27.220
423.90	27.188
424.25	27.080
424.61	26.726
424.96	26.181
425.31	26.689
425.67	26.685
426.02	26.229
426.38	27.717
426.73	26.975
427.09	28.024
427.44	27.257
427.79	26.279
428.15	27.738
428.50	27.033
428.85	27.950
429.21	26.781
429.56	27.061
429.92	26.673
430.27	26.713
430.62	26.062
430.98	27.141
431.33	26.753
431.68	27.539
432.04	26.305
432.39	27.813
432.74	28.007
433.10	27.391
433.45	27.988
433.80	26.497
434.16	26.763
434.51	26.368
434.86	26.967
435.22	27.793
435.57	27.477
435.92	26.858
436.28	26.631
436.63	27.373
436.98	27.476
437.34	27.609
437.69	28.121
438.04	27.094
438.39	27.761
438.75	27.949
439.10	26.648
439.45	28.867
439.81	27.976
440.16	27.047
440.51	28.354
440.86	27.504
441.22	27.642
441.57	27.866
441.92	27.431
442.27	27.072
442.63	27.014
442.98	28.845
443.33	27.446
443.68	27.310
444.03	27.282
444.39	27.264
444.74	28.030
445.09	27.817
445.44	27.884
445.79	27.363
446.15	28.534
446.50	28.541
446.85	27.801
447.20	27.945
447.55	28.420
447.91	27.468
448.26	28.047
448.61	28.717
448.96	29.070
449.31	29.415
449.66	28.025
450.02	27.131
450.37	28.401
450.72	28.539
451.07	28.641
451.42	28.024
451.77	28.949
452.12	28.118
452.47	28.296
452.83	29.604
453.18	29.340
453.53	29.623
453.88	28.943
454.23	29.348
454.58	28.407
454.93	29.943
455.28	29.302
455.63	29.490
455.98	30.536
456.34	28.894
456.69	29.368
457.04	29.226
457.39	28.814
457.74	28.961
458.09	29.730
458.44	29.304
458.79	28.037
459.14	28.499
459.49	29.247
459.84	28.476
460.19	28.403
460.54	28.704
460.89	29.183
461.24	29.569
461.59	30.564
461.94	28.915
462.29	28.961
462.64	29.228
462.99	28.692
463.34	29.267
463.69	29.206
464.04	29.159
464.39	29.043
464.74	28.639
465.09	29.192
465.44	29.418
465.79	28.076
466.14	27.969
466.49	28.865
466.84	28.955
467.19	28.908
467.54	29.500
467.89	28.872
468.24	28.796
468.59	29.365
468.94	28.406
469.29	29.049
469.64	29.518
469.99	29.296
470.34	29.326
470.68	30.172
471.03	28.367
471.38	30.160
471.73	29.647
472.08	29.934
472.43	28.769
472.78	28.440
473.13	28.947
473.48	28.402
473.83	29.024
474.17	28.749
474.52	29.529
474.87	29.772
475.22	29.193
475.57	28.963
475.92	28.200
476.27	28.861
476.61	28.627
476.96	28.092
477.31	28.467
477.66	28.556
478.01	28.437
478.36	29.455
478.70	28.453
479.05	28.381
479.40	28.966
479.75	28.012
480.10	28.827
480.45	28.510
480.79	27.664
481.14	28.425
481.49	28.429
481.84	28.212
482.19	28.487
482.53	27.615
482.88	28.246
483.23	28.785
483.58	28.207
483.92	28.257
484.27	27.451
484.62	28.793
484.97	27.316
485.31	28.356
485.66	27.483
486.01	26.050
486.36	25.427
486.70	24.561
487.05	25.553
487.40	26.302
487.75	26.342
488.09	26.994
488.44	27.418
488.79	27.848
489.13	28.571
489.48	28.589
489.83	27.924
490.17	28.146
490.52	28.122
490.87	28.358
491.22	28.104
491.56	27.563
491.91	27.734
492.26	27.239
492.60	28.295
492.95	27.689
493.30	28.131
493.64	28.185
493.99	26.880
494.34	27.983
494.68	28.388
495.03	28.759
495.37	28.060
495.72	28.558
496.07	28.399
496.41	27.478
496.76	27.792
497.11	27.195
497.45	27.667
497.80	27.639
498.14	28.502
498.49	27.659
498.84	28.571
499.18	26.762
499.53	27.968
499.87	26.934
500.22	28.026
500.56	28.350
500.91	27.212
501.26	27.691
501.60	27.575
501.95	27.681
502.29	27.976
502.64	28.073
502.98	28.004
503.33	27.239
503.67	28.213
504.02	28.064
504.36	28.311
504.71	27.553
505.06	28.289
505.40	27.321
505.75	27.097
506.09	27.940
506.44	27.479
506.78	28.544
507.13	28.269
507.47	28.232
507.82	28.014
508.16	27.710
508.51	28.361
508.85	27.656
509.19	28.827
509.54	27.755
509.88	27.409
510.23	28.432
510.57	28.328
510.92	27.965
511.26	27.338
511.61	28.112
511.95	27.557
512.30	27.572
512.64	28.318
512.98	28.349
513.33	28.319
513.67	28.335
514.02	28.030
514.36	28.236
514.70	28.500
515.05	28.946
515.39	29.333
515.74	28.491
516.08	28.508
516.42	28.579
516.77	29.766
517.11	28.024
517.46	28.837
517.80	28.920
518.14	27.968
518.49	27.946
518.83	28.352
519.17	29.330
519.52	28.466
519.86	28.523
520.20	28.786
520.55	28.785
520.89	28.954
521.23	29.554
521.58	28.872
521.92	27.802
522.26	28.676
522.61	28.660
522.95	28.484
523.29	27.998
523.64	29.512
523.98	29.636
524.32	29.071
524.66	28.443
525.01	28.676
525.35	29.182
525.69	27.525
526.04	28.349
526.38	28.859
526.72	28.221
527.06	28.625
527.41	27.847
527.75	28.424
528.09	28.581
528.43	28.617
528.78	28.703
529.12	28.545
529.46	28.904
529.80	28.713
530.15	27.913
530.49	28.185
530.83	28.544
531.17	29.634
531.51	29.637
531.86	28.774
532.20	29.987
532.54	29.020
532.88	29.140
533.22	27.233
533.57	28.889
533.91	28.537
534.25	27.886
534.59	28.737
534.93	28.138
535.27	28.244
535.62	28.510
535.96	28.060
536.30	28.608
536.64	28.525
536.98	28.932
537.32	28.901
537.66	28.867
538.01	28.571
538.35	28.248
538.69	29.100
539.03	27.940
539.37	26.965
539.71	27.738
540.05	28.170
540.39	28.239
540.73	28.008
541.07	29.202
541.42	28.767
541.76	28.839
542.10	28.266
542.44	28.212
542.78	28.129
543.12	27.575
543.46	28.590
543.80	28.107
544.14	26.637
544.48	28.063
544.82	28.865
545.16	27.716
545.50	28.149
545.84	27.554
546.18	28.754
546.52	28.217
546.86	28.591
547.20	28.051
547.54	27.455
547.88	28.253
548.22	27.958
548.56	27.987
548.90	26.953
549.24	27.677
549.58	28.718
549.92	27.610
550.26	27.557
550.60	27.732
550.94	28.099
551.28	28.530
551.62	28.253
551.96	27.088
552.30	28.396
552.64	27.654
552.98	28.542
553.32	27.984
553.66	28.630
554.00	27.591
554.34	28.571
554.68	28.755
555.02	27.151
555.36	27.905
555.69	26.793
556.03	27.322
556.37	27.217
556.71	27.149
557.05	28.922
557.39	28.202
557.73	28.229
558.07	28.281
558.41	27.352
558.75	27.553
559.08	28.486
559.42	28.647
559.76	28.676
560.10	27.266
560.44	27.044
560.78	27.545
561.12	27.573
561.45	27.445
561.79	27.357
562.13	27.163
562.47	27.937
562.81	27.685
563.15	27.692
563.48	27.321
563.82	27.071
564.16	26.488
564.50	25.977
564.84	25.790
565.17	26.384
565.51	27.412
565.85	26.586
566.19	26.675
566.52	26.726
566.86	26.100
567.20	27.300
567.54	27.683
567.88	26.073
568.21	26.561
568.55	26.289
568.89	25.681
569.23	25.624
569.56	25.385
569.90	25.358
570.24	24.758
570.57	24.311
570.91	24.047
571.25	24.027
571.59	24.242
571.92	24.050
572.26	24.437
572.60	23.994
572.93	24.108
573.27	24.283
573.61	24.288
573.95	23.902
574.28	23.869
574.62	23.931
574.96	23.154
575.29	23.303
575.63	23.857
575.97	23.562
576.30	24.456
576.64	23.503
576.98	22.970
577.31	24.006
577.65	23.496
577.98	23.321
578.32	23.074
578.66	23.291
578.99	23.602
579.33	23.287
579.67	23.036
580.00	23.376
580.34	23.968
580.67	23.328
581.01	24.331
581.35	23.768
581.68	22.875
582.02	22.739
582.35	22.911
582.69	23.195
583.02	23.080
583.36	23.565
583.70	24.326
584.03	24.112
584.37	24.822
584.70	23.798
585.04	23.777
585.37	23.369
585.71	23.520
586.04	23.484
586.38	23.955
586.72	24.606
587.05	23.635
587.39	23.298
587.72	23.525
588.06	23.719
588.39	24.198
588.73	23.878
589.06	24.618
589.40	25.017
589.73	24.921
590.07	24.342
590.40	24.187
590.73	25.176
591.07	24.990
591.40	24.757
591.74	25.844
592.07	25.785
592.41	24.680
592.74	24.307
593.08	23.951
593.41	23.980
593.75	23.392
594.08	24.036
594.41	24.496
594.75	24.399
595.08	23.908
595.42	24.483
595.75	24.608
596.09	24.972
596.42	24.637
596.75	25.327
597.09	25.325
597.42	25.084
597.75	24.881
598.09	25.087
598.42	24.785
598.76	24.524
599.09	23.413
599.42	24.017
599.76	24.451
600.09	23.934
600.42	23.192
600.76	24.179
601.09	24.007
601.42	24.277
601.76	24.402
602.09	24.229
602.42	25.119
602.76	24.627
603.09	24.626
603.42	24.951
603.76	23.666
604.09	23.614
604.42	24.664
604.76	24.884
605.09	24.596
605.42	24.455
605.75	24.421
606.09	24.237
606.42	24.520
606.75	24.803
607.09	24.655
607.42	24.561
607.75	23.460
608.08	24.620
608.42	24.563
608.75	24.887
609.08	24.191
609.41	24.988
609.75	24.964
610.08	25.778
610.41	24.441
610.74	24.882
611.07	24.704
611.41	25.859
611.74	25.792
612.07	25.466
612.40	25.971
612.73	25.158
613.07	24.784
613.40	25.487
613.73	24.646
614.06	25.000
614.39	25.957
614.72	25.579
615.06	25.368
615.39	24.575
615.72	24.642
616.05	25.253
616.38	25.514
616.71	26.010
617.05	25.442
617.38	24.534
617.71	25.105
618.04	26.262
618.37	25.370
618.70	25.638
619.03	26.184
619.36	26.884
619.69	26.408
620.03	27.129
620.36	26.203
620.69	26.027
621.02	27.065
621.35	26.155
621.68	26.558
622.01	27.709
622.34	26.853
622.67	26.616
623.00	25.312
623.33	26.519
623.66	27.019
623.99	26.951
624.32	26.748
624.65	26.059
624.99	26.841
625.32	25.706
625.65	26.446
625.98	26.979
626.31	27.605
626.64	26.939
626.97	27.515
627.30	28.013
627.63	28.220
627.96	28.175
628.29	28.521
628.62	28.820
628.95	28.396
629.28	28.376
629.61	28.323
629.94	29.048
630.26	27.264
630.59	27.550
630.92	27.874
631.25	29.319
631.58	28.128
631.91	27.079
632.24	28.692
632.57	29.066
632.90	28.399
633.23	29.754
633.56	29.379
633.89	27.746
634.22	29.285
634.55	30.296
634.88	28.144
635.20	31.900
635.53	28.072
635.86	28.465
636.19	28.706
636.52	28.950
636.85	28.751
637.18	28.571
637.51	29.905
637.83	27.744
638.16	29.668
638.49	30.605
638.82	29.456
639.15	31.750
639.48	30.798
639.81	32.440
640.13	30.469
640.46	30.067
640.79	28.798
641.12	28.473
641.45	28.492
641.77	30.928
642.10	30.994
642.43	29.880
642.76	32.198
643.09	28.834
643.41	31.259
643.74	30.247
644.07	29.878
644.40	30.828
644.73	31.496
645.05	32.013
645.38	31.438
645.71	32.528
646.04	32.890
646.36	32.554
646.69	33.445
647.02	31.122
647.35	33.505
647.67	34.690
648.00	32.195
648.33	31.683
648.66	31.515
648.98	32.534
649.31	30.493
649.64	31.091
649.96	31.297
650.29	33.491
650.62	31.230
650.94	32.901
651.27	32.264
651.60	33.444
651.92	31.150
652.25	31.270
652.58	32.243
652.90	30.964
653.23	31.125
653.56	30.236
653.88	29.952
654.21	31.438
654.54	30.363
654.86	30.374
655.19	30.000
655.52	20.980
655.84	18.337
656.17	23.045
656.49	31.252
656.82	31.709
657.15	24.423
657.47	18.007
657.80	14.217
658.13	14.852
658.45	22.872
658.78	22.513
659.10	23.890
659.43	25.119
659.75	26.440
660.08	28.291
660.41	31.192
660.73	31.385
661.06	33.121
661.38	31.455
661.71	34.615
662.03	35.700
662.36	33.002
662.68	33.333
663.01	35.354
663.33	34.395
663.66	32.983
663.98	33.045
664.31	32.563
664.63	32.591
664.96	28.773
665.28	36.066
665.61	33.138
665.93	30.584
666.26	33.671
666.58	31.590
666.91	36.152
667.23	36.629
667.56	33.693
667.88	34.188
668.21	34.115
668.53	32.972
668.86	34.416
669.18	34.542
669.50	33.913
669.83	36.601
670.15	36.889
670.48	29.847
670.80	34.483
671.13	35.456
671.45	31.277
671.77	34.623
672.10	33.272
672.42	29.682
672.75	31.675
673.07	32.570
673.39	29.295
673.72	30.859
674.04	32.353
674.37	32.816
674.69	30.675
675.01	33.473
675.34	34.292
675.66	35.789
675.98	34.420
676.31	32.563
676.63	33.333
676.95	34.591
677.28	32.710
677.60	33.846
677.92	35.865
678.25	32.238
678.57	32.470
678.89	31.663
679.22	29.470
679.54	32.824
679.86	31.927
680.18	31.664
680.51	30.674
680.83	31.317
681.15	30.189
681.48	35.161
681.80	31.528
682.12	32.184
682.44	28.433
682.77	31.772
683.09	35.837
683.41	33.038
683.73	33.113
684.06	33.678
684.38	32.094
684.70	30.426
685.02	30.769
685.34	31.868
685.67	29.021
685.99	28.179
686.31	29.181
686.63	26.855
686.96	28.036
687.28	31.408
687.60	30.435
687.92	31.079
688.24	33.270
688.56	32.731
688.89	31.328
689.21	33.624
689.53	33.194
689.85	33.038
690.17	28.571
690.49	34.395
690.82	32.710
691.14	33.259
691.46	29.958
691.78	30.120
692.10	30.785
692.42	30.539
692.74	31.328
693.06	32.979
693.39	33.060
693.71	31.004
694.03	33.053
694.35	33.117
694.67	33.410
694.99	32.195
695.31	32.598
695.63	33.971
695.95	31.296
696.27	33.249
696.59	35.233
696.91	34.197
697.23	30.282
697.56	30.917
697.88	32.311
698.20	29.792
698.52	30.108
698.84	31.849
699.16	33.410
699.48	31.354
699.80	34.300
700.12	34.805
700.44	36.074
700.76	33.978
701.08	35.345
701.40	34.358
701.72	38.776
702.04	37.216
702.36	33.711
702.68	35.694
703.00	36.011
703.32	34.309
703.64	32.440
703.96	36.490
704.28	34.012
704.60	35.191
704.91	36.795
705.23	38.710
705.55	39.867
705.87	40.532
706.19	34.982
706.51	36.137
706.83	40.909
707.15	34.734
707.47	32.828
707.79	34.644
708.11	32.648
708.43	30.952
708.74	30.612
709.06	34.545
709.38	35.696
709.70	39.244
710.02	35.015
710.34	37.273
710.66	37.313
710.98	32.955
711.29	37.791
711.61	39.528
711.93	33.013
712.25	42.444
712.57	37.500
712.89	37.024
713.20	37.386
713.52	31.250
713.84	33.544
714.16	36.280
714.48	34.770
714.80	38.906
715.11	33.718
715.43	33.234
715.75	34.493
716.07	38.978
716.39	35.423
716.70	40.864
717.02	37.050
717.34	37.809
717.66	42.537
717.97	44.622
718.29	38.519
718.61	35.401
718.93	40.809
719.24	37.024
719.56	38.305
719.88	39.322
720.20	41.554
720.51	39.373
720.83	42.007
721.15	34.701
721.46	39.716
721.78	41.219
722.10	39.623
722.42	41.353
722.73	40.824
723.05	42.213
723.37	38.866
723.68	38.996
724.00	39.837
724.32	39.919
724.63	41.463
724.95	40.586
725.27	41.296
725.58	42.969
725.90	38.321
726.22	40.000
726.53	38.194
726.85	39.590
727.16	35.943
727.48	40.071
727.80	39.015
728.11	34.420
728.43	38.462
728.74	37.276
729.06	38.686
729.38	41.176
729.69	34.875
730.01	35.154
730.32	39.931
730.64	34.448
730.96	32.343
731.27	38.079
731.59	36.391
731.90	33.236
732.22	31.366
732.53	32.508
732.85	29.808
733.16	34.084
733.48	35.880
733.80	29.545
734.11	38.854
734.43	32.544
734.74	35.429
735.06	29.226
735.37	34.393
735.69	34.395
736.00	33.007
736.32	34.891
736.63	34.824
736.95	36.422
737.26	33.673
737.58	30.645
737.89	36.455
738.21	35.154
738.52	37.143
738.83	35.094
739.15	36.923
739.46	38.321
739.78	35.069
740.09	33.538
740.41	37.742
740.72	36.934
741.04	39.630
741.35	37.083
741.66	42.222
741.98	35.849
742.29	46.411
742.61	39.655
742.92	38.462
743.23	39.316
743.55	42.800
743.86	41.228
744.18	40.708
744.49	45.455
744.80	41.315
745.12	48.636
745.43	40.088
745.74	40.991
746.06	40.367
746.37	44.395
746.68	39.819
747.00	44.444
747.31	45.714
747.62	40.708
747.94	35.242
748.25	36.170
748.56	43.172
748.88	40.594
749.19	46.000
749.50	40.000
749.82	41.870
750.13	34.694
750.44	37.226
750.75	32.982
751.07	36.013
751.38	36.934
751.69	36.823
752.01	38.346
752.32	35.018
752.63	35.816
752.94	35.656
753.26	43.600
753.57	38.211
753.88	39.453
754.19	37.143
754.51	42.361
754.82	35.379
755.13	40.377
755.44	36.842
755.75	35.401
756.07	32.624
756.38	31.752
756.69	33.557
757.00	30.240
757.31	34.421
757.63	29.825
757.94	30.027
758.25	29.412
758.56	25.432
758.87	32.527
759.18	32.121
759.50	29.781
759.81	31.776
760.12	28.750
760.43	32.665
760.74	29.891
761.05	32.486
761.36	28.075
761.67	31.250
761.99	32.919
762.30	35.069
762.61	38.931
762.92	37.891
763.23	39.916
763.54	42.800
763.85	35.937
764.16	41.154
764.47	36.122
764.78	29.682
765.10	29.747
765.41	32.448
765.72	33.832
766.03	31.348
766.34	35.000
766.65	39.574
766.96	39.316
767.27	38.579
767.58	45.833
767.89	45.263
768.20	44.253
768.51	42.132
768.82	42.202
769.13	37.805
769.44	36.842
769.75	37.339
770.06	28.440
770.37	40.724
770.68	40.278
770.99	40.444
771.30	30.738
771.61	41.704
771.92	41.393
772.23	44.538
772.54	39.487
772.85	45.550
773.16	42.553
773.47	44.565
773.78	43.655
774.09	45.833
774.39	42.105
774.70	45.679
775.01	48.551
775.32	52.941
775.63	49.342
775.94	52.518
776.25	51.181
776.56	52.985
776.87	66.393
777.18	56.250
777.48	61.069
777.79	53.030
778.10	50.370
778.41	72.321
778.72	49.635
779.03	54.362
779.34	51.678
779.65	39.189
779.95	46.012
780.26	52.288
780.57	53.103
780.88	54.688
781.19	61.654
781.50	50.676
781.80	42.767
782.11	48.588
782.42	41.139
782.73	43.558
783.04	50.000
783.34	57.042
783.65	50.685
783.96	58.955
784.27	44.755
784.57	51.079
784.88	50.926
785.19	63.492
785.50	66.981
785.81	56.716
786.11	61.475
786.42	55.814
786.73	53.982
787.04	63.208
787.34	61.607
787.65	64.000
787.96	62.162
788.26	50.413
788.57	56.780
788.88	56.198
789.19	52.778
789.49	53.030
789.80	51.145
790.11	70.476
790.41	65.347
790.72	67.470
791.03	66.304
791.33	75.581
791.64	67.010
791.95	73.267
792.25	84.444
792.56	71.429
792.87	79.487
793.17	87.342
793.48	65.517
793.79	75.862
794.09	71.591
794.40	61.345
794.70	59.559
795.01	56.296
795.32	49.640
795.62	54.331
795.93	62.069
796.23	56.637
796.54	57.647
796.85	75.676
797.15	97.183
797.46	84.848
797.76	79.518
798.07	69.620
798.37	78.462
798.68	87.879
798.99	64.789
799.29	75.325
799.60	62.500
799.90	76.712
800.21	91.045
800.51	81.034
800.82	115.789
801.12	98.361
801.43	95.455
801.73	75.676
802.04	95.238
802.34	81.481
802.65	93.750
802.95	111.864
803.26	104.688
803.56	88.571
803.87	100.000
804.17	89.706
804.48	120.370
804.78	87.931
805.09	95.588
805.39	103.846
805.70	85.714
806.00	100.000
806.30	78.788
806.61	70.732
806.91	74.684
807.22	65.789
807.52	77.612
807.83	98.592
808.13	92.188
808.43	98.333
808.74	72.368
809.04	81.159
809.35	100.000
809.65	94.737
809.95	125.806
810.26	110.169
810.56	84.127
810.86	138.636
811.17	130.952
811.47	103.333
811.77	111.111
812.08	110.909
812.38	122.000
812.69	175.000
812.99	136.364
813.29	122.449
813.59	109.524
813.90	114.286
814.20	105.455
814.50	100.000
814.81	104.412
815.11	114.286
815.41	113.115
815.72	145.238
816.02	121.818
816.32	130.952
816.62	140.000
816.93	143.902
817.23	138.095
817.53	125.000
817.84	169.697
818.14	141.304
818.44	124.444
818.74	182.353
819.04	150.000
819.35	188.571
819.65	150.000
819.95	178.571
820.25	205.000
820.56	143.590
820.86	125.000
821.16	130.233
821.46	133.333
821.76	128.000
822.07	151.429
822.37	147.500
822.67	151.515
822.97	113.725
823.27	196.429
823.57	140.541
823.88	172.500
824.18	180.000
824.48	152.381
824.78	208.000
825.08	125.000
825.38	135.135
825.69	158.537
825.99	191.667
826.29	168.966
826.59	150.000
826.89	152.632
827.19	147.059
827.49	196.774
827.79	161.364
828.09	115.909
828.39	123.404
828.70	132.653
829.00	181.481
829.30	161.290
829.60	140.000
829.90	306.667
830.20	164.286
830.50	173.913
830.80	221.739
831.10	173.333
831.40	170.000
831.70	152.174
832.00	253.846
832.30	211.111
832.60	318.750
832.90	200.000
833.20	392.857
833.50	183.871
833.80	186.207
834.10	203.125
834.40	238.462
834.70	294.444
835.00	285.714
835.30	145.714
835.60	361.538
835.90	193.103
836.20	378.571
836.50	186.207
836.80	204.000
837.10	183.333
837.40	261.905
837.70	288.235
838.00	188.889
838.30	257.143
838.60	280.952
838.90	238.462
839.19	275.000
839.49	342.857
839.79	270.000
840.09	265.000
840.39	290.476
840.69	226.087
840.99	244.444
841.29	510.000
841.59	358.333
841.88	312.500
842.18	182.759
842.48	271.429
842.78	190.000
843.08	239.130
843.38	150.000
843.68	833.333
843.97	215.385
844.27	206.897
844.57	300.000
844.87	318.750
845.17	192.593
845.47	1466.667
845.76	455.556
846.06	258.824
846.36	462.500
846.66	371.429
846.96	318.750
847.25	363.636
847.55	409.091
847.85	256.522
848.15	500.000
848.44	371.429
848.74	266.667
849.04	294.118
849.34	500.000
849.63	252.632
849.93	445.455
850.23	940.000
850.53	342.857
850.82	1950.000
851.12	-4700.000
851.42	5200.000
851.71	260.000
852.01	-1033.333
852.31	204.167
852.61	1533.333
852.90	300.000
853.20	228.000
853.50	341.176
853.79	295.238
854.09	191.667
854.39	281.250
854.68	170.270
854.98	187.097
855.28	170.000
855.57	189.655
855.87	200.000
856.17	221.053
856.46	293.333
856.76	270.588
857.05	189.655
857.35	254.167
857.65	373.333
857.94	226.087
858.24	226.923
858.53	230.000
858.83	222.727
859.13	393.333
859.42	0.000
859.72	700.000
860.01	463.636
860.31	218.182
860.60	221.053
860.90	260.870
861.20	477.778
861.49	483.333
861.79	-4800.000
862.08	600.000
862.38	266.667
862.67	238.462
862.97	341.176
863.26	466.667
863.56	294.444
863.85	466.667
864.15	637.500
864.44	333.333
864.74	733.333
865.03	737.500
865.33	273.684
865.62	436.364
865.92	430.769
866.21	391.667
866.51	0.000
866.80	463.636
867.10	980.000
867.39	392.308
867.69	500.000
867.98	305.263
868.27	418.182
868.57	331.579
868.86	-3900.000
869.16	375.000
869.45	2100.000
869.75	-3900.000
870.04	425.000
870.33	642.857
870.63	950.000
870.92	2450.000
871.22	728.571
871.51	323.529
871.80	228.571
872.10	385.714
>>>>>End Processed Spectral Data<<<<<
