SpectraSuite Data File
++++++++++++++++++++++++++++++++++++
Date: Wed May 13 16:48:17 PDT 2015
User: schluterlab
Dark Spectrum Present: Yes
Reference Spectrum Present: Yes
Number of Sampled Component Spectra: 1
Spectrometers: USB2E3373
Integration Time (usec): 3000 (USB2E3373)
Spectra Averaged: 3 (USB2E3373)
Boxcar Smoothing: 0 (USB2E3373)
Correct for Electrical Dark: No (USB2E3373)
Strobe/Lamp Enabled: No (USB2E3373)
Correct for Detector Non-linearity: No (USB2E3373)
Correct for Stray Light: No (USB2E3373)
Number of Pixels in Processed Spectrum: 2048
>>>>>Begin Processed Spectral Data<<<<<
178.53	0.000
178.91	-1125.000
179.29	-1050.000
179.67	-222.222
180.04	-1000.000
180.42	2750.000
180.80	1120.000
181.18	-1125.000
181.56	714.286
181.94	0.000
182.31	-571.429
182.69	1566.667
183.07	-550.000
183.45	-600.000
183.83	536.364
184.20	-410.000
184.58	1950.000
184.96	5100.000
185.34	-800.000
185.72	-600.000
186.09	-2000.000
186.47	2350.000
186.85	2250.000
187.23	4100.000
187.61	-1333.333
187.98	1550.000
188.36	563.636
188.74	436.364
189.12	-760.000
189.49	520.000
189.87	-4100.000
190.25	-1275.000
190.63	357.143
191.00	430.769
191.38	933.333
191.76	-1075.000
192.14	1200.000
192.51	587.500
192.89	1066.667
193.27	700.000
193.65	-1225.000
194.02	530.000
194.40	1020.000
194.78	550.000
195.15	475.000
195.53	620.000
195.91	-2100.000
196.29	343.750
196.66	284.211
197.04	-360.000
197.42	0.000
197.79	450.000
198.17	-3500.000
198.55	685.714
198.92	525.000
199.30	900.000
199.68	0.000
200.05	294.444
200.43	857.143
200.81	3700.000
201.18	1666.667
201.56	-1566.667
201.94	522.222
202.31	600.000
202.69	400.000
203.07	510.000
203.44	0.000
203.82	1025.000
204.19	728.571
204.57	442.857
204.95	587.500
205.32	1533.333
205.70	463.636
206.08	328.571
206.45	2150.000
206.83	356.250
207.20	733.333
207.58	580.000
207.96	344.444
208.33	600.000
208.71	-850.000
209.08	871.429
209.46	555.556
209.84	454.545
210.21	-1566.667
210.59	1450.000
210.96	-437.500
211.34	2200.000
211.71	560.000
212.09	850.000
212.46	0.000
212.84	1600.000
213.22	1350.000
213.59	-4000.000
213.97	816.667
214.34	700.000
214.72	500.000
215.09	1200.000
215.47	-2100.000
215.84	-2000.000
216.22	1766.667
216.59	328.571
216.97	1425.000
217.34	436.364
217.72	-683.333
218.09	0.000
218.47	-4600.000
218.84	655.556
219.22	742.857
219.59	1366.667
219.97	-428.571
220.34	820.000
220.72	-1433.333
221.09	414.286
221.47	1400.000
221.84	-783.333
222.22	0.000
222.59	1525.000
222.97	-2550.000
223.34	1040.000
223.72	384.615
224.09	960.000
224.46	2450.000
224.84	-3900.000
225.21	-1020.000
225.59	-5200.000
225.96	550.000
226.34	240.000
226.71	2700.000
227.08	612.500
227.46	530.000
227.83	-1100.000
228.21	-2100.000
228.58	500.000
228.95	-2200.000
229.33	-2200.000
229.70	1966.667
230.08	671.429
230.45	-800.000
230.82	441.667
231.20	683.333
231.57	600.000
231.95	350.000
232.32	304.545
232.69	309.091
233.07	614.286
233.44	315.385
233.81	-1366.667
234.19	284.211
234.56	391.667
234.93	350.000
235.31	390.909
235.68	276.923
236.05	300.000
236.43	175.758
236.80	221.053
237.17	3400.000
237.55	214.286
237.92	167.857
238.29	214.286
238.67	132.258
239.04	182.759
239.41	125.000
239.79	95.652
240.16	135.714
240.53	111.364
240.91	74.510
241.28	70.000
241.65	86.000
242.02	68.116
242.40	59.677
242.77	90.000
243.14	63.441
243.51	68.539
243.89	64.706
244.26	44.444
244.63	53.763
245.00	47.872
245.38	54.455
245.75	46.729
246.12	41.284
246.49	46.715
246.87	52.800
247.24	33.846
247.61	35.000
247.98	35.294
248.36	29.730
248.73	26.752
249.10	33.758
249.47	26.554
249.84	29.947
250.22	26.203
250.59	23.077
250.96	22.222
251.33	30.332
251.70	28.713
252.08	22.381
252.45	22.422
252.82	21.304
253.19	23.404
253.56	24.314
253.94	21.162
254.31	23.828
254.68	23.846
255.05	18.450
255.42	19.512
255.79	18.015
256.16	18.051
256.54	15.901
256.91	19.929
257.28	11.511
257.65	16.832
258.02	17.702
258.39	17.981
258.76	14.716
259.14	17.560
259.51	18.845
259.88	14.286
260.25	14.502
260.62	14.740
260.99	15.217
261.36	17.117
261.73	12.894
262.10	14.244
262.47	17.465
262.85	12.813
263.22	10.541
263.59	17.664
263.96	12.637
264.33	10.966
264.70	14.474
265.07	13.811
265.44	13.636
265.81	11.192
266.18	13.819
266.55	12.683
266.92	13.022
267.29	12.731
267.66	11.468
268.03	12.727
268.40	12.850
268.77	13.126
269.14	12.838
269.51	13.093
269.88	9.790
270.25	10.158
270.62	11.236
270.99	14.624
271.36	13.519
271.73	10.047
272.10	12.391
272.47	13.548
272.84	10.823
273.21	13.627
273.58	12.227
273.95	9.644
274.32	11.983
274.69	11.777
275.06	10.039
275.43	11.489
275.80	11.824
276.17	10.387
276.54	11.642
276.91	11.462
277.28	9.961
277.65	12.766
278.02	10.145
278.39	10.937
278.76	10.364
279.13	10.943
279.50	9.497
279.87	9.363
280.23	9.980
280.60	9.478
280.97	7.763
281.34	10.619
281.71	12.000
282.08	11.900
282.45	11.091
282.82	10.657
283.19	8.913
283.56	9.825
283.92	10.491
284.29	8.995
284.66	8.711
285.03	8.499
285.40	8.803
285.77	10.943
286.14	9.499
286.51	12.500
286.87	9.402
287.24	9.772
287.61	10.433
287.98	8.766
288.35	9.192
288.72	7.632
289.08	8.764
289.45	9.555
289.82	8.943
290.19	6.436
290.56	8.729
290.93	7.402
291.29	9.049
291.66	8.850
292.03	11.337
292.40	9.692
292.77	7.396
293.13	8.955
293.50	8.309
293.87	8.741
294.24	7.259
294.60	7.132
294.97	8.721
295.34	9.168
295.71	8.949
296.08	6.838
296.44	7.840
296.81	6.737
297.18	9.350
297.55	5.673
297.91	8.707
298.28	8.835
298.65	7.702
299.02	7.905
299.38	7.304
299.75	6.469
300.12	5.619
300.48	7.625
300.85	7.522
301.22	6.624
301.59	6.439
301.95	8.690
302.32	6.290
302.69	8.005
303.05	7.152
303.42	7.284
303.79	8.041
304.15	6.527
304.52	7.068
304.89	7.317
305.25	7.773
305.62	6.795
305.99	7.556
306.35	8.166
306.72	7.511
307.09	7.103
307.45	7.658
307.82	6.362
308.19	6.954
308.55	7.875
308.92	7.411
309.29	6.019
309.65	6.257
310.02	7.400
310.38	7.634
310.75	7.497
311.12	7.574
311.48	8.255
311.85	8.281
312.22	6.764
312.58	7.380
312.95	8.659
313.31	7.573
313.68	7.069
314.05	9.172
314.41	8.643
314.78	7.855
315.14	8.242
315.51	8.445
315.87	8.317
316.24	8.342
316.61	7.505
316.97	8.219
317.34	7.828
317.70	9.560
318.07	9.047
318.43	9.491
318.80	9.747
319.16	10.546
319.53	9.568
319.89	10.190
320.26	11.100
320.62	9.425
320.99	12.121
321.35	10.404
321.72	10.986
322.08	13.031
322.45	12.438
322.81	11.725
323.18	11.657
323.54	11.224
323.91	11.981
324.27	12.141
324.64	11.370
325.00	12.263
325.37	13.376
325.73	13.824
326.10	12.886
326.46	12.903
326.83	14.064
327.19	14.603
327.56	13.153
327.92	14.261
328.29	14.286
328.65	13.904
329.01	14.801
329.38	14.986
329.74	13.943
330.11	13.761
330.47	13.774
330.84	15.441
331.20	13.661
331.56	15.229
331.93	14.444
332.29	14.641
332.66	15.133
333.02	14.077
333.38	15.266
333.75	14.528
334.11	15.036
334.48	14.729
334.84	14.154
335.20	15.818
335.57	14.687
335.93	13.571
336.29	15.293
336.66	15.509
337.02	14.299
337.38	15.000
337.75	14.260
338.11	14.593
338.47	15.101
338.84	15.399
339.20	14.404
339.56	16.058
339.93	14.455
340.29	14.312
340.65	14.617
341.02	14.747
341.38	15.302
341.74	15.000
342.11	15.983
342.47	14.361
342.83	14.983
343.20	16.017
343.56	14.575
343.92	14.386
344.28	15.561
344.65	14.187
345.01	15.067
345.37	13.979
345.73	15.059
346.10	15.260
346.46	15.169
346.82	14.333
347.19	15.455
347.55	14.368
347.91	15.049
348.27	15.859
348.63	14.632
349.00	15.777
349.36	14.368
349.72	14.996
350.08	14.911
350.45	15.785
350.81	15.597
351.17	14.992
351.53	14.988
351.89	14.686
352.26	16.496
352.62	16.038
352.98	15.235
353.34	15.859
353.70	14.730
354.07	16.129
354.43	15.397
354.79	16.010
355.15	15.403
355.51	15.508
355.87	15.020
356.24	15.309
356.60	15.958
356.96	15.527
357.32	15.045
357.68	15.827
358.04	14.964
358.40	15.835
358.77	16.354
359.13	15.706
359.49	15.294
359.85	14.206
360.21	15.550
360.57	16.498
360.93	15.385
361.29	14.739
361.66	15.093
362.02	15.672
362.38	17.262
362.74	16.146
363.10	14.212
363.46	16.141
363.82	15.571
364.18	15.712
364.54	17.236
364.90	15.864
365.26	16.176
365.62	15.997
365.98	15.194
366.35	14.900
366.71	16.124
367.07	15.149
367.43	16.618
367.79	16.774
368.15	16.882
368.51	15.407
368.87	16.060
369.23	15.947
369.59	15.568
369.95	16.838
370.31	16.168
370.67	15.652
371.03	16.479
371.39	16.399
371.75	16.838
372.11	15.576
372.47	16.789
372.83	17.579
373.19	16.691
373.55	17.738
373.91	17.820
374.27	16.357
374.63	17.164
374.99	17.373
375.35	16.957
375.71	16.998
376.07	18.793
376.42	17.675
376.78	17.429
377.14	17.910
377.50	18.146
377.86	17.154
378.22	18.142
378.58	17.043
378.94	17.725
379.30	17.748
379.66	17.576
380.02	18.550
380.38	17.365
380.74	18.427
381.09	18.582
381.45	18.562
381.81	18.612
382.17	18.408
382.53	18.616
382.89	19.691
383.25	18.386
383.61	19.455
383.97	19.074
384.32	19.900
384.68	18.835
385.04	18.500
385.40	19.319
385.76	18.612
386.12	19.689
386.48	18.754
386.83	20.013
387.19	20.284
387.55	19.604
387.91	19.649
388.27	19.865
388.62	21.389
388.98	19.656
389.34	19.837
389.70	20.110
390.06	20.342
390.42	19.650
390.77	20.356
391.13	20.166
391.49	20.685
391.85	20.051
392.20	19.748
392.56	19.634
392.92	21.189
393.28	19.467
393.64	20.084
393.99	20.342
394.35	19.851
394.71	21.267
395.07	19.813
395.42	20.210
395.78	21.183
396.14	20.795
396.50	21.617
396.85	21.488
397.21	19.667
397.57	21.389
397.92	20.913
398.28	20.179
398.64	20.012
399.00	20.313
399.35	20.699
399.71	20.370
400.07	21.112
400.42	21.043
400.78	20.748
401.14	20.305
401.49	20.179
401.85	20.569
402.21	20.539
402.57	20.790
402.92	21.375
403.28	21.424
403.63	21.040
403.99	20.382
404.35	21.152
404.70	20.444
405.06	19.860
405.42	20.524
405.77	20.571
406.13	20.542
406.49	20.580
406.84	20.614
407.20	20.095
407.55	20.421
407.91	21.067
408.27	20.549
408.62	20.229
408.98	19.669
409.34	19.619
409.69	20.774
410.05	20.012
410.40	19.572
410.76	20.012
411.11	20.265
411.47	19.744
411.83	20.037
412.18	20.037
412.54	20.050
412.89	20.482
413.25	20.484
413.60	20.754
413.96	19.915
414.31	20.535
414.67	20.913
415.03	21.258
415.38	19.716
415.74	20.193
416.09	19.987
416.45	19.612
416.80	20.225
417.16	21.381
417.51	19.841
417.87	20.617
418.22	20.505
418.58	20.465
418.93	20.455
419.29	19.860
419.64	20.340
420.00	19.695
420.35	20.522
420.71	19.785
421.06	19.570
421.42	20.058
421.77	20.123
422.12	19.147
422.48	18.942
422.83	20.035
423.19	20.497
423.54	20.313
423.90	20.000
424.25	20.324
424.61	20.298
424.96	19.708
425.31	19.657
425.67	19.831
426.02	19.943
426.38	20.757
426.73	20.421
427.09	19.757
427.44	19.321
427.79	19.379
428.15	20.000
428.50	20.304
428.85	20.024
429.21	19.547
429.56	19.544
429.92	19.527
430.27	19.563
430.62	18.638
430.98	19.201
431.33	19.021
431.68	19.738
432.04	19.808
432.39	19.246
432.74	20.108
433.10	19.468
433.45	20.000
433.80	19.124
434.16	18.697
434.51	19.263
434.86	19.669
435.22	19.789
435.57	20.486
435.92	18.841
436.28	19.632
436.63	19.868
436.98	19.290
437.34	19.439
437.69	19.837
438.04	19.337
438.39	19.582
438.75	20.279
439.10	19.497
439.45	19.776
439.81	18.610
440.16	19.255
440.51	19.215
440.86	20.382
441.22	19.077
441.57	20.011
441.92	19.243
442.27	19.483
442.63	19.168
442.98	19.662
443.33	19.402
443.68	18.482
444.03	19.375
444.39	18.014
444.74	19.264
445.09	19.191
445.44	18.972
445.79	18.902
446.15	19.746
446.50	18.686
446.85	18.808
447.20	19.174
447.55	19.821
447.91	19.140
448.26	19.087
448.61	19.107
448.96	19.380
449.31	19.685
449.66	18.683
450.02	18.719
450.37	18.878
450.72	19.064
451.07	19.317
451.42	18.602
451.77	20.552
452.12	19.111
452.47	19.465
452.83	19.231
453.18	19.682
453.53	19.542
453.88	18.724
454.23	19.725
454.58	18.958
454.93	20.025
455.28	18.579
455.63	19.175
455.98	20.179
456.34	18.781
456.69	18.910
457.04	19.628
457.39	18.527
457.74	19.385
458.09	18.804
458.44	18.757
458.79	17.950
459.14	18.792
459.49	19.381
459.84	18.615
460.19	18.857
460.54	18.576
460.89	18.541
461.24	18.701
461.59	19.349
461.94	18.866
462.29	19.347
462.64	18.443
462.99	18.673
463.34	19.867
463.69	18.574
464.04	18.551
464.39	19.130
464.74	19.430
465.09	18.999
465.44	18.061
465.79	17.394
466.14	17.734
466.49	18.354
466.84	18.856
467.19	19.191
467.54	18.938
467.89	18.667
468.24	18.732
468.59	19.170
468.94	18.571
469.29	18.059
469.64	19.143
469.99	18.742
470.34	18.362
470.68	19.037
471.03	19.252
471.38	18.416
471.73	18.921
472.08	19.671
472.43	18.970
472.78	18.038
473.13	18.678
473.48	18.539
473.83	18.415
474.17	18.171
474.52	17.866
474.87	18.330
475.22	18.746
475.57	18.001
475.92	17.897
476.27	18.207
476.61	18.147
476.96	17.207
477.31	17.111
477.66	18.107
478.01	16.832
478.36	16.922
478.70	16.926
479.05	17.252
479.40	17.554
479.75	17.539
480.10	16.799
480.45	16.659
480.79	17.535
481.14	16.928
481.49	17.371
481.84	17.375
482.19	17.174
482.53	16.697
482.88	16.845
483.23	16.869
483.58	17.652
483.92	17.245
484.27	16.645
484.62	16.940
484.97	16.240
485.31	16.747
485.66	15.659
486.01	14.665
486.36	14.019
486.70	14.074
487.05	14.366
487.40	15.475
487.75	15.225
488.09	15.833
488.44	15.911
488.79	16.420
489.13	16.157
489.48	16.272
489.83	16.444
490.17	16.791
490.52	15.899
490.87	16.735
491.22	16.144
491.56	15.945
491.91	16.287
492.26	16.720
492.60	16.359
492.95	15.669
493.30	15.841
493.64	15.679
493.99	16.249
494.34	16.559
494.68	16.071
495.03	15.977
495.37	16.054
495.72	16.082
496.07	16.752
496.41	15.354
496.76	15.831
497.11	15.624
497.45	15.929
497.80	15.595
498.14	15.990
498.49	16.488
498.84	15.916
499.18	15.857
499.53	16.239
499.87	15.983
500.22	16.298
500.56	16.165
500.91	15.385
501.26	15.884
501.60	16.279
501.95	15.124
502.29	16.261
502.64	16.201
502.98	16.129
503.33	14.808
503.67	15.545
504.02	15.996
504.36	15.910
504.71	15.633
505.06	16.337
505.40	15.557
505.75	15.477
506.09	15.598
506.44	15.935
506.78	16.366
507.13	15.952
507.47	16.515
507.82	15.957
508.16	16.515
508.51	15.728
508.85	15.789
509.19	15.969
509.54	15.408
509.88	15.868
510.23	15.938
510.57	16.357
510.92	15.122
511.26	15.108
511.61	15.820
511.95	15.866
512.30	15.695
512.64	15.583
512.98	16.292
513.33	16.167
513.67	15.742
514.02	15.639
514.36	15.620
514.70	16.436
515.05	15.505
515.39	16.433
515.74	15.653
516.08	16.490
516.42	15.982
516.77	16.834
517.11	15.594
517.46	16.648
517.80	16.957
518.14	15.113
518.49	15.694
518.83	15.625
519.17	16.224
519.52	15.846
519.86	16.258
520.20	16.012
520.55	16.756
520.89	16.119
521.23	17.008
521.58	16.206
521.92	16.412
522.26	15.375
522.61	16.262
522.95	15.838
523.29	14.790
523.64	16.098
523.98	15.712
524.32	16.164
524.66	15.995
525.01	15.441
525.35	15.737
525.69	15.825
526.04	16.012
526.38	15.558
526.72	16.933
527.06	16.070
527.41	15.161
527.75	16.592
528.09	16.442
528.43	16.125
528.78	16.411
529.12	16.000
529.46	15.248
529.80	15.903
530.15	15.452
530.49	14.708
530.83	16.329
531.17	16.384
531.51	16.602
531.86	15.935
532.20	16.362
532.54	15.695
532.88	16.110
533.22	15.178
533.57	15.370
533.91	15.352
534.25	15.431
534.59	15.131
534.93	16.062
535.27	15.510
535.62	15.079
535.96	15.568
536.30	15.194
536.64	15.518
536.98	15.594
537.32	14.747
537.66	16.133
538.01	16.722
538.35	15.579
538.69	16.592
539.03	15.789
539.37	14.760
539.71	14.517
540.05	15.948
540.39	15.150
540.73	15.589
541.07	16.353
541.42	15.721
541.76	15.355
542.10	15.912
542.44	14.768
542.78	16.008
543.12	14.587
543.46	16.131
543.80	15.355
544.14	13.928
544.48	15.238
544.82	15.202
545.16	14.249
545.50	14.010
545.84	15.390
546.18	14.411
546.52	14.522
546.86	15.258
547.20	16.116
547.54	14.496
547.88	16.135
548.22	15.193
548.56	15.283
548.90	15.045
549.24	14.343
549.58	15.348
549.92	14.973
550.26	15.554
550.60	15.076
550.94	15.423
551.28	14.411
551.62	15.457
551.96	14.737
552.30	15.768
552.64	14.875
552.98	15.729
553.32	14.835
553.66	15.474
554.00	15.374
554.34	15.252
554.68	15.880
555.02	14.528
555.36	15.310
555.69	14.411
556.03	14.132
556.37	15.211
556.71	15.280
557.05	14.496
557.39	14.486
557.73	15.032
558.07	15.011
558.41	14.761
558.75	14.695
559.08	15.511
559.42	15.344
559.76	15.368
560.10	14.276
560.44	14.326
560.78	14.105
561.12	14.314
561.45	15.059
561.79	14.107
562.13	14.621
562.47	14.071
562.81	14.505
563.15	13.913
563.48	15.186
563.82	13.829
564.16	14.650
564.50	13.997
564.84	13.590
565.17	14.801
565.51	14.633
565.85	14.213
566.19	13.651
566.52	14.440
566.86	13.261
567.20	14.505
567.54	13.242
567.88	13.036
568.21	14.550
568.55	13.246
568.89	12.500
569.23	12.166
569.56	12.591
569.90	12.453
570.24	11.948
570.57	11.833
570.91	11.506
571.25	11.828
571.59	11.694
571.92	11.722
572.26	11.727
572.60	12.072
572.93	11.724
573.27	12.008
573.61	11.642
573.95	11.783
574.28	11.307
574.62	10.909
574.96	10.585
575.29	11.033
575.63	11.255
575.97	11.117
576.30	11.524
576.64	11.145
576.98	11.035
577.31	11.160
577.65	11.075
577.98	10.696
578.32	10.663
578.66	11.279
578.99	10.911
579.33	11.038
579.67	10.776
580.00	11.053
580.34	10.845
580.67	10.778
581.01	11.536
581.35	10.922
581.68	10.564
582.02	10.373
582.35	10.235
582.69	10.650
583.02	10.630
583.36	10.883
583.70	11.064
584.03	10.998
584.37	11.594
584.70	11.181
585.04	11.204
585.37	10.811
585.71	11.184
586.04	10.824
586.38	10.946
586.72	11.433
587.05	10.921
587.39	10.449
587.72	11.105
588.06	11.153
588.39	11.440
588.73	11.118
589.06	11.156
589.40	11.751
589.73	12.073
590.07	11.423
590.40	11.363
590.73	12.295
591.07	12.047
591.40	11.894
591.74	12.294
592.07	12.347
592.41	11.410
592.74	11.199
593.08	11.426
593.41	11.199
593.75	10.837
594.08	10.862
594.41	11.488
594.75	11.275
595.08	10.845
595.42	11.419
595.75	10.933
596.09	11.716
596.42	12.181
596.75	11.862
597.09	12.641
597.42	11.931
597.75	11.988
598.09	11.739
598.42	11.555
598.76	10.904
599.09	11.212
599.42	10.626
599.76	10.725
600.09	10.747
600.42	10.774
600.76	10.821
601.09	10.710
601.42	10.997
601.76	11.347
602.09	11.225
602.42	11.266
602.76	11.890
603.09	11.212
603.42	11.636
603.76	11.128
604.09	11.012
604.42	10.925
604.76	11.683
605.09	11.490
605.42	10.688
605.75	11.217
606.09	10.411
606.42	11.688
606.75	11.862
607.09	11.093
607.42	11.853
607.75	10.633
608.08	11.073
608.42	11.161
608.75	11.452
609.08	11.517
609.41	11.566
609.75	11.815
610.08	11.451
610.41	11.313
610.74	11.069
611.07	11.512
611.41	12.022
611.74	11.564
612.07	11.749
612.40	12.225
612.73	11.158
613.07	12.177
613.40	12.533
613.73	11.222
614.06	12.097
614.39	11.956
614.72	12.211
615.06	12.447
615.39	11.518
615.72	11.759
616.05	11.005
616.38	12.007
616.71	12.233
617.05	12.898
617.38	12.387
617.71	12.072
618.04	12.861
618.37	12.005
618.70	12.259
619.03	13.421
619.36	12.695
619.69	11.831
620.03	12.775
620.36	12.233
620.69	12.055
621.02	12.758
621.35	12.294
621.68	12.773
622.01	13.235
622.34	12.632
622.67	12.928
623.00	12.619
623.33	12.223
623.66	13.438
623.99	12.297
624.32	12.981
624.65	12.429
624.99	12.110
625.32	12.310
625.65	11.946
625.98	12.990
626.31	12.597
626.64	13.306
626.97	13.965
627.30	12.552
627.63	13.126
627.96	13.204
628.29	13.561
628.62	14.913
628.95	14.717
629.28	13.595
629.61	14.390
629.94	14.381
630.26	13.346
630.59	13.727
630.92	14.368
631.25	12.932
631.58	13.413
631.91	13.692
632.24	13.186
632.57	14.586
632.90	13.925
633.23	14.094
633.56	15.593
633.89	14.836
634.22	13.507
634.55	15.385
634.88	12.934
635.20	15.890
635.53	14.699
635.86	14.356
636.19	15.294
636.52	13.610
636.85	14.204
637.18	14.862
637.51	15.485
637.83	13.317
638.16	14.322
638.49	16.121
638.82	15.044
639.15	16.125
639.48	15.586
639.81	15.013
640.13	15.495
640.46	16.242
640.79	15.588
641.12	14.443
641.45	16.201
641.77	16.200
642.10	16.520
642.43	16.066
642.76	16.873
643.09	15.644
643.41	15.630
643.74	17.284
644.07	16.616
644.40	17.945
644.73	17.480
645.05	16.957
645.38	15.956
645.71	17.391
646.04	16.445
646.36	20.200
646.69	18.395
647.02	17.347
647.35	15.120
647.67	16.460
648.00	18.699
648.33	15.677
648.66	17.727
648.98	17.991
649.31	14.798
649.64	15.994
649.96	13.413
650.29	17.694
650.62	16.181
650.94	19.125
651.27	16.723
651.60	17.970
651.92	17.732
652.25	15.309
652.58	18.069
652.90	16.746
653.23	16.795
653.56	15.906
653.88	16.006
654.21	16.746
654.54	16.337
654.86	16.511
655.19	14.865
655.52	8.966
655.84	6.976
656.17	8.644
656.49	11.735
656.82	12.137
657.15	9.506
657.47	7.256
657.80	5.632
658.13	5.853
658.45	9.043
658.78	9.488
659.10	9.910
659.43	10.688
659.75	11.746
660.08	12.405
660.41	14.711
660.73	16.137
661.06	15.127
661.38	19.455
661.71	19.615
662.03	19.921
662.36	16.302
662.68	19.277
663.01	18.586
663.33	17.197
663.66	19.538
663.98	19.870
664.31	19.748
664.63	18.421
664.96	17.706
665.28	17.008
665.61	17.739
665.93	18.310
666.26	17.444
666.58	18.410
666.91	19.662
667.23	18.427
667.56	17.495
667.88	16.880
668.21	17.697
668.53	18.438
668.86	17.100
669.18	20.043
669.50	18.696
669.83	19.608
670.15	19.778
670.48	17.865
670.80	19.828
671.13	19.533
671.45	18.085
671.77	20.774
672.10	16.821
672.42	16.254
672.75	16.252
673.07	15.845
673.39	16.275
673.72	15.820
674.04	17.059
674.37	17.087
674.69	16.155
675.01	15.272
675.34	21.150
675.66	22.105
675.98	17.719
676.31	19.118
676.63	19.533
676.95	19.287
677.28	17.523
677.60	15.824
677.92	19.620
678.25	20.534
678.57	18.127
678.89	16.433
679.22	16.306
679.54	16.221
679.86	19.450
680.18	16.995
680.51	18.262
680.83	17.260
681.15	17.736
681.48	18.526
681.80	18.762
682.12	15.517
682.44	16.828
682.77	16.701
683.09	19.099
683.41	18.625
683.73	19.205
684.06	18.388
684.38	16.634
684.70	16.279
685.02	18.386
685.34	15.018
685.67	15.734
685.99	16.495
686.31	16.553
686.63	16.254
686.96	15.714
687.28	16.606
687.60	16.848
687.92	17.916
688.24	16.160
688.56	18.273
688.89	18.880
689.21	20.306
689.53	18.163
689.85	19.069
690.17	17.805
690.49	20.594
690.82	19.393
691.14	18.973
691.46	16.456
691.78	17.269
692.10	19.835
692.42	20.958
692.74	18.257
693.06	18.723
693.39	20.739
693.71	17.467
694.03	16.842
694.35	17.749
694.67	16.018
694.99	20.244
695.31	18.382
695.63	19.856
695.95	18.582
696.27	18.782
696.59	20.466
696.91	23.834
697.23	15.962
697.56	18.550
697.88	17.178
698.20	17.917
698.52	17.419
698.84	19.822
699.16	17.281
699.48	17.102
699.80	17.874
700.12	24.416
700.44	21.220
700.76	21.547
701.08	21.264
701.40	21.508
701.72	22.741
702.04	24.148
702.36	20.680
702.68	21.246
703.00	19.945
703.32	22.606
703.64	18.231
703.96	22.563
704.28	20.058
704.60	22.287
704.91	23.145
705.23	23.460
705.55	26.910
705.87	25.249
706.19	25.088
706.51	21.807
706.83	24.242
707.15	22.129
707.47	20.707
707.79	19.410
708.11	20.320
708.43	17.143
708.74	17.347
709.06	25.195
709.38	22.835
709.70	20.058
710.02	20.772
710.34	21.515
710.66	20.299
710.98	23.295
711.29	21.221
711.61	24.484
711.93	21.795
712.25	26.367
712.57	23.162
712.89	22.491
713.20	23.708
713.52	24.013
713.84	20.886
714.16	23.171
714.48	20.690
714.80	30.091
715.11	21.326
715.43	20.475
715.75	21.739
716.07	21.406
716.39	21.630
716.70	25.914
717.02	24.101
717.34	22.968
717.66	23.881
717.97	28.685
718.29	23.333
718.61	24.088
718.93	26.471
719.24	23.183
719.56	20.678
719.88	23.729
720.20	26.014
720.51	24.390
720.83	27.881
721.15	25.000
721.46	21.986
721.78	26.523
722.10	27.925
722.42	28.947
722.73	24.345
723.05	25.000
723.37	21.862
723.68	27.799
724.00	28.455
724.32	25.000
724.63	25.203
724.95	23.849
725.27	31.579
725.58	26.953
725.90	28.467
726.22	26.415
726.53	26.042
726.85	24.573
727.16	25.979
727.48	26.241
727.80	21.591
728.11	25.725
728.43	27.308
728.74	25.448
729.06	25.912
729.38	30.882
729.69	29.181
730.01	20.478
730.32	21.181
730.64	25.084
730.96	22.772
731.27	25.828
731.59	23.242
731.90	23.615
732.22	18.634
732.53	19.814
732.85	21.795
733.16	25.080
733.48	21.927
733.80	25.325
734.11	24.522
734.43	23.964
734.74	17.714
735.06	18.052
735.37	20.520
735.69	18.153
736.00	23.529
736.32	23.364
736.63	21.725
736.95	23.642
737.26	17.687
737.58	19.355
737.89	23.746
738.21	25.256
738.52	23.571
738.83	22.264
739.15	21.923
739.46	23.723
739.78	21.528
740.09	21.846
740.41	24.194
740.72	25.436
741.04	25.185
741.35	23.333
741.66	29.778
741.98	26.887
742.29	30.622
742.61	34.914
742.92	27.602
743.23	27.350
743.55	30.800
743.86	28.070
744.18	37.611
744.49	33.493
744.80	32.394
745.12	30.909
745.43	29.956
745.74	31.532
746.06	32.569
746.37	29.596
746.68	27.149
747.00	27.778
747.31	29.048
747.62	23.451
747.94	30.396
748.25	25.106
748.56	32.159
748.88	24.257
749.19	29.000
749.50	29.302
749.82	28.455
750.13	22.449
750.44	26.642
750.75	25.263
751.07	28.617
751.38	25.087
751.69	24.188
752.01	24.812
752.32	22.022
752.63	24.823
752.94	23.361
753.26	30.000
753.57	23.984
753.88	24.219
754.19	23.571
754.51	22.917
754.82	24.910
755.13	21.887
755.44	28.571
755.75	23.358
756.07	22.340
756.38	20.803
756.69	23.490
757.00	22.754
757.31	24.036
757.63	21.637
757.94	21.984
758.25	21.078
758.56	17.778
758.87	20.968
759.18	22.424
759.50	20.690
759.81	24.299
760.12	17.812
760.43	23.496
760.74	20.109
761.05	18.927
761.36	18.717
761.67	23.864
761.99	21.429
762.30	24.653
762.61	24.809
762.92	27.344
763.23	27.311
763.54	31.600
763.85	20.703
764.16	30.769
764.47	25.475
764.78	25.795
765.10	17.722
765.41	23.009
765.72	23.353
766.03	21.630
766.34	22.667
766.65	26.383
766.96	28.632
767.27	31.980
767.58	33.854
767.89	38.947
768.20	36.782
768.51	34.010
768.82	28.899
769.13	28.455
769.44	29.960
769.75	24.034
770.06	22.936
770.37	26.697
770.68	28.241
770.99	29.333
771.30	20.902
771.61	30.493
771.92	29.918
772.23	30.672
772.54	28.205
772.85	31.414
773.16	32.979
773.47	40.761
773.78	33.503
774.09	31.548
774.39	38.596
774.70	38.889
775.01	36.957
775.32	45.752
775.63	44.079
775.94	41.007
776.25	49.606
776.56	44.030
776.87	45.902
777.18	37.500
777.48	56.489
777.79	43.939
778.10	41.481
778.41	51.786
778.72	38.686
779.03	39.597
779.34	37.584
779.65	35.811
779.95	36.196
780.26	38.562
780.57	38.621
780.88	51.562
781.19	42.105
781.50	43.919
781.80	39.623
782.11	37.288
782.42	34.810
782.73	26.380
783.04	36.486
783.34	38.028
783.65	44.521
783.96	39.552
784.27	32.867
784.57	28.777
784.88	38.889
785.19	49.206
785.50	55.660
785.81	50.000
786.11	53.279
786.42	48.062
786.73	47.788
787.04	59.434
787.34	51.786
787.65	54.000
787.96	44.144
788.26	42.975
788.57	46.610
788.88	58.678
789.19	46.528
789.49	54.545
789.80	44.275
790.11	59.048
790.41	62.376
790.72	67.470
791.03	57.609
791.33	61.628
791.64	60.825
791.95	60.396
792.25	62.222
792.56	67.532
792.87	64.103
793.17	65.823
793.48	74.713
793.79	67.816
794.09	69.318
794.40	47.899
794.70	50.000
795.01	42.963
795.32	46.763
795.62	44.882
795.93	47.414
796.23	50.442
796.54	68.235
796.85	72.973
797.15	74.648
797.46	72.727
797.76	72.289
798.07	73.418
798.37	73.846
798.68	77.273
798.99	84.507
799.29	66.234
799.60	56.818
799.90	84.932
800.21	80.597
800.51	84.483
800.82	80.702
801.12	75.410
801.43	83.333
801.73	63.514
802.04	88.889
802.34	75.309
802.65	73.438
802.95	100.000
803.26	100.000
803.56	64.286
803.87	80.000
804.17	76.471
804.48	105.556
804.78	82.759
805.09	70.588
805.39	103.846
805.70	94.643
806.00	113.115
806.30	71.212
806.61	70.732
806.91	59.494
807.22	55.263
807.52	61.194
807.83	81.690
808.13	96.875
808.43	90.000
808.74	67.105
809.04	82.609
809.35	70.149
809.65	89.474
809.95	96.774
810.26	81.356
810.56	87.302
810.86	122.727
811.17	126.190
811.47	106.667
811.77	90.741
812.08	74.545
812.38	118.000
812.69	111.111
812.99	131.818
813.29	112.245
813.59	73.810
813.90	116.327
814.20	87.273
814.50	70.769
814.81	88.235
815.11	120.408
815.41	90.164
815.72	133.333
816.02	90.909
816.32	121.429
816.62	130.000
816.93	112.195
817.23	135.714
817.53	120.455
817.84	163.636
818.14	119.565
818.44	115.556
818.74	132.353
819.04	127.500
819.35	111.429
819.65	194.118
819.95	139.286
820.25	205.000
820.56	161.538
820.86	113.636
821.16	100.000
821.46	120.513
821.76	106.000
822.07	134.286
822.37	145.000
822.67	163.636
822.97	121.569
823.27	178.571
823.57	145.946
823.88	152.500
824.18	136.667
824.48	140.476
824.78	212.000
825.08	200.000
825.38	124.324
825.69	117.073
825.99	187.500
826.29	179.310
826.59	115.789
826.89	147.368
827.19	164.706
827.49	154.839
827.79	125.000
828.09	109.091
828.39	112.766
828.70	108.163
829.00	129.630
829.30	151.613
829.60	130.000
829.90	280.000
830.20	185.714
830.50	156.522
830.80	191.304
831.10	143.333
831.40	170.000
831.70	182.609
832.00	215.385
832.30	185.185
832.60	275.000
832.90	170.000
833.20	335.714
833.50	203.226
833.80	179.310
834.10	181.250
834.40	234.615
834.70	294.444
835.00	261.905
835.30	134.286
835.60	284.615
835.90	151.724
836.20	285.714
836.50	196.552
836.80	152.000
837.10	175.000
837.40	223.810
837.70	305.882
838.00	166.667
838.30	195.238
838.60	233.333
838.90	238.462
839.19	225.000
839.49	350.000
839.79	270.000
840.09	250.000
840.39	214.286
840.69	195.652
840.99	277.778
841.29	390.000
841.59	333.333
841.88	312.500
842.18	144.828
842.48	266.667
842.78	193.333
843.08	226.087
843.38	175.000
843.68	883.333
843.97	261.538
844.27	189.655
844.57	271.429
844.87	306.250
845.17	203.704
845.47	1700.000
845.76	355.556
846.06	311.765
846.36	550.000
846.66	364.286
846.96	306.250
847.25	390.909
847.55	436.364
847.85	213.043
848.15	500.000
848.44	335.714
848.74	250.000
849.04	311.765
849.34	490.000
849.63	242.105
849.93	409.091
850.23	980.000
850.53	435.714
850.82	1750.000
851.12	-3900.000
851.42	4200.000
851.71	250.000
852.01	-1066.667
852.31	241.667
852.61	1233.333
852.90	242.857
853.20	240.000
853.50	323.529
853.79	261.905
854.09	175.000
854.39	300.000
854.68	194.595
854.98	177.419
855.28	180.000
855.57	193.103
855.87	200.000
856.17	231.579
856.46	253.333
856.76	223.529
857.05	200.000
857.35	191.667
857.65	293.333
857.94	265.217
858.24	203.846
858.53	250.000
858.83	240.909
859.13	306.667
859.42	0.000
859.72	488.889
860.01	345.455
860.31	263.636
860.60	284.211
860.90	252.174
861.20	555.556
861.49	441.667
861.79	-5400.000
862.08	550.000
862.38	242.857
862.67	400.000
862.97	264.706
863.26	477.778
863.56	255.556
863.85	408.333
864.15	537.500
864.44	380.000
864.74	683.333
865.03	600.000
865.33	300.000
865.62	409.091
865.92	407.692
866.21	391.667
866.51	0.000
866.80	390.909
867.10	1160.000
867.39	400.000
867.69	427.273
867.98	263.158
868.27	400.000
868.57	257.895
868.86	-3300.000
869.16	343.750
869.45	2200.000
869.75	-4000.000
870.04	425.000
870.33	642.857
870.63	975.000
870.92	2300.000
871.22	585.714
871.51	341.176
871.80	233.333
872.10	342.857
>>>>>End Processed Spectral Data<<<<<
