SpectraSuite Data File
++++++++++++++++++++++++++++++++++++
Date: Wed May 13 16:51:02 PDT 2015
User: schluterlab
Dark Spectrum Present: Yes
Reference Spectrum Present: Yes
Number of Sampled Component Spectra: 1
Spectrometers: USB2E3373
Integration Time (usec): 3000 (USB2E3373)
Spectra Averaged: 3 (USB2E3373)
Boxcar Smoothing: 0 (USB2E3373)
Correct for Electrical Dark: No (USB2E3373)
Strobe/Lamp Enabled: No (USB2E3373)
Correct for Detector Non-linearity: No (USB2E3373)
Correct for Stray Light: No (USB2E3373)
Number of Pixels in Processed Spectrum: 2048
>>>>>Begin Processed Spectral Data<<<<<
178.53	0.000
178.91	-850.000
179.29	-1375.000
179.67	-177.778
180.04	-1200.000
180.42	2750.000
180.80	920.000
181.18	-800.000
181.56	657.143
181.94	0.000
182.31	-642.857
182.69	1733.333
183.07	-512.500
183.45	-544.444
183.83	609.091
184.20	-510.000
184.58	2900.000
184.96	5400.000
185.34	-820.000
185.72	-550.000
186.09	-2200.000
186.47	2350.000
186.85	2550.000
187.23	4800.000
187.61	-1766.667
187.98	1100.000
188.36	563.636
188.74	481.818
189.12	-820.000
189.49	620.000
189.87	-5100.000
190.25	-1250.000
190.63	435.714
191.00	438.462
191.38	733.333
191.76	-1025.000
192.14	1375.000
192.51	625.000
192.89	883.333
193.27	662.500
193.65	-1175.000
194.02	470.000
194.40	840.000
194.78	460.000
195.15	450.000
195.53	590.000
195.91	-1900.000
196.29	337.500
196.66	336.842
197.04	-390.000
197.42	0.000
197.79	640.000
198.17	-5100.000
198.55	757.143
198.92	662.500
199.30	920.000
199.68	0.000
200.05	333.333
200.43	614.286
200.81	4400.000
201.18	1500.000
201.56	-1366.667
201.94	455.556
202.31	633.333
202.69	383.333
203.07	470.000
203.44	0.000
203.82	1425.000
204.19	742.857
204.57	435.714
204.95	550.000
205.32	1366.667
205.70	481.818
206.08	364.286
206.45	2750.000
206.83	325.000
207.20	800.000
207.58	720.000
207.96	333.333
208.33	662.500
208.71	-666.667
209.08	742.857
209.46	600.000
209.84	472.727
210.21	-1433.333
210.59	1250.000
210.96	-412.500
211.34	2050.000
211.71	540.000
212.09	716.667
212.46	0.000
212.84	1933.333
213.22	1500.000
213.59	-4300.000
213.97	816.667
214.34	800.000
214.72	554.545
215.09	1200.000
215.47	-2200.000
215.84	-3050.000
216.22	1500.000
216.59	357.143
216.97	1350.000
217.34	463.636
217.72	-766.667
218.09	0.000
218.47	-4100.000
218.84	522.222
219.22	800.000
219.59	1466.667
219.97	-628.571
220.34	960.000
220.72	-1633.333
221.09	385.714
221.47	1675.000
221.84	-716.667
222.22	0.000
222.59	1425.000
222.97	-2800.000
223.34	1080.000
223.72	423.077
224.09	1040.000
224.46	2000.000
224.84	-5200.000
225.21	-920.000
225.59	-5300.000
225.96	500.000
226.34	275.000
226.71	2800.000
227.08	637.500
227.46	560.000
227.83	-1200.000
228.21	-2300.000
228.58	688.889
228.95	-2750.000
229.33	-1900.000
229.70	1733.333
230.08	657.143
230.45	-780.000
230.82	425.000
231.20	716.667
231.57	642.857
231.95	516.667
232.32	190.909
232.69	381.818
233.07	628.571
233.44	330.769
233.81	-1366.667
234.19	284.211
234.56	391.667
234.93	441.667
235.31	500.000
235.68	300.000
236.05	371.429
236.43	184.848
236.80	236.842
237.17	4000.000
237.55	276.190
237.92	214.286
238.29	233.333
238.67	180.645
239.04	189.655
239.41	138.889
239.79	123.913
240.16	128.571
240.53	127.273
240.91	105.882
241.28	120.000
241.65	92.000
242.02	79.710
242.40	108.065
242.77	100.000
243.14	64.516
243.51	68.539
243.89	68.235
244.26	58.889
244.63	66.667
245.00	61.702
245.38	65.347
245.75	56.075
246.12	47.706
246.49	57.664
246.87	60.000
247.24	48.462
247.61	45.714
247.98	44.444
248.36	41.216
248.73	35.032
249.10	44.586
249.47	40.678
249.84	41.176
250.22	35.829
250.59	42.604
250.96	39.394
251.33	38.389
251.70	35.644
252.08	35.714
252.45	33.184
252.82	31.304
253.19	31.915
253.56	34.510
253.94	30.705
254.31	33.203
254.68	29.615
255.05	30.996
255.42	30.894
255.79	33.088
256.16	29.964
256.54	29.682
256.91	31.673
257.28	26.259
257.65	34.323
258.02	27.019
258.39	26.498
258.76	25.753
259.14	26.190
259.51	24.620
259.88	23.602
260.25	26.284
260.62	26.012
260.99	24.534
261.36	24.024
261.73	26.074
262.10	22.384
262.47	27.042
262.85	25.627
263.22	23.647
263.59	27.920
263.96	25.275
264.33	24.804
264.70	23.947
265.07	26.087
265.44	22.980
265.81	19.708
266.18	25.628
266.55	21.220
266.92	21.622
267.29	25.000
267.66	21.101
268.03	22.273
268.40	22.196
268.77	19.570
269.14	21.847
269.51	24.153
269.88	20.746
270.25	21.670
270.62	22.472
270.99	22.151
271.36	21.030
271.73	21.963
272.10	20.217
272.47	23.011
272.84	21.861
273.21	21.803
273.58	19.432
273.95	19.706
274.32	20.041
274.69	21.627
275.06	20.472
275.43	20.000
275.80	18.437
276.17	18.941
276.54	20.166
276.91	20.949
277.28	21.289
277.65	20.696
278.02	19.669
278.39	20.312
278.76	20.545
279.13	21.321
279.50	21.601
279.87	18.924
280.23	20.359
280.60	18.762
280.97	19.778
281.34	17.522
281.71	19.273
282.08	21.881
282.45	19.091
282.82	18.828
283.19	16.043
283.56	18.421
283.92	20.812
284.29	18.342
284.66	20.871
285.03	17.902
285.40	19.014
285.77	18.687
286.14	17.098
286.51	20.167
286.87	19.145
287.24	21.824
287.61	19.101
287.98	17.695
288.35	15.055
288.72	16.511
289.08	18.623
289.45	18.287
289.82	18.049
290.19	17.739
290.56	18.377
290.93	16.767
291.29	15.644
291.66	16.962
292.03	19.331
292.40	19.236
292.77	17.604
293.13	18.507
293.50	16.618
293.87	17.333
294.24	16.148
294.60	13.828
294.97	17.297
295.34	17.066
295.71	17.045
296.08	15.527
296.44	16.506
296.81	15.588
297.18	16.260
297.55	14.776
297.91	16.359
298.28	16.867
298.65	16.188
299.02	16.469
299.38	15.139
299.75	14.151
300.12	14.943
300.48	15.625
300.85	14.550
301.22	14.777
301.59	14.899
301.95	14.358
302.32	15.404
302.69	15.890
303.05	14.303
303.42	13.580
303.79	13.137
304.15	14.336
304.52	14.021
304.89	14.634
305.25	13.805
305.62	14.609
305.99	15.584
306.35	13.758
306.72	13.789
307.09	14.983
307.45	14.640
307.82	14.062
308.19	15.453
308.55	13.484
308.92	13.641
309.29	13.094
309.65	13.043
310.02	14.693
310.38	11.720
310.75	14.044
311.12	14.534
311.48	13.271
311.85	13.103
312.22	13.736
312.58	13.514
312.95	14.995
313.31	12.136
313.68	13.825
314.05	14.892
314.41	14.372
314.78	14.401
315.14	13.009
315.51	13.182
315.87	13.663
316.24	13.505
316.61	13.645
316.97	12.231
317.34	12.720
317.70	13.958
318.07	13.474
318.43	12.133
318.80	12.277
319.16	13.559
319.53	13.133
319.89	13.810
320.26	14.100
320.62	12.698
320.99	12.828
321.35	13.333
321.72	11.704
322.08	14.215
322.45	14.030
322.81	13.953
323.18	14.355
323.54	13.822
323.91	12.736
324.27	13.098
324.64	13.234
325.00	12.353
325.37	13.558
325.73	13.734
326.10	12.621
326.46	12.276
326.83	13.719
327.19	12.468
327.56	11.760
327.92	12.948
328.29	13.665
328.65	12.891
329.01	11.913
329.38	12.118
329.74	12.465
330.11	13.101
330.47	13.407
330.84	13.051
331.20	12.386
331.56	12.752
331.93	12.130
332.29	12.689
332.66	11.947
333.02	12.797
333.38	11.382
333.75	13.102
334.11	12.100
334.48	12.067
334.84	13.327
335.20	13.091
335.57	12.965
335.93	11.161
336.29	12.088
336.66	11.452
337.02	11.131
337.38	12.037
337.75	12.389
338.11	12.713
338.47	11.694
338.84	11.457
339.20	11.743
339.56	11.770
339.93	11.273
340.29	11.413
340.65	11.943
341.02	12.827
341.38	12.456
341.74	11.491
342.11	12.227
342.47	11.630
342.83	11.729
343.20	12.554
343.56	11.205
343.92	11.667
344.28	11.820
344.65	11.522
345.01	11.111
345.37	10.377
345.73	12.014
346.10	12.276
346.46	12.203
346.82	11.450
347.19	10.610
347.55	11.987
347.91	11.893
348.27	10.189
348.63	12.124
349.00	11.327
349.36	11.248
349.72	11.788
350.08	11.994
350.45	10.578
350.81	11.535
351.17	11.507
351.53	11.384
351.89	11.799
352.26	11.681
352.62	11.147
352.98	11.507
353.34	11.339
353.70	10.638
354.07	11.048
354.43	11.429
354.79	10.378
355.15	10.934
355.51	12.390
355.87	11.020
356.24	10.993
356.60	10.746
356.96	10.700
357.32	11.038
357.68	12.047
358.04	11.006
358.40	11.639
358.77	11.424
359.13	10.103
359.49	10.667
359.85	9.286
360.21	11.164
360.57	11.907
360.93	10.462
361.29	10.658
361.66	10.759
362.02	10.000
362.38	11.103
362.74	10.268
363.10	9.845
363.46	9.831
363.82	9.902
364.18	10.866
364.54	10.773
364.90	10.694
365.26	9.926
365.62	11.176
365.98	10.373
366.35	10.315
366.71	10.991
367.07	9.905
367.43	10.160
367.79	10.564
368.15	11.207
368.51	10.029
368.87	10.778
369.23	10.680
369.59	10.500
369.95	9.853
370.31	10.613
370.67	11.159
371.03	10.861
371.39	10.423
371.75	10.809
372.11	10.597
372.47	11.364
372.83	10.519
373.19	9.899
373.55	10.643
373.91	11.119
374.27	10.103
374.63	9.745
374.99	10.452
375.35	9.560
375.71	9.801
376.07	10.768
376.42	9.560
376.78	10.669
377.14	10.380
377.50	9.735
377.86	10.106
378.22	10.936
378.58	10.276
378.94	9.491
379.30	9.669
379.66	9.581
380.02	9.459
380.38	10.079
380.74	10.204
381.09	10.391
381.45	11.002
381.81	10.319
382.17	10.510
382.53	10.252
382.89	10.370
383.25	9.881
383.61	10.285
383.97	10.632
384.32	10.605
384.68	10.099
385.04	10.449
385.40	9.969
385.76	10.381
386.12	10.233
386.48	10.636
386.83	10.199
387.19	10.761
387.55	10.513
387.91	10.097
388.27	9.503
388.62	10.879
388.98	9.828
389.34	10.513
389.70	10.607
390.06	10.330
390.42	10.700
390.77	10.878
391.13	10.274
391.49	9.962
391.85	9.803
392.20	8.644
392.56	10.038
392.92	10.477
393.28	8.876
393.64	10.012
393.99	11.057
394.35	10.422
394.71	10.351
395.07	10.280
395.42	10.878
395.78	10.242
396.14	10.428
396.50	10.840
396.85	11.125
397.21	10.419
397.57	9.981
397.92	11.118
398.28	9.697
398.64	9.976
399.00	10.856
399.35	10.321
399.71	9.433
400.07	10.408
400.42	10.000
400.78	10.434
401.14	10.305
401.49	10.507
401.85	10.103
402.21	9.341
402.57	10.302
402.92	10.025
403.28	9.994
403.63	9.901
403.99	10.510
404.35	9.333
404.70	9.952
405.06	9.260
405.42	10.231
405.77	9.429
406.13	9.989
406.49	9.876
406.84	9.923
407.20	9.397
407.55	10.083
407.91	10.133
408.27	10.338
408.62	9.934
408.98	9.926
409.34	9.656
409.69	10.065
410.05	10.223
410.40	10.214
410.76	9.259
411.11	10.615
411.47	9.265
411.83	10.751
412.18	9.524
412.54	9.340
412.89	10.843
413.25	9.091
413.60	10.191
413.96	9.472
414.31	9.842
414.67	10.076
415.03	9.338
415.38	9.665
415.74	10.225
416.09	10.124
416.45	9.505
416.80	9.914
417.16	10.456
417.51	10.418
417.87	9.891
418.22	10.284
418.58	10.587
418.93	9.337
419.29	11.267
419.64	9.761
420.00	10.061
420.35	10.203
420.71	10.400
421.06	9.547
421.42	10.058
421.77	10.930
422.12	9.377
422.48	8.527
422.83	11.008
423.19	9.834
423.54	10.099
423.90	10.899
424.25	10.050
424.61	10.179
424.96	10.379
425.31	10.354
425.67	9.719
426.02	9.829
426.38	10.379
426.73	10.064
427.09	10.456
427.44	10.523
427.79	11.156
428.15	11.548
428.50	10.474
428.85	11.025
429.21	10.712
429.56	9.694
429.92	9.864
430.27	9.831
430.62	9.575
430.98	10.794
431.33	10.052
431.68	10.733
432.04	10.330
432.39	10.451
432.74	10.174
433.10	10.696
433.45	11.895
433.80	10.200
434.16	10.951
434.51	11.211
434.86	11.688
435.22	10.673
435.57	10.395
435.92	10.591
436.28	10.854
436.63	11.203
436.98	10.590
437.34	11.688
437.69	10.793
438.04	11.017
438.39	11.104
438.75	11.331
439.10	10.950
439.45	11.452
439.81	11.057
440.16	11.180
440.51	11.365
440.86	12.102
441.22	11.179
441.57	11.093
441.92	10.594
442.27	10.710
442.63	10.532
442.98	10.930
443.33	10.870
443.68	11.461
444.03	11.127
444.39	10.029
444.74	11.418
445.09	11.429
445.44	11.974
445.79	11.133
446.15	11.011
446.50	11.470
446.85	10.997
447.20	10.709
447.55	11.614
447.91	10.811
448.26	10.851
448.61	11.193
448.96	11.462
449.31	11.474
449.66	11.536
450.02	10.808
450.37	10.544
450.72	11.280
451.07	10.542
451.42	10.821
451.77	11.568
452.12	11.316
452.47	12.002
452.83	11.014
453.18	11.858
453.53	11.626
453.88	11.459
454.23	12.074
454.58	12.235
454.93	12.015
455.28	11.097
455.63	10.983
455.98	12.083
456.34	11.244
456.69	11.709
457.04	11.455
457.39	11.455
457.74	11.259
458.09	11.961
458.44	11.859
458.79	11.443
459.14	11.795
459.49	11.442
459.84	11.302
460.19	11.668
460.54	11.863
460.89	11.026
461.24	12.143
461.59	12.493
461.94	11.591
462.29	12.226
462.64	12.572
462.99	10.670
463.34	13.000
463.69	11.820
464.04	11.884
464.39	11.652
464.74	11.586
465.09	11.761
465.44	11.579
465.79	11.242
466.14	11.056
466.49	11.179
466.84	11.792
467.19	11.708
467.54	12.063
467.89	11.585
468.24	11.926
468.59	12.393
468.94	11.973
469.29	11.697
469.64	12.584
469.99	12.855
470.34	11.823
470.68	12.716
471.03	12.653
471.38	12.856
471.73	12.858
472.08	13.289
472.43	11.872
472.78	12.574
473.13	12.644
473.48	12.484
473.83	12.622
474.17	11.948
474.52	12.717
474.87	11.967
475.22	12.362
475.57	12.251
475.92	11.471
476.27	12.570
476.61	11.969
476.96	11.490
477.31	11.983
477.66	12.363
478.01	12.337
478.36	11.793
478.70	11.163
479.05	11.129
479.40	11.873
479.75	11.134
480.10	11.431
480.45	12.185
480.79	10.846
481.14	11.155
481.49	12.150
481.84	12.346
482.19	11.404
482.53	11.147
482.88	11.494
483.23	11.776
483.58	11.328
483.92	12.043
484.27	11.068
484.62	11.983
484.97	11.155
485.31	11.164
485.66	9.907
486.01	9.119
486.36	8.862
486.70	8.876
487.05	9.540
487.40	10.087
487.75	10.378
488.09	10.798
488.44	10.640
488.79	11.718
489.13	11.841
489.48	11.338
489.83	11.394
490.17	11.705
490.52	11.869
490.87	11.805
491.22	12.187
491.56	11.162
491.91	11.494
492.26	11.300
492.60	11.889
492.95	11.272
493.30	11.542
493.64	11.573
493.99	11.142
494.34	12.072
494.68	12.042
495.03	12.312
495.37	11.866
495.72	12.086
496.07	12.575
496.41	11.416
496.76	11.566
497.11	11.481
497.45	12.436
497.80	12.044
498.14	11.981
498.49	12.244
498.84	12.033
499.18	12.381
499.53	12.061
499.87	12.116
500.22	12.247
500.56	12.427
500.91	12.212
501.26	12.281
501.60	12.625
501.95	12.099
502.29	12.137
502.64	12.197
502.98	11.828
503.33	12.340
503.67	12.111
504.02	11.974
504.36	12.026
504.71	11.822
505.06	12.723
505.40	12.786
505.75	12.295
506.09	12.877
506.44	12.580
506.78	12.421
507.13	12.923
507.47	13.434
507.82	12.817
508.16	13.070
508.51	13.394
508.85	13.208
509.19	13.571
509.54	13.010
509.88	13.035
510.23	13.008
510.57	13.467
510.92	13.361
511.26	13.515
511.61	13.382
511.95	13.100
512.30	13.415
512.64	13.326
512.98	13.773
513.33	14.079
513.67	13.234
514.02	13.582
514.36	13.599
514.70	13.835
515.05	13.776
515.39	14.694
515.74	13.795
516.08	14.645
516.42	13.596
516.77	14.716
517.11	14.428
517.46	14.898
517.80	14.170
518.14	13.492
518.49	14.294
518.83	14.205
519.17	14.492
519.52	13.356
519.86	14.775
520.20	14.624
520.55	14.901
520.89	14.659
521.23	15.018
521.58	14.526
521.92	15.064
522.26	14.033
522.61	15.265
522.95	15.347
523.29	14.973
523.64	15.366
523.98	14.911
524.32	15.139
524.66	14.913
525.01	15.564
525.35	15.242
525.69	14.901
526.04	15.452
526.38	15.009
526.72	15.399
527.06	15.254
527.41	14.109
527.75	15.305
528.09	15.093
528.43	15.551
528.78	14.874
529.12	14.848
529.46	14.881
529.80	15.099
530.15	15.888
530.49	14.215
530.83	16.139
531.17	15.013
531.51	16.537
531.86	14.903
532.20	16.623
532.54	15.695
532.88	15.404
533.22	15.116
533.57	14.877
533.91	14.690
534.25	14.885
534.59	15.131
534.93	14.575
535.27	14.665
535.62	14.591
535.96	15.694
536.30	15.385
536.64	15.261
536.98	15.129
537.32	14.747
537.66	15.267
538.01	15.866
538.35	14.609
538.69	15.571
539.03	15.140
539.37	14.313
539.71	14.128
540.05	14.771
540.39	15.482
540.73	15.006
541.07	15.185
541.42	15.525
541.76	15.742
542.10	15.459
542.44	14.768
542.78	15.679
543.12	14.587
543.46	14.098
543.80	15.094
544.14	14.698
544.48	14.921
544.82	14.945
545.16	15.029
545.50	14.332
545.84	14.180
546.18	15.219
546.52	14.522
546.86	14.639
547.20	15.239
547.54	15.631
547.88	15.816
548.22	14.446
548.56	14.340
548.90	14.469
549.24	13.805
549.58	15.280
549.92	15.316
550.26	15.270
550.60	15.422
550.94	15.070
551.28	14.484
551.62	14.666
551.96	15.860
552.30	15.973
552.64	15.889
552.98	15.661
553.32	15.644
553.66	15.815
554.00	16.335
554.34	15.045
554.68	16.237
555.02	16.220
555.36	14.962
555.69	14.953
556.03	15.612
556.37	15.007
556.71	15.348
557.05	15.826
557.39	15.045
557.73	15.173
558.07	16.389
558.41	15.702
558.75	15.577
559.08	16.182
559.42	15.268
559.76	15.588
560.10	16.417
560.44	15.863
560.78	14.438
561.12	14.908
561.45	15.776
561.79	16.018
562.13	15.560
562.47	15.779
562.81	15.621
563.15	16.321
563.48	14.721
563.82	14.025
564.16	15.631
564.50	13.542
564.84	14.855
565.17	14.350
565.51	15.591
565.85	14.721
566.19	14.402
566.52	14.630
566.86	14.708
567.20	14.505
567.54	13.756
567.88	12.819
568.21	14.180
568.55	13.751
568.89	13.084
569.23	13.146
569.56	12.348
569.90	12.075
570.24	12.164
570.57	11.799
570.91	11.248
571.25	11.396
571.59	11.694
571.92	11.146
572.26	11.410
572.60	11.502
572.93	11.454
573.27	11.860
573.61	11.279
573.95	11.576
574.28	10.754
574.62	10.714
574.96	10.944
575.29	10.742
575.63	11.179
575.97	10.909
576.30	10.940
576.64	10.842
576.98	10.452
577.31	10.628
577.65	10.575
577.98	10.133
578.32	10.306
578.66	10.356
578.99	10.637
579.33	10.627
579.67	10.581
580.00	10.621
580.34	11.011
580.67	10.825
581.01	10.861
581.35	10.329
581.68	10.452
582.02	10.110
582.35	10.289
582.69	10.214
583.02	10.588
583.36	10.975
583.70	11.139
584.03	11.259
584.37	11.331
584.70	11.311
585.04	11.693
585.37	11.067
585.71	11.184
586.04	11.114
586.38	11.129
586.72	11.627
587.05	10.649
587.39	10.792
587.72	11.183
588.06	11.179
588.39	11.495
588.73	11.264
589.06	11.904
589.40	11.650
589.73	11.792
590.07	11.815
590.40	11.399
590.73	12.217
591.07	12.495
591.40	12.779
591.74	13.333
592.07	12.827
592.41	12.898
592.74	11.610
593.08	11.392
593.41	11.389
593.75	11.087
594.08	11.934
594.41	11.983
594.75	11.978
595.08	12.133
595.42	12.049
595.75	11.717
596.09	12.354
596.42	13.006
596.75	12.073
597.09	12.727
597.42	11.678
597.75	12.937
598.09	12.174
598.42	12.672
598.76	12.201
599.09	11.479
599.42	11.681
599.76	11.713
600.09	11.585
600.42	11.907
600.76	11.500
601.09	11.621
601.42	11.758
601.76	11.689
602.09	12.016
602.42	12.659
602.76	12.858
603.09	12.234
603.42	12.066
603.76	11.738
604.09	11.671
604.42	12.230
604.76	12.822
605.09	12.363
605.42	12.441
605.75	12.210
606.09	11.997
606.42	12.669
606.75	11.987
607.09	12.223
607.42	12.366
607.75	11.392
608.08	12.505
608.42	13.178
608.75	11.903
609.08	12.165
609.41	12.518
609.75	12.530
610.08	13.384
610.41	11.965
610.74	12.346
611.07	12.302
611.41	12.709
611.74	13.172
612.07	12.992
612.40	13.012
612.73	12.684
613.07	13.254
613.40	13.112
613.73	12.271
614.06	12.527
614.39	12.585
614.72	12.947
615.06	13.393
615.39	12.473
615.72	13.037
616.05	11.802
616.38	13.452
616.71	12.945
617.05	14.075
617.38	13.590
617.71	13.273
618.04	13.281
618.37	12.596
618.70	13.068
619.03	14.803
619.36	14.189
619.69	15.000
620.03	14.560
620.36	13.770
620.69	15.411
621.02	14.823
621.35	14.330
621.68	14.330
622.01	15.325
622.34	15.507
622.67	14.525
623.00	13.720
623.33	14.296
623.66	14.367
623.99	14.286
624.32	13.766
624.65	14.054
624.99	13.952
625.32	14.699
625.65	13.373
625.98	14.527
626.31	15.552
626.64	15.347
626.97	15.129
627.30	14.630
627.63	15.833
627.96	15.055
628.29	15.398
628.62	15.919
628.95	16.604
629.28	16.241
629.61	17.690
629.94	15.810
630.26	15.729
630.59	15.729
630.92	13.889
631.25	15.005
631.58	15.716
631.91	16.227
632.24	16.561
632.57	15.950
632.90	16.557
633.23	17.002
633.56	17.288
633.89	16.421
634.22	16.005
634.55	17.751
634.88	17.006
635.20	17.802
635.53	17.470
635.86	16.460
636.19	17.059
636.52	16.840
636.85	18.213
637.18	17.857
637.51	16.785
637.83	15.166
638.16	17.775
638.49	18.514
638.82	17.573
639.15	17.375
639.48	17.207
639.81	19.169
640.13	18.880
640.46	17.987
640.79	19.551
641.12	16.781
641.45	18.436
641.77	19.146
642.10	20.029
642.43	20.420
642.76	18.731
643.09	17.945
643.41	18.513
643.74	21.451
644.07	18.902
644.40	20.859
644.73	21.732
645.05	19.493
645.38	20.537
645.71	19.163
646.04	19.601
646.36	23.372
646.69	20.903
647.02	21.429
647.35	22.337
647.67	20.531
648.00	20.813
648.33	18.482
648.66	18.182
648.98	20.390
649.31	17.788
649.64	20.179
649.96	19.225
650.29	20.379
650.62	20.227
650.94	20.259
651.27	21.284
651.60	20.965
651.92	20.128
652.25	20.521
652.58	19.938
652.90	20.853
653.23	17.874
653.56	17.953
653.88	19.651
654.21	20.537
654.54	19.307
654.86	18.692
655.19	17.432
655.52	10.699
655.84	6.886
656.17	8.610
656.49	12.007
656.82	12.799
657.15	10.278
657.47	7.629
657.80	6.421
658.13	6.812
658.45	10.790
658.78	11.179
659.10	11.998
659.43	12.934
659.75	13.577
660.08	14.873
660.41	17.691
660.73	19.060
661.06	20.860
661.38	23.091
661.71	20.962
662.03	21.696
662.36	20.278
662.68	23.293
663.01	21.616
663.33	21.231
663.66	22.269
663.98	23.758
664.31	20.588
664.63	20.040
664.96	21.127
665.28	21.516
665.61	20.858
665.93	18.712
666.26	23.529
666.58	23.222
666.91	21.987
667.23	23.146
667.56	20.950
667.88	21.795
668.21	21.962
668.53	20.174
668.86	19.913
669.18	24.307
669.50	22.174
669.83	22.876
670.15	24.667
670.48	22.440
670.80	20.474
671.13	23.567
671.45	22.128
671.77	22.607
672.10	20.518
672.42	20.318
672.75	20.564
673.07	19.014
673.39	17.541
673.72	20.312
674.04	21.176
674.37	19.223
674.69	20.859
675.01	19.874
675.34	21.971
675.66	25.053
675.98	22.607
676.31	21.639
676.63	20.382
676.95	21.593
677.28	21.963
677.60	20.879
677.92	22.363
678.25	22.587
678.57	20.916
678.89	20.641
679.22	20.825
679.54	18.702
679.86	21.651
680.18	19.678
680.51	17.730
680.83	19.929
681.15	19.623
681.48	22.873
681.80	19.149
682.12	19.732
682.44	17.795
682.77	21.792
683.09	24.678
683.41	21.286
683.73	20.751
684.06	24.587
684.38	19.374
684.70	20.349
685.02	20.450
685.34	19.780
685.67	16.434
685.99	17.354
686.31	18.771
686.63	16.608
686.96	17.857
687.28	19.495
687.60	17.754
687.92	22.303
688.24	18.631
688.56	22.289
688.89	21.784
689.21	23.581
689.53	20.251
689.85	24.169
690.17	17.184
690.49	22.930
690.82	22.196
691.14	20.312
691.46	19.198
691.78	21.888
692.10	21.694
692.42	21.557
692.74	19.917
693.06	19.149
693.39	21.355
693.71	20.524
694.03	24.000
694.35	22.078
694.67	20.366
694.99	24.146
695.31	20.588
695.63	21.531
695.95	21.027
696.27	21.066
696.59	22.798
696.91	25.130
697.23	19.014
697.56	22.601
697.88	17.996
698.20	21.250
698.52	21.075
698.84	20.935
699.16	20.046
699.48	21.378
699.80	21.256
700.12	25.195
700.44	21.751
700.76	23.757
701.08	23.563
701.40	24.581
701.72	27.988
702.04	28.409
702.36	21.813
702.68	23.796
703.00	24.931
703.32	23.138
703.64	21.180
703.96	27.019
704.28	24.419
704.60	26.100
704.91	26.409
705.23	22.287
705.55	29.568
705.87	31.229
706.19	27.208
706.51	23.988
706.83	27.576
707.15	24.930
707.47	24.747
707.79	26.044
708.11	22.146
708.43	22.619
708.74	19.643
709.06	26.494
709.38	23.622
709.70	24.419
710.02	24.332
710.34	22.727
710.66	26.567
710.98	23.864
711.29	25.581
711.61	29.794
711.93	21.474
712.25	28.617
712.57	24.265
712.89	28.374
713.20	23.100
713.52	26.645
713.84	27.215
714.16	19.512
714.48	26.437
714.80	28.875
715.11	22.767
715.43	25.223
715.75	23.768
716.07	25.879
716.39	22.257
716.70	28.904
717.02	21.942
717.34	26.502
717.66	34.328
717.97	30.677
718.29	29.259
718.61	25.547
718.93	28.676
719.24	27.336
719.56	24.746
719.88	29.492
720.20	30.743
720.51	26.132
720.83	27.881
721.15	25.000
721.46	28.723
721.78	30.824
722.10	30.566
722.42	27.068
722.73	26.592
723.05	29.098
723.37	29.150
723.68	31.274
724.00	30.488
724.32	27.016
724.63	30.081
724.95	25.941
725.27	32.389
725.58	31.250
725.90	30.292
726.22	28.679
726.53	26.042
726.85	29.010
727.16	28.114
727.48	25.532
727.80	27.652
728.11	27.899
728.43	27.308
728.74	30.466
729.06	31.022
729.38	27.206
729.69	29.537
730.01	23.208
730.32	25.000
730.64	29.431
730.96	20.792
731.27	24.834
731.59	22.630
731.90	22.741
732.22	24.224
732.53	24.149
732.85	27.564
733.16	22.186
733.48	25.581
733.80	24.675
734.11	22.930
734.43	26.627
734.74	21.143
735.06	22.923
735.37	27.168
735.69	23.248
736.00	25.817
736.32	27.414
736.63	21.725
736.95	24.601
737.26	18.367
737.58	27.742
737.89	26.087
738.21	29.010
738.52	25.714
738.83	27.170
739.15	26.923
739.46	25.182
739.78	28.819
740.09	25.846
740.41	26.129
740.72	23.693
741.04	27.778
741.35	29.167
741.66	33.333
741.98	26.415
742.29	34.928
742.61	31.466
742.92	30.317
743.23	27.778
743.55	28.000
743.86	32.456
744.18	32.301
744.49	34.928
744.80	34.742
745.12	39.545
745.43	33.480
745.74	39.189
746.06	27.982
746.37	31.839
746.68	35.294
747.00	36.574
747.31	33.333
747.62	29.204
747.94	34.802
748.25	31.915
748.56	32.599
748.88	32.178
749.19	41.000
749.50	35.349
749.82	28.862
750.13	23.265
750.44	22.628
750.75	25.614
751.07	26.688
751.38	28.920
751.69	29.242
752.01	29.323
752.32	25.632
752.63	24.468
752.94	24.590
753.26	33.600
753.57	28.862
753.88	30.078
754.19	26.071
754.51	27.431
754.82	22.744
755.13	26.792
755.44	25.940
755.75	25.547
756.07	24.468
756.38	24.453
756.69	25.168
757.00	23.054
757.31	22.255
757.63	21.053
757.94	21.448
758.25	23.775
758.56	20.247
758.87	22.312
759.18	23.030
759.50	24.451
759.81	24.611
760.12	20.000
760.43	22.350
760.74	20.652
761.05	21.186
761.36	22.193
761.67	24.432
761.99	19.565
762.30	27.083
762.61	25.573
762.92	29.687
763.23	33.193
763.54	26.800
763.85	28.125
764.16	26.154
764.47	28.137
764.78	24.735
765.10	20.253
765.41	25.369
765.72	25.749
766.03	21.944
766.34	26.333
766.65	28.085
766.96	28.632
767.27	42.132
767.58	34.896
767.89	37.368
768.20	31.034
768.51	36.548
768.82	33.945
769.13	27.642
769.44	26.721
769.75	29.614
770.06	28.440
770.37	30.769
770.68	32.870
770.99	21.778
771.30	27.459
771.61	32.287
771.92	31.557
772.23	34.874
772.54	33.333
772.85	32.461
773.16	37.234
773.47	33.696
773.78	36.548
774.09	36.905
774.39	36.842
774.70	41.975
775.01	39.855
775.32	45.752
775.63	40.789
775.94	39.568
776.25	47.244
776.56	40.299
776.87	46.721
777.18	52.344
777.48	48.092
777.79	54.545
778.10	54.815
778.41	44.643
778.72	37.956
779.03	36.913
779.34	36.913
779.65	35.811
779.95	39.264
780.26	47.059
780.57	46.897
780.88	53.906
781.19	44.361
781.50	46.622
781.80	42.138
782.11	37.288
782.42	42.405
782.73	38.037
783.04	38.514
783.34	43.662
783.65	42.466
783.96	41.791
784.27	37.762
784.57	35.971
784.88	39.815
785.19	46.825
785.50	50.000
785.81	50.000
786.11	45.902
786.42	48.837
786.73	53.982
787.04	57.547
787.34	57.143
787.65	61.000
787.96	52.252
788.26	45.455
788.57	51.695
788.88	52.893
789.19	46.528
789.49	50.758
789.80	44.275
790.11	62.857
790.41	64.356
790.72	65.060
791.03	64.130
791.33	52.326
791.64	52.577
791.95	56.436
792.25	77.778
792.56	62.338
792.87	92.308
793.17	75.949
793.48	65.517
793.79	65.517
794.09	67.045
794.40	52.941
794.70	55.147
795.01	47.407
795.32	42.446
795.62	45.669
795.93	45.690
796.23	54.867
796.54	58.824
796.85	64.865
797.15	80.282
797.46	69.697
797.76	67.470
798.07	79.747
798.37	75.385
798.68	69.697
798.99	69.014
799.29	72.727
799.60	64.773
799.90	76.712
800.21	71.642
800.51	82.759
800.82	103.509
801.12	95.082
801.43	104.545
801.73	71.622
802.04	80.952
802.34	77.778
802.65	87.500
802.95	105.085
803.26	95.312
803.56	70.000
803.87	73.846
804.17	86.765
804.48	103.704
804.78	81.034
805.09	73.529
805.39	84.615
805.70	87.500
806.00	85.246
806.30	80.303
806.61	79.268
806.91	64.557
807.22	76.316
807.52	76.119
807.83	81.690
808.13	96.875
808.43	85.000
808.74	55.263
809.04	86.957
809.35	88.060
809.65	75.000
809.95	95.161
810.26	101.695
810.56	101.587
810.86	115.909
811.17	142.857
811.47	105.000
811.77	87.037
812.08	112.727
812.38	72.000
812.69	138.889
812.99	154.545
813.29	112.245
813.59	76.190
813.90	100.000
814.20	107.273
814.50	72.308
814.81	88.235
815.11	130.612
815.41	91.803
815.72	140.476
816.02	112.727
816.32	109.524
816.62	110.000
816.93	141.463
817.23	111.905
817.53	125.000
817.84	166.667
818.14	121.739
818.44	137.778
818.74	120.588
819.04	115.000
819.35	151.429
819.65	155.882
819.95	178.571
820.25	195.000
820.56	146.154
820.86	129.545
821.16	134.884
821.46	117.949
821.76	126.000
822.07	140.000
822.37	127.500
822.67	130.303
822.97	92.157
823.27	185.714
823.57	140.541
823.88	160.000
824.18	223.333
824.48	128.571
824.78	216.000
825.08	162.500
825.38	110.811
825.69	131.707
825.99	195.833
826.29	137.931
826.59	142.105
826.89	139.474
827.19	173.529
827.49	196.774
827.79	150.000
828.09	120.455
828.39	117.021
828.70	124.490
829.00	177.778
829.30	151.613
829.60	155.000
829.90	280.000
830.20	164.286
830.50	173.913
830.80	243.478
831.10	193.333
831.40	153.333
831.70	186.957
832.00	184.615
832.30	181.481
832.60	325.000
832.90	203.333
833.20	385.714
833.50	183.871
833.80	179.310
834.10	184.375
834.40	223.077
834.70	294.444
835.00	247.619
835.30	151.429
835.60	330.769
835.90	186.207
836.20	314.286
836.50	203.448
836.80	196.000
837.10	155.556
837.40	261.905
837.70	352.941
838.00	196.296
838.30	219.048
838.60	280.952
838.90	219.231
839.19	280.000
839.49	371.429
839.79	345.000
840.09	260.000
840.39	204.762
840.69	195.652
840.99	300.000
841.29	490.000
841.59	316.667
841.88	356.250
842.18	162.069
842.48	223.810
842.78	176.667
843.08	213.043
843.38	165.625
843.68	800.000
843.97	215.385
844.27	186.207
844.57	309.524
844.87	343.750
845.17	196.296
845.47	1466.667
845.76	355.556
846.06	311.765
846.36	500.000
846.66	300.000
846.96	343.750
847.25	409.091
847.55	390.909
847.85	217.391
848.15	370.000
848.44	350.000
848.74	238.889
849.04	247.059
849.34	500.000
849.63	210.526
849.93	418.182
850.23	880.000
850.53	378.571
850.82	2000.000
851.12	-4000.000
851.42	3800.000
851.71	235.000
852.01	-1066.667
852.31	237.500
852.61	1500.000
852.90	285.714
853.20	208.000
853.50	341.176
853.79	247.619
854.09	183.333
854.39	318.750
854.68	148.649
854.98	167.742
855.28	143.333
855.57	227.586
855.87	192.593
856.17	284.211
856.46	246.667
856.76	264.706
857.05	210.345
857.35	237.500
857.65	333.333
857.94	200.000
858.24	223.077
858.53	270.000
858.83	213.636
859.13	306.667
859.42	0.000
859.72	588.889
860.01	400.000
860.31	268.182
860.60	294.737
860.90	234.783
861.20	544.444
861.49	458.333
861.79	-4100.000
862.08	600.000
862.38	266.667
862.67	369.231
862.97	335.294
863.26	477.778
863.56	300.000
863.85	391.667
864.15	537.500
864.44	346.667
864.74	766.667
865.03	562.500
865.33	268.421
865.62	336.364
865.92	423.077
866.21	391.667
866.51	0.000
866.80	445.455
867.10	980.000
867.39	407.692
867.69	400.000
867.98	242.105
868.27	490.909
868.57	347.368
868.86	-4300.000
869.16	343.750
869.45	2450.000
869.75	-4000.000
870.04	341.667
870.33	671.429
870.63	875.000
870.92	2450.000
871.22	785.714
871.51	317.647
871.80	271.429
872.10	392.857
>>>>>End Processed Spectral Data<<<<<
