SpectraSuite Data File
++++++++++++++++++++++++++++++++++++
Date: Wed May 13 16:17:09 PDT 2015
User: schluterlab
Dark Spectrum Present: Yes
Reference Spectrum Present: Yes
Number of Sampled Component Spectra: 1
Spectrometers: USB2E3373
Integration Time (usec): 3000 (USB2E3373)
Spectra Averaged: 3 (USB2E3373)
Boxcar Smoothing: 0 (USB2E3373)
Correct for Electrical Dark: No (USB2E3373)
Strobe/Lamp Enabled: No (USB2E3373)
Correct for Detector Non-linearity: No (USB2E3373)
Correct for Stray Light: No (USB2E3373)
Number of Pixels in Processed Spectrum: 2048
>>>>>Begin Processed Spectral Data<<<<<
178.53	0.000
178.91	-1050.000
179.29	-975.000
179.67	-127.778
180.04	-975.000
180.42	2450.000
180.80	840.000
181.18	-825.000
181.56	542.857
181.94	0.000
182.31	-471.429
182.69	1066.667
183.07	-425.000
183.45	-388.889
183.83	509.091
184.20	-270.000
184.58	1750.000
184.96	4500.000
185.34	-680.000
185.72	-475.000
186.09	-2300.000
186.47	2050.000
186.85	1700.000
187.23	2800.000
187.61	-1533.333
187.98	975.000
188.36	436.364
188.74	454.545
189.12	-660.000
189.49	440.000
189.87	-3300.000
190.25	-1000.000
190.63	350.000
191.00	323.077
191.38	566.667
191.76	-675.000
192.14	1075.000
192.51	525.000
192.89	766.667
193.27	537.500
193.65	-900.000
194.02	420.000
194.40	720.000
194.78	520.000
195.15	391.667
195.53	470.000
195.91	-1700.000
196.29	312.500
196.66	263.158
197.04	-260.000
197.42	0.000
197.79	540.000
198.17	-3700.000
198.55	585.714
198.92	475.000
199.30	960.000
199.68	0.000
200.05	277.778
200.43	628.571
200.81	3200.000
201.18	1233.333
201.56	-1100.000
201.94	455.556
202.31	500.000
202.69	366.667
203.07	450.000
203.44	0.000
203.82	1075.000
204.19	600.000
204.57	335.714
204.95	487.500
205.32	1166.667
205.70	454.545
206.08	314.286
206.45	2550.000
206.83	275.000
207.20	800.000
207.58	660.000
207.96	288.889
208.33	637.500
208.71	-650.000
209.08	771.429
209.46	466.667
209.84	409.091
210.21	-1233.333
210.59	1100.000
210.96	-412.500
211.34	2500.000
211.71	430.000
212.09	783.333
212.46	0.000
212.84	1466.667
213.22	1175.000
213.59	-3500.000
213.97	616.667
214.34	757.143
214.72	518.182
215.09	720.000
215.47	-1650.000
215.84	-1950.000
216.22	1033.333
216.59	264.286
216.97	950.000
217.34	400.000
217.72	-483.333
218.09	0.000
218.47	-3000.000
218.84	477.778
219.22	528.571
219.59	1433.333
219.97	-442.857
220.34	640.000
220.72	-1200.000
221.09	371.429
221.47	1100.000
221.84	-716.667
222.22	0.000
222.59	950.000
222.97	-2250.000
223.34	1100.000
223.72	307.692
224.09	780.000
224.46	1400.000
224.84	-3600.000
225.21	-800.000
225.59	-3600.000
225.96	410.000
226.34	220.000
226.71	1550.000
227.08	625.000
227.46	480.000
227.83	-875.000
228.21	-1600.000
228.58	500.000
228.95	-1850.000
229.33	-1650.000
229.70	1300.000
230.08	771.429
230.45	-560.000
230.82	300.000
231.20	433.333
231.57	428.571
231.95	366.667
232.32	131.818
232.69	336.364
233.07	500.000
233.44	269.231
233.81	-1433.333
234.19	194.737
234.56	325.000
234.93	316.667
235.31	372.727
235.68	261.538
236.05	257.143
236.43	121.212
236.80	215.789
237.17	2300.000
237.55	176.190
237.92	132.143
238.29	157.143
238.67	116.129
239.04	144.828
239.41	97.222
239.79	84.783
240.16	111.905
240.53	88.636
240.91	66.667
241.28	72.000
241.65	48.000
242.02	65.217
242.40	54.839
242.77	40.000
243.14	58.065
243.51	55.056
243.89	29.412
244.26	36.667
244.63	43.011
245.00	37.234
245.38	33.663
245.75	31.776
246.12	31.193
246.49	31.387
246.87	41.600
247.24	29.231
247.61	31.429
247.98	26.797
248.36	20.270
248.73	22.930
249.10	28.025
249.47	25.424
249.84	22.995
250.22	17.647
250.59	22.485
250.96	21.717
251.33	26.066
251.70	24.752
252.08	17.143
252.45	14.798
252.82	15.652
253.19	18.723
253.56	17.255
253.94	17.012
254.31	14.453
254.68	18.462
255.05	19.188
255.42	10.569
255.79	13.603
256.16	16.968
256.54	14.134
256.91	15.302
257.28	9.712
257.65	11.221
258.02	15.217
258.39	14.196
258.76	9.030
259.14	16.667
259.51	10.334
259.88	11.801
260.25	13.293
260.62	11.850
260.99	12.422
261.36	10.511
261.73	12.034
262.10	11.919
262.47	11.549
262.85	9.749
263.22	8.547
263.59	13.390
263.96	9.066
264.33	12.794
264.70	12.368
265.07	10.742
265.44	10.101
265.81	9.489
266.18	9.799
266.55	9.268
266.92	9.337
267.29	10.185
267.66	9.174
268.03	10.227
268.40	9.346
268.77	8.592
269.14	9.234
269.51	11.287
269.88	9.324
270.25	10.835
270.62	9.213
270.99	11.183
271.36	9.657
271.73	4.907
272.10	10.000
272.47	8.602
272.84	9.091
273.21	10.273
273.58	5.677
273.95	6.918
274.32	8.058
274.69	8.994
275.06	7.480
275.43	9.574
275.80	7.615
276.17	7.536
276.54	7.692
276.91	9.881
277.28	8.203
277.65	9.284
278.02	6.418
278.39	7.422
278.76	8.182
279.13	10.189
279.50	8.566
279.87	6.972
280.23	9.980
280.60	7.157
280.97	6.100
281.34	8.850
281.71	8.727
282.08	11.132
282.45	6.364
282.82	7.815
283.19	7.308
283.56	7.193
283.92	8.629
284.29	5.291
284.66	6.715
285.03	6.329
285.40	7.570
285.77	7.407
286.14	6.045
286.51	7.667
286.87	6.154
287.24	7.655
287.61	6.902
287.98	7.955
288.35	6.181
288.72	6.698
289.08	6.729
289.45	5.766
289.82	6.341
290.19	6.122
290.56	5.819
290.93	5.740
291.29	5.215
291.66	6.195
292.03	8.140
292.40	8.370
292.77	5.178
293.13	6.716
293.50	5.685
293.87	5.778
294.24	5.630
294.60	5.095
294.97	5.814
295.34	5.501
295.71	6.392
296.08	5.556
296.44	5.502
296.81	5.945
297.18	7.182
297.55	4.749
297.91	5.937
298.28	6.292
298.65	6.005
299.02	6.192
299.38	4.648
299.75	2.695
300.12	5.747
300.48	5.125
300.85	5.919
301.22	5.350
301.59	5.808
301.95	6.045
302.32	6.033
302.69	4.898
303.05	4.485
303.42	5.309
303.79	5.549
304.15	5.012
304.52	4.403
304.89	4.994
305.25	4.408
305.62	5.436
305.99	5.667
306.35	4.139
306.72	4.821
307.09	5.327
307.45	5.518
307.82	3.795
308.19	5.519
308.55	5.825
308.92	4.619
309.29	4.963
309.65	5.408
310.02	4.651
310.38	5.054
310.75	5.280
311.12	4.811
311.48	6.165
311.85	5.660
312.22	5.099
312.58	4.262
312.95	6.019
313.31	4.660
313.68	4.574
314.05	7.101
314.41	6.231
314.78	4.532
315.14	5.462
315.51	5.458
315.87	4.455
316.24	5.263
316.61	5.068
316.97	4.599
317.34	4.305
317.70	6.119
318.07	6.256
318.43	4.892
318.80	6.373
319.16	5.838
319.53	3.940
319.89	5.619
320.26	6.700
320.62	6.746
320.99	6.566
321.35	5.657
321.72	6.366
322.08	6.120
322.45	6.667
322.81	5.620
323.18	6.069
323.54	6.122
323.91	6.604
324.27	5.449
324.64	5.126
325.00	5.500
325.37	5.732
325.73	6.912
326.10	6.002
326.46	5.197
326.83	6.644
327.19	5.978
327.56	5.226
327.92	5.687
328.29	5.945
328.65	6.630
329.01	6.408
329.38	5.643
329.74	5.263
330.11	7.446
330.47	6.336
330.84	6.985
331.20	7.013
331.56	6.789
331.93	5.926
332.29	5.679
332.66	6.372
333.02	6.947
333.38	6.233
333.75	6.774
334.11	7.206
334.48	6.300
334.84	6.710
335.20	6.727
335.57	5.530
335.93	5.804
336.29	4.945
336.66	6.402
337.02	5.520
337.38	6.019
337.75	5.437
338.11	6.356
338.47	5.617
338.84	6.416
339.20	5.963
339.56	5.566
339.93	5.455
340.29	5.163
340.65	5.882
341.02	5.934
341.38	5.249
341.74	4.912
342.11	6.900
342.47	5.903
342.83	5.822
343.20	7.013
343.56	5.307
343.92	5.789
344.28	6.293
344.65	5.847
345.01	5.135
345.37	4.889
345.73	5.499
346.10	6.053
346.46	5.678
346.82	5.766
347.19	6.099
347.55	4.598
347.91	6.149
348.27	6.491
348.63	6.355
349.00	5.097
349.36	5.829
349.72	5.213
350.08	5.592
350.45	5.777
350.81	5.849
351.17	5.267
351.53	4.914
351.89	4.703
352.26	6.472
352.62	5.453
352.98	4.457
353.34	5.588
353.70	4.664
354.07	5.645
354.43	5.794
354.79	5.149
355.15	4.629
355.51	5.755
355.87	4.980
356.24	6.107
356.60	4.972
356.96	5.229
357.32	4.988
357.68	6.457
358.04	5.859
358.40	5.622
358.77	5.712
359.13	4.815
359.49	4.471
359.85	3.333
360.21	4.785
360.57	4.981
360.93	5.692
361.29	4.460
361.66	4.102
362.02	5.522
362.38	6.236
362.74	5.208
363.10	4.293
363.46	4.622
363.82	4.460
364.18	5.140
364.54	5.869
364.90	6.020
365.26	4.853
365.62	6.063
365.98	4.237
366.35	4.298
366.71	5.857
367.07	5.098
367.43	5.515
367.79	4.854
368.15	6.537
368.51	4.360
368.87	5.496
369.23	4.974
369.59	5.141
369.95	4.559
370.31	5.840
370.67	4.855
371.03	5.393
371.39	5.394
371.75	5.074
372.11	5.334
372.47	4.765
372.83	5.259
373.19	4.552
373.55	5.469
373.91	5.965
374.27	4.330
374.63	4.582
374.99	5.155
375.35	4.676
375.71	4.661
376.07	6.241
376.42	4.402
376.78	5.964
377.14	4.749
377.50	5.497
377.86	5.319
378.22	5.942
378.58	4.637
378.94	4.777
379.30	4.835
379.66	5.140
380.02	5.528
380.38	5.161
380.74	5.102
381.09	5.501
381.45	5.470
381.81	6.081
382.17	5.159
382.53	4.780
382.89	6.235
383.25	4.878
383.61	6.072
383.97	5.879
384.32	5.739
384.68	4.895
385.04	4.917
385.40	5.449
385.76	5.528
386.12	5.052
386.48	6.482
386.83	6.030
387.19	6.432
387.55	6.061
387.91	6.348
388.27	4.905
388.62	6.331
388.98	5.344
389.34	6.633
389.70	6.560
390.06	6.337
390.42	6.031
390.77	6.679
391.13	5.743
391.49	6.536
391.85	5.920
392.20	4.795
392.56	5.240
392.92	5.709
393.28	5.621
393.64	6.235
393.99	6.536
394.35	5.893
394.71	6.524
395.07	5.545
395.42	6.304
395.78	5.852
396.14	6.331
396.50	6.642
396.85	5.849
397.21	6.104
397.57	6.386
397.92	5.950
398.28	5.661
398.64	5.914
399.00	5.820
399.35	5.922
399.71	6.192
400.07	6.682
400.42	5.767
400.78	6.755
401.14	5.610
401.49	6.269
401.85	5.747
402.21	5.569
402.57	5.676
402.92	5.612
403.28	6.059
403.63	6.002
403.99	5.287
404.35	5.636
404.70	5.096
405.06	5.067
405.42	6.051
405.77	5.886
406.13	5.474
406.49	6.268
406.84	5.966
407.20	5.378
407.55	5.999
407.91	5.533
408.27	5.616
408.62	5.900
408.98	5.270
409.34	5.966
409.69	5.677
410.05	5.328
410.40	6.055
410.76	5.854
411.11	5.669
411.47	5.559
411.83	5.681
412.18	4.824
412.54	5.479
412.89	6.325
413.25	5.195
413.60	6.177
413.96	5.282
414.31	5.772
414.67	5.640
415.03	5.828
415.38	6.250
415.74	5.788
416.09	6.009
416.45	5.087
416.80	5.486
417.16	6.635
417.51	5.773
417.87	6.294
418.22	5.804
418.58	5.165
418.93	5.651
419.29	5.729
419.64	5.982
420.00	6.280
420.35	6.551
420.71	5.738
421.06	5.847
421.42	5.731
421.77	5.830
422.12	5.446
422.48	4.749
422.83	5.824
423.19	6.077
423.54	4.875
423.90	5.681
424.25	6.198
424.61	5.060
424.96	5.131
425.31	6.035
425.67	5.225
426.02	5.543
426.38	5.739
426.73	5.851
427.09	5.532
427.44	5.865
427.79	6.038
428.15	6.667
428.50	5.383
428.85	5.840
429.21	5.246
429.56	4.717
429.92	5.385
430.27	5.313
430.62	5.325
430.98	5.501
431.33	5.258
431.68	5.445
432.04	6.017
432.39	5.197
432.74	5.506
433.10	5.716
433.45	5.423
433.80	5.488
434.16	5.823
434.51	5.316
434.86	5.530
435.22	5.170
435.57	5.046
435.92	5.559
436.28	5.516
436.63	6.291
436.98	5.152
437.34	5.844
437.69	5.601
438.04	5.115
438.39	5.493
438.75	6.159
439.10	5.587
439.45	5.372
439.81	5.861
440.16	5.647
440.51	6.034
440.86	5.269
441.22	4.950
441.57	5.732
441.92	5.118
442.27	5.490
442.63	5.266
442.98	5.465
443.33	5.761
443.68	5.318
444.03	5.466
444.39	4.528
444.74	5.195
445.09	5.714
445.44	5.249
445.79	5.641
446.15	6.247
446.50	5.547
446.85	5.344
447.20	5.252
447.55	5.583
447.91	5.295
448.26	5.954
448.61	5.370
448.96	5.703
449.31	6.018
449.66	6.415
450.02	4.958
450.37	5.612
450.72	6.148
451.07	5.424
451.42	5.957
451.77	5.931
452.12	6.236
452.47	5.846
452.83	5.536
453.18	6.235
453.53	5.875
453.88	5.729
454.23	5.858
454.58	5.451
454.93	6.230
455.28	5.611
455.63	5.643
455.98	6.488
456.34	5.653
456.69	5.886
457.04	5.325
457.39	5.260
457.74	5.049
458.09	5.865
458.44	5.587
458.79	5.748
459.14	5.982
459.49	5.779
459.84	5.374
460.19	5.303
460.54	6.076
460.89	6.747
461.24	6.132
461.59	6.508
461.94	5.549
462.29	6.884
462.64	5.999
462.99	5.856
463.34	6.600
463.69	6.567
464.04	6.377
464.39	6.203
464.74	5.585
465.09	6.273
465.44	6.094
465.79	5.313
466.14	6.240
466.49	5.729
466.84	5.546
467.19	6.095
467.54	5.625
467.89	5.042
468.24	6.806
468.59	6.777
468.94	5.254
469.29	6.620
469.64	7.229
469.99	6.225
470.34	5.548
470.68	6.250
471.03	5.306
471.38	6.810
471.73	6.795
472.08	6.776
472.43	6.595
472.78	5.991
473.13	5.841
473.48	5.993
473.83	5.915
474.17	5.103
474.52	5.831
474.87	6.830
475.22	6.326
475.57	6.502
475.92	5.576
476.27	5.524
476.61	6.343
476.96	5.003
477.31	4.971
477.66	5.197
478.01	5.384
478.36	5.658
478.70	5.504
479.05	5.698
479.40	5.732
479.75	5.236
480.10	4.970
480.45	5.664
480.79	5.112
481.14	5.333
481.49	5.221
481.84	5.121
482.19	4.952
482.53	5.550
482.88	5.398
483.23	5.561
483.58	5.914
483.92	5.717
484.27	4.837
484.62	5.431
484.97	5.242
485.31	4.623
485.66	4.351
486.01	4.016
486.36	3.948
486.70	3.752
487.05	4.217
487.40	4.367
487.75	4.107
488.09	4.671
488.44	4.536
488.79	4.557
489.13	4.851
489.48	5.098
489.83	4.834
490.17	5.129
490.52	5.182
490.87	5.020
491.22	5.321
491.56	4.328
491.91	5.444
492.26	4.731
492.60	5.622
492.95	4.911
493.30	5.234
493.64	5.226
493.99	4.457
494.34	4.995
494.68	6.044
495.03	5.263
495.37	5.165
495.72	5.312
496.07	5.568
496.41	5.442
496.76	5.673
497.11	5.358
497.45	5.589
497.80	4.990
498.14	5.459
498.49	5.220
498.84	5.992
499.18	5.143
499.53	5.223
499.87	5.405
500.22	5.464
500.56	6.311
500.91	4.904
501.26	5.311
501.60	5.553
501.95	4.950
502.29	5.014
502.64	5.074
502.98	4.956
503.33	5.667
503.67	5.522
504.02	5.566
504.36	5.381
504.71	5.325
505.06	5.446
505.40	5.348
505.75	4.773
506.09	5.685
506.44	4.588
506.78	5.748
507.13	5.250
507.47	5.707
507.82	5.826
508.16	5.420
508.51	5.479
508.85	5.611
509.19	5.000
509.54	5.510
509.88	5.410
510.23	5.347
510.57	5.882
510.92	5.645
511.26	4.985
511.61	5.705
511.95	5.271
512.30	5.355
512.64	5.803
512.98	6.109
513.33	5.996
513.67	5.550
514.02	5.357
514.36	6.335
514.70	5.700
515.05	5.187
515.39	5.833
515.74	6.137
516.08	5.813
516.42	6.160
516.77	6.132
517.11	4.994
517.46	6.095
517.80	6.446
518.14	6.022
518.49	6.243
518.83	6.534
519.17	6.582
519.52	6.678
519.86	6.560
520.20	7.399
520.55	6.044
520.89	5.718
521.23	6.876
521.58	6.423
521.92	6.552
522.26	5.491
522.61	5.857
522.95	5.648
523.29	6.026
523.64	6.220
523.98	6.161
524.32	6.454
524.66	6.675
525.01	6.127
525.35	6.258
525.69	4.926
526.04	6.604
526.38	6.650
526.72	6.564
527.06	6.340
527.41	5.012
527.75	7.010
528.09	6.358
528.43	6.246
528.78	6.085
529.12	6.606
529.46	7.042
529.80	6.126
530.15	6.417
530.49	6.769
530.83	7.215
531.17	6.723
531.51	7.328
531.86	6.968
532.20	7.497
532.54	7.047
532.88	6.611
533.22	5.996
533.57	6.111
533.91	5.960
534.25	6.622
534.59	5.918
534.93	6.603
535.27	6.337
535.62	6.532
535.96	6.905
536.30	6.230
536.64	6.504
536.98	6.038
537.32	5.925
537.66	6.200
538.01	7.044
538.35	6.658
538.69	7.275
539.03	6.693
539.37	5.176
539.71	5.185
540.05	6.013
540.39	6.379
540.73	5.563
541.07	7.008
541.42	6.523
541.76	7.097
542.10	6.662
542.44	6.358
542.78	6.851
543.12	5.694
543.46	6.623
543.80	6.962
544.14	6.162
544.48	6.984
544.82	5.901
545.16	6.051
545.50	6.555
545.84	5.444
546.18	6.397
546.52	6.882
546.86	6.529
547.20	7.148
547.54	7.081
547.88	6.952
548.22	5.978
548.56	6.101
548.90	6.082
549.24	5.859
549.58	6.753
549.92	5.975
550.26	6.250
550.60	6.985
550.94	6.761
551.28	5.340
551.62	6.758
551.96	6.526
552.30	7.509
552.64	6.153
552.98	6.102
553.32	6.811
553.66	7.021
554.00	6.246
554.34	6.487
554.68	6.581
555.02	7.052
555.36	6.681
555.69	5.277
556.03	5.989
556.37	6.344
556.71	6.071
557.05	6.373
557.39	7.068
557.73	6.987
558.07	6.672
558.41	6.440
558.75	6.539
559.08	7.159
559.42	5.442
559.76	6.691
560.10	6.424
560.44	6.709
560.78	6.055
561.12	5.343
561.45	6.714
561.79	6.394
562.13	6.170
562.47	6.216
562.81	6.416
563.15	6.154
563.48	5.836
563.82	6.197
564.16	6.344
564.50	5.924
564.84	6.574
565.17	6.371
565.51	6.006
565.85	5.520
566.19	5.072
566.52	6.080
566.86	6.269
567.20	6.663
567.54	5.936
567.88	5.323
568.21	5.714
568.55	6.218
568.89	5.156
569.23	5.481
569.56	5.263
569.90	4.943
570.24	4.736
570.57	5.066
570.91	4.686
571.25	4.663
571.59	4.713
571.92	4.263
572.26	4.275
572.60	4.565
572.93	4.408
573.27	4.732
573.61	4.299
573.95	4.419
574.28	4.146
574.62	4.276
574.96	4.325
575.29	3.904
575.63	4.116
575.97	4.322
576.30	4.328
576.64	4.145
576.98	4.254
577.31	4.020
577.65	4.235
577.98	4.202
578.32	3.773
578.66	4.214
578.99	3.835
579.33	4.018
579.67	3.746
580.00	4.028
580.34	4.366
580.67	4.207
581.01	4.745
581.35	4.091
581.68	3.868
582.02	3.778
582.35	3.653
582.69	4.264
583.02	4.164
583.36	4.381
583.70	4.146
584.03	4.258
584.37	4.480
584.70	3.971
585.04	4.428
585.37	4.240
585.71	4.464
586.04	4.301
586.38	4.101
586.72	4.640
587.05	4.292
587.39	4.195
587.72	4.432
588.06	3.895
588.39	4.335
588.73	4.224
589.06	4.706
589.40	4.175
589.73	4.822
590.07	4.982
590.40	4.494
590.73	4.996
591.07	4.843
591.40	5.272
591.74	5.541
592.07	5.105
592.41	5.126
592.74	4.719
593.08	5.063
593.41	4.650
593.75	4.653
594.08	4.827
594.41	4.807
594.75	4.399
595.08	4.975
595.42	4.939
595.75	4.986
596.09	5.558
596.42	5.540
596.75	5.234
597.09	5.671
597.42	4.975
597.75	5.088
598.09	5.217
598.42	5.112
598.76	5.067
599.09	4.789
599.42	4.767
599.76	4.978
600.09	4.590
600.42	4.492
600.76	4.429
601.09	4.882
601.42	4.756
601.76	4.592
602.09	4.506
602.42	5.374
602.76	5.764
603.09	5.468
603.42	5.232
603.76	4.954
604.09	4.769
604.42	5.014
604.76	5.441
605.09	4.937
605.42	4.788
605.75	5.588
606.09	5.287
606.42	4.822
606.75	4.977
607.09	5.400
607.42	4.835
607.75	5.063
608.08	4.820
608.42	5.424
608.75	5.591
609.08	4.903
609.41	5.093
609.75	5.479
610.08	5.514
610.41	4.655
610.74	5.061
611.07	5.632
611.41	5.397
611.74	5.782
612.07	5.797
612.40	5.981
612.73	5.842
613.07	5.603
613.40	6.003
613.73	4.982
614.06	5.699
614.39	6.240
614.72	5.632
615.06	5.935
615.39	5.732
615.72	5.521
616.05	5.104
616.38	5.837
616.71	5.701
617.05	6.360
617.38	5.352
617.71	5.045
618.04	5.950
618.37	5.441
618.70	5.912
619.03	5.987
619.36	6.585
619.69	6.197
620.03	7.005
620.36	6.952
620.69	6.301
621.02	6.490
621.35	5.717
621.68	6.854
622.01	6.269
622.34	6.884
622.67	6.692
623.00	6.310
623.33	6.147
623.66	6.433
623.99	6.038
624.32	6.277
624.65	6.638
624.99	6.516
625.32	6.083
625.65	6.011
625.98	6.764
626.31	5.988
626.64	6.694
626.97	6.650
627.30	5.320
627.63	7.383
627.96	7.401
628.29	7.874
628.62	7.136
628.95	9.057
629.28	6.752
629.61	8.158
629.94	6.571
630.26	7.340
630.59	7.531
630.92	7.184
631.25	7.305
631.58	7.207
631.91	7.708
632.24	7.173
632.57	7.240
632.90	7.346
633.23	7.494
633.56	8.362
633.89	7.928
634.22	9.535
634.55	8.402
634.88	5.749
635.20	8.602
635.53	8.795
635.86	8.663
636.19	7.647
636.52	7.497
636.85	8.935
637.18	7.834
637.51	8.983
637.83	6.535
638.16	8.824
638.49	8.690
638.82	8.344
639.15	9.125
639.48	8.853
639.81	8.981
640.13	10.286
640.46	10.201
640.79	9.511
641.12	7.703
641.45	8.240
641.77	7.658
642.10	9.357
642.43	9.309
642.76	9.443
643.09	10.429
643.41	9.408
643.74	9.877
644.07	8.079
644.40	10.123
644.73	11.339
645.05	11.252
645.38	9.795
645.71	9.179
646.04	10.133
646.36	10.017
646.69	10.368
647.02	8.844
647.35	10.653
647.67	9.381
648.00	10.081
648.33	9.406
648.66	9.242
648.98	10.345
649.31	9.268
649.64	10.463
649.96	8.942
650.29	10.269
650.62	8.900
650.94	9.887
651.27	11.318
651.60	9.817
651.92	10.863
652.25	8.795
652.58	11.215
652.90	8.373
653.23	8.629
653.56	9.606
653.88	9.350
654.21	11.690
654.54	10.396
654.86	10.280
655.19	7.838
655.52	4.842
655.84	3.237
656.17	3.787
656.49	5.015
656.82	5.093
657.15	4.096
657.47	3.004
657.80	2.443
658.13	2.598
658.45	4.046
658.78	4.151
659.10	4.915
659.43	5.276
659.75	5.360
660.08	6.392
660.41	7.263
660.73	10.546
661.06	7.166
661.38	12.000
661.71	10.192
662.03	11.045
662.36	9.344
662.68	10.843
663.01	12.727
663.33	12.102
663.66	9.454
663.98	11.663
664.31	9.664
664.63	12.348
664.96	11.670
665.28	10.861
665.61	10.721
665.93	11.066
666.26	9.939
666.58	12.971
666.91	13.531
667.23	10.112
667.56	9.719
667.88	11.966
668.21	12.580
668.53	13.232
668.86	11.255
669.18	13.220
669.50	10.217
669.83	13.725
670.15	13.778
670.48	11.547
670.80	9.698
671.13	15.074
671.45	10.426
671.77	12.424
672.10	11.460
672.42	10.071
672.75	9.950
673.07	9.683
673.39	8.861
673.72	8.789
674.04	10.196
674.37	12.427
674.69	10.634
675.01	10.879
675.34	13.758
675.66	13.474
675.98	11.202
676.31	12.185
676.63	10.403
676.95	9.434
677.28	9.579
677.60	10.549
677.92	13.713
678.25	9.035
678.57	12.550
678.89	9.619
679.22	10.413
679.54	9.542
679.86	11.376
680.18	10.018
680.51	12.589
680.83	10.676
681.15	8.868
681.48	13.043
681.80	10.445
682.12	10.536
682.44	9.284
682.77	11.405
683.09	12.661
683.41	13.082
683.73	10.817
684.06	10.331
684.38	11.937
684.70	11.628
685.02	11.445
685.34	8.974
685.67	8.217
685.99	9.450
686.31	8.020
686.63	9.364
686.96	10.179
687.28	11.011
687.60	9.783
687.92	12.431
688.24	11.027
688.56	11.847
688.89	12.863
689.21	11.354
689.53	12.317
689.85	12.417
690.17	10.145
690.49	14.013
690.82	10.514
691.14	10.937
691.46	10.127
691.78	10.843
692.10	12.397
692.42	12.176
692.74	10.166
693.06	13.404
693.39	11.499
693.71	11.135
694.03	12.000
694.35	9.091
694.67	12.357
694.99	15.366
695.31	11.765
695.63	11.244
695.95	13.203
696.27	8.122
696.59	12.435
696.91	13.472
697.23	10.329
697.56	12.580
697.88	9.816
698.20	13.125
698.52	12.473
698.84	13.140
699.16	14.055
699.48	10.689
699.80	13.285
700.12	16.623
700.44	12.732
700.76	12.431
701.08	12.069
701.40	13.128
701.72	12.536
702.04	20.739
702.36	14.448
702.68	12.465
703.00	12.742
703.32	12.234
703.64	14.477
703.96	13.092
704.28	15.116
704.60	15.836
704.91	13.947
705.23	14.663
705.55	18.272
705.87	18.272
706.19	13.781
706.51	17.445
706.83	16.667
707.15	15.126
707.47	12.374
707.79	14.742
708.11	10.731
708.43	12.381
708.74	11.480
709.06	17.403
709.38	12.073
709.70	14.826
710.02	13.056
710.34	16.061
710.66	15.522
710.98	14.205
711.29	14.826
711.61	16.519
711.93	12.500
712.25	12.219
712.57	16.176
712.89	14.533
713.20	15.502
713.52	18.750
713.84	14.557
714.16	14.024
714.48	12.931
714.80	17.021
715.11	15.850
715.43	15.727
715.75	14.783
716.07	20.447
716.39	16.301
716.70	18.272
717.02	15.468
717.34	14.134
717.66	17.537
717.97	15.538
718.29	16.667
718.61	16.423
718.93	20.221
719.24	17.993
719.56	18.305
719.88	15.254
720.20	19.932
720.51	15.679
720.83	18.587
721.15	13.806
721.46	18.085
721.78	16.129
722.10	19.623
722.42	17.669
722.73	15.730
723.05	15.574
723.37	17.814
723.68	16.988
724.00	18.699
724.32	17.339
724.63	21.545
724.95	15.481
725.27	15.789
725.58	21.094
725.90	17.883
726.22	16.981
726.53	17.014
726.85	18.089
727.16	14.947
727.48	14.184
727.80	20.076
728.11	18.478
728.43	14.231
728.74	15.054
729.06	19.343
729.38	22.794
729.69	18.861
730.01	17.747
730.32	18.056
730.64	17.726
730.96	13.201
731.27	17.881
731.59	16.208
731.90	13.703
732.22	15.528
732.53	14.861
732.85	15.705
733.16	16.720
733.48	15.282
733.80	18.506
734.11	17.834
734.43	20.710
734.74	12.286
735.06	10.029
735.37	14.162
735.69	13.694
736.00	16.340
736.32	16.199
736.63	14.058
736.95	18.211
737.26	9.524
737.58	14.516
737.89	12.040
738.21	15.700
738.52	20.714
738.83	15.472
739.15	19.231
739.46	21.533
739.78	17.708
740.09	16.000
740.41	18.065
740.72	14.983
741.04	18.889
741.35	17.917
741.66	23.556
741.98	20.755
742.29	22.010
742.61	25.431
742.92	18.552
743.23	23.504
743.55	20.400
743.86	19.298
744.18	21.681
744.49	21.053
744.80	27.230
745.12	26.818
745.43	22.907
745.74	23.423
746.06	21.101
746.37	22.870
746.68	21.267
747.00	23.611
747.31	21.429
747.62	15.929
747.94	19.824
748.25	17.021
748.56	24.229
748.88	20.297
749.19	25.500
749.50	24.651
749.82	17.886
750.13	14.286
750.44	16.788
750.75	18.246
751.07	21.865
751.38	18.815
751.69	18.051
752.01	13.910
752.32	15.162
752.63	15.248
752.94	15.164
753.26	19.600
753.57	14.228
753.88	18.750
754.19	15.357
754.51	20.833
754.82	15.884
755.13	17.736
755.44	16.917
755.75	16.058
756.07	14.184
756.38	11.314
756.69	14.430
757.00	14.970
757.31	15.430
757.63	15.205
757.94	13.673
758.25	15.931
758.56	11.605
758.87	14.247
759.18	13.939
759.50	14.420
759.81	15.888
760.12	13.438
760.43	13.181
760.74	16.576
761.05	13.842
761.36	10.963
761.67	14.205
761.99	13.043
762.30	13.194
762.61	16.412
762.92	19.141
763.23	24.370
763.54	17.600
763.85	15.625
764.16	20.385
764.47	15.970
764.78	14.134
765.10	13.291
765.41	15.339
765.72	11.976
766.03	14.734
766.34	15.667
766.65	20.426
766.96	22.650
767.27	20.812
767.58	19.271
767.89	27.368
768.20	23.563
768.51	20.812
768.82	24.312
769.13	14.634
769.44	17.814
769.75	16.738
770.06	17.431
770.37	24.887
770.68	20.370
770.99	19.556
771.30	16.393
771.61	18.386
771.92	20.082
772.23	23.109
772.54	18.974
772.85	29.319
773.16	21.277
773.47	25.000
773.78	26.396
774.09	29.762
774.39	28.070
774.70	29.012
775.01	31.884
775.32	34.641
775.63	29.605
775.94	23.022
776.25	26.772
776.56	31.343
776.87	35.246
777.18	32.813
777.48	38.168
777.79	28.788
778.10	37.778
778.41	31.250
778.72	28.467
779.03	34.228
779.34	33.557
779.65	20.270
779.95	32.515
780.26	28.105
780.57	35.862
780.88	33.594
781.19	32.331
781.50	35.811
781.80	26.415
782.11	27.684
782.42	27.215
782.73	23.926
783.04	29.730
783.34	30.282
783.65	38.356
783.96	37.313
784.27	21.678
784.57	29.496
784.88	26.852
785.19	38.095
785.50	32.075
785.81	41.045
786.11	35.246
786.42	34.884
786.73	30.088
787.04	33.962
787.34	36.607
787.65	40.000
787.96	35.135
788.26	37.190
788.57	33.898
788.88	31.405
789.19	40.278
789.49	42.424
789.80	39.695
790.11	51.429
790.41	49.505
790.72	54.217
791.03	41.304
791.33	47.674
791.64	50.515
791.95	41.584
792.25	44.444
792.56	54.545
792.87	60.256
793.17	59.494
793.48	54.023
793.79	42.529
794.09	38.636
794.40	38.655
794.70	36.029
795.01	36.296
795.32	31.655
795.62	37.795
795.93	29.310
796.23	38.053
796.54	45.882
796.85	56.757
797.15	77.465
797.46	57.576
797.76	60.241
798.07	48.101
798.37	52.308
798.68	57.576
798.99	54.930
799.29	50.649
799.60	47.727
799.90	50.685
800.21	56.716
800.51	72.414
800.82	50.877
801.12	62.295
801.43	59.091
801.73	66.216
802.04	68.254
802.34	64.198
802.65	73.438
802.95	83.051
803.26	81.250
803.56	47.143
803.87	50.769
804.17	52.941
804.48	72.222
804.78	51.724
805.09	55.882
805.39	53.846
805.70	78.571
806.00	83.607
806.30	57.576
806.61	53.659
806.91	54.430
807.22	61.842
807.52	44.776
807.83	57.746
808.13	70.312
808.43	70.000
808.74	47.368
809.04	59.420
809.35	53.731
809.65	60.526
809.95	80.645
810.26	76.271
810.56	58.730
810.86	90.909
811.17	76.190
811.47	63.333
811.77	75.926
812.08	70.909
812.38	92.000
812.69	119.444
812.99	90.909
813.29	91.837
813.59	54.762
813.90	83.673
814.20	65.455
814.50	66.154
814.81	70.588
815.11	81.633
815.41	91.803
815.72	85.714
816.02	96.364
816.32	104.762
816.62	77.500
816.93	78.049
817.23	119.048
817.53	86.364
817.84	130.303
818.14	104.348
818.44	84.444
818.74	123.529
819.04	95.000
819.35	105.714
819.65	132.353
819.95	114.286
820.25	125.000
820.56	138.462
820.86	97.727
821.16	100.000
821.46	102.564
821.76	80.000
822.07	108.571
822.37	117.500
822.67	127.273
822.97	82.353
823.27	164.286
823.57	102.703
823.88	105.000
824.18	133.333
824.48	116.667
824.78	156.000
825.08	125.000
825.38	110.811
825.69	92.683
825.99	170.833
826.29	96.552
826.59	115.789
826.89	126.316
827.19	94.118
827.49	135.484
827.79	129.545
828.09	106.818
828.39	76.596
828.70	116.327
829.00	114.815
829.30	103.226
829.60	105.000
829.90	206.667
830.20	132.143
830.50	152.174
830.80	156.522
831.10	140.000
831.40	130.000
831.70	104.348
832.00	153.846
832.30	162.963
832.60	212.500
832.90	160.000
833.20	242.857
833.50	158.065
833.80	134.483
834.10	143.750
834.40	157.692
834.70	172.222
835.00	242.857
835.30	91.429
835.60	238.462
835.90	158.621
836.20	271.429
836.50	155.172
836.80	140.000
837.10	141.667
837.40	228.571
837.70	247.059
838.00	174.074
838.30	185.714
838.60	204.762
838.90	157.692
839.19	215.000
839.49	192.857
839.79	250.000
840.09	215.000
840.39	214.286
840.69	191.304
840.99	200.000
841.29	330.000
841.59	225.000
841.88	256.250
842.18	144.828
842.48	223.810
842.78	150.000
843.08	191.304
843.38	143.750
843.68	650.000
843.97	192.308
844.27	165.517
844.57	223.810
844.87	237.500
845.17	159.259
845.47	700.000
845.76	466.667
846.06	270.588
846.36	312.500
846.66	271.429
846.96	243.750
847.25	300.000
847.55	172.727
847.85	204.348
848.15	350.000
848.44	235.714
848.74	188.889
849.04	264.706
849.34	410.000
849.63	168.421
849.93	354.545
850.23	820.000
850.53	300.000
850.82	1850.000
851.12	-3200.000
851.42	3800.000
851.71	200.000
852.01	-733.333
852.31	154.167
852.61	1166.667
852.90	238.095
853.20	160.000
853.50	258.824
853.79	204.762
854.09	179.167
854.39	268.750
854.68	127.027
854.98	151.613
855.28	110.000
855.57	168.966
855.87	148.148
856.17	184.211
856.46	173.333
856.76	164.706
857.05	162.069
857.35	195.833
857.65	226.667
857.94	182.609
858.24	165.385
858.53	250.000
858.83	218.182
859.13	246.667
859.42	0.000
859.72	366.667
860.01	318.182
860.31	213.636
860.60	210.526
860.90	204.348
861.20	433.333
861.49	433.333
861.79	-3000.000
862.08	575.000
862.38	171.429
862.67	161.538
862.97	317.647
863.26	411.111
863.56	183.333
863.85	366.667
864.15	387.500
864.44	313.333
864.74	616.667
865.03	375.000
865.33	221.053
865.62	436.364
865.92	407.692
866.21	341.667
866.51	0.000
866.80	400.000
867.10	840.000
867.39	369.231
867.69	300.000
867.98	189.474
868.27	427.273
868.57	252.632
868.86	-3600.000
869.16	293.750
869.45	1600.000
869.75	-2800.000
870.04	416.667
870.33	571.429
870.63	775.000
870.92	1900.000
871.22	657.143
871.51	282.353
871.80	157.143
872.10	292.857
>>>>>End Processed Spectral Data<<<<<
