SpectraSuite Data File
++++++++++++++++++++++++++++++++++++
Date: Wed May 13 16:02:02 PDT 2015
User: schluterlab
Dark Spectrum Present: Yes
Reference Spectrum Present: Yes
Number of Sampled Component Spectra: 1
Spectrometers: USB2E3373
Integration Time (usec): 3000 (USB2E3373)
Spectra Averaged: 3 (USB2E3373)
Boxcar Smoothing: 0 (USB2E3373)
Correct for Electrical Dark: No (USB2E3373)
Strobe/Lamp Enabled: No (USB2E3373)
Correct for Detector Non-linearity: No (USB2E3373)
Correct for Stray Light: No (USB2E3373)
Number of Pixels in Processed Spectrum: 2048
>>>>>Begin Processed Spectral Data<<<<<
178.53	0.000
178.91	-850.000
179.29	-825.000
179.67	-50.000
180.04	-350.000
180.42	750.000
180.80	300.000
181.18	-75.000
181.56	128.571
181.94	0.000
182.31	-114.286
182.69	600.000
183.07	-162.500
183.45	-166.667
183.83	218.182
184.20	-20.000
184.58	950.000
184.96	2600.000
185.34	-80.000
185.72	-150.000
186.09	-750.000
186.47	1150.000
186.85	600.000
187.23	1000.000
187.61	-633.333
187.98	425.000
188.36	245.455
188.74	236.364
189.12	-460.000
189.49	300.000
189.87	-1800.000
190.25	-375.000
190.63	178.571
191.00	161.538
191.38	366.667
191.76	-325.000
192.14	550.000
192.51	237.500
192.89	516.667
193.27	87.500
193.65	-525.000
194.02	160.000
194.40	380.000
194.78	170.000
195.15	175.000
195.53	300.000
195.91	-600.000
196.29	112.500
196.66	110.526
197.04	-80.000
197.42	0.000
197.79	220.000
198.17	-1700.000
198.55	314.286
198.92	312.500
199.30	300.000
199.68	0.000
200.05	111.111
200.43	571.429
200.81	1600.000
201.18	666.667
201.56	-700.000
201.94	222.222
202.31	255.556
202.69	216.667
203.07	220.000
203.44	0.000
203.82	450.000
204.19	357.143
204.57	228.571
204.95	250.000
205.32	400.000
205.70	227.273
206.08	200.000
206.45	1050.000
206.83	168.750
207.20	250.000
207.58	180.000
207.96	138.889
208.33	350.000
208.71	-283.333
209.08	357.143
209.46	177.778
209.84	181.818
210.21	-366.667
210.59	650.000
210.96	-175.000
211.34	900.000
211.71	250.000
212.09	333.333
212.46	0.000
212.84	633.333
213.22	600.000
213.59	-1200.000
213.97	183.333
214.34	357.143
214.72	290.909
215.09	460.000
215.47	-600.000
215.84	-1100.000
216.22	933.333
216.59	192.857
216.97	425.000
217.34	263.636
217.72	-150.000
218.09	0.000
218.47	-1500.000
218.84	322.222
219.22	257.143
219.59	466.667
219.97	-114.286
220.34	240.000
220.72	-800.000
221.09	150.000
221.47	675.000
221.84	-400.000
222.22	0.000
222.59	600.000
222.97	-1150.000
223.34	460.000
223.72	169.231
224.09	420.000
224.46	900.000
224.84	-2000.000
225.21	-420.000
225.59	-1300.000
225.96	300.000
226.34	185.000
226.71	1100.000
227.08	287.500
227.46	250.000
227.83	-350.000
228.21	-1250.000
228.58	311.111
228.95	-1050.000
229.33	-450.000
229.70	800.000
230.08	357.143
230.45	-300.000
230.82	133.333
231.20	366.667
231.57	242.857
231.95	266.667
232.32	109.091
232.69	163.636
233.07	314.286
233.44	184.615
233.81	-1033.333
234.19	189.474
234.56	191.667
234.93	191.667
235.31	100.000
235.68	138.462
236.05	178.571
236.43	69.697
236.80	157.895
237.17	1600.000
237.55	147.619
237.92	135.714
238.29	133.333
238.67	116.129
239.04	89.655
239.41	52.778
239.79	56.522
240.16	76.190
240.53	81.818
240.91	45.098
241.28	66.000
241.65	60.000
242.02	62.319
242.40	51.613
242.77	53.333
243.14	50.538
243.51	58.427
243.89	54.118
244.26	48.889
244.63	43.011
245.00	55.319
245.38	46.535
245.75	43.925
246.12	39.450
246.49	50.365
246.87	62.400
247.24	45.385
247.61	46.429
247.98	46.405
248.36	41.892
248.73	43.312
249.10	49.682
249.47	43.503
249.84	47.059
250.22	41.176
250.59	37.870
250.96	49.495
251.33	42.180
251.70	44.059
252.08	43.333
252.45	39.462
252.82	38.696
253.19	45.957
253.56	39.608
253.94	40.664
254.31	38.281
254.68	42.692
255.05	39.483
255.42	38.618
255.79	40.074
256.16	40.794
256.54	37.102
256.91	41.637
257.28	36.691
257.65	37.624
258.02	38.820
258.39	36.593
258.76	37.793
259.14	38.393
259.51	37.082
259.88	33.230
260.25	38.973
260.62	38.728
260.99	36.957
261.36	39.640
261.73	36.390
262.10	33.430
262.47	38.028
262.85	33.148
263.22	36.467
263.59	35.613
263.96	36.264
264.33	35.248
264.70	37.368
265.07	35.806
265.44	36.364
265.81	35.766
266.18	38.693
266.55	34.878
266.92	39.803
267.29	34.722
267.66	37.615
268.03	36.591
268.40	33.178
268.77	33.174
269.14	34.685
269.51	36.795
269.88	37.063
270.25	37.472
270.62	36.180
270.99	35.914
271.36	36.052
271.73	34.813
272.10	35.435
272.47	36.344
272.84	34.632
273.21	34.382
273.58	36.463
273.95	32.285
274.32	32.851
274.69	34.475
275.06	31.693
275.43	35.319
275.80	35.671
276.17	35.031
276.54	34.096
276.91	32.213
277.28	33.984
277.65	36.170
278.02	34.576
278.39	34.570
278.76	34.000
279.13	36.981
279.50	32.961
279.87	35.060
280.23	34.531
280.60	32.495
280.97	36.229
281.34	34.867
281.71	32.545
282.08	34.165
282.45	31.818
282.82	32.149
283.19	31.907
283.56	31.579
283.92	33.164
284.29	31.393
284.66	31.216
285.03	33.273
285.40	31.338
285.77	32.155
286.14	30.225
286.51	32.833
286.87	32.650
287.24	32.085
287.61	29.374
287.98	31.494
288.35	30.111
288.72	29.128
289.08	30.673
289.45	30.972
289.82	31.870
290.19	27.943
290.56	29.709
290.93	28.852
291.29	29.141
291.66	28.909
292.03	31.686
292.40	29.809
292.77	28.107
293.13	29.851
293.50	28.426
293.87	27.704
294.24	27.852
294.60	26.346
294.97	27.762
295.34	27.362
295.71	28.125
296.08	26.638
296.44	25.034
296.81	25.627
297.18	26.829
297.55	25.330
297.91	25.462
298.28	25.837
298.65	25.979
299.02	24.638
299.38	25.100
299.75	23.854
300.12	23.883
300.48	24.500
300.85	24.784
301.22	23.949
301.59	23.990
301.95	25.945
302.32	24.262
302.69	24.851
303.05	24.606
303.42	23.827
303.79	24.122
304.15	21.911
304.52	24.450
304.89	23.345
305.25	24.710
305.62	23.556
305.99	25.266
306.35	22.931
306.72	23.655
307.09	25.860
307.45	23.649
307.82	22.656
308.19	23.620
308.55	24.488
308.92	24.060
309.29	22.598
309.65	22.481
310.02	23.256
310.38	23.441
310.75	23.865
311.12	21.699
311.48	23.824
311.85	24.423
312.22	23.101
312.58	23.701
312.95	24.604
313.31	23.301
313.68	25.988
314.05	25.148
314.41	23.920
314.78	24.169
315.14	24.727
315.51	24.820
315.87	24.158
316.24	23.932
316.61	24.951
316.97	23.973
317.34	25.147
317.70	24.665
318.07	26.275
318.43	26.223
318.80	25.398
319.16	25.706
319.53	24.203
319.89	26.095
320.26	25.900
320.62	25.496
320.99	25.960
321.35	27.576
321.72	27.413
322.08	28.529
322.45	29.254
322.81	27.713
323.18	27.938
323.54	28.664
323.91	28.302
324.27	28.298
324.64	29.450
325.00	28.133
325.37	29.481
325.73	30.251
326.10	29.744
326.46	29.570
326.83	31.579
327.19	29.633
327.56	31.620
327.92	31.584
328.29	32.387
328.65	31.492
329.01	31.859
329.38	30.342
329.74	33.795
330.11	32.139
330.47	32.507
330.84	32.353
331.20	32.058
331.56	32.661
331.93	33.241
332.29	31.943
332.66	34.248
333.02	32.450
333.38	33.966
333.75	34.848
334.11	33.363
334.48	33.629
334.84	34.283
335.20	33.364
335.57	33.182
335.93	32.946
336.29	33.059
336.66	33.634
337.02	33.394
337.38	33.704
337.75	33.244
338.11	33.035
338.47	34.530
338.84	35.380
339.20	33.394
339.56	34.854
339.93	34.545
340.29	33.152
340.65	33.244
341.02	34.380
341.38	33.630
341.74	32.544
342.11	34.148
342.47	33.656
342.83	34.418
343.20	35.065
343.56	33.193
343.92	34.123
344.28	33.333
344.65	34.566
345.01	33.586
345.37	32.419
345.73	33.926
346.10	33.419
346.46	33.729
346.82	33.443
347.19	34.336
347.55	32.348
347.91	33.333
348.27	33.525
348.63	34.699
349.00	32.605
349.36	34.483
349.72	33.921
350.08	32.496
350.45	33.198
350.81	33.550
351.17	33.874
351.53	33.251
351.89	33.251
352.26	34.412
352.62	34.082
352.98	32.901
353.34	35.004
353.70	33.797
354.07	34.113
354.43	34.048
354.79	32.502
355.15	34.158
355.51	34.053
355.87	35.510
356.24	35.342
356.60	32.719
356.96	34.674
357.32	33.769
357.68	35.433
358.04	34.679
358.40	36.184
358.77	35.290
359.13	34.491
359.49	35.843
359.85	33.889
360.21	33.971
360.57	35.019
360.93	35.077
361.29	33.938
361.66	34.520
362.02	35.000
362.38	36.046
362.74	34.747
363.10	34.715
363.46	34.263
363.82	35.828
364.18	35.095
364.54	36.181
364.90	35.694
365.26	36.176
365.62	36.596
365.98	35.646
366.35	35.888
366.71	35.719
367.07	36.781
367.43	38.026
367.79	37.116
368.15	36.638
368.51	37.282
368.87	36.474
369.23	37.454
369.59	37.654
369.95	35.515
370.31	36.182
370.67	36.449
371.03	37.678
371.39	36.735
371.75	38.088
372.11	36.629
372.47	37.243
372.83	39.121
373.19	37.861
373.55	38.064
373.91	38.807
374.27	37.595
374.63	37.455
374.99	37.500
375.35	38.032
375.71	36.806
376.07	38.272
376.42	38.308
376.78	38.966
377.14	38.602
377.50	38.543
377.86	38.032
378.22	39.633
378.58	38.659
378.94	38.592
379.30	39.249
379.66	40.165
380.02	39.742
380.38	39.830
380.74	39.796
381.09	41.198
381.45	40.012
381.81	40.786
382.17	40.446
382.53	39.371
382.89	42.222
383.25	41.776
383.61	41.822
383.97	41.338
384.32	41.048
384.68	40.211
385.04	41.733
385.40	41.053
385.76	41.585
386.12	42.552
386.48	42.605
386.83	42.848
387.19	43.290
387.55	42.610
387.91	42.805
388.27	42.918
388.62	42.532
388.98	42.199
389.34	44.055
389.70	42.489
390.06	43.029
390.42	43.709
390.77	42.621
391.13	44.735
391.49	43.972
391.85	43.666
392.20	42.524
392.56	42.992
392.92	43.437
393.28	43.254
393.64	44.305
393.99	42.700
394.35	45.285
394.71	43.601
395.07	42.928
395.42	42.769
395.78	42.812
396.14	43.948
396.50	44.925
396.85	45.264
397.21	43.095
397.57	42.901
397.92	44.111
398.28	44.170
398.64	44.624
399.00	44.208
399.35	43.993
399.71	43.403
400.07	44.648
400.42	45.092
400.78	44.572
401.14	44.207
401.49	44.119
401.85	42.468
402.21	43.234
402.57	44.170
402.92	44.262
403.28	44.285
403.63	44.616
403.99	43.631
404.35	44.606
404.70	43.405
405.06	43.215
405.42	43.980
405.77	43.029
406.13	43.228
406.49	43.111
406.84	43.355
407.20	43.440
407.55	44.225
407.91	43.400
408.27	44.416
408.62	42.806
408.98	43.627
409.34	45.326
409.69	45.032
410.05	43.804
410.40	43.670
410.76	43.548
411.11	43.366
411.47	43.323
411.83	44.472
412.18	43.352
412.54	44.085
412.89	43.193
413.25	44.038
413.60	43.607
413.96	42.198
414.31	43.378
414.67	43.029
415.03	44.503
415.38	43.814
415.74	43.215
416.09	44.481
416.45	41.968
416.80	43.093
417.16	44.169
417.51	44.393
417.87	43.288
418.22	43.407
418.58	44.932
418.93	42.568
419.29	44.048
419.64	43.892
420.00	43.841
420.35	42.841
420.71	44.232
421.06	42.959
421.42	43.041
421.77	43.834
422.12	43.122
422.48	42.364
422.83	43.797
423.19	43.315
423.54	43.645
423.90	43.768
424.25	43.719
424.61	43.036
424.96	44.198
425.31	44.574
425.67	42.584
426.02	43.143
426.38	44.689
426.73	43.300
427.09	44.377
427.44	43.473
427.79	44.278
428.15	44.464
428.50	44.061
428.85	43.802
429.21	44.064
429.56	44.220
429.92	44.087
430.27	43.396
430.62	43.472
430.98	43.487
431.33	43.918
431.68	44.450
432.04	44.302
432.39	44.375
432.74	44.943
433.10	44.935
433.45	45.364
433.80	44.956
434.16	44.444
434.51	44.158
434.86	44.812
435.22	45.859
435.57	44.802
435.92	44.646
436.28	45.730
436.63	45.971
436.98	45.278
437.34	44.484
437.69	46.208
438.04	45.306
438.39	45.493
438.75	46.485
439.10	45.922
439.45	46.045
439.81	46.103
440.16	44.946
440.51	45.987
440.86	46.323
441.22	46.162
441.57	46.603
441.92	46.827
442.27	46.125
442.63	45.392
442.98	46.535
443.33	46.304
443.68	45.947
444.03	46.413
444.39	46.397
444.74	47.186
445.09	46.900
445.44	46.802
445.79	46.066
446.15	46.162
446.50	47.227
446.85	47.945
447.20	46.711
447.55	46.510
447.91	47.711
448.26	46.299
448.61	47.145
448.96	48.228
449.31	47.469
449.66	46.764
450.02	48.078
450.37	46.485
450.72	48.280
451.07	45.826
451.42	47.295
451.77	47.270
452.12	47.806
452.47	47.761
452.83	48.193
453.18	47.372
453.53	49.845
453.88	47.903
454.23	48.296
454.58	47.729
454.93	49.332
455.28	47.880
455.63	48.362
455.98	50.060
456.34	47.739
456.69	47.214
457.04	48.421
457.39	47.165
457.74	48.636
458.09	48.764
458.44	48.062
458.79	47.668
459.14	48.871
459.49	47.402
459.84	47.867
460.19	47.201
460.54	47.569
460.89	48.821
461.24	48.512
461.59	49.041
461.94	48.520
462.29	48.961
462.64	48.373
462.99	48.666
463.34	48.800
463.69	49.343
464.04	48.290
464.39	48.522
464.74	49.376
465.09	49.035
465.44	47.978
465.79	49.888
466.14	48.057
466.49	49.499
466.84	49.562
467.19	48.884
467.54	49.563
467.89	48.980
468.24	48.924
468.59	49.817
468.94	48.564
469.29	49.486
469.64	50.134
469.99	51.421
470.34	49.736
470.68	51.149
471.03	49.864
471.38	51.425
471.73	49.833
472.08	51.316
472.43	50.000
472.78	49.770
473.13	50.963
473.48	49.813
473.83	50.488
474.17	49.035
474.52	49.628
474.87	50.905
475.22	50.667
475.57	49.382
475.92	49.920
476.27	50.507
476.61	50.028
476.96	50.027
477.31	50.863
477.66	50.492
478.01	50.026
478.36	51.084
478.70	50.883
479.05	49.734
479.40	51.638
479.75	50.280
480.10	49.950
480.45	49.500
480.79	49.976
481.14	50.783
481.49	51.495
481.84	50.297
482.19	50.704
482.53	50.917
482.88	51.187
483.23	50.794
483.58	51.228
483.92	50.141
484.27	49.325
484.62	49.526
484.97	50.926
485.31	51.164
485.66	50.000
486.01	48.987
486.36	47.696
486.70	46.523
487.05	47.000
487.40	48.468
487.75	48.686
488.09	48.590
488.44	48.132
488.79	50.524
489.13	50.382
489.48	49.551
489.83	49.072
490.17	50.460
490.52	50.443
490.87	50.882
491.22	50.796
491.56	49.522
491.91	50.209
492.26	49.334
492.60	50.783
492.95	49.719
493.30	49.766
493.64	50.910
493.99	48.979
494.34	50.786
494.68	51.557
495.03	50.611
495.37	50.675
495.72	51.511
496.07	51.090
496.41	50.000
496.76	50.880
497.11	51.103
497.45	50.815
497.80	51.488
498.14	50.918
498.49	52.244
498.84	51.103
499.18	50.619
499.53	50.902
499.87	51.305
500.22	50.495
500.56	52.379
500.91	50.962
501.26	49.976
501.60	52.112
501.95	51.100
502.29	51.546
502.64	52.421
502.98	51.706
503.33	50.823
503.67	51.833
504.02	51.777
504.36	51.334
504.71	52.223
505.06	53.398
505.40	52.601
505.75	51.543
506.09	51.944
506.44	53.725
506.78	52.460
507.13	54.619
507.47	53.788
507.82	54.661
508.16	54.002
508.51	55.099
508.85	53.227
509.19	54.592
509.54	53.878
509.88	53.941
510.23	54.704
510.57	55.418
510.92	55.515
511.26	54.214
511.61	55.550
511.95	54.802
512.30	55.673
512.64	55.884
512.98	56.538
513.33	55.835
513.67	56.137
514.02	55.465
514.36	57.400
514.70	57.001
515.05	57.501
515.39	56.197
515.74	58.615
516.08	57.518
516.42	58.768
516.77	57.414
517.11	57.103
517.46	58.465
517.80	60.569
518.14	58.020
518.49	60.910
518.83	58.864
519.17	59.180
519.52	60.385
519.86	60.011
520.20	60.983
520.55	60.682
520.89	60.827
521.23	61.761
521.58	60.924
521.92	61.666
522.26	59.610
522.61	60.685
522.95	60.098
523.29	61.169
523.64	62.622
523.98	60.628
524.32	62.967
524.66	61.876
525.01	61.458
525.35	60.967
525.69	61.946
526.04	62.056
526.38	62.660
526.72	61.840
527.06	63.967
527.41	60.272
527.75	63.408
528.09	63.006
528.43	62.269
528.78	62.323
529.12	62.061
529.46	64.115
529.80	63.490
530.15	63.053
530.49	62.154
530.83	63.418
531.17	65.339
531.51	64.462
531.86	62.710
532.20	62.907
532.54	64.446
532.88	63.350
533.22	63.086
533.57	62.407
533.91	62.553
534.25	62.090
534.59	63.392
534.93	62.463
535.27	62.583
535.62	63.980
535.96	63.967
536.30	64.399
536.64	64.907
536.98	63.504
537.32	63.199
537.66	64.733
538.01	64.582
538.35	63.025
538.69	63.880
539.03	64.327
539.37	63.323
539.71	62.800
540.05	63.660
540.39	63.322
540.73	62.354
541.07	63.400
541.42	64.253
541.76	63.613
542.10	64.877
542.44	64.834
542.78	65.086
543.12	62.124
543.46	64.787
543.80	64.346
544.14	62.516
544.48	64.508
544.82	63.438
545.16	65.192
545.50	62.853
545.84	63.911
546.18	63.434
546.52	65.107
546.86	64.330
547.20	64.531
547.54	63.661
547.88	64.668
548.22	63.450
548.56	63.019
548.90	62.676
549.24	63.906
549.58	63.438
549.92	65.728
550.26	65.909
550.60	63.140
550.94	65.070
551.28	64.155
551.62	65.708
551.96	64.000
552.30	65.392
552.64	64.841
552.98	65.017
553.32	62.980
553.66	64.690
554.00	64.859
554.34	64.182
554.68	64.592
555.02	63.611
555.36	62.909
555.69	63.329
556.03	62.517
556.37	63.915
556.71	63.711
557.05	64.286
557.39	63.611
557.73	63.726
558.07	65.337
558.41	64.182
558.75	65.246
559.08	64.579
559.42	65.382
559.76	64.706
560.10	64.311
560.44	63.382
560.78	62.608
561.12	63.588
561.45	63.625
561.79	61.569
562.13	64.655
562.47	63.730
562.81	64.784
563.15	63.211
563.48	62.798
563.82	64.057
564.16	63.702
564.50	62.826
564.84	62.832
565.17	65.058
565.51	63.834
565.85	63.325
566.19	63.682
566.52	63.015
566.86	62.206
567.20	62.087
567.54	62.671
567.88	62.086
568.21	62.434
568.55	60.667
568.89	62.257
569.23	60.517
569.56	60.567
569.90	60.943
570.24	60.388
570.57	59.130
570.91	57.854
571.25	58.555
571.59	58.527
571.92	58.439
572.26	59.099
572.60	58.949
572.93	58.111
573.27	58.829
573.61	58.403
573.95	58.295
574.28	58.668
574.62	57.896
574.96	57.730
575.29	56.668
575.63	57.952
575.97	57.433
576.30	57.621
576.64	58.251
576.98	57.171
577.31	57.463
577.65	57.351
577.98	57.579
578.32	56.037
578.66	56.960
578.99	57.224
579.33	57.613
579.67	57.358
580.00	57.588
580.34	57.594
580.67	57.291
581.01	57.207
581.35	57.558
581.68	57.504
582.02	56.988
582.35	56.872
582.69	56.945
583.02	57.334
583.36	57.574
583.70	58.591
584.03	57.863
584.37	58.999
584.70	59.222
585.04	57.412
585.37	57.432
585.71	58.247
586.04	57.623
586.38	58.072
586.72	58.575
587.05	57.810
587.39	56.834
587.72	57.820
588.06	57.604
588.39	57.558
588.73	58.228
589.06	58.367
589.40	58.990
589.73	59.592
590.07	58.719
590.40	59.189
590.73	60.070
591.07	60.562
591.40	59.975
591.74	60.736
592.07	59.511
592.41	60.521
592.74	59.064
593.08	58.095
593.41	58.304
593.75	56.777
594.08	58.263
594.41	58.819
594.75	60.037
595.08	58.447
595.42	59.475
595.75	59.152
596.09	59.219
596.42	58.507
596.75	60.405
597.09	60.433
597.42	58.221
597.75	60.112
598.09	59.478
598.42	59.665
598.76	59.181
599.09	59.103
599.42	58.988
599.76	59.114
600.09	57.996
600.42	58.510
600.76	58.500
601.09	58.106
601.42	59.056
601.76	58.596
602.09	59.526
602.42	59.076
602.76	58.686
603.09	60.031
603.42	58.571
603.76	58.422
604.09	58.589
604.42	59.641
604.76	60.312
605.09	59.677
605.42	58.871
605.75	59.685
606.09	59.333
606.42	59.747
606.75	58.731
607.09	58.644
607.42	58.665
607.75	58.312
608.08	60.009
608.42	59.839
608.75	59.243
609.08	57.909
609.41	59.686
609.75	59.647
610.08	59.708
610.41	59.870
610.74	59.981
611.07	60.524
611.41	58.783
611.74	59.930
612.07	60.404
612.40	59.549
612.73	60.000
613.07	61.207
613.40	61.032
613.73	59.727
614.06	60.000
614.39	58.836
614.72	59.842
615.06	58.666
615.39	60.456
615.72	59.867
616.05	59.383
616.38	59.755
616.71	61.995
617.05	60.660
617.38	61.455
617.71	61.622
618.04	62.500
618.37	58.900
618.70	61.730
619.03	61.316
619.36	62.186
619.69	61.268
620.03	63.187
620.36	59.693
620.69	61.781
621.02	61.873
621.35	62.255
621.68	60.826
622.01	62.926
622.34	63.162
622.67	62.966
623.00	61.849
623.33	60.758
623.66	61.401
623.99	63.328
624.32	62.482
624.65	62.429
624.99	61.119
625.32	60.753
625.65	62.434
625.98	63.951
626.31	62.442
626.64	62.776
626.97	63.259
627.30	64.256
627.63	62.920
627.96	63.246
628.29	63.167
628.62	64.410
628.95	65.849
629.28	64.325
629.61	63.153
629.94	65.619
630.26	62.917
630.59	63.298
630.92	64.272
631.25	63.376
631.58	64.965
631.91	63.185
632.24	65.084
632.57	64.533
632.90	64.474
633.23	65.660
633.56	64.859
633.89	64.779
634.22	65.494
634.55	67.337
634.88	65.030
635.20	66.308
635.53	65.181
635.86	67.822
636.19	65.412
636.52	65.744
636.85	66.208
637.18	62.788
637.51	66.312
637.83	64.242
638.16	66.496
638.49	64.736
638.82	68.647
639.15	66.625
639.48	65.960
639.81	69.035
640.13	67.578
640.46	67.114
640.79	66.843
641.12	66.850
641.45	67.179
641.77	70.987
642.10	69.006
642.43	68.468
642.76	70.279
643.09	67.638
643.41	67.678
643.74	67.130
644.07	67.378
644.40	67.638
644.73	68.189
645.05	69.414
645.38	69.036
645.71	68.760
646.04	69.435
646.36	68.614
646.69	69.231
647.02	68.197
647.35	68.900
647.67	69.735
648.00	66.667
648.33	67.657
648.66	64.545
648.98	67.916
649.31	65.620
649.64	66.816
649.96	67.362
650.29	68.878
650.62	66.019
650.94	67.585
651.27	71.622
651.60	69.052
651.92	68.850
652.25	65.147
652.58	68.224
652.90	67.141
653.23	65.331
653.56	67.087
653.88	67.195
654.21	66.825
654.54	67.822
654.86	66.978
655.19	63.919
655.52	54.931
655.84	52.676
656.17	64.940
656.49	85.040
656.82	84.638
657.15	63.187
657.47	47.106
657.80	36.280
658.13	37.713
658.45	55.680
658.78	55.019
659.10	56.105
659.43	57.692
659.75	59.580
660.08	63.418
660.41	66.760
660.73	68.361
661.06	68.631
661.38	70.727
661.71	69.423
662.03	70.020
662.36	68.588
662.68	68.675
663.01	69.495
663.33	70.701
663.66	69.118
663.98	73.002
664.31	68.277
664.63	68.016
664.96	67.203
665.28	70.287
665.61	69.201
665.93	65.594
666.26	69.777
666.58	70.921
666.91	71.247
667.23	70.562
667.56	68.251
667.88	70.085
668.21	68.230
668.53	67.896
668.86	67.749
669.18	67.804
669.50	69.783
669.83	69.717
670.15	66.667
670.48	65.577
670.80	70.259
671.13	67.516
671.45	67.872
671.77	69.654
672.10	66.728
672.42	68.198
672.75	65.506
673.07	64.085
673.39	68.174
673.72	69.727
674.04	68.235
674.37	65.049
674.69	66.462
675.01	70.502
675.34	67.967
675.66	71.789
675.98	63.340
676.31	68.908
676.63	66.242
676.95	68.763
677.28	68.224
677.60	68.352
677.92	68.987
678.25	63.860
678.57	67.331
678.89	69.339
679.22	66.601
679.54	64.885
679.86	67.339
680.18	65.653
680.51	65.426
680.83	62.456
681.15	66.792
681.48	69.187
681.80	63.636
682.12	66.284
682.44	63.636
682.77	70.265
683.09	68.455
683.41	69.845
683.73	68.433
684.06	68.802
684.38	65.558
684.70	63.953
685.02	66.229
685.34	63.553
685.67	63.112
685.99	62.199
686.31	65.700
686.63	63.781
686.96	62.857
687.28	62.816
687.60	65.399
687.92	65.082
688.24	65.209
688.56	67.269
688.89	65.975
689.21	69.651
689.53	63.883
689.85	69.180
690.17	65.010
690.49	69.851
690.82	67.991
691.14	68.750
691.46	63.924
691.78	62.651
692.10	69.628
692.42	67.066
692.74	66.805
693.06	64.681
693.39	65.914
693.71	63.537
694.03	66.737
694.35	66.667
694.67	62.243
694.99	67.317
695.31	64.216
695.63	64.115
695.95	68.215
696.27	69.036
696.59	68.394
696.91	69.948
697.23	65.258
697.56	64.179
697.88	62.372
698.20	64.375
698.52	66.022
698.84	63.474
699.16	64.055
699.48	65.083
699.80	65.942
700.12	70.909
700.44	70.557
700.76	72.099
701.08	67.529
701.40	67.318
701.72	71.137
702.04	66.477
702.36	65.156
702.68	67.422
703.00	70.360
703.32	67.021
703.64	66.488
703.96	65.738
704.28	69.767
704.60	68.328
704.91	67.656
705.23	62.170
705.55	70.432
705.87	71.761
706.19	71.731
706.51	66.355
706.83	68.788
707.15	63.866
707.47	64.394
707.79	65.848
708.11	62.100
708.43	63.571
708.74	63.010
709.06	69.610
709.38	65.092
709.70	65.698
710.02	65.579
710.34	66.667
710.66	66.567
710.98	62.216
711.29	66.279
711.61	68.732
711.93	67.949
712.25	70.740
712.57	70.588
712.89	69.550
713.20	66.869
713.52	68.421
713.84	66.772
714.16	67.378
714.48	65.805
714.80	68.997
715.11	63.112
715.43	64.688
715.75	66.087
716.07	69.649
716.39	65.204
716.70	64.452
717.02	67.986
717.34	68.198
717.66	65.672
717.97	74.104
718.29	67.037
718.61	64.599
718.93	68.750
719.24	67.474
719.56	64.407
719.88	65.763
720.20	74.324
720.51	65.157
720.83	68.030
721.15	67.537
721.46	64.184
721.78	65.233
722.10	70.566
722.42	71.429
722.73	68.914
723.05	69.262
723.37	71.660
723.68	69.112
724.00	67.886
724.32	69.758
724.63	61.789
724.95	64.854
725.27	70.850
725.58	67.578
725.90	70.073
726.22	71.321
726.53	64.931
726.85	67.577
727.16	65.480
727.48	62.057
727.80	64.394
728.11	63.768
728.43	68.846
728.74	60.215
729.06	67.153
729.38	66.544
729.69	62.989
730.01	60.410
730.32	66.667
730.64	61.204
730.96	61.716
731.27	70.861
731.59	63.303
731.90	60.933
732.22	65.217
732.53	59.752
732.85	64.103
733.16	60.772
733.48	66.445
733.80	63.636
734.11	64.331
734.43	58.580
734.74	61.714
735.06	56.447
735.37	66.763
735.69	58.917
736.00	66.667
736.32	62.617
736.63	59.425
736.95	60.383
737.26	57.483
737.58	63.871
737.89	65.217
738.21	63.481
738.52	62.500
738.83	58.113
739.15	65.769
739.46	63.504
739.78	62.153
740.09	60.000
740.41	65.161
740.72	60.627
741.04	64.815
741.35	69.583
741.66	74.222
741.98	68.868
742.29	70.335
742.61	71.983
742.92	62.896
743.23	64.103
743.55	68.400
743.86	62.281
744.18	66.814
744.49	73.684
744.80	67.136
745.12	68.636
745.43	63.436
745.74	69.369
746.06	65.596
746.37	67.265
746.68	62.443
747.00	71.296
747.31	64.286
747.62	66.814
747.94	65.198
748.25	59.149
748.56	69.604
748.88	70.297
749.19	73.500
749.50	68.372
749.82	60.163
750.13	64.898
750.44	64.234
750.75	63.860
751.07	61.736
751.38	66.899
751.69	60.650
752.01	63.158
752.32	62.094
752.63	65.248
752.94	66.393
753.26	69.600
753.57	53.659
753.88	61.328
754.19	62.857
754.51	61.806
754.82	58.123
755.13	63.019
755.44	65.414
755.75	58.029
756.07	65.248
756.38	61.314
756.69	60.403
757.00	56.886
757.31	53.709
757.63	53.509
757.94	55.496
758.25	56.863
758.56	57.778
758.87	56.183
759.18	56.970
759.50	58.307
759.81	56.698
760.12	57.812
760.43	60.745
760.74	58.696
761.05	60.452
761.36	55.615
761.67	61.648
761.99	63.354
762.30	59.028
762.61	61.832
762.92	61.719
763.23	62.185
763.54	64.800
763.85	62.109
764.16	63.846
764.47	65.399
764.78	60.777
765.10	56.962
765.41	60.767
765.72	58.683
766.03	61.129
766.34	57.667
766.65	64.255
766.96	67.949
767.27	67.513
767.58	62.500
767.89	65.789
768.20	67.816
768.51	58.376
768.82	61.468
769.13	60.163
769.44	58.704
769.75	57.082
770.06	59.174
770.37	66.063
770.68	60.648
770.99	56.444
771.30	60.656
771.61	60.987
771.92	60.656
772.23	61.765
772.54	66.154
772.85	65.969
773.16	63.830
773.47	67.935
773.78	64.975
774.09	54.762
774.39	65.497
774.70	65.432
775.01	84.058
775.32	67.974
775.63	68.421
775.94	60.432
776.25	74.803
776.56	66.418
776.87	82.787
777.18	65.625
777.48	80.916
777.79	59.848
778.10	74.815
778.41	70.536
778.72	64.234
779.03	58.389
779.34	61.745
779.65	63.514
779.95	66.871
780.26	70.588
780.57	65.517
780.88	76.563
781.19	68.421
781.50	72.973
781.80	66.667
782.11	56.497
782.42	62.658
782.73	61.963
783.04	73.649
783.34	67.606
783.65	69.863
783.96	70.149
784.27	57.343
784.57	54.676
784.88	66.667
785.19	73.016
785.50	66.038
785.81	64.925
786.11	76.230
786.42	69.767
786.73	65.487
787.04	82.075
787.34	66.071
787.65	82.000
787.96	76.577
788.26	62.810
788.57	80.508
788.88	74.380
789.19	64.583
789.49	67.424
789.80	59.542
790.11	88.571
790.41	74.257
790.72	78.313
791.03	81.522
791.33	70.930
791.64	70.103
791.95	78.218
792.25	75.556
792.56	80.519
792.87	83.333
793.17	82.278
793.48	80.460
793.79	62.069
794.09	77.273
794.40	71.429
794.70	66.912
795.01	65.185
795.32	61.871
795.62	65.354
795.93	60.345
796.23	66.372
796.54	76.471
796.85	81.081
797.15	90.141
797.46	65.152
797.76	83.133
798.07	69.620
798.37	75.385
798.68	96.970
798.99	67.606
799.29	79.221
799.60	69.318
799.90	80.822
800.21	85.075
800.51	82.759
800.82	98.246
801.12	81.967
801.43	86.364
801.73	68.919
802.04	87.302
802.34	74.074
802.65	79.687
802.95	76.271
803.26	82.813
803.56	71.429
803.87	76.923
804.17	73.529
804.48	100.000
804.78	60.345
805.09	89.706
805.39	82.692
805.70	78.571
806.00	91.803
806.30	74.242
806.61	91.463
806.91	70.886
807.22	84.211
807.52	59.701
807.83	74.648
808.13	82.813
808.43	83.333
808.74	67.105
809.04	86.957
809.35	76.119
809.65	75.000
809.95	90.323
810.26	96.610
810.56	61.905
810.86	106.818
811.17	95.238
811.47	91.667
811.77	72.222
812.08	98.182
812.38	102.000
812.69	108.333
812.99	111.364
813.29	102.041
813.59	78.571
813.90	95.918
814.20	81.818
814.50	66.154
814.81	80.882
815.11	91.837
815.41	80.328
815.72	102.381
816.02	76.364
816.32	66.667
816.62	90.000
816.93	92.683
817.23	97.619
817.53	84.091
817.84	109.091
818.14	93.478
818.44	73.333
818.74	76.471
819.04	90.000
819.35	97.143
819.65	123.529
819.95	117.857
820.25	135.000
820.56	102.564
820.86	106.818
821.16	95.349
821.46	92.308
821.76	112.000
822.07	117.143
822.37	110.000
822.67	133.333
822.97	66.667
823.27	110.714
823.57	67.568
823.88	112.500
824.18	100.000
824.48	111.905
824.78	136.000
825.08	104.167
825.38	105.405
825.69	87.805
825.99	145.833
826.29	82.759
826.59	86.842
826.89	107.895
827.19	135.294
827.49	122.581
827.79	84.091
828.09	63.636
828.39	48.936
828.70	112.245
829.00	111.111
829.30	112.903
829.60	77.500
829.90	193.333
830.20	157.143
830.50	91.304
830.80	121.739
831.10	133.333
831.40	123.333
831.70	95.652
832.00	150.000
832.30	100.000
832.60	200.000
832.90	113.333
833.20	221.429
833.50	129.032
833.80	117.241
834.10	87.500
834.40	130.769
834.70	166.667
835.00	171.429
835.30	108.571
835.60	115.385
835.90	113.793
836.20	135.714
836.50	106.897
836.80	120.000
837.10	127.778
837.40	185.714
837.70	158.824
838.00	148.148
838.30	123.810
838.60	157.143
838.90	123.077
839.19	170.000
839.49	264.286
839.79	200.000
840.09	105.000
840.39	128.571
840.69	100.000
840.99	133.333
841.29	260.000
841.59	108.333
841.88	168.750
842.18	117.241
842.48	128.571
842.78	93.333
843.08	117.391
843.38	62.500
843.68	416.667
843.97	153.846
844.27	93.103
844.57	161.905
844.87	168.750
845.17	103.704
845.47	533.333
845.76	244.444
846.06	182.353
846.36	175.000
846.66	200.000
846.96	118.750
847.25	227.273
847.55	136.364
847.85	134.783
848.15	180.000
848.44	121.429
848.74	105.556
849.04	82.353
849.34	240.000
849.63	126.316
849.93	200.000
850.23	340.000
850.53	214.286
850.82	850.000
851.12	-1700.000
851.42	1400.000
851.71	145.000
852.01	-300.000
852.31	141.667
852.61	800.000
852.90	133.333
853.20	144.000
853.50	141.176
853.79	114.286
854.09	112.500
854.39	200.000
854.68	118.919
854.98	90.323
855.28	103.333
855.57	103.448
855.87	107.407
856.17	94.737
856.46	86.667
856.76	123.529
857.05	134.483
857.35	83.333
857.65	146.667
857.94	130.435
858.24	134.615
858.53	165.000
858.83	140.909
859.13	166.667
859.42	0.000
859.72	266.667
860.01	172.727
860.31	122.727
860.60	121.053
860.90	100.000
861.20	211.111
861.49	291.667
861.79	-1800.000
862.08	212.500
862.38	133.333
862.67	84.615
862.97	176.471
863.26	233.333
863.56	100.000
863.85	141.667
864.15	200.000
864.44	213.333
864.74	200.000
865.03	225.000
865.33	152.632
865.62	227.273
865.92	207.692
866.21	175.000
866.51	0.000
866.80	181.818
867.10	400.000
867.39	238.462
867.69	172.727
867.98	100.000
868.27	245.455
868.57	168.421
868.86	-1800.000
869.16	200.000
869.45	750.000
869.75	-1100.000
870.04	208.333
870.33	157.143
870.63	150.000
870.92	950.000
871.22	385.714
871.51	164.706
871.80	109.524
872.10	228.571
>>>>>End Processed Spectral Data<<<<<
