SpectraSuite Data File
++++++++++++++++++++++++++++++++++++
Date: Wed May 13 16:48:14 PDT 2015
User: schluterlab
Dark Spectrum Present: Yes
Reference Spectrum Present: Yes
Number of Sampled Component Spectra: 1
Spectrometers: USB2E3373
Integration Time (usec): 3000 (USB2E3373)
Spectra Averaged: 3 (USB2E3373)
Boxcar Smoothing: 0 (USB2E3373)
Correct for Electrical Dark: No (USB2E3373)
Strobe/Lamp Enabled: No (USB2E3373)
Correct for Detector Non-linearity: No (USB2E3373)
Correct for Stray Light: No (USB2E3373)
Number of Pixels in Processed Spectrum: 2048
>>>>>Begin Processed Spectral Data<<<<<
178.53	0.000
178.91	-1150.000
179.29	-1100.000
179.67	-233.333
180.04	-1350.000
180.42	2250.000
180.80	840.000
181.18	-1200.000
181.56	557.143
181.94	0.000
182.31	-671.429
182.69	1700.000
183.07	-612.500
183.45	-455.556
183.83	545.455
184.20	-370.000
184.58	2350.000
184.96	5100.000
185.34	-840.000
185.72	-462.500
186.09	-1950.000
186.47	2650.000
186.85	2550.000
187.23	5000.000
187.61	-1600.000
187.98	1500.000
188.36	500.000
188.74	454.545
189.12	-800.000
189.49	540.000
189.87	-4700.000
190.25	-1250.000
190.63	350.000
191.00	453.846
191.38	800.000
191.76	-1100.000
192.14	1175.000
192.51	587.500
192.89	933.333
193.27	650.000
193.65	-1125.000
194.02	440.000
194.40	1000.000
194.78	490.000
195.15	433.333
195.53	590.000
195.91	-1850.000
196.29	337.500
196.66	273.684
197.04	-370.000
197.42	0.000
197.79	630.000
198.17	-5300.000
198.55	685.714
198.92	675.000
199.30	800.000
199.68	0.000
200.05	294.444
200.43	757.143
200.81	4000.000
201.18	1666.667
201.56	-1533.333
201.94	544.444
202.31	600.000
202.69	391.667
203.07	480.000
203.44	0.000
203.82	1225.000
204.19	785.714
204.57	435.714
204.95	637.500
205.32	1300.000
205.70	509.091
206.08	400.000
206.45	2550.000
206.83	381.250
207.20	800.000
207.58	460.000
207.96	311.111
208.33	712.500
208.71	-666.667
209.08	728.571
209.46	522.222
209.84	409.091
210.21	-1433.333
210.59	1250.000
210.96	-462.500
211.34	2200.000
211.71	620.000
212.09	700.000
212.46	0.000
212.84	1666.667
213.22	1075.000
213.59	-4200.000
213.97	883.333
214.34	800.000
214.72	572.727
215.09	960.000
215.47	-1900.000
215.84	-2300.000
216.22	1700.000
216.59	307.143
216.97	1375.000
217.34	509.091
217.72	-683.333
218.09	0.000
218.47	-4300.000
218.84	600.000
219.22	657.143
219.59	1733.333
219.97	-557.143
220.34	900.000
220.72	-1666.667
221.09	357.143
221.47	1475.000
221.84	-866.667
222.22	0.000
222.59	1150.000
222.97	-2350.000
223.34	1140.000
223.72	484.615
224.09	1100.000
224.46	2550.000
224.84	-4500.000
225.21	-1040.000
225.59	-4200.000
225.96	550.000
226.34	315.000
226.71	2850.000
227.08	725.000
227.46	510.000
227.83	-1100.000
228.21	-1650.000
228.58	611.111
228.95	-1900.000
229.33	-2000.000
229.70	1466.667
230.08	642.857
230.45	-760.000
230.82	416.667
231.20	716.667
231.57	600.000
231.95	466.667
232.32	240.909
232.69	500.000
233.07	571.429
233.44	307.692
233.81	-1933.333
234.19	284.211
234.56	466.667
234.93	350.000
235.31	536.364
235.68	307.692
236.05	364.286
236.43	145.455
236.80	221.053
237.17	4300.000
237.55	223.810
237.92	157.143
238.29	161.905
238.67	148.387
239.04	158.621
239.41	102.778
239.79	121.739
240.16	140.476
240.53	113.636
240.91	92.157
241.28	92.000
241.65	102.000
242.02	85.507
242.40	79.032
242.77	93.333
243.14	67.742
243.51	57.303
243.89	60.000
244.26	48.889
244.63	59.140
245.00	44.681
245.38	43.564
245.75	52.336
246.12	42.202
246.49	45.255
246.87	48.800
247.24	46.154
247.61	39.286
247.98	36.601
248.36	30.405
248.73	31.210
249.10	39.490
249.47	29.944
249.84	36.364
250.22	26.203
250.59	32.544
250.96	29.798
251.33	30.806
251.70	34.158
252.08	28.095
252.45	24.664
252.82	27.391
253.19	24.255
253.56	26.275
253.94	24.066
254.31	20.703
254.68	27.692
255.05	23.616
255.42	24.797
255.79	25.000
256.16	24.188
256.54	20.495
256.91	24.199
257.28	16.906
257.65	18.152
258.02	20.497
258.39	17.981
258.76	15.385
259.14	20.536
259.51	21.581
259.88	16.460
260.25	21.450
260.62	22.254
260.99	20.186
261.36	20.120
261.73	17.765
262.10	15.407
262.47	22.254
262.85	17.549
263.22	16.239
263.59	19.943
263.96	17.308
264.33	18.277
264.70	18.684
265.07	18.926
265.44	17.424
265.81	17.032
266.18	18.342
266.55	16.098
266.92	16.462
267.29	17.130
267.66	15.367
268.03	18.182
268.40	17.290
268.77	16.468
269.14	14.865
269.51	17.381
269.88	20.047
270.25	14.673
270.62	16.404
270.99	17.634
271.36	16.524
271.73	14.953
272.10	15.217
272.47	16.129
272.84	16.234
273.21	15.723
273.58	17.031
273.95	14.675
274.32	15.496
274.69	15.203
275.06	14.764
275.43	15.745
275.80	13.828
276.17	16.293
276.54	19.335
276.91	14.427
277.28	12.500
277.65	14.700
278.02	15.114
278.39	15.625
278.76	15.091
279.13	13.396
279.50	13.408
279.87	13.347
280.23	15.170
280.60	13.926
280.97	13.678
281.34	14.159
281.71	15.455
282.08	14.779
282.45	11.455
282.82	12.433
283.19	12.121
283.56	14.737
283.92	13.875
284.29	13.228
284.66	14.338
285.03	12.658
285.40	14.613
285.77	14.310
286.14	12.608
286.51	12.500
286.87	11.966
287.24	12.866
287.61	13.804
287.98	14.123
288.35	12.044
288.72	12.150
289.08	13.615
289.45	12.191
289.82	12.846
290.19	10.832
290.56	12.404
290.93	11.934
291.29	13.037
291.66	11.799
292.03	15.262
292.40	15.565
292.77	10.947
293.13	13.881
293.50	13.265
293.87	13.333
294.24	12.148
294.60	10.335
294.97	12.064
295.34	11.425
295.71	12.926
296.08	9.972
296.44	11.554
296.81	8.851
297.18	12.195
297.55	10.950
297.91	11.214
298.28	12.316
298.65	13.185
299.02	11.594
299.38	11.554
299.75	10.377
300.12	9.834
300.48	8.750
300.85	11.221
301.22	11.720
301.59	9.470
301.95	11.461
302.32	10.526
302.69	11.589
303.05	10.303
303.42	9.753
303.79	11.665
304.15	9.674
304.52	9.270
304.89	8.943
305.25	9.629
305.62	10.759
305.99	9.327
306.35	9.955
306.72	11.323
307.09	11.654
307.45	10.586
307.82	10.045
308.19	11.479
308.55	11.650
308.92	11.386
309.29	9.504
309.65	11.877
310.02	10.465
310.38	10.968
310.75	11.510
311.12	11.668
311.48	11.703
311.85	12.159
312.22	11.134
312.58	10.915
312.95	11.616
313.31	11.748
313.68	12.474
314.05	13.609
314.41	12.965
314.78	11.883
315.14	12.711
315.51	12.873
315.87	12.079
316.24	12.413
316.61	12.768
316.97	11.742
317.34	13.014
317.70	13.958
318.07	13.474
318.43	13.699
318.80	14.152
319.16	14.407
319.53	14.540
319.89	15.048
320.26	15.700
320.62	15.675
320.99	15.253
321.35	15.556
321.72	16.735
322.08	16.288
322.45	17.214
322.81	17.539
323.18	17.052
323.54	18.275
323.91	18.113
324.27	16.348
324.64	16.403
325.00	17.674
325.37	18.016
325.73	18.582
326.10	19.682
326.46	17.204
326.83	20.104
327.19	19.214
327.56	18.031
327.92	20.210
328.29	20.852
328.65	20.350
329.01	20.487
329.38	20.259
329.74	20.960
330.11	21.489
330.47	20.386
330.84	21.232
331.20	20.036
331.56	22.385
331.93	20.370
332.29	21.118
332.66	21.239
333.02	20.750
333.38	21.409
333.75	22.549
334.11	21.352
334.48	22.183
334.84	21.415
335.20	21.364
335.57	19.764
335.93	20.893
336.29	21.612
336.66	21.100
337.02	20.905
337.38	22.407
337.75	19.608
338.11	21.038
338.47	21.087
338.84	21.173
339.20	20.459
339.56	21.807
339.93	19.909
340.29	21.105
340.65	22.014
341.02	22.600
341.38	21.708
341.74	21.053
342.11	22.009
342.47	21.057
342.83	20.719
343.20	22.424
343.56	20.303
343.92	22.193
344.28	22.024
344.65	21.926
345.01	21.801
345.37	20.326
345.73	21.743
346.10	20.972
346.46	21.441
346.82	22.241
347.19	20.551
347.55	21.264
347.91	21.602
348.27	22.925
348.63	22.742
349.00	21.764
349.36	21.264
349.72	20.690
350.08	20.827
350.45	21.888
350.81	22.340
351.17	21.799
351.53	22.604
351.89	21.370
352.26	22.178
352.62	21.572
352.98	22.690
353.34	22.021
353.70	21.768
354.07	21.532
354.43	20.873
354.79	20.193
355.15	22.187
355.51	22.942
355.87	22.204
356.24	22.231
356.60	21.893
356.96	22.124
357.32	22.813
357.68	22.205
358.04	22.882
358.40	23.595
358.77	22.535
359.13	22.415
359.49	21.333
359.85	21.190
360.21	22.408
360.57	23.191
360.93	22.615
361.29	22.525
361.66	21.594
362.02	22.537
362.38	22.814
362.74	22.693
363.10	21.540
363.46	22.010
363.82	21.844
364.18	22.907
364.54	23.105
364.90	22.734
365.26	23.309
365.62	23.886
365.98	23.009
366.35	21.991
366.71	22.632
367.07	22.360
367.43	22.642
367.79	23.198
368.15	23.635
368.51	21.657
368.87	23.340
369.23	24.067
369.59	23.534
369.95	23.162
370.31	24.501
370.67	22.464
371.03	24.195
371.39	23.324
371.75	23.676
372.11	23.257
372.47	23.754
372.83	24.856
373.19	23.916
373.55	24.390
373.91	25.184
374.27	23.368
374.63	23.564
374.99	24.929
375.35	23.098
375.71	24.263
376.07	25.103
376.42	25.585
376.78	24.652
377.14	24.627
377.50	24.768
377.86	23.404
378.22	24.842
378.58	24.311
378.94	23.696
379.30	25.382
379.66	25.571
380.02	24.447
380.38	25.137
380.74	25.750
381.09	26.406
381.45	26.183
381.81	25.553
382.17	26.433
382.53	24.843
382.89	26.296
383.25	25.891
383.61	25.774
383.97	25.766
384.32	26.949
384.68	26.084
385.04	25.630
385.40	26.811
385.76	26.781
386.12	26.166
386.48	27.313
386.83	27.261
387.19	26.964
387.55	26.407
387.91	26.119
388.27	26.609
388.62	27.781
388.98	26.474
389.34	28.974
389.70	27.529
390.06	27.693
390.42	27.237
390.77	27.226
391.13	27.951
391.49	27.982
391.85	26.989
392.20	27.129
392.56	26.641
392.92	27.663
393.28	26.391
393.64	26.559
393.99	26.695
394.35	28.040
394.71	27.854
395.07	27.165
395.42	27.318
395.78	27.036
396.14	27.747
396.50	28.383
396.85	27.781
397.21	27.250
397.57	27.402
397.92	28.065
398.28	26.513
398.64	27.718
399.00	27.252
399.35	27.242
399.71	27.431
400.07	27.380
400.42	27.914
400.78	27.744
401.14	27.744
401.49	27.284
401.85	27.344
402.21	26.826
402.57	26.157
402.92	26.734
403.28	27.983
403.63	27.104
403.99	26.752
404.35	27.697
404.70	26.499
405.06	27.373
405.42	27.386
405.77	26.514
406.13	26.580
406.49	27.380
406.84	26.698
407.20	25.591
407.55	27.569
407.91	27.600
408.27	27.250
408.62	26.911
408.98	27.022
409.34	27.183
409.69	27.032
410.05	26.084
410.40	26.667
410.76	26.941
411.11	26.598
411.47	25.751
411.83	27.550
412.18	26.654
412.54	27.148
412.89	27.048
413.25	26.919
413.60	27.424
413.96	25.865
414.31	25.638
414.67	26.869
415.03	27.086
415.38	27.448
415.74	27.331
416.09	27.433
416.45	27.175
416.80	26.371
417.16	27.212
417.51	26.676
417.87	26.461
418.22	27.129
418.58	27.954
418.93	27.641
419.29	26.289
419.64	26.889
420.00	26.037
420.35	26.725
420.71	26.958
421.06	27.088
421.42	26.608
421.77	27.298
422.12	25.997
422.48	26.444
422.83	26.674
423.19	24.807
423.54	26.640
423.90	26.551
424.25	26.410
424.61	26.250
424.96	26.239
425.31	25.803
425.67	25.618
426.02	26.343
426.38	26.862
426.73	25.571
427.09	25.836
427.44	25.992
427.79	26.107
428.15	27.560
428.50	26.799
428.85	26.639
429.21	24.903
429.56	25.609
429.92	25.818
430.27	25.074
430.62	25.346
430.98	25.532
431.33	25.103
431.68	25.864
432.04	25.186
432.39	25.243
432.74	25.972
433.10	25.580
433.45	26.239
433.80	25.610
434.16	26.603
434.51	25.737
434.86	26.112
435.22	26.348
435.57	26.930
435.92	25.980
436.28	27.521
436.63	26.821
436.98	25.243
437.34	26.834
437.69	26.604
438.04	25.970
438.39	25.433
438.75	26.264
439.10	26.592
439.45	25.502
439.81	26.707
440.16	24.845
440.51	26.655
440.86	26.115
441.22	24.694
441.57	26.221
441.92	26.356
442.27	25.727
442.63	25.698
442.98	26.085
443.33	25.543
443.68	25.555
444.03	25.134
444.39	25.122
444.74	25.974
445.09	25.391
445.44	25.369
445.79	26.027
446.15	26.310
446.50	25.633
446.85	25.283
447.20	25.038
447.55	25.349
447.91	25.041
448.26	25.209
448.61	25.551
448.96	25.969
449.31	25.984
449.66	25.492
450.02	24.624
450.37	24.660
450.72	25.324
451.07	24.802
451.42	24.985
451.77	25.661
452.12	25.289
452.47	25.435
452.83	25.874
453.18	25.306
453.53	25.541
453.88	25.044
454.23	26.360
454.58	26.045
454.93	26.510
455.28	25.623
455.63	25.243
455.98	26.488
456.34	25.817
456.69	25.924
457.04	24.892
457.39	25.716
457.74	25.015
458.09	24.842
458.44	25.599
458.79	24.187
459.14	24.944
459.49	25.394
459.84	24.488
460.19	24.455
460.54	24.363
460.89	25.562
461.24	25.015
461.59	26.206
461.94	24.969
462.29	25.341
462.64	24.825
462.99	24.138
463.34	25.733
463.69	24.515
464.04	25.275
464.39	24.232
464.74	25.431
465.09	24.548
465.44	24.488
465.79	24.217
466.14	25.068
466.49	23.359
466.84	24.518
467.19	23.838
467.54	25.500
467.89	24.610
468.24	24.491
468.59	24.481
468.94	23.885
469.29	24.293
469.64	25.033
469.99	25.778
470.34	24.637
470.68	24.425
471.03	24.694
471.38	24.670
471.73	24.584
472.08	24.868
472.43	24.058
472.78	24.029
473.13	24.005
473.48	23.720
473.83	23.415
474.17	24.020
474.52	24.132
474.87	23.759
475.22	23.622
475.57	23.375
475.92	24.110
476.27	23.450
476.61	23.662
476.96	23.474
477.31	23.339
477.66	23.523
478.01	22.687
478.36	23.268
478.70	22.845
479.05	23.749
479.40	23.081
479.75	23.233
480.10	23.111
480.45	22.513
480.79	21.739
481.14	22.798
481.49	23.256
481.84	22.862
482.19	22.717
482.53	22.294
482.88	23.313
483.23	22.570
483.58	21.838
483.92	22.540
484.27	21.612
484.62	22.716
484.97	21.916
485.31	22.432
485.66	21.337
486.01	19.915
486.36	19.320
486.70	19.107
487.05	19.711
487.40	20.250
487.75	20.153
488.09	20.352
488.44	21.314
488.79	22.387
489.13	22.040
489.48	22.268
489.83	21.148
490.17	22.052
490.52	21.036
490.87	21.755
491.22	22.055
491.56	21.276
491.91	21.638
492.26	20.992
492.60	22.258
492.95	21.048
493.30	20.794
493.64	21.325
493.99	21.495
494.34	21.739
494.68	22.344
495.03	21.570
495.37	21.173
495.72	21.004
496.07	22.459
496.41	20.575
496.76	21.284
497.11	20.531
497.45	21.053
497.80	20.825
498.14	21.401
498.49	21.610
498.84	21.381
499.18	21.238
499.53	21.462
499.87	21.342
500.22	21.385
500.56	21.553
500.91	21.106
501.26	21.716
501.60	20.978
501.95	20.394
502.29	22.024
502.64	21.043
502.98	20.711
503.33	20.247
503.67	20.139
504.02	21.328
504.36	20.262
504.71	21.397
505.06	20.867
505.40	21.390
505.75	20.588
506.09	20.748
506.44	21.312
506.78	20.750
507.13	20.798
507.47	21.414
507.82	20.770
508.16	21.378
508.51	21.512
508.85	21.102
509.19	20.867
509.54	20.612
509.88	21.072
510.23	20.977
510.57	21.517
510.92	20.870
511.26	21.120
511.61	20.280
511.95	20.929
512.30	20.732
512.64	21.762
512.98	20.579
513.33	20.610
513.67	20.438
514.02	20.238
514.36	20.863
514.70	20.919
515.05	20.747
515.39	20.583
515.74	20.833
516.08	20.514
516.42	21.365
516.77	21.014
517.11	20.144
517.46	21.896
517.80	21.487
518.14	20.498
518.49	21.470
518.83	21.648
519.17	19.919
519.52	20.600
519.86	20.993
520.20	21.503
520.55	21.484
520.89	21.472
521.23	22.497
521.58	20.888
521.92	22.290
522.26	20.561
522.61	20.498
522.95	20.381
523.29	20.268
523.64	20.976
523.98	21.134
524.32	20.205
524.66	20.265
525.01	21.507
525.35	20.632
525.69	20.135
526.04	21.433
526.38	20.988
526.72	21.534
527.06	21.155
527.41	19.493
527.75	21.286
528.09	21.002
528.43	21.160
528.78	21.205
529.12	20.788
529.46	20.514
529.80	20.978
530.15	21.682
530.49	20.431
530.83	21.013
531.17	21.475
531.51	22.503
531.86	20.645
532.20	20.600
532.54	20.884
532.88	21.181
533.22	19.675
533.57	19.691
533.91	20.048
534.25	19.866
534.59	20.134
534.93	19.453
535.27	19.976
535.62	20.024
535.96	20.088
536.30	20.534
536.64	19.897
536.98	19.774
537.32	20.606
537.66	20.067
538.01	20.474
538.35	20.944
538.69	21.634
539.03	19.298
539.37	19.042
539.71	18.406
540.05	19.739
540.39	19.468
540.73	20.052
541.07	20.117
541.42	20.548
541.76	20.581
542.10	20.181
542.44	19.934
542.78	20.158
543.12	19.834
543.46	19.934
543.80	18.543
544.14	19.961
544.48	19.429
544.82	19.179
545.16	19.193
545.50	19.537
545.84	19.288
546.18	20.000
546.52	19.683
546.86	19.863
547.20	19.690
547.54	20.040
547.88	19.260
548.22	18.867
548.56	18.616
548.90	18.822
549.24	19.057
549.58	19.441
549.92	19.574
550.26	20.241
550.60	19.710
550.94	18.310
551.28	18.800
551.62	19.986
551.96	18.596
552.30	19.386
552.64	18.661
552.98	18.441
553.32	19.690
553.66	19.905
554.00	19.218
554.34	20.152
554.68	19.385
555.02	19.676
555.36	18.650
555.69	18.945
556.03	19.650
556.37	18.963
556.71	18.349
557.05	19.538
557.39	18.754
557.73	19.337
558.07	19.072
558.41	18.524
558.75	19.104
559.08	19.090
559.42	18.670
559.76	19.926
560.10	18.701
560.44	18.868
560.78	17.365
561.12	18.404
561.45	18.709
561.79	18.392
562.13	18.578
562.47	19.194
562.81	18.410
563.15	18.462
563.48	19.032
563.82	18.852
564.16	18.182
564.50	17.643
564.84	18.268
565.17	19.241
565.51	18.658
565.85	18.020
566.19	17.095
566.52	18.999
566.86	18.023
567.20	18.219
567.54	17.523
567.88	16.947
568.21	17.460
568.55	16.633
568.89	16.829
569.23	15.865
569.56	16.397
569.90	16.226
570.24	15.644
570.57	15.947
570.91	15.191
571.25	15.287
571.59	15.464
571.92	15.236
572.26	14.905
572.60	15.465
572.93	15.112
573.27	15.410
573.61	15.410
573.95	14.884
574.28	14.573
574.62	14.820
574.96	14.337
575.29	14.743
575.63	14.558
575.97	14.632
576.30	15.082
576.64	14.961
576.98	14.633
577.31	14.533
577.65	14.636
577.98	14.415
578.32	13.940
578.66	14.444
578.99	14.449
579.33	14.185
579.67	14.303
580.00	14.529
580.34	14.262
580.67	14.488
581.01	14.572
581.35	14.093
581.68	13.893
582.02	13.713
582.35	13.978
582.69	13.682
583.02	14.229
583.36	14.296
583.70	14.960
584.03	14.943
584.37	14.888
584.70	14.446
585.04	14.750
585.37	14.282
585.71	14.662
586.04	14.134
586.38	14.577
586.72	14.664
587.05	14.290
587.39	14.063
587.72	14.558
588.06	14.594
588.39	14.650
588.73	14.814
589.06	15.332
589.40	15.051
589.73	14.889
590.07	15.338
590.40	14.505
590.73	15.730
591.07	16.036
591.40	15.268
591.74	15.801
592.07	15.532
592.41	15.544
592.74	14.757
593.08	14.857
593.41	14.521
593.75	14.054
594.08	14.951
594.41	14.493
594.75	14.529
595.08	14.567
595.42	14.921
595.75	14.886
596.09	15.621
596.42	15.717
596.75	15.998
597.09	16.061
597.42	15.135
597.75	15.395
598.09	15.652
598.42	15.120
598.76	14.876
599.09	14.405
599.42	14.338
599.76	14.714
600.09	14.208
600.42	14.098
600.76	14.000
601.09	13.953
601.42	14.193
601.76	14.801
602.09	14.190
602.42	14.570
602.76	14.873
603.09	14.988
603.42	14.682
603.76	14.062
604.09	14.347
604.42	14.676
604.76	15.437
605.09	14.504
605.42	15.049
605.75	14.404
606.09	14.193
606.42	14.426
606.75	14.641
607.09	14.902
607.42	14.335
607.75	14.557
608.08	14.286
608.42	15.419
608.75	14.382
609.08	14.801
609.41	15.278
609.75	15.198
610.08	15.033
610.41	14.339
610.74	14.522
611.07	14.723
611.41	15.113
611.74	15.887
612.07	15.114
612.40	14.743
612.73	14.474
613.07	15.194
613.40	15.534
613.73	14.735
614.06	15.054
614.39	15.522
614.72	15.211
615.06	15.599
615.39	15.287
615.72	14.213
616.05	14.673
616.38	15.397
616.71	15.914
617.05	15.607
617.38	15.213
617.71	14.655
618.04	15.144
618.37	15.730
618.70	15.681
619.03	15.592
619.36	16.361
619.69	16.056
620.03	16.071
620.36	16.176
620.69	16.644
621.02	15.929
621.35	16.836
621.68	16.822
622.01	16.409
622.34	17.020
622.67	16.882
623.00	15.114
623.33	16.440
623.66	15.511
623.99	15.611
624.32	15.906
624.65	17.232
624.99	15.439
625.32	15.424
625.65	14.951
625.98	16.833
626.31	17.030
626.64	16.163
626.97	16.791
627.30	16.376
627.63	16.981
627.96	17.325
628.29	16.710
628.62	17.658
628.95	18.962
629.28	17.427
629.61	16.499
629.94	17.429
630.26	16.969
630.59	17.731
630.92	17.625
631.25	17.670
631.58	18.118
631.91	16.937
632.24	17.194
632.57	18.573
632.90	18.421
633.23	17.897
633.56	18.757
633.89	17.894
634.22	18.956
634.55	19.645
634.88	18.323
635.20	19.833
635.53	19.277
635.86	18.317
636.19	18.000
636.52	18.339
636.85	17.984
637.18	17.512
637.51	18.913
637.83	16.523
638.16	20.077
638.49	19.521
638.82	20.354
639.15	17.875
639.48	18.703
639.81	19.437
640.13	19.922
640.46	19.463
640.79	19.022
641.12	17.331
641.45	19.274
641.77	20.177
642.10	19.444
642.43	19.820
642.76	19.350
643.09	19.939
643.41	20.789
643.74	20.679
644.07	20.122
644.40	21.626
644.73	21.890
645.05	24.247
645.38	20.221
645.71	22.383
646.04	21.429
646.36	22.705
646.69	22.241
647.02	22.959
647.35	22.165
647.67	23.009
648.00	21.951
648.33	20.957
648.66	20.000
648.98	20.390
649.31	19.283
649.64	19.581
649.96	19.970
650.29	19.905
650.62	19.903
650.94	21.718
651.27	22.466
651.60	21.631
651.92	22.204
652.25	18.730
652.58	19.938
652.90	20.221
653.23	18.798
653.56	20.000
653.88	20.602
654.21	20.221
654.54	18.812
654.86	20.093
655.19	18.784
655.52	11.775
655.84	9.504
656.17	12.083
656.49	16.173
656.82	16.661
657.15	12.763
657.47	9.708
657.80	7.507
658.13	7.944
658.45	12.082
658.78	12.585
659.10	13.187
659.43	14.568
659.75	14.605
660.08	16.392
660.41	18.901
660.73	20.966
661.06	20.541
661.38	22.182
661.71	23.846
662.03	21.499
662.36	20.080
662.68	23.293
663.01	23.030
663.33	22.718
663.66	22.899
663.98	23.326
664.31	20.588
664.63	22.874
664.96	19.920
665.28	20.287
665.61	22.417
665.93	20.523
666.26	21.704
666.58	23.640
666.91	24.524
667.23	22.022
667.56	21.382
667.88	25.000
668.21	23.241
668.53	21.041
668.86	22.511
669.18	24.733
669.50	23.043
669.83	23.965
670.15	24.444
670.48	22.440
670.80	20.474
671.13	23.142
671.45	23.830
671.77	21.385
672.10	20.887
672.42	17.668
672.75	19.403
673.07	18.662
673.39	18.626
673.72	20.117
674.04	22.941
674.37	22.718
674.69	22.290
675.01	21.130
675.34	22.793
675.66	25.474
675.98	23.829
676.31	21.218
676.63	20.807
676.95	23.270
677.28	21.963
677.60	23.297
677.92	22.152
678.25	22.998
678.57	21.514
678.89	21.443
679.22	21.807
679.54	22.710
679.86	19.633
680.18	21.109
680.51	20.035
680.83	22.420
681.15	21.509
681.48	22.873
681.80	21.470
682.12	20.498
682.44	17.795
682.77	18.534
683.09	23.820
683.41	22.173
683.73	23.841
684.06	21.694
684.38	19.569
684.70	18.992
685.02	22.889
685.34	22.344
685.67	19.755
685.99	18.041
686.31	19.283
686.63	17.845
686.96	19.107
687.28	20.578
687.60	19.022
687.92	22.303
688.24	21.103
688.56	19.478
688.89	23.029
689.21	21.834
689.53	23.591
689.85	23.282
690.17	17.391
690.49	21.444
690.82	25.234
691.14	19.866
691.46	20.886
691.78	21.486
692.10	23.347
692.42	21.557
692.74	18.257
693.06	21.277
693.39	21.150
693.71	19.869
694.03	23.789
694.35	21.645
694.67	21.968
694.99	24.146
695.31	22.794
695.63	20.096
695.95	26.895
696.27	23.858
696.59	24.093
696.91	22.280
697.23	19.953
697.56	23.881
697.88	17.996
698.20	20.625
698.52	21.075
698.84	22.494
699.16	22.350
699.48	22.803
699.80	22.947
700.12	25.974
700.44	24.668
700.76	24.309
701.08	20.690
701.40	24.302
701.72	25.364
702.04	31.250
702.36	22.380
702.68	26.629
703.00	24.931
703.32	22.074
703.64	24.397
703.96	22.284
704.28	26.744
704.60	28.152
704.91	23.442
705.23	24.047
705.55	26.910
705.87	30.897
706.19	25.442
706.51	27.414
706.83	28.485
707.15	25.210
707.47	22.727
707.79	21.867
708.11	24.201
708.43	23.810
708.74	22.449
709.06	25.195
709.38	23.622
709.70	25.872
710.02	24.036
710.34	25.758
710.66	26.567
710.98	30.682
711.29	23.837
711.61	23.894
711.93	25.000
712.25	27.653
712.57	27.206
712.89	26.990
713.20	24.316
713.52	25.987
713.84	25.949
714.16	24.085
714.48	25.000
714.80	28.267
715.11	25.937
715.43	26.706
715.75	25.797
716.07	26.198
716.39	25.705
716.70	27.575
717.02	25.540
717.34	26.855
717.66	32.090
717.97	35.060
718.29	25.926
718.61	27.737
718.93	26.838
719.24	28.374
719.56	26.441
719.88	24.746
720.20	29.730
720.51	28.571
720.83	27.881
721.15	28.731
721.46	24.468
721.78	25.806
722.10	31.321
722.42	28.195
722.73	25.468
723.05	25.410
723.37	29.150
723.68	33.205
724.00	28.049
724.32	28.226
724.63	32.114
724.95	30.544
725.27	31.579
725.58	30.078
725.90	30.657
726.22	28.679
726.53	26.736
726.85	28.669
727.16	27.402
727.48	30.142
727.80	31.061
728.11	32.609
728.43	27.308
728.74	27.599
729.06	31.022
729.38	30.147
729.69	31.673
730.01	24.573
730.32	27.778
730.64	27.759
730.96	22.112
731.27	27.815
731.59	27.523
731.90	25.364
732.22	24.534
732.53	25.697
732.85	26.282
733.16	20.900
733.48	24.252
733.80	24.675
734.11	25.796
734.43	27.811
734.74	24.000
735.06	22.636
735.37	28.613
735.69	26.433
736.00	25.163
736.32	24.611
736.63	24.601
736.95	27.157
737.26	18.367
737.58	22.258
737.89	27.090
738.21	26.621
738.52	26.071
738.83	26.038
739.15	30.385
739.46	28.832
739.78	26.042
740.09	26.769
740.41	28.387
740.72	23.693
741.04	27.407
741.35	24.167
741.66	36.889
741.98	28.774
742.29	31.579
742.61	36.207
742.92	27.602
743.23	30.342
743.55	32.000
743.86	30.263
744.18	30.973
744.49	34.450
744.80	33.803
745.12	38.636
745.43	29.075
745.74	34.685
746.06	30.275
746.37	32.287
746.68	31.222
747.00	34.259
747.31	34.286
747.62	29.204
747.94	28.634
748.25	25.957
748.56	38.767
748.88	31.188
749.19	35.000
749.50	32.093
749.82	25.610
750.13	22.041
750.44	26.642
750.75	28.421
751.07	27.010
751.38	28.571
751.69	29.603
752.01	26.316
752.32	26.354
752.63	28.723
752.94	24.590
753.26	28.800
753.57	24.797
753.88	31.250
754.19	26.786
754.51	28.819
754.82	23.105
755.13	31.321
755.44	26.316
755.75	29.927
756.07	29.433
756.38	27.007
756.69	23.154
757.00	26.347
757.31	19.881
757.63	22.515
757.94	20.912
758.25	26.471
758.56	18.025
758.87	22.312
759.18	26.061
759.50	25.078
759.81	25.234
760.12	20.625
760.43	22.350
760.74	24.457
761.05	24.859
761.36	22.727
761.67	25.568
761.99	27.640
762.30	25.347
762.61	28.244
762.92	29.297
763.23	23.529
763.54	34.800
763.85	26.562
764.16	32.692
764.47	28.517
764.78	25.088
765.10	25.000
765.41	22.124
765.72	22.754
766.03	24.765
766.34	24.333
766.65	37.447
766.96	35.043
767.27	34.518
767.58	34.896
767.89	40.000
768.20	41.379
768.51	28.934
768.82	32.110
769.13	25.203
769.44	32.389
769.75	27.039
770.06	29.358
770.37	32.127
770.68	29.630
770.99	27.556
771.30	27.049
771.61	31.390
771.92	33.197
772.23	34.454
772.54	29.231
772.85	36.649
773.16	41.489
773.47	36.957
773.78	38.071
774.09	35.714
774.39	39.181
774.70	39.506
775.01	43.478
775.32	45.752
775.63	43.421
775.94	41.007
776.25	55.118
776.56	45.522
776.87	50.820
777.18	44.531
777.48	48.855
777.79	53.030
778.10	45.185
778.41	51.786
778.72	38.686
779.03	44.295
779.34	37.584
779.65	37.838
779.95	35.583
780.26	49.020
780.57	44.828
780.88	58.594
781.19	44.361
781.50	48.649
781.80	49.686
782.11	36.158
782.42	34.177
782.73	38.650
783.04	45.270
783.34	50.000
783.65	46.575
783.96	48.507
784.27	38.462
784.57	31.655
784.88	38.889
785.19	47.619
785.50	56.604
785.81	56.716
786.11	59.836
786.42	55.039
786.73	53.097
787.04	57.547
787.34	50.000
787.65	54.000
787.96	39.640
788.26	48.760
788.57	46.610
788.88	51.240
789.19	47.222
789.49	55.303
789.80	42.748
790.11	64.762
790.41	62.376
790.72	57.831
791.03	64.130
791.33	54.651
791.64	70.103
791.95	58.416
792.25	60.000
792.56	66.234
792.87	82.051
793.17	87.342
793.48	67.816
793.79	59.770
794.09	68.182
794.40	52.101
794.70	48.529
795.01	50.370
795.32	46.763
795.62	37.008
795.93	50.862
796.23	53.982
796.54	56.471
796.85	63.514
797.15	81.690
797.46	71.212
797.76	71.084
798.07	56.962
798.37	73.846
798.68	77.273
798.99	64.789
799.29	70.130
799.60	61.364
799.90	79.452
800.21	82.090
800.51	74.138
800.82	91.228
801.12	83.607
801.43	77.273
801.73	78.378
802.04	95.238
802.34	77.778
802.65	84.375
802.95	91.525
803.26	112.500
803.56	70.000
803.87	73.846
804.17	92.647
804.48	103.704
804.78	89.655
805.09	70.588
805.39	103.846
805.70	100.000
806.00	100.000
806.30	86.364
806.61	70.732
806.91	64.557
807.22	69.737
807.52	52.239
807.83	63.380
808.13	81.250
808.43	83.333
808.74	59.211
809.04	79.710
809.35	65.672
809.65	73.684
809.95	91.935
810.26	83.051
810.56	90.476
810.86	125.000
811.17	104.762
811.47	105.000
811.77	96.296
812.08	94.545
812.38	108.000
812.69	141.667
812.99	120.455
813.29	104.082
813.59	116.667
813.90	110.204
814.20	92.727
814.50	70.769
814.81	98.529
815.11	89.796
815.41	91.803
815.72	128.571
816.02	100.000
816.32	123.810
816.62	100.000
816.93	114.634
817.23	128.571
817.53	134.091
817.84	145.455
818.14	108.696
818.44	106.667
818.74	147.059
819.04	127.500
819.35	151.429
819.65	150.000
819.95	167.857
820.25	175.000
820.56	148.718
820.86	118.182
821.16	134.884
821.46	115.385
821.76	122.000
822.07	160.000
822.37	135.000
822.67	160.606
822.97	90.196
823.27	189.286
823.57	140.541
823.88	140.000
824.18	203.333
824.48	133.333
824.78	192.000
825.08	183.333
825.38	127.027
825.69	134.146
825.99	183.333
826.29	162.069
826.59	144.737
826.89	139.474
827.19	135.294
827.49	193.548
827.79	138.636
828.09	143.182
828.39	119.149
828.70	108.163
829.00	140.741
829.30	129.032
829.60	145.000
829.90	320.000
830.20	185.714
830.50	191.304
830.80	200.000
831.10	163.333
831.40	170.000
831.70	208.696
832.00	211.538
832.30	174.074
832.60	306.250
832.90	190.000
833.20	335.714
833.50	177.419
833.80	168.966
834.10	171.875
834.40	200.000
834.70	305.556
835.00	300.000
835.30	160.000
835.60	276.923
835.90	172.414
836.20	321.429
836.50	165.517
836.80	172.000
837.10	158.333
837.40	271.429
837.70	282.353
838.00	196.296
838.30	228.571
838.60	257.143
838.90	184.615
839.19	230.000
839.49	385.714
839.79	275.000
840.09	260.000
840.39	247.619
840.69	217.391
840.99	305.556
841.29	420.000
841.59	266.667
841.88	256.250
842.18	127.586
842.48	195.238
842.78	176.667
843.08	204.348
843.38	206.250
843.68	633.333
843.97	200.000
844.27	179.310
844.57	295.238
844.87	381.250
845.17	192.593
845.47	1500.000
845.76	300.000
846.06	305.882
846.36	450.000
846.66	342.857
846.96	293.750
847.25	318.182
847.55	409.091
847.85	208.696
848.15	460.000
848.44	378.571
848.74	200.000
849.04	335.294
849.34	540.000
849.63	226.316
849.93	463.636
850.23	1020.000
850.53	392.857
850.82	2050.000
851.12	-4400.000
851.42	4000.000
851.71	225.000
852.01	-1300.000
852.31	212.500
852.61	1633.333
852.90	280.952
853.20	256.000
853.50	241.176
853.79	214.286
854.09	195.833
854.39	337.500
854.68	148.649
854.98	180.645
855.28	150.000
855.57	206.897
855.87	196.296
856.17	210.526
856.46	260.000
856.76	317.647
857.05	193.103
857.35	204.167
857.65	306.667
857.94	186.957
858.24	219.231
858.53	220.000
858.83	259.091
859.13	353.333
859.42	0.000
859.72	533.333
860.01	463.636
860.31	240.909
860.60	231.579
860.90	213.043
861.20	555.556
861.49	483.333
861.79	-4400.000
862.08	675.000
862.38	252.381
862.67	300.000
862.97	358.824
863.26	544.444
863.56	283.333
863.85	416.667
864.15	525.000
864.44	380.000
864.74	750.000
865.03	587.500
865.33	263.158
865.62	409.091
865.92	361.538
866.21	316.667
866.51	0.000
866.80	390.909
867.10	1140.000
867.39	415.385
867.69	481.818
867.98	273.684
868.27	445.455
868.57	284.211
868.86	-4400.000
869.16	300.000
869.45	2600.000
869.75	-3800.000
870.04	433.333
870.33	585.714
870.63	1075.000
870.92	1800.000
871.22	700.000
871.51	235.294
871.80	190.476
872.10	342.857
>>>>>End Processed Spectral Data<<<<<
