SpectraSuite Data File
++++++++++++++++++++++++++++++++++++
Date: Wed May 13 16:40:54 PDT 2015
User: schluterlab
Dark Spectrum Present: Yes
Reference Spectrum Present: Yes
Number of Sampled Component Spectra: 1
Spectrometers: USB2E3373
Integration Time (usec): 3000 (USB2E3373)
Spectra Averaged: 3 (USB2E3373)
Boxcar Smoothing: 0 (USB2E3373)
Correct for Electrical Dark: No (USB2E3373)
Strobe/Lamp Enabled: No (USB2E3373)
Correct for Detector Non-linearity: No (USB2E3373)
Correct for Stray Light: No (USB2E3373)
Number of Pixels in Processed Spectrum: 2048
>>>>>Begin Processed Spectral Data<<<<<
178.53	0.000
178.91	-1225.000
179.29	-1350.000
179.67	-255.556
180.04	-1650.000
180.42	2700.000
180.80	1160.000
181.18	-1175.000
181.56	742.857
181.94	0.000
182.31	-728.571
182.69	1866.667
183.07	-575.000
183.45	-600.000
183.83	545.455
184.20	-450.000
184.58	2950.000
184.96	4700.000
185.34	-960.000
185.72	-662.500
186.09	-2250.000
186.47	2900.000
186.85	2500.000
187.23	5300.000
187.61	-1766.667
187.98	1475.000
188.36	518.182
188.74	490.909
189.12	-820.000
189.49	510.000
189.87	-4400.000
190.25	-1375.000
190.63	507.143
191.00	415.385
191.38	850.000
191.76	-1325.000
192.14	1275.000
192.51	675.000
192.89	1000.000
193.27	600.000
193.65	-1475.000
194.02	550.000
194.40	840.000
194.78	670.000
195.15	450.000
195.53	650.000
195.91	-1900.000
196.29	375.000
196.66	284.211
197.04	-380.000
197.42	0.000
197.79	610.000
198.17	-5800.000
198.55	785.714
198.92	737.500
199.30	920.000
199.68	0.000
200.05	327.778
200.43	871.429
200.81	4800.000
201.18	2066.667
201.56	-1766.667
201.94	577.778
202.31	666.667
202.69	516.667
203.07	580.000
203.44	0.000
203.82	1200.000
204.19	785.714
204.57	421.429
204.95	612.500
205.32	1633.333
205.70	500.000
206.08	371.429
206.45	2450.000
206.83	375.000
207.20	1016.667
207.58	720.000
207.96	350.000
208.33	700.000
208.71	-816.667
209.08	800.000
209.46	566.667
209.84	500.000
210.21	-1800.000
210.59	1325.000
210.96	-450.000
211.34	2800.000
211.71	500.000
212.09	783.333
212.46	0.000
212.84	1933.333
213.22	1300.000
213.59	-5000.000
213.97	1116.667
214.34	928.571
214.72	554.545
215.09	1060.000
215.47	-2400.000
215.84	-2650.000
216.22	1733.333
216.59	357.143
216.97	1150.000
217.34	445.455
217.72	-816.667
218.09	0.000
218.47	-5800.000
218.84	655.556
219.22	828.571
219.59	1666.667
219.97	-742.857
220.34	1060.000
220.72	-2033.333
221.09	421.429
221.47	1625.000
221.84	-966.667
222.22	0.000
222.59	1425.000
222.97	-2350.000
223.34	1140.000
223.72	484.615
224.09	1180.000
224.46	2100.000
224.84	-5000.000
225.21	-1080.000
225.59	-5500.000
225.96	640.000
226.34	345.000
226.71	2800.000
227.08	650.000
227.46	610.000
227.83	-1125.000
228.21	-2350.000
228.58	577.778
228.95	-2000.000
229.33	-2550.000
229.70	1666.667
230.08	842.857
230.45	-1000.000
230.82	391.667
231.20	833.333
231.57	700.000
231.95	533.333
232.32	245.455
232.69	345.455
233.07	785.714
233.44	346.154
233.81	-1400.000
234.19	284.211
234.56	433.333
234.93	325.000
235.31	518.182
235.68	330.769
236.05	357.143
236.43	172.727
236.80	242.105
237.17	4200.000
237.55	180.952
237.92	200.000
238.29	219.048
238.67	193.548
239.04	217.241
239.41	155.556
239.79	115.217
240.16	135.714
240.53	118.182
240.91	94.118
241.28	102.000
241.65	94.000
242.02	88.406
242.40	83.871
242.77	81.667
243.14	53.763
243.51	66.292
243.89	55.294
244.26	44.444
244.63	49.462
245.00	47.872
245.38	44.554
245.75	44.860
246.12	45.872
246.49	50.365
246.87	50.400
247.24	49.231
247.61	32.143
247.98	35.948
248.36	26.351
248.73	38.217
249.10	40.764
249.47	28.814
249.84	34.759
250.22	28.877
250.59	25.444
250.96	29.293
251.33	26.540
251.70	28.713
252.08	26.190
252.45	21.973
252.82	23.043
253.19	24.255
253.56	25.098
253.94	27.801
254.31	25.000
254.68	23.077
255.05	22.509
255.42	21.138
255.79	20.221
256.16	26.715
256.54	16.961
256.91	17.082
257.28	15.827
257.65	22.112
258.02	20.497
258.39	17.981
258.76	17.057
259.14	16.964
259.51	14.894
259.88	17.081
260.25	17.523
260.62	17.341
260.99	16.460
261.36	16.216
261.73	13.467
262.10	13.663
262.47	19.718
262.85	15.599
263.22	15.100
263.59	18.234
263.96	14.286
264.33	13.838
264.70	16.842
265.07	14.578
265.44	13.384
265.81	11.192
266.18	13.568
266.55	14.634
266.92	10.074
267.29	15.278
267.66	11.697
268.03	12.955
268.40	13.084
268.77	11.695
269.14	15.315
269.51	14.673
269.88	10.723
270.25	9.707
270.62	12.135
270.99	13.763
271.36	11.159
271.73	11.916
272.10	11.522
272.47	10.323
272.84	10.823
273.21	11.321
273.58	10.480
273.95	10.273
274.32	9.917
274.69	10.064
275.06	11.220
275.43	10.638
275.80	10.020
276.17	12.220
276.54	11.642
276.91	11.067
277.28	10.156
277.65	11.605
278.02	9.317
278.39	12.500
278.76	9.091
279.13	11.887
279.50	9.683
279.87	13.944
280.23	10.379
280.60	8.897
280.97	8.872
281.34	9.735
281.71	12.182
282.08	11.708
282.45	9.273
282.82	9.947
283.19	7.130
283.56	10.702
283.92	9.645
284.29	10.758
284.66	10.708
285.03	9.222
285.40	8.979
285.77	9.091
286.14	10.535
286.51	10.000
286.87	9.573
287.24	10.749
287.61	9.310
287.98	8.766
288.35	9.033
288.72	7.944
289.08	9.703
289.45	10.873
289.82	7.967
290.19	8.477
290.56	7.044
290.93	8.308
291.29	8.436
291.66	9.292
292.03	11.047
292.40	11.454
292.77	8.284
293.13	10.299
293.50	8.017
293.87	8.444
294.24	8.593
294.60	6.114
294.97	6.686
295.34	8.886
295.71	8.949
296.08	7.692
296.44	9.354
296.81	7.266
297.18	7.317
297.55	5.805
297.91	6.860
298.28	7.363
298.65	8.225
299.02	9.091
299.38	6.640
299.75	5.121
300.12	7.152
300.48	8.000
300.85	7.768
301.22	6.624
301.59	5.934
301.95	7.053
302.32	6.418
302.69	6.093
303.05	7.515
303.42	6.667
303.79	6.569
304.15	5.944
304.52	6.605
304.89	6.969
305.25	7.309
305.62	8.041
305.99	7.674
306.35	7.159
306.72	7.287
307.09	6.770
307.45	7.883
307.82	5.692
308.19	7.395
308.55	6.149
308.92	7.841
309.29	5.808
309.65	6.363
310.02	6.871
310.38	8.172
310.75	6.441
311.12	7.165
311.48	7.837
311.85	7.862
312.22	7.180
312.58	7.069
312.95	7.814
313.31	7.379
313.68	8.316
314.05	9.369
314.41	8.141
314.78	7.452
315.14	8.441
315.51	8.857
315.87	8.812
316.24	9.633
316.61	9.552
316.97	9.491
317.34	9.883
317.70	10.134
318.07	9.625
318.43	11.448
318.80	11.996
319.16	12.053
319.53	11.163
319.89	13.048
320.26	14.600
320.62	13.194
320.99	15.051
321.35	15.354
321.72	15.298
322.08	15.992
322.45	17.612
322.81	17.539
323.18	18.015
323.54	19.109
323.91	20.000
324.27	19.885
324.64	20.503
325.00	21.280
325.37	23.021
325.73	23.788
326.10	24.095
326.46	24.731
326.83	27.179
327.19	27.156
327.56	27.091
327.92	29.484
328.29	31.056
328.65	31.492
329.01	31.047
329.38	31.360
329.74	31.025
330.11	32.893
330.47	33.425
330.84	34.283
331.20	33.515
331.56	34.404
331.93	35.185
332.29	35.226
332.66	35.398
333.02	35.192
333.38	36.405
333.75	37.166
334.11	37.811
334.48	37.178
334.84	39.154
335.20	38.273
335.57	38.622
335.93	38.125
336.29	39.103
336.66	39.315
337.02	38.643
337.38	40.000
337.75	39.394
338.11	39.481
338.47	39.411
338.84	39.688
339.20	39.541
339.56	39.507
339.93	39.000
340.29	41.123
340.65	39.305
341.02	40.663
341.38	41.815
341.74	40.526
342.11	41.921
342.47	41.850
342.83	40.753
343.20	43.203
343.56	40.017
343.92	42.456
344.28	40.816
344.65	41.617
345.01	40.067
345.37	39.708
345.73	39.509
346.10	41.603
346.46	41.864
346.82	41.928
347.19	41.938
347.55	42.282
347.91	42.557
348.27	43.303
348.63	43.311
349.00	43.932
349.36	42.282
349.72	40.738
350.08	42.382
350.45	43.938
350.81	43.054
351.17	43.679
351.53	43.407
351.89	42.162
352.26	43.331
352.62	43.304
352.98	43.760
353.34	42.810
353.70	42.717
354.07	43.468
354.43	43.254
354.79	43.685
355.15	43.017
355.51	45.004
355.87	44.408
356.24	44.625
356.60	44.908
356.96	45.294
357.32	45.871
357.68	44.016
358.04	43.943
358.40	44.022
358.77	45.540
359.13	45.620
359.49	44.235
359.85	45.238
360.21	45.853
360.57	46.226
360.93	46.615
361.29	45.276
361.66	44.969
362.02	46.418
362.38	46.464
362.74	46.429
363.10	44.708
363.46	44.754
363.82	45.881
364.18	46.182
364.54	47.103
364.90	47.875
365.26	47.132
365.62	48.210
365.98	47.918
366.35	46.060
366.71	47.578
367.07	48.216
367.43	48.186
367.79	49.108
368.15	48.635
368.51	48.256
368.87	48.608
369.23	49.744
369.59	49.891
369.95	48.603
370.31	48.148
370.67	47.971
371.03	51.910
371.39	49.417
371.75	50.074
372.11	48.151
372.47	52.126
372.83	51.657
373.19	50.867
373.55	51.663
373.91	52.356
374.27	49.691
374.63	51.418
374.99	52.048
375.35	50.803
375.71	51.679
376.07	51.715
376.42	51.719
376.78	52.021
377.14	52.035
377.50	53.841
377.86	51.862
378.22	53.224
378.58	52.694
378.94	51.666
379.30	53.117
379.66	53.109
380.02	53.194
380.38	52.702
380.74	53.121
381.09	52.873
381.45	54.026
381.81	54.115
382.17	54.076
382.53	54.277
382.89	55.247
383.25	55.285
383.61	55.204
383.97	55.285
384.32	54.211
384.68	54.771
385.04	55.439
385.40	55.232
385.76	54.668
386.12	54.793
386.48	56.136
386.83	57.601
387.19	56.153
387.55	55.040
387.91	55.139
388.27	55.058
388.62	56.423
388.98	55.098
389.34	55.632
389.70	55.610
390.06	57.731
390.42	56.485
390.77	57.252
391.13	57.562
391.49	56.980
391.85	57.097
392.20	56.656
392.56	56.881
392.92	56.680
393.28	56.509
393.64	56.235
393.99	56.139
394.35	56.079
394.71	55.960
395.07	55.826
395.42	56.613
395.78	57.634
396.14	55.680
396.50	57.581
396.85	57.788
397.21	56.720
397.57	56.603
397.92	56.911
398.28	55.157
398.64	56.392
399.00	56.687
399.35	56.120
399.71	56.134
400.07	57.185
400.42	56.196
400.78	56.936
401.14	56.707
401.49	56.836
401.85	56.201
402.21	56.287
402.57	57.125
402.92	56.431
403.28	57.464
403.63	56.807
403.99	56.688
404.35	56.424
404.70	55.216
405.06	55.853
405.42	57.455
405.77	55.943
406.13	54.853
406.49	55.943
406.84	55.818
407.20	55.201
407.55	58.328
407.91	56.933
408.27	57.626
408.62	54.545
408.98	55.515
409.34	55.412
409.69	56.323
410.05	55.948
410.40	56.942
410.76	55.795
411.11	55.368
411.47	55.335
411.83	55.345
412.18	56.339
412.54	56.600
412.89	56.205
413.25	55.726
413.60	56.208
413.96	54.523
414.31	56.075
414.67	56.210
415.03	55.563
415.38	56.765
415.74	55.820
416.09	56.891
416.45	55.087
416.80	56.775
417.16	57.105
417.51	57.465
417.87	54.978
418.22	56.782
418.58	57.069
418.93	56.081
419.29	56.715
419.64	56.360
420.00	55.061
420.35	54.667
420.71	55.589
421.06	54.833
421.42	56.199
421.77	56.222
422.12	54.632
422.48	54.506
422.83	54.805
423.19	54.641
423.54	55.311
423.90	55.884
424.25	55.723
424.61	54.643
424.96	56.210
425.31	55.316
425.67	54.551
426.02	55.257
426.38	56.227
426.73	54.827
427.09	56.353
427.44	54.687
427.79	54.917
428.15	56.131
428.50	55.822
428.85	55.662
429.21	55.439
429.56	55.884
429.92	55.259
430.27	54.667
430.62	54.275
430.98	55.423
431.33	54.124
431.68	55.079
432.04	53.408
432.39	55.111
432.74	56.792
433.10	56.423
433.45	57.085
433.80	55.211
434.16	55.075
434.51	54.579
434.86	54.960
435.22	56.698
435.57	55.623
435.92	56.466
436.28	55.635
436.63	56.457
436.98	54.264
437.34	56.410
437.69	55.834
438.04	55.930
438.39	55.164
438.75	56.363
439.10	56.145
439.45	56.434
439.81	56.798
440.16	55.901
440.51	57.176
440.86	56.514
441.22	56.007
441.57	56.847
441.92	55.271
442.27	55.920
442.63	54.871
442.98	56.282
443.33	55.109
443.68	55.292
444.03	55.149
444.39	55.404
444.74	55.844
445.09	55.418
445.44	55.221
445.79	56.111
446.15	54.897
446.50	55.358
446.85	55.807
447.20	54.870
447.55	55.946
447.91	55.047
448.26	54.591
448.61	55.907
448.96	55.094
449.31	55.174
449.66	54.924
450.02	53.593
450.37	55.499
450.72	55.274
451.07	54.784
451.42	53.495
451.77	55.666
452.12	54.388
452.47	54.789
452.83	54.953
453.18	53.790
453.53	55.906
453.88	55.227
454.23	54.931
454.58	55.421
454.93	55.563
455.28	55.486
455.63	55.279
455.98	56.667
456.34	54.899
456.69	55.729
457.04	55.542
457.39	54.471
457.74	54.904
458.09	53.767
458.44	53.649
458.79	53.308
459.14	53.894
459.49	53.765
459.84	54.958
460.19	53.094
460.54	53.414
460.89	53.593
461.24	53.977
461.59	53.574
461.94	53.329
462.29	53.887
462.64	53.797
462.99	53.676
463.34	54.667
463.69	54.409
464.04	54.319
464.39	52.058
464.74	54.011
465.09	53.559
465.44	52.853
465.79	52.908
466.14	52.874
466.49	52.836
466.84	52.539
467.19	53.349
467.54	52.688
467.89	53.301
468.24	52.356
468.59	53.419
468.94	52.535
469.29	53.021
469.64	52.477
469.99	54.060
470.34	53.897
470.68	54.454
471.03	53.401
471.38	55.664
471.73	53.831
472.08	53.684
472.43	52.513
472.78	52.798
473.13	52.439
473.48	51.810
473.83	52.744
474.17	51.960
474.52	52.854
474.87	52.248
475.22	51.364
475.57	50.994
475.92	51.620
476.27	50.733
476.61	51.572
476.96	50.412
477.31	50.288
477.66	51.751
478.01	50.392
478.36	51.348
478.70	50.467
479.05	50.000
479.40	50.972
479.75	50.839
480.10	50.199
480.45	49.643
480.79	49.833
481.14	50.245
481.49	50.736
481.84	49.749
482.19	49.796
482.53	49.725
482.88	50.209
483.23	50.280
483.58	49.727
483.92	50.656
484.27	48.889
484.62	49.181
484.97	48.798
485.31	50.377
485.66	49.140
486.01	46.592
486.36	44.151
486.70	43.027
487.05	44.272
487.40	45.480
487.75	46.769
488.09	46.861
488.44	48.065
488.79	48.210
489.13	48.243
489.48	49.184
489.83	48.597
490.17	48.707
490.52	48.051
490.87	48.711
491.22	48.067
491.56	48.155
491.91	48.674
492.26	47.634
492.60	48.065
492.95	48.082
493.30	48.505
493.64	48.437
493.99	48.329
494.34	48.150
494.68	47.985
495.03	48.496
495.37	46.952
495.72	48.441
496.07	48.445
496.41	47.124
496.76	47.142
497.11	47.186
497.45	47.881
497.80	47.697
498.14	47.391
498.49	48.293
498.84	48.130
499.18	47.667
499.53	46.771
499.87	46.878
500.22	46.679
500.56	47.573
500.91	46.875
501.26	47.226
501.60	47.603
501.95	45.371
502.29	47.470
502.64	47.160
502.98	46.751
503.33	46.709
503.67	45.568
504.02	47.053
504.36	46.888
504.71	46.214
505.06	46.458
505.40	46.038
505.75	45.130
506.09	46.307
506.44	46.522
506.78	46.469
507.13	45.785
507.47	46.919
507.82	46.606
508.16	46.657
508.51	47.032
508.85	45.730
509.19	46.071
509.54	45.612
509.88	46.419
510.23	45.604
510.57	46.956
510.92	46.867
511.26	45.118
511.61	45.539
511.95	46.399
512.30	45.387
512.64	45.191
512.98	46.463
513.33	46.092
513.67	44.771
514.02	45.184
514.36	47.460
514.70	45.822
515.05	45.789
515.39	45.261
515.74	46.171
516.08	45.947
516.42	45.727
516.77	45.875
517.11	44.950
517.46	45.711
517.80	46.690
518.14	44.354
518.49	48.016
518.83	45.455
519.17	45.612
519.52	45.161
519.86	45.750
520.20	46.069
520.55	45.721
520.89	45.985
521.23	46.803
521.58	46.339
521.92	45.867
522.26	45.577
522.61	46.044
522.95	44.813
523.29	46.074
523.64	45.549
523.98	45.287
524.32	44.873
524.66	43.716
525.01	45.588
525.35	45.043
525.69	44.212
526.04	45.421
526.38	44.905
526.72	43.804
527.06	44.821
527.41	42.698
527.75	45.595
528.09	45.279
528.43	45.188
528.78	44.745
529.12	44.182
529.46	44.336
529.80	44.493
530.15	44.486
530.49	43.508
530.83	43.418
531.17	45.692
531.51	44.942
531.86	45.226
532.20	45.306
532.54	44.715
532.88	43.710
533.22	43.098
533.57	43.210
533.91	43.107
534.25	43.439
534.59	43.258
534.93	43.010
535.27	43.090
535.62	42.735
535.96	43.063
536.30	42.721
536.64	44.495
536.98	43.663
537.32	43.779
537.66	43.667
538.01	44.042
538.35	43.956
538.69	43.714
539.03	43.145
539.37	41.853
539.71	41.024
540.05	43.072
540.39	42.791
540.73	42.497
541.07	43.738
541.42	43.314
541.76	43.290
542.10	42.755
542.44	42.848
542.78	43.083
543.12	40.883
543.46	42.361
543.80	42.095
544.14	41.849
544.48	42.540
544.82	40.988
545.16	41.900
545.50	41.902
545.84	43.078
546.18	42.424
546.52	43.427
546.86	41.581
547.20	42.684
547.54	42.218
547.88	42.092
548.22	41.096
548.56	41.572
548.90	41.421
549.24	41.347
549.58	41.542
549.92	42.582
550.26	43.040
550.60	41.563
550.94	42.817
551.28	42.794
551.62	42.847
551.96	41.404
552.30	41.638
552.64	41.717
552.98	41.220
553.32	41.740
553.66	41.990
554.00	42.622
554.34	41.339
554.68	41.702
555.02	41.467
555.36	41.684
555.69	40.731
556.03	40.713
556.37	40.791
556.71	40.791
557.05	40.196
557.39	41.498
557.73	40.649
558.07	42.712
558.41	40.593
558.75	42.101
559.08	42.506
559.42	42.026
559.76	41.912
560.10	41.042
560.44	40.391
560.78	40.253
561.12	40.040
561.45	39.896
561.79	39.024
562.13	40.845
562.47	41.667
562.81	41.283
563.15	40.268
563.48	40.451
563.82	39.074
564.16	40.353
564.50	38.281
564.84	39.886
565.17	40.026
565.51	40.703
565.85	40.546
566.19	38.948
566.52	40.152
566.86	40.506
567.20	39.210
567.54	40.011
567.88	38.349
568.21	38.889
568.55	37.209
568.89	38.132
569.23	37.656
569.56	37.247
569.90	37.396
570.24	36.311
570.57	35.770
570.91	35.100
571.25	34.805
571.59	34.904
571.92	35.340
572.26	34.662
572.60	34.715
572.93	34.753
573.27	35.197
573.61	34.841
573.95	34.755
574.28	34.347
574.62	34.257
574.96	34.241
575.29	33.729
575.63	33.918
575.97	34.106
576.30	34.227
576.64	33.763
576.98	33.495
577.31	34.104
577.65	34.072
577.98	33.032
578.32	32.844
578.66	33.585
578.99	33.234
579.33	33.648
579.67	33.520
580.00	33.805
580.34	33.555
580.67	33.491
581.01	34.338
581.35	33.361
581.68	33.141
582.02	32.587
582.35	32.731
582.69	33.447
583.02	32.957
583.36	33.595
583.70	34.565
584.03	33.960
584.37	34.177
584.70	34.692
585.04	33.831
585.37	33.900
585.71	33.153
586.04	33.172
586.38	33.386
586.72	33.665
587.05	33.578
587.39	33.193
587.72	33.986
588.06	33.404
588.39	34.102
588.73	34.057
589.06	34.341
589.40	34.579
589.73	34.389
590.07	34.875
590.40	35.075
590.73	35.090
591.07	36.264
591.40	35.259
591.74	36.190
592.07	34.948
592.41	34.642
592.74	34.382
593.08	33.977
593.41	33.945
593.75	32.948
594.08	33.590
594.41	33.934
594.75	33.900
595.08	34.252
595.42	34.116
595.75	34.366
596.09	34.172
596.42	34.617
596.75	34.867
597.09	35.195
597.42	34.486
597.75	34.541
598.09	35.478
598.42	34.364
598.76	33.847
599.09	33.941
599.42	33.479
599.76	33.492
600.09	33.588
600.42	32.834
600.76	32.857
601.09	33.078
601.42	33.447
601.76	33.321
602.09	33.755
602.42	34.873
602.76	34.623
603.09	33.635
603.42	34.088
603.76	33.346
604.09	33.501
604.42	34.081
604.76	35.133
605.09	34.382
605.42	34.117
605.75	34.975
606.09	34.038
606.42	33.796
606.75	33.886
607.09	33.738
607.42	34.446
607.75	33.418
608.08	33.652
608.42	33.438
608.75	33.995
609.08	33.673
609.41	34.460
609.75	33.778
610.08	34.590
610.41	33.845
610.74	33.822
611.07	34.289
611.41	35.231
611.74	33.836
612.07	35.093
612.40	35.205
612.73	34.421
613.07	35.991
613.40	34.387
613.73	33.456
614.06	34.570
614.39	34.085
614.72	33.895
615.06	34.034
615.39	34.342
615.72	34.202
616.05	33.493
616.38	34.908
616.71	35.689
617.05	35.571
617.38	34.516
617.71	35.495
618.04	35.517
618.37	34.004
618.70	35.905
619.03	37.171
619.36	35.506
619.69	36.408
620.03	37.157
620.36	36.163
620.69	36.781
621.02	36.431
621.35	36.492
621.68	35.981
622.01	36.997
622.34	37.292
622.67	37.567
623.00	35.510
623.33	35.740
623.66	36.598
623.99	37.040
624.32	35.307
624.65	35.028
624.99	34.419
625.32	35.699
625.65	35.763
625.98	36.510
626.31	37.792
626.64	37.224
626.97	36.991
627.30	36.991
627.63	37.490
627.96	38.267
628.29	36.833
628.62	37.877
628.95	39.245
629.28	37.226
629.61	38.405
629.94	40.095
630.26	38.227
630.59	37.464
630.92	38.314
631.25	38.006
631.58	37.638
631.91	38.641
632.24	36.076
632.57	38.930
632.90	39.145
633.23	39.933
633.56	39.774
633.89	39.864
634.22	38.479
634.55	40.828
634.88	38.922
635.20	39.307
635.53	38.795
635.86	40.347
636.19	39.294
636.52	39.100
636.85	39.061
637.18	39.055
637.51	40.071
637.83	37.485
638.16	39.258
638.49	39.673
638.82	41.846
639.15	38.750
639.48	40.399
639.81	41.689
640.13	40.234
640.46	40.537
640.79	39.366
641.12	37.964
641.45	40.782
641.77	42.857
642.10	41.082
642.43	40.240
642.76	40.867
643.09	41.258
643.41	41.123
643.74	41.512
644.07	44.970
644.40	43.405
644.73	42.992
645.05	44.216
645.38	39.968
645.71	43.800
646.04	44.850
646.36	43.072
646.69	43.311
647.02	43.878
647.35	41.409
647.67	43.717
648.00	42.927
648.33	42.904
648.66	41.212
648.98	41.679
649.31	40.807
649.64	41.405
649.96	39.344
650.29	41.864
650.62	40.615
650.94	42.626
651.27	42.905
651.60	43.594
651.92	42.492
652.25	40.717
652.58	39.564
652.90	42.022
653.23	40.832
653.56	39.843
653.88	43.265
654.21	40.284
654.54	42.079
654.86	40.654
655.19	38.243
655.52	27.794
655.84	24.165
656.17	31.247
656.49	41.697
656.82	42.514
657.15	32.174
657.47	23.948
657.80	18.611
658.13	19.692
658.45	29.787
658.78	29.958
659.10	31.078
659.43	32.573
659.75	35.105
660.08	38.608
660.41	42.737
660.73	43.710
661.06	42.675
661.38	45.818
661.71	44.038
662.03	45.168
662.36	42.744
662.68	44.177
663.01	42.020
663.33	42.251
663.66	44.748
663.98	45.140
664.31	46.218
664.63	43.522
664.96	41.851
665.28	46.926
665.61	40.351
665.93	46.881
666.26	45.233
666.58	46.234
666.91	43.763
667.23	46.966
667.56	41.685
667.88	45.726
668.21	42.217
668.53	43.384
668.86	46.104
669.18	47.335
669.50	43.261
669.83	43.573
670.15	43.111
670.48	43.355
670.80	46.336
671.13	43.312
671.45	41.064
671.77	42.566
672.10	41.590
672.42	40.636
672.75	37.313
673.07	39.789
673.39	40.325
673.72	42.383
674.04	41.961
674.37	42.136
674.69	43.354
675.01	41.004
675.34	44.148
675.66	43.789
675.98	40.733
676.31	43.697
676.63	41.826
676.95	44.025
677.28	43.458
677.60	41.978
677.92	41.772
678.25	42.916
678.57	39.841
678.89	41.283
679.22	38.900
679.54	42.366
679.86	40.917
680.18	38.640
680.51	37.589
680.83	38.434
681.15	40.755
681.48	41.399
681.80	40.426
682.12	39.080
682.44	37.911
682.77	41.955
683.09	43.133
683.41	41.685
683.73	44.371
684.06	42.769
684.38	38.748
684.70	40.504
685.02	41.463
685.34	39.194
685.67	38.636
685.99	38.660
686.31	36.689
686.63	36.926
686.96	38.929
687.28	39.892
687.60	38.949
687.92	39.305
688.24	40.875
688.56	39.759
688.89	41.494
689.21	41.703
689.53	40.919
689.85	42.350
690.17	38.302
690.49	40.764
690.82	42.757
691.14	39.062
691.46	39.662
691.78	39.157
692.10	44.421
692.42	37.126
692.74	38.174
693.06	42.766
693.39	40.041
693.71	43.668
694.03	38.737
694.35	41.558
694.67	41.190
694.99	43.659
695.31	42.157
695.63	41.148
695.95	41.320
696.27	42.132
696.59	43.005
696.91	41.192
697.23	39.202
697.56	39.232
697.88	36.401
698.20	40.000
698.52	37.634
698.84	40.757
699.16	37.327
699.48	38.242
699.80	41.304
700.12	47.792
700.44	41.910
700.76	42.818
701.08	44.253
701.40	47.207
701.72	45.190
702.04	49.148
702.36	42.210
702.68	43.343
703.00	44.044
703.32	42.553
703.64	42.359
703.96	41.783
704.28	41.570
704.60	46.041
704.91	47.774
705.23	45.455
705.55	44.518
705.87	52.824
706.19	47.350
706.51	44.237
706.83	47.879
707.15	43.697
707.47	42.677
707.79	40.541
708.11	39.498
708.43	40.238
708.74	39.286
709.06	42.338
709.38	44.094
709.70	44.186
710.02	45.697
710.34	40.303
710.66	45.075
710.98	40.341
711.29	43.314
711.61	46.903
711.93	44.231
712.25	47.910
712.57	45.956
712.89	48.097
713.20	48.024
713.52	47.039
713.84	46.835
714.16	46.037
714.48	43.391
714.80	46.809
715.11	41.499
715.43	43.323
715.75	41.739
716.07	43.770
716.39	44.201
716.70	44.850
717.02	47.842
717.34	46.643
717.66	48.507
717.97	54.183
718.29	48.519
718.61	44.891
718.93	51.471
719.24	49.481
719.56	46.441
719.88	46.780
720.20	47.973
720.51	45.296
720.83	49.442
721.15	42.164
721.46	43.262
721.78	45.161
722.10	50.189
722.42	46.241
722.73	47.940
723.05	49.180
723.37	45.749
723.68	45.946
724.00	50.407
724.32	50.403
724.63	50.000
724.95	52.720
725.27	48.988
725.58	48.828
725.90	48.540
726.22	44.528
726.53	43.403
726.85	43.686
727.16	43.772
727.48	43.617
727.80	42.045
728.11	49.638
728.43	44.615
728.74	44.803
729.06	50.365
729.38	49.265
729.69	43.772
730.01	43.003
730.32	42.708
730.64	43.478
730.96	36.964
731.27	47.020
731.59	44.037
731.90	43.732
732.22	43.478
732.53	43.034
732.85	43.910
733.16	38.907
733.48	42.193
733.80	41.558
734.11	43.312
734.43	41.124
734.74	34.857
735.06	37.249
735.37	40.751
735.69	38.535
736.00	46.078
736.32	41.745
736.63	37.700
736.95	42.492
737.26	39.116
737.58	38.065
737.89	42.140
738.21	43.003
738.52	44.286
738.83	42.264
739.15	43.846
739.46	41.241
739.78	46.875
740.09	39.077
740.41	44.194
740.72	39.721
741.04	46.296
741.35	45.417
741.66	57.333
741.98	43.868
742.29	55.502
742.61	51.293
742.92	43.891
743.23	48.291
743.55	47.600
743.86	44.737
744.18	53.540
744.49	52.632
744.80	51.643
745.12	56.364
745.43	48.458
745.74	52.703
746.06	52.294
746.37	46.637
746.68	44.796
747.00	53.704
747.31	50.952
747.62	45.133
747.94	49.780
748.25	41.702
748.56	51.542
748.88	55.446
749.19	54.000
749.50	49.767
749.82	48.780
750.13	42.857
750.44	45.620
750.75	40.702
751.07	43.408
751.38	43.902
751.69	43.682
752.01	42.105
752.32	40.433
752.63	45.035
752.94	45.082
753.26	50.000
753.57	47.967
753.88	45.703
754.19	40.357
754.51	46.181
754.82	41.516
755.13	47.170
755.44	44.361
755.75	39.781
756.07	41.844
756.38	40.146
756.69	42.617
757.00	36.228
757.31	37.685
757.63	36.257
757.94	35.925
758.25	34.804
758.56	31.358
758.87	35.215
759.18	40.303
759.50	37.931
759.81	39.875
760.12	33.437
760.43	38.968
760.74	36.685
761.05	39.266
761.36	35.829
761.67	38.068
761.99	37.267
762.30	39.236
762.61	43.893
762.92	42.188
763.23	45.378
763.54	43.200
763.85	40.234
764.16	42.692
764.47	46.768
764.78	39.929
765.10	36.709
765.41	37.758
765.72	35.928
766.03	41.066
766.34	39.667
766.65	48.936
766.96	44.444
767.27	48.731
767.58	50.000
767.89	52.632
768.20	55.747
768.51	46.701
768.82	50.459
769.13	42.683
769.44	39.271
769.75	47.210
770.06	38.532
770.37	48.869
770.68	42.593
770.99	45.778
771.30	40.574
771.61	53.363
771.92	43.033
772.23	50.000
772.54	53.846
772.85	51.832
773.16	46.277
773.47	60.326
773.78	54.822
774.09	55.952
774.39	55.556
774.70	48.765
775.01	60.145
775.32	67.974
775.63	53.289
775.94	60.432
776.25	65.354
776.56	65.672
776.87	75.410
777.18	56.250
777.48	65.649
777.79	62.879
778.10	57.037
778.41	68.750
778.72	53.285
779.03	61.074
779.34	55.705
779.65	53.378
779.95	54.601
780.26	53.595
780.57	60.000
780.88	70.312
781.19	48.872
781.50	60.811
781.80	55.346
782.11	50.847
782.42	51.266
782.73	50.307
783.04	55.405
783.34	66.197
783.65	60.959
783.96	67.164
784.27	56.643
784.57	58.273
784.88	59.259
785.19	66.667
785.50	70.755
785.81	69.403
786.11	70.492
786.42	60.465
786.73	69.027
787.04	63.208
787.34	56.250
787.65	73.000
787.96	77.477
788.26	61.983
788.57	64.407
788.88	65.289
789.19	54.861
789.49	63.636
789.80	58.015
790.11	74.286
790.41	80.198
790.72	79.518
791.03	65.217
791.33	76.744
791.64	77.320
791.95	77.228
792.25	80.000
792.56	90.909
792.87	96.154
793.17	88.608
793.48	79.310
793.79	82.759
794.09	85.227
794.40	62.185
794.70	67.647
795.01	54.074
795.32	55.396
795.62	59.055
795.93	62.069
796.23	69.027
796.54	74.118
796.85	85.135
797.15	109.859
797.46	89.394
797.76	89.157
798.07	86.076
798.37	89.231
798.68	103.030
798.99	100.000
799.29	83.117
799.60	75.000
799.90	91.781
800.21	102.985
800.51	118.966
800.82	117.544
801.12	93.443
801.43	113.636
801.73	93.243
802.04	98.413
802.34	95.062
802.65	103.125
802.95	108.475
803.26	117.188
803.56	81.429
803.87	96.923
804.17	83.824
804.48	118.519
804.78	91.379
805.09	91.176
805.39	94.231
805.70	94.643
806.00	121.311
806.30	92.424
806.61	85.366
806.91	78.481
807.22	84.211
807.52	77.612
807.83	84.507
808.13	106.250
808.43	101.667
808.74	81.579
809.04	100.000
809.35	77.612
809.65	89.474
809.95	120.968
810.26	101.695
810.56	101.587
810.86	140.909
811.17	157.143
811.47	123.333
811.77	124.074
812.08	114.545
812.38	118.000
812.69	177.778
812.99	163.636
813.29	130.612
813.59	119.048
813.90	118.367
814.20	120.000
814.50	98.462
814.81	98.529
815.11	128.571
815.41	103.279
815.72	140.476
816.02	127.273
816.32	145.238
816.62	117.500
816.93	141.463
817.23	159.524
817.53	125.000
817.84	172.727
818.14	147.826
818.44	148.889
818.74	194.118
819.04	157.500
819.35	168.571
819.65	208.824
819.95	210.714
820.25	260.000
820.56	179.487
820.86	136.364
821.16	158.140
821.46	151.282
821.76	134.000
822.07	160.000
822.37	167.500
822.67	169.697
822.97	117.647
823.27	221.429
823.57	154.054
823.88	165.000
824.18	193.333
824.48	173.810
824.78	220.000
825.08	191.667
825.38	172.973
825.69	134.146
825.99	195.833
826.29	134.483
826.59	150.000
826.89	171.053
827.19	205.882
827.49	161.290
827.79	165.909
828.09	140.909
828.39	140.426
828.70	142.857
829.00	151.852
829.30	212.903
829.60	140.000
829.90	313.333
830.20	185.714
830.50	260.870
830.80	243.478
831.10	190.000
831.40	186.667
831.70	252.174
832.00	223.077
832.30	237.037
832.60	356.250
832.90	223.333
833.20	464.286
833.50	177.419
833.80	206.897
834.10	225.000
834.40	265.385
834.70	311.111
835.00	319.048
835.30	191.429
835.60	292.308
835.90	196.552
836.20	342.857
836.50	210.345
836.80	196.000
837.10	183.333
837.40	247.619
837.70	311.765
838.00	225.926
838.30	261.905
838.60	290.476
838.90	234.615
839.19	255.000
839.49	428.571
839.79	330.000
840.09	280.000
840.39	238.095
840.69	304.348
840.99	322.222
841.29	500.000
841.59	383.333
841.88	306.250
842.18	182.759
842.48	295.238
842.78	206.667
843.08	226.087
843.38	181.250
843.68	783.333
843.97	242.308
844.27	189.655
844.57	276.190
844.87	312.500
845.17	225.926
845.47	1333.333
845.76	488.889
846.06	352.941
846.36	525.000
846.66	385.714
846.96	287.500
847.25	390.909
847.55	381.818
847.85	243.478
848.15	490.000
848.44	407.143
848.74	255.556
849.04	335.294
849.34	610.000
849.63	305.263
849.93	509.091
850.23	960.000
850.53	414.286
850.82	2150.000
851.12	-4000.000
851.42	5100.000
851.71	280.000
852.01	-1266.667
852.31	270.833
852.61	1733.333
852.90	276.190
853.20	244.000
853.50	335.294
853.79	252.381
854.09	225.000
854.39	381.250
854.68	194.595
854.98	193.548
855.28	180.000
855.57	220.690
855.87	233.333
856.17	257.895
856.46	233.333
856.76	270.588
857.05	206.897
857.35	254.167
857.65	400.000
857.94	256.522
858.24	242.308
858.53	330.000
858.83	227.273
859.13	393.333
859.42	0.000
859.72	488.889
860.01	427.273
860.31	277.273
860.60	284.211
860.90	252.174
861.20	488.889
861.49	533.333
861.79	-5600.000
862.08	662.500
862.38	314.286
862.67	338.462
862.97	335.294
863.26	500.000
863.56	366.667
863.85	450.000
864.15	550.000
864.44	433.333
864.74	800.000
865.03	662.500
865.33	273.684
865.62	418.182
865.92	500.000
866.21	400.000
866.51	0.000
866.80	454.545
867.10	1220.000
867.39	461.538
867.69	472.727
867.98	300.000
868.27	527.273
868.57	278.947
868.86	-5300.000
869.16	337.500
869.45	2100.000
869.75	-4300.000
870.04	416.667
870.33	571.429
870.63	1150.000
870.92	2450.000
871.22	685.714
871.51	370.588
871.80	252.381
872.10	385.714
>>>>>End Processed Spectral Data<<<<<
