SpectraSuite Data File
++++++++++++++++++++++++++++++++++++
Date: Wed May 13 16:38:06 PDT 2015
User: schluterlab
Dark Spectrum Present: Yes
Reference Spectrum Present: Yes
Number of Sampled Component Spectra: 1
Spectrometers: USB2E3373
Integration Time (usec): 3000 (USB2E3373)
Spectra Averaged: 3 (USB2E3373)
Boxcar Smoothing: 0 (USB2E3373)
Correct for Electrical Dark: No (USB2E3373)
Strobe/Lamp Enabled: No (USB2E3373)
Correct for Detector Non-linearity: No (USB2E3373)
Correct for Stray Light: No (USB2E3373)
Number of Pixels in Processed Spectrum: 2048
>>>>>Begin Processed Spectral Data<<<<<
178.53	0.000
178.91	-1500.000
179.29	-1375.000
179.67	-238.889
180.04	-1325.000
180.42	2450.000
180.80	1140.000
181.18	-1200.000
181.56	842.857
181.94	0.000
182.31	-828.571
182.69	1700.000
183.07	-600.000
183.45	-533.333
183.83	536.364
184.20	-450.000
184.58	2000.000
184.96	4800.000
185.34	-680.000
185.72	-575.000
186.09	-2850.000
186.47	2700.000
186.85	2450.000
187.23	4300.000
187.61	-1933.333
187.98	1325.000
188.36	509.091
188.74	500.000
189.12	-1120.000
189.49	580.000
189.87	-4400.000
190.25	-1350.000
190.63	421.429
191.00	392.308
191.38	916.667
191.76	-1125.000
192.14	1375.000
192.51	675.000
192.89	1016.667
193.27	562.500
193.65	-1325.000
194.02	480.000
194.40	980.000
194.78	540.000
195.15	466.667
195.53	590.000
195.91	-2250.000
196.29	375.000
196.66	278.947
197.04	-430.000
197.42	0.000
197.79	680.000
198.17	-4800.000
198.55	700.000
198.92	775.000
199.30	900.000
199.68	0.000
200.05	322.222
200.43	785.714
200.81	4600.000
201.18	1666.667
201.56	-1633.333
201.94	533.333
202.31	555.556
202.69	425.000
203.07	610.000
203.44	0.000
203.82	1325.000
204.19	800.000
204.57	442.857
204.95	737.500
205.32	1733.333
205.70	518.182
206.08	328.571
206.45	2700.000
206.83	393.750
207.20	816.667
207.58	740.000
207.96	333.333
208.33	825.000
208.71	-833.333
209.08	757.143
209.46	522.222
209.84	500.000
210.21	-1866.667
210.59	1425.000
210.96	-525.000
211.34	2600.000
211.71	520.000
212.09	700.000
212.46	0.000
212.84	1900.000
213.22	1350.000
213.59	-4500.000
213.97	916.667
214.34	757.143
214.72	527.273
215.09	1060.000
215.47	-1950.000
215.84	-2150.000
216.22	1433.333
216.59	400.000
216.97	1275.000
217.34	472.727
217.72	-800.000
218.09	0.000
218.47	-4600.000
218.84	566.667
219.22	685.714
219.59	1533.333
219.97	-528.571
220.34	860.000
220.72	-1733.333
221.09	364.286
221.47	1475.000
221.84	-933.333
222.22	0.000
222.59	1225.000
222.97	-2550.000
223.34	1240.000
223.72	423.077
224.09	1020.000
224.46	2300.000
224.84	-4200.000
225.21	-760.000
225.59	-4600.000
225.96	630.000
226.34	285.000
226.71	2950.000
227.08	737.500
227.46	570.000
227.83	-1100.000
228.21	-2150.000
228.58	577.778
228.95	-2600.000
229.33	-2500.000
229.70	1633.333
230.08	771.429
230.45	-700.000
230.82	383.333
231.20	816.667
231.57	700.000
231.95	441.667
232.32	254.545
232.69	354.545
233.07	700.000
233.44	346.154
233.81	-1466.667
234.19	273.684
234.56	383.333
234.93	450.000
235.31	536.364
235.68	330.769
236.05	400.000
236.43	166.667
236.80	263.158
237.17	4200.000
237.55	223.810
237.92	150.000
238.29	233.333
238.67	164.516
239.04	210.345
239.41	136.111
239.79	104.348
240.16	123.810
240.53	125.000
240.91	84.314
241.28	108.000
241.65	94.000
242.02	82.609
242.40	74.194
242.77	85.000
243.14	56.989
243.51	69.663
243.89	63.529
244.26	45.556
244.63	53.763
245.00	46.809
245.38	47.525
245.75	42.991
246.12	44.037
246.49	51.095
246.87	44.000
247.24	40.769
247.61	46.429
247.98	31.373
248.36	35.135
248.73	31.847
249.10	35.032
249.47	29.944
249.84	36.898
250.22	30.481
250.59	26.627
250.96	32.323
251.33	27.962
251.70	35.149
252.08	23.810
252.45	21.973
252.82	24.783
253.19	28.511
253.56	24.314
253.94	28.631
254.31	21.094
254.68	24.231
255.05	23.985
255.42	20.325
255.79	22.426
256.16	20.939
256.54	19.788
256.91	22.064
257.28	14.748
257.65	19.142
258.02	23.913
258.39	18.927
258.76	16.388
259.14	19.345
259.51	19.149
259.88	13.354
260.25	19.033
260.62	18.786
260.99	15.839
261.36	16.216
261.73	16.905
262.10	16.279
262.47	16.901
262.85	14.763
263.22	15.100
263.59	19.658
263.96	15.934
264.33	18.538
264.70	14.474
265.07	18.159
265.44	14.646
265.81	15.572
266.18	15.578
266.55	14.146
266.92	14.988
267.29	16.667
267.66	16.743
268.03	15.000
268.40	15.187
268.77	16.229
269.14	16.216
269.51	14.447
269.88	15.618
270.25	13.770
270.62	13.034
270.99	15.914
271.36	16.524
271.73	15.654
272.10	13.913
272.47	15.269
272.84	14.286
273.21	15.514
273.58	13.319
273.95	12.369
274.32	9.711
274.69	13.704
275.06	12.992
275.43	15.106
275.80	12.425
276.17	13.442
276.54	13.306
276.91	11.858
277.28	12.109
277.65	13.733
278.02	13.872
278.39	13.867
278.76	14.364
279.13	12.453
279.50	13.594
279.87	13.546
280.23	14.571
280.60	11.799
280.97	12.384
281.34	13.628
281.71	14.545
282.08	13.820
282.45	12.364
282.82	13.144
283.19	8.734
283.56	12.456
283.92	13.367
284.29	11.111
284.66	11.071
285.03	9.946
285.40	11.092
285.77	11.616
286.14	11.054
286.51	12.333
286.87	11.624
287.24	12.378
287.61	9.952
287.98	12.662
288.35	11.094
288.72	12.773
289.08	11.737
289.45	12.026
289.82	10.569
290.19	11.146
290.56	11.179
290.93	11.027
291.29	11.656
291.66	10.619
292.03	11.628
292.40	11.160
292.77	9.763
293.13	10.597
293.50	10.787
293.87	10.370
294.24	9.333
294.60	9.898
294.97	9.884
295.34	10.437
295.71	10.653
296.08	10.114
296.44	10.316
296.81	9.379
297.18	10.027
297.55	8.839
297.91	8.575
298.28	10.174
298.65	11.227
299.02	10.540
299.38	9.296
299.75	6.469
300.12	8.557
300.48	9.250
300.85	9.125
301.22	9.172
301.59	8.460
301.95	9.194
302.32	9.114
302.69	9.558
303.05	7.879
303.42	9.506
303.79	8.947
304.15	8.159
304.52	7.300
304.89	8.479
305.25	8.353
305.62	9.060
305.99	7.910
306.35	8.389
306.72	9.529
307.09	8.657
307.45	8.896
307.82	6.473
308.19	8.499
308.55	10.356
308.92	8.915
309.29	8.448
309.65	8.378
310.02	8.985
310.38	8.495
310.75	8.342
311.12	8.495
311.48	8.777
311.85	7.966
312.22	9.365
312.58	7.277
312.95	8.553
313.31	8.252
313.68	8.732
314.05	9.566
314.41	8.543
314.78	8.560
315.14	8.242
315.51	9.166
315.87	9.109
316.24	8.937
316.61	7.797
316.97	7.534
317.34	7.436
317.70	9.465
318.07	8.277
318.43	7.828
318.80	8.529
319.16	9.322
319.53	9.006
319.89	9.048
320.26	9.300
320.62	9.425
320.99	9.697
321.35	9.495
321.72	10.062
322.08	9.477
322.45	10.149
322.81	10.368
323.18	9.152
323.54	10.297
323.91	10.377
324.27	9.656
324.64	8.667
325.00	8.386
325.37	8.098
325.73	9.515
326.10	8.914
326.46	8.781
326.83	9.750
327.19	8.967
327.56	8.188
327.92	8.836
328.29	9.228
328.65	8.564
329.01	9.747
329.38	8.233
329.74	9.695
330.11	8.200
330.47	8.999
330.84	9.926
331.20	9.290
331.56	8.716
331.93	9.259
332.29	9.494
332.66	8.761
333.02	9.415
333.38	9.304
333.75	9.715
334.11	9.964
334.48	8.607
334.84	8.640
335.20	8.727
335.57	8.160
335.93	8.304
336.29	7.509
336.66	8.837
337.02	7.873
337.38	8.333
337.75	8.556
338.11	8.147
338.47	8.564
338.84	8.799
339.20	8.532
339.56	9.307
339.93	8.273
340.29	8.696
340.65	7.843
341.02	9.162
341.38	9.164
341.74	7.982
342.11	9.083
342.47	8.899
342.83	8.476
343.20	9.091
343.56	8.677
343.92	7.719
344.28	7.738
344.65	9.114
345.01	8.081
345.37	8.062
345.73	8.122
346.10	8.525
346.46	8.305
346.82	8.320
347.19	7.602
347.55	7.143
347.91	8.576
348.27	8.628
348.63	8.027
349.00	7.282
349.36	7.471
349.72	7.538
350.08	7.618
350.45	9.357
350.81	8.448
351.17	8.347
351.53	7.617
351.89	7.838
352.26	8.840
352.62	8.581
352.98	7.212
353.34	7.888
353.70	7.119
354.07	7.984
354.43	8.413
354.79	7.241
355.15	8.380
355.51	8.473
355.87	8.327
356.24	8.632
356.60	6.816
356.96	7.804
357.32	6.868
357.68	7.953
358.04	7.284
358.40	8.630
358.77	8.529
359.13	6.630
359.49	7.843
359.85	5.794
360.21	7.018
360.57	7.938
360.93	7.692
361.29	7.256
361.66	7.585
362.02	8.209
362.38	7.681
362.74	7.812
363.10	6.514
363.46	8.070
363.82	6.878
364.18	7.856
364.54	8.098
364.90	7.932
365.26	6.985
365.62	7.451
365.98	7.378
366.35	6.948
366.71	7.954
367.07	7.720
367.43	7.620
367.79	7.780
368.15	8.118
368.51	6.541
368.87	8.494
369.23	7.608
369.59	7.893
369.95	6.838
370.31	8.974
370.67	6.739
371.03	8.315
371.39	7.362
371.75	7.206
372.11	7.468
372.47	8.065
372.83	8.934
373.19	7.442
373.55	6.726
373.91	8.984
374.27	7.835
374.63	6.618
374.99	7.415
375.35	7.467
375.71	7.334
376.07	8.299
376.42	7.015
376.78	7.687
377.14	7.191
377.50	8.278
377.86	7.646
378.22	7.965
378.58	6.454
378.94	7.731
379.30	6.679
379.66	7.741
380.02	7.801
380.38	7.043
380.74	7.443
381.09	7.457
381.45	8.359
381.81	8.231
382.17	7.771
382.53	7.233
382.89	7.901
383.25	7.567
383.61	7.187
383.97	7.317
384.32	8.297
384.68	7.373
385.04	7.744
385.40	7.740
385.76	7.862
386.12	8.031
386.48	8.055
386.83	8.210
387.19	8.844
387.55	7.854
387.91	7.799
388.27	8.645
388.62	8.297
388.98	7.801
389.34	8.448
389.70	7.664
390.06	8.365
390.42	8.366
390.77	7.634
391.13	7.913
391.49	7.931
391.85	7.957
392.20	7.256
392.56	7.513
392.92	7.593
393.28	6.923
393.64	7.614
393.99	8.369
394.35	7.382
394.71	7.967
395.07	7.788
395.42	8.158
395.78	8.270
396.14	8.318
396.50	8.521
396.85	8.328
397.21	8.015
397.57	8.184
397.92	8.534
398.28	7.848
398.64	8.303
399.00	7.555
399.35	7.389
399.71	7.581
400.07	7.983
400.42	7.730
400.78	8.806
401.14	7.378
401.49	7.403
401.85	7.078
402.21	7.605
402.57	7.341
402.92	7.692
403.28	8.495
403.63	7.364
403.99	7.134
404.35	7.576
404.70	7.014
405.06	7.338
405.42	8.110
405.77	7.314
406.13	7.675
406.49	7.629
406.84	7.147
407.20	7.329
407.55	8.105
407.91	8.000
408.27	7.020
408.62	7.164
408.98	7.108
409.34	7.626
409.69	7.871
410.05	7.993
410.40	7.278
410.76	7.527
411.11	7.961
411.47	7.859
411.83	7.269
412.18	7.792
412.54	6.725
412.89	7.651
413.25	7.615
413.60	7.659
413.96	7.529
414.31	7.959
414.67	7.985
415.03	6.954
415.38	8.505
415.74	8.360
416.09	8.361
416.45	7.564
416.80	7.138
417.16	8.646
417.51	8.096
417.87	7.450
418.22	7.634
418.58	8.005
418.93	8.231
419.29	8.084
419.64	8.060
420.00	8.354
420.35	8.116
420.71	7.950
421.06	7.578
421.42	7.778
421.77	7.960
422.12	6.794
422.48	6.854
422.83	7.746
423.19	7.624
423.54	7.777
423.90	8.058
424.25	7.873
424.61	7.738
424.96	7.813
425.31	7.586
425.67	7.528
426.02	8.114
426.38	8.120
426.73	7.665
427.09	8.328
427.44	7.476
427.79	7.303
428.15	7.857
428.50	7.782
428.85	8.462
429.21	7.620
429.56	7.413
429.92	7.247
430.27	7.249
430.62	7.015
430.98	7.421
431.33	7.113
431.68	7.801
432.04	7.455
432.39	7.481
432.74	7.181
433.10	7.753
433.45	7.930
433.80	7.095
434.16	7.853
434.51	7.842
434.86	7.925
435.22	7.393
435.57	7.964
435.92	7.373
436.28	8.185
436.63	8.223
436.98	8.185
437.34	8.766
437.69	8.285
438.04	7.589
438.39	7.642
438.75	8.425
439.10	7.821
439.45	8.028
439.81	7.553
440.16	7.115
440.51	7.791
440.86	8.743
441.22	7.898
441.57	8.121
441.92	7.830
442.27	7.266
442.63	7.425
442.98	8.620
443.33	7.935
443.68	7.796
444.03	7.272
444.39	6.962
444.74	7.522
445.09	8.086
445.44	7.654
445.79	7.521
446.15	8.576
446.50	7.270
446.85	7.760
447.20	7.598
447.55	7.873
447.91	7.998
448.26	7.735
448.61	7.688
448.96	9.025
449.31	8.268
449.66	7.878
450.02	7.855
450.37	8.050
450.72	7.727
451.07	7.983
451.42	7.781
451.77	8.749
452.12	7.794
452.47	8.893
452.83	7.751
453.18	8.741
453.53	8.411
453.88	7.974
454.23	8.368
454.58	8.904
454.93	9.154
455.28	7.419
455.63	8.617
455.98	8.690
456.34	7.726
456.69	8.391
457.04	8.607
457.39	7.832
457.74	7.951
458.09	8.453
458.44	8.267
458.79	7.592
459.14	8.747
459.49	7.998
459.84	7.258
460.19	8.014
460.54	7.581
460.89	8.502
461.24	8.379
461.59	8.948
461.94	8.076
462.29	8.546
462.64	8.424
462.99	9.044
463.34	9.333
463.69	8.443
464.04	8.754
464.39	9.275
464.74	8.794
465.09	8.685
465.44	7.756
465.79	7.215
466.14	8.758
466.49	7.731
466.84	9.282
467.19	9.294
467.54	8.750
467.89	8.403
468.24	8.551
468.59	8.791
468.94	7.514
469.29	8.226
469.64	9.505
469.99	8.187
470.34	8.454
470.68	8.836
471.03	9.388
471.38	8.478
471.73	9.061
472.08	9.211
472.43	8.794
472.78	8.361
473.13	8.729
473.48	8.801
473.83	8.598
474.17	8.090
474.52	9.367
474.87	9.340
475.22	8.880
475.57	8.168
475.92	8.444
476.27	8.625
476.61	8.163
476.96	7.916
477.31	7.797
477.66	8.534
478.01	7.841
478.36	8.355
478.70	7.321
479.05	8.040
479.40	7.830
479.75	7.880
480.10	7.555
480.45	7.901
480.79	7.740
481.14	7.877
481.49	7.879
481.84	7.956
482.19	8.133
482.53	7.982
482.88	8.004
483.23	8.037
483.58	8.326
483.92	7.966
484.27	7.146
484.62	8.060
484.97	7.844
485.31	7.568
485.66	7.153
486.01	6.301
486.36	5.849
486.70	5.930
487.05	6.405
487.40	6.818
487.75	6.818
488.09	6.915
488.44	7.138
488.79	7.740
489.13	8.136
489.48	7.586
489.83	7.337
490.17	7.935
490.52	7.662
490.87	7.734
491.22	7.731
491.56	7.563
491.91	8.236
492.26	8.176
492.60	8.249
492.95	7.671
493.30	8.178
493.64	7.606
493.99	7.614
494.34	7.956
494.68	8.333
495.03	8.271
495.37	8.469
495.72	8.674
496.07	8.677
496.41	7.566
496.76	7.872
497.11	8.149
497.45	8.291
497.80	8.301
498.14	7.778
498.49	8.098
498.84	8.581
499.18	7.905
499.53	8.072
499.87	8.434
500.22	8.620
500.56	8.544
500.91	7.596
501.26	8.013
501.60	9.018
501.95	8.341
502.29	8.903
502.64	7.775
502.98	8.602
503.33	8.044
503.67	8.121
504.02	7.951
504.36	8.470
504.71	7.865
505.06	8.578
505.40	8.508
505.75	8.293
506.09	8.309
506.44	7.795
506.78	8.329
507.13	8.531
507.47	8.939
507.82	8.713
508.16	8.612
508.51	8.676
508.85	8.491
509.19	8.827
509.54	9.133
509.88	8.655
510.23	8.329
510.57	9.649
510.92	9.011
511.26	8.684
511.61	8.766
511.95	8.351
512.30	8.431
512.64	9.404
512.98	8.628
513.33	9.636
513.67	8.431
514.02	8.496
514.36	9.121
514.70	9.186
515.05	8.756
515.39	9.534
515.74	9.009
516.08	9.503
516.42	9.267
516.77	9.532
517.11	8.768
517.46	9.650
517.80	9.466
518.14	8.686
518.49	9.335
518.83	9.432
519.17	9.353
519.52	9.394
519.86	9.298
520.20	9.306
520.55	10.114
520.89	9.732
521.23	9.530
521.58	10.564
521.92	10.104
522.26	9.213
522.61	9.969
522.95	9.147
523.29	9.677
523.64	10.000
523.98	9.365
524.32	10.193
524.66	9.862
525.01	9.620
525.35	9.665
525.69	9.729
526.04	9.844
526.38	9.945
526.72	10.061
527.06	9.605
527.41	9.530
527.75	10.096
528.09	10.212
528.43	10.389
528.78	9.834
529.12	9.636
529.46	9.859
529.80	9.715
530.15	10.467
530.49	8.615
530.83	10.063
531.17	9.987
531.51	10.960
531.86	9.806
532.20	10.300
532.54	9.865
532.88	10.141
533.22	9.994
533.57	10.370
533.91	9.753
534.25	10.207
534.59	10.189
534.93	10.173
535.27	10.139
535.62	9.951
535.96	9.730
536.30	10.490
536.64	10.431
536.98	10.617
537.32	10.138
537.66	10.467
538.01	9.809
538.35	10.407
538.69	10.913
539.03	10.136
539.37	10.288
539.71	8.944
540.05	9.608
540.39	9.502
540.73	9.832
541.07	11.551
541.42	9.850
541.76	11.226
542.10	10.414
542.44	10.132
542.78	10.211
543.12	9.853
543.46	10.885
543.80	10.540
544.14	10.013
544.48	10.349
544.82	9.365
545.16	11.061
545.50	10.219
545.84	10.551
546.18	9.832
546.52	10.599
546.86	10.309
547.20	10.789
547.54	10.554
547.88	11.416
548.22	10.149
548.56	9.623
548.90	9.731
549.24	9.832
549.58	10.641
549.92	10.165
550.26	10.014
550.60	10.927
550.94	10.493
551.28	10.168
551.62	10.568
551.96	10.246
552.30	11.468
552.64	10.953
552.98	10.644
553.32	10.722
553.66	10.498
554.00	10.913
554.34	10.766
554.68	11.230
555.02	11.072
555.36	10.717
555.69	10.284
556.03	9.892
556.37	10.368
556.71	9.754
557.05	10.924
557.39	11.127
557.73	10.939
558.07	11.095
558.41	10.420
558.75	11.389
559.08	11.111
559.42	10.884
559.76	11.103
560.10	10.421
560.44	11.181
560.78	9.514
561.12	10.158
561.45	11.082
561.79	10.349
562.13	10.463
562.47	10.724
562.81	10.460
563.15	10.769
563.48	11.008
563.82	10.568
564.16	10.203
564.50	10.221
564.84	10.051
565.17	9.846
565.51	9.776
565.85	10.723
566.19	10.081
566.52	10.956
566.86	9.946
567.20	10.318
567.54	10.160
567.88	9.506
568.21	10.212
568.55	10.061
568.89	8.998
569.23	8.913
569.56	8.907
569.90	8.642
570.24	8.611
570.57	8.399
570.91	7.983
571.25	8.122
571.59	8.719
571.92	7.748
572.26	8.203
572.60	8.108
572.93	8.066
573.27	8.548
573.61	8.124
573.95	8.243
574.28	7.462
574.62	7.702
574.96	7.933
575.29	7.832
575.63	7.444
575.97	7.706
576.30	7.966
576.64	8.062
576.98	7.730
577.31	7.486
577.65	7.600
577.98	7.579
578.32	7.208
578.66	7.400
578.99	7.875
579.33	7.432
579.67	7.662
580.00	8.032
580.34	7.784
580.67	7.776
581.01	7.870
581.35	7.507
581.68	7.644
582.02	7.294
582.35	6.980
582.69	7.201
583.02	7.261
583.36	7.793
583.70	7.792
584.03	8.124
584.37	8.248
584.70	7.863
585.04	7.926
585.37	7.759
585.71	8.106
586.04	7.731
586.38	8.098
586.72	8.699
587.05	7.905
587.39	7.546
587.72	7.962
588.06	7.951
588.39	7.929
588.73	8.126
589.06	8.445
589.40	8.384
589.73	8.237
590.07	8.577
590.40	8.440
590.73	8.782
591.07	9.605
591.40	9.026
591.74	9.740
592.07	9.511
592.41	9.632
592.74	8.464
593.08	8.594
593.41	8.637
593.75	7.995
594.08	8.314
594.41	8.731
594.75	8.725
595.08	9.091
595.42	8.897
595.75	8.689
596.09	9.012
596.42	9.430
596.75	9.202
597.09	9.654
597.42	8.769
597.75	9.444
598.09	9.652
598.42	9.278
598.76	8.877
599.09	8.514
599.42	8.479
599.76	8.419
600.09	8.415
600.42	8.181
600.76	8.536
601.09	8.306
601.42	8.752
601.76	9.070
602.09	8.854
602.42	8.838
602.76	9.472
603.09	9.087
603.42	9.098
603.76	8.727
604.09	8.298
604.42	9.172
604.76	9.026
605.09	8.606
605.42	8.764
605.75	8.651
606.09	8.459
606.42	9.031
606.75	9.000
607.09	9.669
607.42	8.815
607.75	8.819
608.08	9.205
608.42	9.727
608.75	9.288
609.08	9.019
609.41	9.995
609.75	9.100
610.08	10.273
610.41	8.473
610.74	9.177
611.07	9.091
611.41	9.127
611.74	9.854
612.07	9.265
612.40	9.759
612.73	8.842
613.07	9.644
613.40	10.163
613.73	9.072
614.06	9.570
614.39	9.334
614.72	9.947
615.06	10.084
615.39	8.758
615.72	9.560
616.05	9.197
616.38	9.894
616.71	9.620
617.05	10.365
617.38	9.681
617.71	9.790
618.04	10.276
618.37	10.171
618.70	10.392
619.03	10.855
619.36	10.794
619.69	10.141
620.03	10.852
620.36	11.029
620.69	11.301
621.02	10.693
621.35	10.807
621.68	10.514
622.01	10.449
622.34	10.893
622.67	9.962
623.00	9.831
623.33	10.865
623.66	11.079
623.99	9.720
624.32	11.341
624.65	9.816
624.99	10.198
625.32	10.862
625.65	11.119
625.98	11.760
626.31	11.275
626.64	12.082
626.97	12.386
627.30	11.222
627.63	11.403
627.96	11.438
628.29	12.073
628.62	11.436
628.95	13.113
629.28	11.679
629.61	12.924
629.94	11.619
630.26	12.011
630.59	11.630
630.92	12.644
631.25	12.340
631.58	12.613
631.91	12.475
632.24	12.131
632.57	12.802
632.90	12.939
633.23	12.081
633.56	13.672
633.89	13.477
634.22	13.280
634.55	13.491
634.88	12.455
635.20	14.098
635.53	14.458
635.86	12.748
636.19	13.412
636.52	13.610
636.85	13.288
637.18	11.175
637.51	13.121
637.83	10.851
638.16	13.171
638.49	15.239
638.82	15.044
639.15	13.625
639.48	14.713
639.81	13.405
640.13	15.755
640.46	14.497
640.79	15.588
641.12	12.792
641.45	13.687
641.77	15.169
642.10	14.474
642.43	13.964
642.76	13.932
643.09	15.031
643.41	13.809
643.74	16.512
644.07	15.396
644.40	15.184
644.73	16.378
645.05	17.274
645.38	14.850
645.71	15.298
646.04	16.611
646.36	17.362
646.69	15.886
647.02	16.327
647.35	15.636
647.67	16.991
648.00	14.797
648.33	15.677
648.66	15.152
648.98	15.742
649.31	13.752
649.64	14.649
649.96	15.350
650.29	15.482
650.62	14.239
650.94	16.370
651.27	17.230
651.60	15.973
651.92	18.371
652.25	14.169
652.58	14.486
652.90	14.534
653.23	14.330
653.56	15.591
653.88	16.799
654.21	16.904
654.54	15.677
654.86	15.888
655.19	13.108
655.52	7.950
655.84	5.661
656.17	7.022
656.49	9.164
656.82	9.608
657.15	7.632
657.47	5.762
657.80	4.682
658.13	4.915
658.45	7.656
658.78	8.017
659.10	8.879
659.43	9.530
659.75	9.870
660.08	11.392
660.41	14.432
660.73	14.104
661.06	16.561
661.38	17.818
661.71	19.038
662.03	17.554
662.36	15.109
662.68	17.470
663.01	20.404
663.33	17.834
663.66	16.807
663.98	17.279
664.31	16.597
664.63	16.194
664.96	16.097
665.28	18.033
665.61	16.959
665.93	15.493
666.26	17.850
666.58	16.527
666.91	19.027
667.23	17.528
667.56	16.415
667.88	18.162
668.21	17.910
668.53	17.787
668.86	17.749
669.18	17.484
669.50	18.913
669.83	20.479
670.15	17.556
670.48	15.468
670.80	17.457
671.13	19.108
671.45	17.234
671.77	20.367
672.10	16.636
672.42	16.431
672.75	15.920
673.07	16.021
673.39	13.562
673.72	16.406
674.04	16.078
674.37	16.311
674.69	15.951
675.01	18.410
675.34	19.713
675.66	18.316
675.98	18.126
676.31	17.857
676.63	17.834
676.95	17.610
677.28	16.822
677.60	18.022
677.92	18.143
678.25	15.606
678.57	15.936
678.89	18.437
679.22	16.896
679.54	15.840
679.86	19.083
680.18	15.027
680.51	16.844
680.83	16.014
681.15	17.547
681.48	18.336
681.80	16.634
682.12	13.793
682.44	15.280
682.77	16.701
683.09	20.601
683.41	18.182
683.73	18.764
684.06	18.388
684.38	17.613
684.70	13.953
685.02	17.073
685.34	14.652
685.67	13.112
685.99	14.605
686.31	15.700
686.63	13.604
686.96	15.000
687.28	14.079
687.60	13.949
687.92	16.271
688.24	15.589
688.56	17.068
688.89	19.710
689.21	18.559
689.53	19.624
689.85	19.069
690.17	17.391
690.49	19.745
690.82	18.925
691.14	15.402
691.46	17.089
691.78	18.675
692.10	17.975
692.42	19.960
692.74	15.145
693.06	18.298
693.39	16.632
693.71	15.502
694.03	19.789
694.35	17.100
694.67	14.645
694.99	20.000
695.31	16.667
695.63	17.703
695.95	16.381
696.27	17.513
696.59	19.430
696.91	16.839
697.23	16.197
697.56	17.484
697.88	16.769
698.20	17.292
698.52	17.634
698.84	18.263
699.16	19.124
699.48	18.527
699.80	17.150
700.12	23.377
700.44	21.751
700.76	20.166
701.08	19.540
701.40	18.715
701.72	22.449
702.04	25.852
702.36	19.263
702.68	20.397
703.00	19.945
703.32	19.415
703.64	20.643
703.96	20.891
704.28	18.895
704.60	21.408
704.91	19.585
705.23	23.460
705.55	23.588
705.87	26.910
706.19	22.261
706.51	21.495
706.83	24.545
707.15	22.689
707.47	16.919
707.79	17.690
708.11	21.005
708.43	20.000
708.74	18.367
709.06	19.221
709.38	18.110
709.70	21.221
710.02	20.475
710.34	17.879
710.66	22.388
710.98	21.591
711.29	24.419
711.61	28.319
711.93	19.551
712.25	23.473
712.57	24.632
712.89	23.183
713.20	20.669
713.52	22.697
713.84	20.886
714.16	21.951
714.48	21.839
714.80	21.884
715.11	17.867
715.43	18.991
715.75	18.261
716.07	17.891
716.39	23.511
716.70	25.581
717.02	25.180
717.34	25.088
717.66	27.612
717.97	29.482
718.29	27.778
718.61	22.993
718.93	26.471
719.24	25.260
719.56	24.407
719.88	25.424
720.20	27.365
720.51	24.390
720.83	25.651
721.15	25.373
721.46	27.305
721.78	23.297
722.10	22.642
722.42	25.940
722.73	20.225
723.05	22.951
723.37	23.887
723.68	26.641
724.00	24.390
724.32	23.387
724.63	28.455
724.95	24.686
725.27	27.530
725.58	27.344
725.90	25.547
726.22	23.774
726.53	25.000
726.85	21.843
727.16	22.776
727.48	23.759
727.80	29.167
728.11	24.275
728.43	22.308
728.74	24.731
729.06	25.912
729.38	30.882
729.69	26.690
730.01	20.819
730.32	23.611
730.64	23.746
730.96	20.132
731.27	23.841
731.59	18.960
731.90	25.073
732.22	21.429
732.53	18.576
732.85	23.077
733.16	21.222
733.48	22.591
733.80	25.000
734.11	23.567
734.43	21.893
734.74	16.857
735.06	18.625
735.37	21.098
735.69	20.382
736.00	22.222
736.32	23.988
736.63	21.725
736.95	23.642
737.26	18.707
737.58	18.710
737.89	24.415
738.21	21.160
738.52	26.429
738.83	20.755
739.15	23.462
739.46	25.182
739.78	23.958
740.09	24.000
740.41	23.871
740.72	17.073
741.04	23.333
741.35	25.833
741.66	28.889
741.98	24.528
742.29	30.622
742.61	29.310
742.92	26.697
743.23	26.923
743.55	26.800
743.86	21.491
744.18	30.088
744.49	30.144
744.80	29.577
745.12	31.364
745.43	28.634
745.74	31.081
746.06	28.440
746.37	27.354
746.68	29.412
747.00	30.093
747.31	26.190
747.62	26.106
747.94	25.551
748.25	25.957
748.56	29.075
748.88	28.713
749.19	32.000
749.50	28.837
749.82	26.423
750.13	22.449
750.44	25.912
750.75	24.561
751.07	28.617
751.38	26.481
751.69	21.300
752.01	26.692
752.32	22.744
752.63	24.468
752.94	22.541
753.26	28.800
753.57	22.764
753.88	27.344
754.19	23.929
754.51	28.125
754.82	19.134
755.13	25.283
755.44	25.940
755.75	22.993
756.07	19.149
756.38	19.708
756.69	23.826
757.00	20.359
757.31	23.739
757.63	16.667
757.94	21.180
758.25	20.343
758.56	18.765
758.87	16.398
759.18	22.121
759.50	21.630
759.81	18.069
760.12	20.312
760.43	22.636
760.74	19.565
761.05	19.774
761.36	14.439
761.67	20.455
761.99	20.807
762.30	23.264
762.61	25.954
762.92	25.000
763.23	23.109
763.54	28.000
763.85	24.219
764.16	28.077
764.47	30.418
764.78	20.848
765.10	19.620
765.41	22.714
765.72	19.760
766.03	21.944
766.34	22.667
766.65	28.085
766.96	25.641
767.27	32.487
767.58	33.333
767.89	37.368
768.20	33.333
768.51	28.934
768.82	26.606
769.13	24.797
769.44	25.101
769.75	25.322
770.06	24.312
770.37	28.054
770.68	29.630
770.99	22.222
771.30	25.410
771.61	27.803
771.92	29.508
772.23	33.613
772.54	29.231
772.85	27.749
773.16	31.915
773.47	34.239
773.78	37.056
774.09	30.952
774.39	38.012
774.70	33.951
775.01	38.406
775.32	45.752
775.63	38.158
775.94	33.813
776.25	48.031
776.56	50.746
776.87	52.459
777.18	42.188
777.48	52.672
777.79	49.242
778.10	44.444
778.41	41.071
778.72	35.036
779.03	40.940
779.34	34.899
779.65	37.162
779.95	34.969
780.26	34.641
780.57	44.138
780.88	52.344
781.19	42.857
781.50	42.568
781.80	33.333
782.11	32.203
782.42	34.177
782.73	34.356
783.04	33.784
783.34	38.028
783.65	46.575
783.96	38.806
784.27	38.462
784.57	37.410
784.88	43.519
785.19	52.381
785.50	41.509
785.81	44.776
786.11	50.000
786.42	48.062
786.73	46.018
787.04	51.887
787.34	39.286
787.65	53.000
787.96	45.946
788.26	43.802
788.57	58.475
788.88	47.107
789.19	49.306
789.49	48.485
789.80	53.435
790.11	52.381
790.41	52.475
790.72	67.470
791.03	54.348
791.33	48.837
791.64	57.732
791.95	56.436
792.25	51.111
792.56	66.234
792.87	71.795
793.17	82.278
793.48	64.368
793.79	62.069
794.09	60.227
794.40	52.101
794.70	53.676
795.01	41.481
795.32	41.007
795.62	40.945
795.93	54.310
796.23	51.327
796.54	62.353
796.85	75.676
797.15	81.690
797.46	65.152
797.76	77.108
798.07	60.759
798.37	73.846
798.68	69.697
798.99	66.197
799.29	59.740
799.60	65.909
799.90	78.082
800.21	74.627
800.51	81.034
800.82	70.175
801.12	81.967
801.43	101.515
801.73	72.973
802.04	111.111
802.34	70.370
802.65	76.563
802.95	84.746
803.26	87.500
803.56	74.286
803.87	76.923
804.17	70.588
804.48	105.556
804.78	75.862
805.09	85.294
805.39	88.462
805.70	87.500
806.00	93.443
806.30	75.758
806.61	65.854
806.91	58.228
807.22	77.632
807.52	74.627
807.83	80.282
808.13	87.500
808.43	90.000
808.74	77.632
809.04	73.913
809.35	80.597
809.65	78.947
809.95	96.774
810.26	94.915
810.56	76.190
810.86	113.636
811.17	111.905
811.47	105.000
811.77	103.704
812.08	107.273
812.38	106.000
812.69	119.444
812.99	138.636
813.29	114.286
813.59	97.619
813.90	102.041
814.20	90.909
814.50	69.231
814.81	95.588
815.11	108.163
815.41	86.885
815.72	114.286
816.02	96.364
816.32	126.190
816.62	115.000
816.93	121.951
817.23	133.333
817.53	120.455
817.84	154.545
818.14	119.565
818.44	106.667
818.74	152.941
819.04	120.000
819.35	162.857
819.65	129.412
819.95	157.143
820.25	245.000
820.56	141.026
820.86	131.818
821.16	141.860
821.46	117.949
821.76	122.000
822.07	145.714
822.37	137.500
822.67	154.545
822.97	100.000
823.27	207.143
823.57	140.541
823.88	157.500
824.18	190.000
824.48	150.000
824.78	244.000
825.08	179.167
825.38	148.649
825.69	134.146
825.99	208.333
826.29	168.966
826.59	150.000
826.89	123.684
827.19	176.471
827.49	164.516
827.79	129.545
828.09	104.545
828.39	108.511
828.70	124.490
829.00	170.370
829.30	170.968
829.60	122.500
829.90	246.667
830.20	185.714
830.50	182.609
830.80	204.348
831.10	183.333
831.40	200.000
831.70	173.913
832.00	173.077
832.30	181.481
832.60	300.000
832.90	193.333
833.20	421.429
833.50	200.000
833.80	186.207
834.10	215.625
834.40	215.385
834.70	261.111
835.00	285.714
835.30	154.286
835.60	315.385
835.90	158.621
836.20	357.143
836.50	217.241
836.80	192.000
837.10	147.222
837.40	276.190
837.70	288.235
838.00	192.593
838.30	233.333
838.60	276.190
838.90	211.538
839.19	275.000
839.49	292.857
839.79	355.000
840.09	210.000
840.39	257.143
840.69	247.826
840.99	227.778
841.29	460.000
841.59	358.333
841.88	331.250
842.18	182.759
842.48	266.667
842.78	190.000
843.08	213.043
843.38	162.500
843.68	816.667
843.97	215.385
844.27	182.759
844.57	300.000
844.87	356.250
845.17	229.630
845.47	1400.000
845.76	366.667
846.06	288.235
846.36	425.000
846.66	371.429
846.96	287.500
847.25	336.364
847.55	336.364
847.85	252.174
848.15	440.000
848.44	385.714
848.74	255.556
849.04	258.824
849.34	580.000
849.63	247.368
849.93	463.636
850.23	900.000
850.53	400.000
850.82	2200.000
851.12	-4500.000
851.42	4600.000
851.71	275.000
852.01	-1233.333
852.31	216.667
852.61	1300.000
852.90	333.333
853.20	240.000
853.50	341.176
853.79	233.333
854.09	175.000
854.39	312.500
854.68	164.865
854.98	177.419
855.28	180.000
855.57	182.759
855.87	181.481
856.17	226.316
856.46	260.000
856.76	294.118
857.05	148.276
857.35	245.833
857.65	320.000
857.94	252.174
858.24	211.538
858.53	295.000
858.83	209.091
859.13	360.000
859.42	0.000
859.72	566.667
860.01	427.273
860.31	218.182
860.60	284.211
860.90	278.261
861.20	566.667
861.49	466.667
861.79	-5100.000
862.08	650.000
862.38	285.714
862.67	338.462
862.97	352.941
863.26	488.889
863.56	300.000
863.85	341.667
864.15	587.500
864.44	346.667
864.74	750.000
865.03	725.000
865.33	257.895
865.62	418.182
865.92	400.000
866.21	341.667
866.51	0.000
866.80	436.364
867.10	1120.000
867.39	392.308
867.69	427.273
867.98	289.474
868.27	463.636
868.57	310.526
868.86	-4000.000
869.16	350.000
869.45	2250.000
869.75	-4000.000
870.04	425.000
870.33	628.571
870.63	1100.000
870.92	2200.000
871.22	614.286
871.51	282.353
871.80	261.905
872.10	400.000
>>>>>End Processed Spectral Data<<<<<
