SpectraSuite Data File
++++++++++++++++++++++++++++++++++++
Date: Wed May 13 16:40:06 PDT 2015
User: schluterlab
Dark Spectrum Present: Yes
Reference Spectrum Present: Yes
Number of Sampled Component Spectra: 1
Spectrometers: USB2E3373
Integration Time (usec): 3000 (USB2E3373)
Spectra Averaged: 3 (USB2E3373)
Boxcar Smoothing: 0 (USB2E3373)
Correct for Electrical Dark: No (USB2E3373)
Strobe/Lamp Enabled: No (USB2E3373)
Correct for Detector Non-linearity: No (USB2E3373)
Correct for Stray Light: No (USB2E3373)
Number of Pixels in Processed Spectrum: 2048
>>>>>Begin Processed Spectral Data<<<<<
178.53	0.000
178.91	-1400.000
179.29	-1375.000
179.67	-233.333
180.04	-1350.000
180.42	2950.000
180.80	1140.000
181.18	-1025.000
181.56	685.714
181.94	0.000
182.31	-800.000
182.69	1666.667
183.07	-600.000
183.45	-466.667
183.83	509.091
184.20	-360.000
184.58	2650.000
184.96	5500.000
185.34	-980.000
185.72	-625.000
186.09	-2150.000
186.47	2300.000
186.85	2550.000
187.23	5600.000
187.61	-1566.667
187.98	1325.000
188.36	509.091
188.74	536.364
189.12	-1020.000
189.49	550.000
189.87	-5100.000
190.25	-1125.000
190.63	428.571
191.00	376.923
191.38	900.000
191.76	-1325.000
192.14	1375.000
192.51	700.000
192.89	983.333
193.27	575.000
193.65	-1300.000
194.02	510.000
194.40	900.000
194.78	590.000
195.15	491.667
195.53	650.000
195.91	-2150.000
196.29	400.000
196.66	278.947
197.04	-380.000
197.42	0.000
197.79	530.000
198.17	-4800.000
198.55	614.286
198.92	762.500
199.30	1020.000
199.68	0.000
200.05	333.333
200.43	814.286
200.81	5000.000
201.18	1400.000
201.56	-1400.000
201.94	566.667
202.31	655.556
202.69	466.667
203.07	600.000
203.44	0.000
203.82	1275.000
204.19	800.000
204.57	435.714
204.95	575.000
205.32	1600.000
205.70	490.909
206.08	414.286
206.45	2850.000
206.83	387.500
207.20	950.000
207.58	740.000
207.96	338.889
208.33	650.000
208.71	-966.667
209.08	757.143
209.46	722.222
209.84	581.818
210.21	-1333.333
210.59	1475.000
210.96	-637.500
211.34	2150.000
211.71	620.000
212.09	883.333
212.46	0.000
212.84	1566.667
213.22	1475.000
213.59	-5600.000
213.97	883.333
214.34	671.429
214.72	618.182
215.09	1040.000
215.47	-2150.000
215.84	-2350.000
216.22	1633.333
216.59	428.571
216.97	1425.000
217.34	600.000
217.72	-700.000
218.09	0.000
218.47	-4900.000
218.84	566.667
219.22	814.286
219.59	1600.000
219.97	-557.143
220.34	920.000
220.72	-1500.000
221.09	392.857
221.47	1225.000
221.84	-750.000
222.22	0.000
222.59	1475.000
222.97	-2800.000
223.34	1120.000
223.72	376.923
224.09	980.000
224.46	2000.000
224.84	-5600.000
225.21	-860.000
225.59	-4700.000
225.96	590.000
226.34	300.000
226.71	2950.000
227.08	700.000
227.46	520.000
227.83	-800.000
228.21	-2000.000
228.58	666.667
228.95	-2200.000
229.33	-3150.000
229.70	1700.000
230.08	714.286
230.45	-780.000
230.82	450.000
231.20	1016.667
231.57	700.000
231.95	466.667
232.32	240.909
232.69	400.000
233.07	814.286
233.44	369.231
233.81	-1566.667
234.19	342.105
234.56	416.667
234.93	416.667
235.31	472.727
235.68	369.231
236.05	328.571
236.43	184.848
236.80	257.895
237.17	3900.000
237.55	204.762
237.92	210.714
238.29	257.143
238.67	190.323
239.04	203.448
239.41	141.667
239.79	121.739
240.16	140.476
240.53	156.818
240.91	103.922
241.28	140.000
241.65	124.000
242.02	92.754
242.40	104.839
242.77	95.000
243.14	90.323
243.51	80.899
243.89	80.000
244.26	77.778
244.63	60.215
245.00	65.957
245.38	76.238
245.75	70.093
246.12	61.468
246.49	64.234
246.87	72.800
247.24	61.538
247.61	65.714
247.98	53.595
248.36	52.027
248.73	56.688
249.10	51.592
249.47	50.847
249.84	52.941
250.22	42.781
250.59	57.396
250.96	48.485
251.33	51.185
251.70	48.515
252.08	44.286
252.45	45.740
252.82	39.565
253.19	45.106
253.56	38.431
253.94	44.813
254.31	44.922
254.68	49.615
255.05	39.114
255.42	42.683
255.79	43.750
256.16	41.516
256.54	45.230
256.91	45.196
257.28	36.691
257.65	38.614
258.02	37.267
258.39	38.170
258.76	40.134
259.14	36.905
259.51	37.994
259.88	33.851
260.25	39.577
260.62	37.861
260.99	37.888
261.36	38.739
261.73	36.963
262.10	34.593
262.47	35.493
262.85	37.047
263.22	31.909
263.59	37.322
263.96	35.440
264.33	35.248
264.70	34.211
265.07	33.248
265.44	35.859
265.81	32.117
266.18	35.930
266.55	33.659
266.92	35.872
267.29	34.259
267.66	34.174
268.03	31.364
268.40	32.243
268.77	31.265
269.14	31.757
269.51	33.860
269.88	33.566
270.25	30.248
270.62	33.708
270.99	33.978
271.36	32.403
271.73	33.645
272.10	35.870
272.47	31.828
272.84	32.251
273.21	28.302
273.58	31.004
273.95	29.769
274.32	32.231
274.69	30.835
275.06	27.559
275.43	33.830
275.80	33.066
276.17	31.976
276.54	30.769
276.91	31.818
277.28	30.273
277.65	32.302
278.02	30.435
278.39	34.570
278.76	29.818
279.13	30.377
279.50	30.168
279.87	31.076
280.23	30.938
280.60	29.014
280.97	29.945
281.34	30.973
281.71	30.727
282.08	32.246
282.45	27.455
282.82	27.709
283.19	27.451
283.56	27.895
283.92	29.780
284.29	27.690
284.66	30.127
285.03	29.295
285.40	29.225
285.77	29.125
286.14	26.598
286.51	29.500
286.87	28.547
287.24	27.036
287.61	28.411
287.98	26.786
288.35	28.368
288.72	27.103
289.08	27.074
289.45	26.359
289.82	26.341
290.19	25.589
290.56	25.115
290.93	25.982
291.29	26.534
291.66	25.221
292.03	26.890
292.40	26.579
292.77	23.521
293.13	25.522
293.50	24.927
293.87	23.704
294.24	23.556
294.60	25.036
294.97	24.709
295.34	23.554
295.71	23.864
296.08	23.219
296.44	21.871
296.81	22.061
297.18	25.068
297.55	20.844
297.91	21.900
298.28	24.766
298.65	21.540
299.02	22.398
299.38	21.780
299.75	21.698
300.12	21.967
300.48	21.000
300.85	21.948
301.22	21.656
301.59	21.843
301.95	22.166
302.32	21.438
302.69	21.386
303.05	21.091
303.42	21.358
303.79	20.498
304.15	18.648
304.52	19.467
304.89	20.325
305.25	20.070
305.62	19.479
305.99	20.425
306.35	19.799
306.72	19.170
307.09	20.422
307.45	22.185
307.82	19.085
308.19	21.192
308.55	22.330
308.92	20.945
309.29	20.697
309.65	18.346
310.02	19.133
310.38	18.710
310.75	19.113
311.12	19.140
311.48	20.376
311.85	20.545
312.22	21.124
312.58	18.919
312.95	20.169
313.31	18.350
313.68	19.439
314.05	20.414
314.41	20.201
314.78	18.933
315.14	19.067
315.51	18.847
315.87	19.703
316.24	18.471
316.61	19.298
316.97	17.906
317.34	18.200
317.70	18.642
318.07	19.153
318.43	19.276
318.80	19.400
319.16	18.832
319.53	18.949
319.89	20.381
320.26	19.200
320.62	18.750
320.99	19.091
321.35	19.192
321.72	18.275
322.08	18.361
322.45	21.493
322.81	20.543
323.18	19.461
323.54	18.182
323.91	20.189
324.27	19.598
324.64	19.478
325.00	18.936
325.37	20.018
325.73	20.557
326.10	19.594
326.46	18.638
326.83	20.017
327.19	19.129
327.56	19.077
327.92	19.423
328.29	20.408
328.65	19.613
329.01	20.217
329.38	18.779
329.74	18.837
330.11	20.075
330.47	18.365
330.84	20.312
331.20	19.308
331.56	19.817
331.93	17.778
332.29	20.231
332.66	19.823
333.02	19.287
333.38	20.777
333.75	19.073
334.11	18.327
334.48	18.722
334.84	19.669
335.20	20.182
335.57	18.858
335.93	18.304
336.29	19.322
336.66	19.477
337.02	18.462
337.38	19.630
337.75	18.627
338.11	17.816
338.47	19.429
338.84	19.340
339.20	18.349
339.56	19.617
339.93	18.636
340.29	18.931
340.65	20.321
341.02	19.110
341.38	19.128
341.74	17.982
342.11	18.777
342.47	18.590
342.83	18.664
343.20	19.307
343.56	16.596
343.92	18.421
344.28	17.942
344.65	18.745
345.01	16.835
345.37	17.581
345.73	18.697
346.10	17.391
346.46	18.898
346.82	18.534
347.19	18.045
347.55	16.913
347.91	18.042
348.27	17.995
348.63	17.809
349.00	17.476
349.36	18.227
349.72	19.006
350.08	17.666
350.45	18.145
350.81	17.628
351.17	17.666
351.53	17.281
351.89	16.997
352.26	18.390
352.62	17.883
352.98	17.423
353.34	18.324
353.70	17.103
354.07	17.339
354.43	17.540
354.79	17.377
355.15	17.398
355.51	16.707
355.87	17.388
356.24	18.078
356.60	17.081
356.96	16.814
357.32	16.435
357.68	17.480
358.04	17.736
358.40	17.656
358.77	17.136
359.13	16.732
359.49	16.863
359.85	15.714
360.21	17.305
360.57	17.665
360.93	17.615
361.29	16.478
361.66	16.718
362.02	16.269
362.38	17.262
362.74	16.592
363.10	17.024
363.46	16.141
363.82	17.158
364.18	15.565
364.54	17.533
364.90	17.635
365.26	15.882
365.62	16.362
365.98	15.924
366.35	16.261
366.71	16.703
367.07	16.315
367.43	16.836
367.79	17.202
368.15	17.026
368.51	16.279
368.87	16.560
369.23	16.020
369.59	16.872
369.95	16.103
370.31	16.880
370.67	16.667
371.03	17.154
371.39	16.837
371.75	16.029
372.11	16.572
372.47	16.569
372.83	17.435
373.19	15.535
373.55	15.743
373.91	18.041
374.27	16.495
374.63	15.709
374.99	16.172
375.35	16.260
375.71	16.175
376.07	16.324
376.42	16.094
376.78	17.031
377.14	15.604
377.50	16.755
377.86	16.157
378.22	17.004
378.58	14.787
378.94	16.468
379.30	16.158
379.66	16.497
380.02	15.909
380.38	15.908
380.74	16.086
381.09	16.076
381.45	16.288
381.81	16.830
382.17	15.987
382.53	15.220
382.89	16.481
383.25	17.136
383.61	16.233
383.97	17.073
384.32	16.095
384.68	15.304
385.04	16.042
385.40	16.718
385.76	15.418
386.12	16.580
386.48	16.300
386.83	17.383
387.19	16.883
387.55	16.512
387.91	15.780
388.27	16.554
388.62	17.333
388.98	15.602
389.34	17.522
389.70	16.125
390.06	17.490
390.42	16.342
390.77	16.476
391.13	16.847
391.49	17.322
391.85	16.486
392.20	15.521
392.56	16.667
392.92	16.363
393.28	16.213
393.64	16.727
393.99	16.127
394.35	16.811
394.71	16.625
395.07	15.826
395.42	16.625
395.78	16.730
396.14	16.760
396.50	17.419
396.85	16.910
397.21	16.215
397.57	15.747
397.92	16.647
398.28	15.359
398.64	17.563
399.00	16.004
399.35	15.792
399.71	17.072
400.07	17.268
400.42	15.828
400.78	16.767
401.14	16.768
401.49	16.358
401.85	15.910
402.21	15.210
402.57	16.841
402.92	15.889
403.28	16.365
403.63	15.780
403.99	16.369
404.35	15.879
404.70	16.906
405.06	16.308
405.42	16.719
405.77	15.943
406.13	16.084
406.49	16.381
406.84	16.480
407.20	15.721
407.55	15.826
407.91	16.600
408.27	16.337
408.62	17.158
408.98	15.870
409.34	16.790
409.69	16.645
410.05	15.985
410.40	16.391
410.76	15.950
411.11	16.888
411.47	16.613
411.83	16.982
412.18	16.203
412.54	16.002
412.89	16.747
413.25	16.588
413.60	16.368
413.96	16.454
414.31	16.282
414.67	16.477
415.03	17.020
415.38	17.075
415.74	16.849
416.09	17.113
416.45	16.265
416.80	16.391
417.16	17.694
417.51	17.518
417.87	16.249
418.22	15.899
418.58	15.688
418.93	16.585
419.29	16.486
419.64	17.065
420.00	16.159
420.35	16.870
420.71	16.378
421.06	16.289
421.42	16.082
421.77	16.424
422.12	15.497
422.48	15.488
422.83	16.832
423.19	15.912
423.54	16.309
423.90	16.406
424.25	16.695
424.61	16.845
424.96	17.668
425.31	15.393
425.67	16.573
426.02	16.629
426.38	17.827
426.73	16.033
427.09	16.778
427.44	16.906
427.79	16.101
428.15	16.607
428.50	16.501
428.85	16.985
429.21	15.130
429.56	15.656
429.92	16.558
430.27	16.038
430.62	15.617
430.98	15.931
431.33	15.876
431.68	16.126
432.04	16.241
432.39	16.276
432.74	15.978
433.10	16.072
433.45	16.093
433.80	16.297
434.16	16.453
434.51	16.211
434.86	16.591
435.22	15.564
435.57	16.109
435.92	15.623
436.28	17.200
436.63	16.501
436.98	16.142
437.34	17.472
437.69	17.153
438.04	15.739
438.39	16.179
438.75	17.083
439.10	17.207
439.45	17.001
439.81	15.831
440.16	16.093
440.51	16.872
440.86	17.140
441.22	16.296
441.57	15.817
441.92	15.763
442.27	16.146
442.63	16.956
442.98	17.183
443.33	16.957
443.68	16.107
444.03	16.789
444.39	15.531
444.74	16.667
445.09	17.520
445.44	16.020
445.79	16.378
446.15	16.728
446.50	15.455
446.85	15.982
447.20	16.318
447.55	16.192
447.91	15.996
448.26	15.804
448.61	16.507
448.96	16.611
449.31	17.154
449.66	16.376
450.02	16.100
450.37	15.590
450.72	16.413
451.07	15.113
451.42	15.137
451.77	17.087
452.12	16.686
452.47	16.356
452.83	16.084
453.18	15.954
453.53	16.450
453.88	15.062
454.23	16.318
454.58	16.657
454.93	17.228
455.28	15.835
455.63	15.655
455.98	16.905
456.34	16.709
456.69	16.093
457.04	17.090
457.39	16.131
457.74	16.077
458.09	16.159
458.44	16.477
458.79	15.184
459.14	16.309
459.49	16.404
459.84	16.842
460.19	15.969
460.54	15.683
460.89	15.908
461.24	15.908
461.59	16.444
461.94	16.461
462.29	16.499
462.64	16.975
462.99	16.851
463.34	17.733
463.69	16.260
464.04	16.754
464.39	16.116
464.74	16.578
465.09	16.405
465.44	16.011
465.79	15.828
466.14	16.366
466.49	16.073
466.84	15.995
467.19	15.812
467.54	17.562
467.89	15.786
468.24	16.347
468.59	17.705
468.94	16.616
469.29	16.324
469.64	16.533
469.99	16.509
470.34	16.777
470.68	17.744
471.03	16.054
471.38	16.331
471.73	16.522
472.08	17.303
472.43	16.332
472.78	15.602
473.13	16.239
473.48	16.292
473.83	16.829
474.17	15.681
474.52	16.563
474.87	17.104
475.22	16.135
475.57	15.959
475.92	15.454
476.27	16.122
476.61	16.271
476.96	15.778
477.31	15.437
477.66	16.247
478.01	15.682
478.36	16.182
478.70	15.369
479.05	15.495
479.40	15.763
479.75	16.370
480.10	15.358
480.45	15.278
480.79	14.955
481.14	15.558
481.49	15.852
481.84	15.272
482.19	15.220
482.53	15.917
482.88	15.775
483.23	15.327
483.58	15.696
483.92	15.089
484.27	14.641
484.62	15.086
484.97	15.057
485.31	15.685
485.66	14.725
486.01	13.909
486.36	13.358
486.70	13.086
487.05	13.509
487.40	14.224
487.75	14.157
488.09	14.589
488.44	14.676
488.79	15.624
489.13	14.553
489.48	15.457
489.83	14.674
490.17	15.520
490.52	15.190
490.87	14.880
491.22	15.598
491.56	14.670
491.91	15.309
492.26	15.434
492.60	15.484
492.95	14.920
493.30	15.234
493.64	14.839
493.99	15.738
494.34	15.957
494.68	15.110
495.03	15.789
495.37	14.844
495.72	15.838
496.07	15.592
496.41	14.558
496.76	14.424
497.11	15.218
497.45	14.905
497.80	15.451
498.14	14.831
498.49	15.122
498.84	15.197
499.18	14.905
499.53	15.480
499.87	15.191
500.22	15.356
500.56	15.825
500.91	14.615
501.26	16.074
501.60	15.662
501.95	14.849
502.29	15.276
502.64	15.317
502.98	15.755
503.33	15.174
503.67	14.942
504.02	15.248
504.36	15.770
504.71	15.340
505.06	15.566
505.40	15.605
505.75	15.043
506.09	15.403
506.44	15.343
506.78	15.490
507.13	15.800
507.47	16.061
507.82	15.198
508.16	16.008
508.51	15.322
508.85	15.690
509.19	15.510
509.54	15.306
509.88	15.301
510.23	15.681
510.57	16.151
510.92	15.329
511.26	14.851
511.61	15.923
511.95	15.292
512.30	15.483
512.64	15.852
512.98	15.648
513.33	15.632
513.67	15.582
514.02	16.126
514.36	15.948
514.70	16.215
515.05	15.114
515.39	15.872
515.74	15.878
516.08	16.154
516.42	15.816
516.77	16.778
517.11	15.594
517.46	16.027
517.80	16.318
518.14	14.418
518.49	15.928
518.83	16.534
519.17	15.993
519.52	16.129
519.86	16.543
520.20	16.185
520.55	16.278
520.89	16.363
521.23	16.345
521.58	16.807
521.92	16.167
522.26	15.985
522.61	16.449
522.95	15.408
523.29	16.494
523.64	17.439
523.98	16.697
524.32	16.466
524.66	16.296
525.01	17.034
525.35	16.109
525.69	16.195
526.04	16.947
526.38	16.962
526.72	15.215
527.06	17.326
527.41	15.037
527.75	16.785
528.09	17.213
528.43	15.997
528.78	15.796
529.12	15.818
529.46	17.085
529.80	16.770
530.15	16.885
530.49	16.431
530.83	18.038
531.17	17.102
531.51	17.445
531.86	16.129
532.20	16.884
532.54	17.809
532.88	17.137
533.22	16.240
533.57	16.605
533.91	16.436
534.25	16.586
534.59	16.229
534.93	16.002
535.27	16.113
535.62	16.117
535.96	17.514
536.30	15.957
536.64	16.677
536.98	16.589
537.32	16.787
537.66	16.933
538.01	16.129
538.35	17.518
538.69	17.358
539.03	16.374
539.37	16.486
539.71	15.424
540.05	16.471
540.39	17.209
540.73	16.106
541.07	17.456
541.42	16.765
541.76	17.677
542.10	17.400
542.44	15.497
542.78	16.996
543.12	15.675
543.46	16.590
543.80	16.526
544.14	16.303
544.48	16.698
544.82	15.972
545.16	15.875
545.50	15.360
545.84	16.062
546.18	17.374
546.52	16.999
546.86	17.045
547.20	18.004
547.54	17.435
547.88	17.219
548.22	16.065
548.56	16.792
548.90	15.621
549.24	16.162
549.58	17.667
549.92	16.552
550.26	17.614
550.60	17.151
550.94	17.535
551.28	16.459
551.62	16.535
551.96	16.561
552.30	17.679
552.64	17.174
552.98	16.814
553.32	16.318
553.66	17.246
554.00	17.090
554.34	16.839
554.68	17.597
555.02	17.278
555.36	17.049
555.69	17.118
556.03	16.622
556.37	16.439
556.71	16.644
557.05	16.387
557.39	18.125
557.73	17.219
558.07	17.331
558.41	16.787
558.75	17.928
559.08	18.494
559.42	16.100
559.76	17.132
560.10	17.059
560.44	16.911
560.78	16.367
561.12	16.689
561.45	17.014
561.79	17.469
562.13	17.036
562.47	16.052
562.81	17.225
563.15	17.258
563.48	16.578
563.82	16.177
564.16	16.220
564.50	16.732
564.84	15.992
565.17	15.959
565.51	16.933
565.85	16.371
566.19	15.967
566.52	16.719
566.86	15.491
567.20	16.981
567.54	15.868
567.88	15.318
568.21	16.085
568.55	16.178
568.89	15.467
569.23	15.553
569.56	14.899
569.90	14.830
570.24	14.891
570.57	14.791
570.91	14.738
571.25	14.700
571.59	14.551
571.92	14.372
572.26	14.760
572.60	14.324
572.93	14.603
573.27	14.966
573.61	14.545
573.95	14.755
574.28	14.121
574.62	13.897
574.96	14.002
575.29	13.991
575.63	14.355
575.97	13.720
576.30	14.445
576.64	14.253
576.98	13.879
577.31	14.164
577.65	14.289
577.98	13.752
578.32	13.820
578.66	13.795
578.99	13.810
579.33	13.895
579.67	14.036
580.00	14.289
580.34	13.977
580.67	14.536
581.01	14.234
581.35	14.154
581.68	13.800
582.02	13.521
582.35	13.761
582.69	13.872
583.02	13.789
583.36	13.927
583.70	14.510
584.03	14.655
584.37	14.625
584.70	14.577
585.04	14.432
585.37	14.119
585.71	14.380
586.04	13.916
586.38	14.394
586.72	14.858
587.05	13.882
587.39	14.274
587.72	14.661
588.06	14.301
588.39	14.678
588.73	14.579
589.06	15.270
589.40	15.253
589.73	14.960
590.07	15.089
590.40	14.505
590.73	15.144
591.07	15.547
591.40	15.605
591.74	15.498
592.07	15.881
592.41	15.048
592.74	14.644
593.08	15.023
593.41	14.584
593.75	14.428
594.08	14.616
594.41	15.164
594.75	14.787
595.08	15.068
595.42	14.886
595.75	14.779
596.09	15.096
596.42	15.246
596.75	15.661
597.09	15.844
597.42	15.135
597.75	15.136
598.09	15.348
598.42	14.991
598.76	14.512
599.09	14.595
599.42	14.665
599.76	14.751
600.09	14.390
600.42	14.609
600.76	14.036
601.09	14.718
601.42	15.068
601.76	14.421
602.09	14.545
602.42	15.127
602.76	15.518
603.09	14.831
603.42	14.838
603.76	15.168
604.09	14.734
604.42	14.227
604.76	15.858
605.09	15.291
605.42	14.750
605.75	14.363
606.09	14.599
606.42	15.366
606.75	15.222
607.09	15.571
607.42	15.233
607.75	14.895
608.08	14.503
608.42	15.329
608.75	14.923
609.08	15.402
609.41	15.469
609.75	14.960
610.08	15.740
610.41	14.851
610.74	15.279
611.07	15.958
611.41	15.456
611.74	15.636
612.07	15.580
612.40	15.950
612.73	15.263
613.07	15.733
613.40	15.377
613.73	15.207
614.06	15.699
614.39	15.469
614.72	16.053
615.06	15.389
615.39	15.180
615.72	16.002
616.05	15.417
616.38	15.397
616.71	16.449
617.05	16.019
617.38	15.334
617.71	16.096
618.04	16.166
618.37	15.967
618.70	16.553
619.03	16.711
619.36	16.497
619.69	16.479
620.03	16.690
620.36	16.444
620.69	16.986
621.02	16.077
621.35	15.740
621.68	16.277
622.01	16.873
622.34	16.566
622.67	17.110
623.00	16.361
623.33	15.868
623.66	16.440
623.99	16.348
624.32	16.548
624.65	16.102
624.99	15.935
625.32	15.930
625.65	16.829
625.98	16.910
626.31	17.807
626.64	17.633
626.97	16.958
627.30	17.706
627.63	16.735
627.96	17.998
628.29	17.585
628.62	17.383
628.95	18.679
629.28	17.153
629.61	17.324
629.94	18.381
630.26	17.350
630.59	18.112
630.92	17.241
631.25	17.374
631.58	17.818
631.91	17.951
632.24	17.616
632.57	18.363
632.90	17.215
633.23	19.016
633.56	18.983
633.89	19.026
634.22	18.842
634.55	20.000
634.88	18.922
635.20	20.072
635.53	19.157
635.86	19.554
636.19	18.118
636.52	19.377
636.85	17.984
637.18	19.124
637.51	19.976
637.83	17.633
638.16	19.565
638.49	19.773
638.82	19.469
639.15	18.375
639.48	19.950
639.81	20.241
640.13	18.880
640.46	19.195
640.79	19.947
641.12	18.845
641.45	19.693
641.77	20.324
642.10	21.784
642.43	19.369
642.76	21.517
643.09	20.706
643.41	20.789
643.74	22.994
644.07	21.189
644.40	22.699
644.73	20.945
645.05	21.553
645.38	21.327
645.71	19.807
646.04	21.927
646.36	22.705
646.69	21.405
647.02	20.918
647.35	20.790
647.67	22.301
648.00	20.488
648.33	21.287
648.66	19.697
648.98	20.690
649.31	20.628
649.64	19.581
649.96	21.311
650.29	20.695
650.62	20.065
650.94	23.177
651.27	23.142
651.60	22.629
651.92	23.642
652.25	20.521
652.58	21.340
652.90	22.275
653.23	19.569
653.56	18.898
653.88	22.821
654.21	21.643
654.54	21.782
654.86	19.938
655.19	18.108
655.52	12.791
655.84	11.451
656.17	14.240
656.49	19.525
656.82	20.234
657.15	15.629
657.47	11.881
657.80	9.195
658.13	9.700
658.45	14.628
658.78	14.628
659.10	15.328
659.43	15.997
659.75	17.285
660.08	17.405
660.41	19.739
660.73	22.109
661.06	23.089
661.38	23.091
661.71	23.077
662.03	24.260
662.36	20.676
662.68	22.892
663.01	23.636
663.33	23.992
663.66	23.319
663.98	24.190
664.31	23.739
664.63	22.267
664.96	21.127
665.28	25.820
665.61	23.977
665.93	20.121
666.26	20.690
666.58	26.151
666.91	23.467
667.23	25.169
667.56	21.814
667.88	21.795
668.21	26.013
668.53	21.692
668.86	24.675
669.18	24.520
669.50	28.696
669.83	23.312
670.15	23.556
670.48	23.529
670.80	24.353
671.13	25.478
671.45	21.489
671.77	22.811
672.10	22.181
672.42	21.731
672.75	21.559
673.07	21.127
673.39	21.700
673.72	20.117
674.04	22.745
674.37	24.466
674.69	22.495
675.01	22.385
675.34	26.489
675.66	26.105
675.98	23.422
676.31	21.639
676.63	24.204
676.95	25.996
677.28	22.897
677.60	22.418
677.92	22.785
678.25	24.846
678.57	24.104
678.89	23.046
679.22	23.772
679.54	21.565
679.86	22.202
680.18	21.109
680.51	20.745
680.83	23.310
681.15	24.906
681.48	22.684
681.80	20.696
682.12	20.881
682.44	20.696
682.77	23.218
683.09	25.107
683.41	23.947
683.73	24.062
684.06	26.033
684.38	21.331
684.70	22.674
685.02	21.951
685.34	23.443
685.67	19.755
685.99	20.447
686.31	22.355
686.63	21.555
686.96	21.429
687.28	21.300
687.60	20.833
687.92	22.121
688.24	22.433
688.56	23.896
688.89	24.066
689.21	26.638
689.53	22.965
689.85	25.055
690.17	18.634
690.49	26.539
690.82	23.364
691.14	22.545
691.46	21.519
691.78	23.695
692.10	22.727
692.42	23.553
692.74	20.954
693.06	25.319
693.39	22.177
693.71	24.672
694.03	25.263
694.35	22.944
694.67	24.485
694.99	25.366
695.31	21.569
695.63	23.684
695.95	24.450
696.27	23.350
696.59	25.130
696.91	23.575
697.23	20.423
697.56	24.947
697.88	21.881
698.20	23.333
698.52	22.581
698.84	22.717
699.16	23.963
699.48	23.515
699.80	26.087
700.12	28.052
700.44	26.260
700.76	27.624
701.08	26.149
701.40	25.419
701.72	25.364
702.04	29.261
702.36	27.195
702.68	28.895
703.00	27.701
703.32	26.596
703.64	26.542
703.96	28.412
704.28	29.360
704.60	26.393
704.91	30.564
705.23	30.205
705.55	30.565
705.87	30.233
706.19	26.502
706.51	29.283
706.83	27.879
707.15	27.731
707.47	26.263
707.79	25.553
708.11	24.886
708.43	23.810
708.74	23.980
709.06	27.273
709.38	24.147
709.70	25.581
710.02	27.596
710.34	26.667
710.66	27.761
710.98	28.693
711.29	31.977
711.61	29.794
711.93	31.410
712.25	26.045
712.57	26.103
712.89	32.526
713.20	27.964
713.52	31.579
713.84	25.316
714.16	28.659
714.48	25.862
714.80	28.875
715.11	27.378
715.43	26.113
715.75	26.377
716.07	28.754
716.39	28.213
716.70	28.571
717.02	29.496
717.34	27.915
717.66	29.851
717.97	35.458
718.29	26.296
718.61	31.022
718.93	31.985
719.24	31.834
719.56	28.475
719.88	28.814
720.20	32.095
720.51	35.192
720.83	34.201
721.15	27.985
721.46	31.915
721.78	35.125
722.10	33.208
722.42	34.211
722.73	23.221
723.05	33.607
723.37	31.579
723.68	31.274
724.00	30.894
724.32	31.048
724.63	28.455
724.95	29.707
725.27	33.603
725.58	29.687
725.90	35.401
726.22	30.943
726.53	33.333
726.85	32.082
727.16	27.758
727.48	29.433
727.80	29.924
728.11	32.609
728.43	29.231
728.74	32.258
729.06	31.752
729.38	34.191
729.69	30.605
730.01	25.939
730.32	26.736
730.64	29.766
730.96	26.073
731.27	30.132
731.59	30.581
731.90	30.321
732.22	26.087
732.53	24.458
732.85	31.090
733.16	29.260
733.48	26.246
733.80	28.896
734.11	30.573
734.43	28.402
734.74	24.857
735.06	24.069
735.37	29.480
735.69	27.389
736.00	29.085
736.32	29.595
736.63	28.115
736.95	27.476
737.26	23.469
737.58	27.097
737.89	28.428
738.21	30.717
738.52	27.857
738.83	30.566
739.15	28.077
739.46	31.387
739.78	27.431
740.09	28.615
740.41	29.032
740.72	28.571
741.04	32.963
741.35	33.333
741.66	32.000
741.98	36.792
742.29	35.885
742.61	39.655
742.92	28.507
743.23	35.043
743.55	35.600
743.86	32.895
744.18	36.726
744.49	42.105
744.80	41.784
745.12	41.364
745.43	35.242
745.74	31.081
746.06	32.110
746.37	37.668
746.68	40.724
747.00	39.352
747.31	40.476
747.62	34.513
747.94	37.004
748.25	34.468
748.56	39.207
748.88	29.703
749.19	41.500
749.50	36.279
749.82	33.740
750.13	29.388
750.44	27.737
750.75	29.123
751.07	31.190
751.38	29.268
751.69	30.325
752.01	31.203
752.32	26.715
752.63	31.206
752.94	31.148
753.26	35.600
753.57	26.423
753.88	32.812
754.19	30.714
754.51	36.806
754.82	29.242
755.13	31.698
755.44	28.571
755.75	30.292
756.07	31.206
756.38	26.642
756.69	28.859
757.00	29.641
757.31	28.783
757.63	24.854
757.94	27.882
758.25	26.961
758.56	24.198
758.87	24.731
759.18	28.788
759.50	26.332
759.81	25.545
760.12	25.312
760.43	28.940
760.74	28.261
761.05	25.706
761.36	26.738
761.67	28.977
761.99	27.640
762.30	28.472
762.61	34.733
762.92	35.156
763.23	30.252
763.54	33.200
763.85	28.516
764.16	35.385
764.47	34.981
764.78	27.915
765.10	26.266
765.41	27.729
765.72	28.144
766.03	25.705
766.34	28.333
766.65	35.319
766.96	33.333
767.27	39.086
767.58	38.021
767.89	39.474
768.20	45.402
768.51	35.533
768.82	35.780
769.13	31.301
769.44	33.198
769.75	31.330
770.06	29.358
770.37	39.819
770.68	31.481
770.99	34.222
771.30	28.279
771.61	39.462
771.92	33.197
772.23	39.076
772.54	40.000
772.85	35.602
773.16	40.957
773.47	38.043
773.78	44.162
774.09	44.643
774.39	40.351
774.70	38.889
775.01	58.696
775.32	49.673
775.63	44.737
775.94	47.482
776.25	59.843
776.56	53.731
776.87	51.639
777.18	55.469
777.48	58.015
777.79	55.303
778.10	50.370
778.41	58.929
778.72	40.876
779.03	46.980
779.34	48.322
779.65	39.189
779.95	47.239
780.26	48.366
780.57	52.414
780.88	56.250
781.19	54.135
781.50	43.919
781.80	46.541
782.11	37.288
782.42	37.342
782.73	39.877
783.04	48.649
783.34	51.408
783.65	55.479
783.96	55.970
784.27	48.951
784.57	38.849
784.88	43.519
785.19	56.349
785.50	55.660
785.81	55.970
786.11	54.098
786.42	43.411
786.73	53.982
787.04	66.981
787.34	62.500
787.65	70.000
787.96	54.054
788.26	57.851
788.57	56.780
788.88	57.851
789.19	49.306
789.49	56.061
789.80	49.618
790.11	69.524
790.41	70.297
790.72	72.289
791.03	70.652
791.33	65.116
791.64	63.918
791.95	61.386
792.25	70.000
792.56	70.130
792.87	84.615
793.17	83.544
793.48	75.862
793.79	67.816
794.09	79.545
794.40	55.462
794.70	50.000
795.01	50.370
795.32	51.079
795.62	55.118
795.93	53.448
796.23	57.522
796.54	70.588
796.85	71.622
797.15	101.408
797.46	74.242
797.76	81.928
798.07	72.152
798.37	84.615
798.68	81.818
798.99	57.746
799.29	74.026
799.60	63.636
799.90	73.973
800.21	89.552
800.51	98.276
800.82	108.772
801.12	93.443
801.43	87.879
801.73	75.676
802.04	119.048
802.34	85.185
802.65	78.125
802.95	98.305
803.26	107.813
803.56	80.000
803.87	83.077
804.17	76.471
804.48	118.519
804.78	100.000
805.09	91.176
805.39	96.154
805.70	103.571
806.00	95.082
806.30	84.848
806.61	79.268
806.91	73.418
807.22	72.368
807.52	71.642
807.83	88.732
808.13	78.125
808.43	108.333
808.74	80.263
809.04	72.464
809.35	83.582
809.65	84.211
809.95	109.677
810.26	110.169
810.56	103.175
810.86	129.545
811.17	133.333
811.47	106.667
811.77	114.815
812.08	109.091
812.38	110.000
812.69	138.889
812.99	150.000
813.29	118.367
813.59	104.762
813.90	132.653
814.20	90.909
814.50	84.615
814.81	92.647
815.11	116.327
815.41	108.197
815.72	138.095
816.02	112.727
816.32	133.333
816.62	137.500
816.93	131.707
817.23	142.857
817.53	125.000
817.84	142.424
818.14	108.696
818.44	126.667
818.74	158.824
819.04	152.500
819.35	145.714
819.65	164.706
819.95	185.714
820.25	220.000
820.56	148.718
820.86	138.636
821.16	139.535
821.46	148.718
821.76	128.000
822.07	162.857
822.37	152.500
822.67	172.727
822.97	100.000
823.27	178.571
823.57	159.459
823.88	167.500
824.18	176.667
824.48	130.952
824.78	216.000
825.08	191.667
825.38	151.351
825.69	131.707
825.99	216.667
826.29	179.310
826.59	147.368
826.89	160.526
827.19	164.706
827.49	190.323
827.79	120.455
828.09	125.000
828.39	119.149
828.70	112.245
829.00	144.444
829.30	174.194
829.60	127.500
829.90	273.333
830.20	196.429
830.50	191.304
830.80	239.130
831.10	206.667
831.40	163.333
831.70	160.870
832.00	188.462
832.30	166.667
832.60	256.250
832.90	216.667
833.20	335.714
833.50	190.323
833.80	182.759
834.10	175.000
834.40	219.231
834.70	255.556
835.00	314.286
835.30	171.429
835.60	330.769
835.90	196.552
836.20	321.429
836.50	196.552
836.80	204.000
837.10	180.556
837.40	266.667
837.70	282.353
838.00	233.333
838.30	271.429
838.60	266.667
838.90	273.077
839.19	260.000
839.49	378.571
839.79	270.000
840.09	235.000
840.39	209.524
840.69	221.739
840.99	283.333
841.29	480.000
841.59	383.333
841.88	331.250
842.18	179.310
842.48	280.952
842.78	216.667
843.08	213.043
843.38	150.000
843.68	750.000
843.97	265.385
844.27	203.448
844.57	323.810
844.87	331.250
845.17	225.926
845.47	1400.000
845.76	455.556
846.06	323.529
846.36	625.000
846.66	378.571
846.96	268.750
847.25	445.455
847.55	454.545
847.85	260.870
848.15	470.000
848.44	342.857
848.74	194.444
849.04	311.765
849.34	510.000
849.63	236.842
849.93	445.455
850.23	880.000
850.53	335.714
850.82	2450.000
851.12	-3800.000
851.42	5300.000
851.71	265.000
852.01	-1333.333
852.31	216.667
852.61	1866.667
852.90	276.190
853.20	212.000
853.50	317.647
853.79	290.476
854.09	191.667
854.39	318.750
854.68	186.486
854.98	180.645
855.28	176.667
855.57	224.138
855.87	218.519
856.17	221.053
856.46	280.000
856.76	294.118
857.05	189.655
857.35	220.833
857.65	386.667
857.94	243.478
858.24	211.538
858.53	310.000
858.83	200.000
859.13	346.667
859.42	0.000
859.72	622.222
860.01	500.000
860.31	286.364
860.60	263.158
860.90	234.783
861.20	511.111
861.49	450.000
861.79	-5600.000
862.08	637.500
862.38	242.857
862.67	284.615
862.97	329.412
863.26	522.222
863.56	305.556
863.85	408.333
864.15	625.000
864.44	373.333
864.74	683.333
865.03	712.500
865.33	289.474
865.62	400.000
865.92	453.846
866.21	425.000
866.51	0.000
866.80	472.727
867.10	1160.000
867.39	430.769
867.69	427.273
867.98	242.105
868.27	518.182
868.57	305.263
868.86	-3800.000
869.16	300.000
869.45	2250.000
869.75	-4300.000
870.04	425.000
870.33	700.000
870.63	1050.000
870.92	2600.000
871.22	800.000
871.51	323.529
871.80	242.857
872.10	364.286
>>>>>End Processed Spectral Data<<<<<
