SpectraSuite Data File
++++++++++++++++++++++++++++++++++++
Date: Wed May 13 16:22:58 PDT 2015
User: schluterlab
Dark Spectrum Present: Yes
Reference Spectrum Present: Yes
Number of Sampled Component Spectra: 1
Spectrometers: USB2E3373
Integration Time (usec): 3000 (USB2E3373)
Spectra Averaged: 3 (USB2E3373)
Boxcar Smoothing: 0 (USB2E3373)
Correct for Electrical Dark: No (USB2E3373)
Strobe/Lamp Enabled: No (USB2E3373)
Correct for Detector Non-linearity: No (USB2E3373)
Correct for Stray Light: No (USB2E3373)
Number of Pixels in Processed Spectrum: 2048
>>>>>Begin Processed Spectral Data<<<<<
178.53	0.000
178.91	-1100.000
179.29	-1075.000
179.67	-200.000
180.04	-975.000
180.42	2000.000
180.80	860.000
181.18	-1025.000
181.56	528.571
181.94	0.000
182.31	-600.000
182.69	1666.667
183.07	-487.500
183.45	-422.222
183.83	472.727
184.20	-340.000
184.58	2150.000
184.96	4500.000
185.34	-800.000
185.72	-600.000
186.09	-2050.000
186.47	2150.000
186.85	2550.000
187.23	5100.000
187.61	-1733.333
187.98	1250.000
188.36	518.182
188.74	509.091
189.12	-700.000
189.49	530.000
189.87	-4600.000
190.25	-1200.000
190.63	385.714
191.00	446.154
191.38	750.000
191.76	-1050.000
192.14	1375.000
192.51	637.500
192.89	916.667
193.27	600.000
193.65	-1175.000
194.02	540.000
194.40	800.000
194.78	580.000
195.15	525.000
195.53	510.000
195.91	-2050.000
196.29	300.000
196.66	310.526
197.04	-280.000
197.42	0.000
197.79	600.000
198.17	-5000.000
198.55	600.000
198.92	637.500
199.30	820.000
199.68	0.000
200.05	383.333
200.43	714.286
200.81	3500.000
201.18	1566.667
201.56	-1466.667
201.94	500.000
202.31	611.111
202.69	375.000
203.07	480.000
203.44	0.000
203.82	1125.000
204.19	800.000
204.57	414.286
204.95	487.500
205.32	1266.667
205.70	454.545
206.08	321.429
206.45	2400.000
206.83	312.500
207.20	866.667
207.58	600.000
207.96	288.889
208.33	700.000
208.71	-850.000
209.08	700.000
209.46	588.889
209.84	472.727
210.21	-1733.333
210.59	1225.000
210.96	-350.000
211.34	2200.000
211.71	560.000
212.09	750.000
212.46	0.000
212.84	1466.667
213.22	1300.000
213.59	-4500.000
213.97	733.333
214.34	671.429
214.72	536.364
215.09	1080.000
215.47	-1750.000
215.84	-2300.000
216.22	1433.333
216.59	392.857
216.97	1400.000
217.34	436.364
217.72	-783.333
218.09	0.000
218.47	-4100.000
218.84	555.556
219.22	700.000
219.59	1433.333
219.97	-514.286
220.34	740.000
220.72	-1633.333
221.09	442.857
221.47	1225.000
221.84	-766.667
222.22	0.000
222.59	1250.000
222.97	-2350.000
223.34	1060.000
223.72	415.385
224.09	900.000
224.46	2050.000
224.84	-4800.000
225.21	-860.000
225.59	-4900.000
225.96	570.000
226.34	250.000
226.71	2350.000
227.08	587.500
227.46	500.000
227.83	-950.000
228.21	-2000.000
228.58	544.444
228.95	-2150.000
229.33	-2000.000
229.70	1733.333
230.08	714.286
230.45	-760.000
230.82	391.667
231.20	833.333
231.57	742.857
231.95	416.667
232.32	268.182
232.69	354.545
233.07	571.429
233.44	292.308
233.81	-1533.333
234.19	263.158
234.56	466.667
234.93	333.333
235.31	345.455
235.68	200.000
236.05	335.714
236.43	184.848
236.80	231.579
237.17	4300.000
237.55	214.286
237.92	175.000
238.29	219.048
238.67	132.258
239.04	172.414
239.41	116.667
239.79	97.826
240.16	128.571
240.53	102.273
240.91	78.431
241.28	98.000
241.65	66.000
242.02	71.014
242.40	75.806
242.77	70.000
243.14	60.215
243.51	61.798
243.89	69.412
244.26	47.778
244.63	52.688
245.00	40.426
245.38	47.525
245.75	44.860
246.12	35.780
246.49	38.686
246.87	50.400
247.24	43.846
247.61	35.000
247.98	33.987
248.36	21.622
248.73	30.573
249.10	31.847
249.47	29.944
249.84	34.225
250.22	25.668
250.59	27.219
250.96	31.313
251.33	27.962
251.70	27.723
252.08	26.667
252.45	20.179
252.82	20.435
253.19	23.404
253.56	23.922
253.94	26.971
254.31	23.047
254.68	23.077
255.05	22.140
255.42	16.260
255.79	21.324
256.16	23.105
256.54	15.194
256.91	25.267
257.28	15.108
257.65	17.822
258.02	20.186
258.39	17.981
258.76	16.722
259.14	17.857
259.51	15.502
259.88	15.839
260.25	18.429
260.62	18.208
260.99	14.596
261.36	16.817
261.73	16.046
262.10	13.663
262.47	16.056
262.85	17.827
263.22	11.966
263.59	19.943
263.96	16.209
264.33	17.232
264.70	20.000
265.07	16.624
265.44	16.919
265.81	13.139
266.18	17.588
266.55	14.390
266.92	15.233
267.29	12.037
267.66	13.073
268.03	13.409
268.40	14.720
268.77	10.979
269.14	13.514
269.51	16.027
269.88	15.385
270.25	13.770
270.62	12.584
270.99	16.989
271.36	14.378
271.73	10.514
272.10	13.261
272.47	13.548
272.84	15.368
273.21	16.352
273.58	12.882
273.95	11.950
274.32	12.190
274.69	15.203
275.06	11.220
275.43	12.979
275.80	12.625
276.17	12.424
276.54	12.890
276.91	11.265
277.28	10.938
277.65	12.573
278.02	13.251
278.39	12.695
278.76	12.364
279.13	12.642
279.50	11.359
279.87	11.753
280.23	12.575
280.60	10.832
280.97	11.460
281.34	11.150
281.71	14.364
282.08	11.900
282.45	10.545
282.82	12.256
283.19	9.447
283.56	12.456
283.92	13.198
284.29	11.640
284.66	10.526
285.03	12.116
285.40	9.859
285.77	11.111
286.14	9.499
286.51	12.167
286.87	12.991
287.24	12.052
287.61	11.236
287.98	12.662
288.35	10.460
288.72	12.461
289.08	11.268
289.45	11.367
289.82	11.057
290.19	8.634
290.56	10.873
290.93	9.970
291.29	10.123
291.66	10.619
292.03	12.355
292.40	12.482
292.77	9.467
293.13	10.149
293.50	9.038
293.87	9.037
294.24	8.000
294.60	8.443
294.97	8.866
295.34	11.001
295.71	10.511
296.08	8.689
296.44	9.078
296.81	9.115
297.18	11.924
297.55	7.784
297.91	8.839
298.28	9.371
298.65	9.008
299.02	8.827
299.38	8.499
299.75	6.873
300.12	8.174
300.48	7.125
300.85	8.878
301.22	9.172
301.59	6.692
301.95	8.564
302.32	7.702
302.69	8.363
303.05	8.000
303.42	8.519
303.79	7.928
304.15	6.294
304.52	6.721
304.89	8.479
305.25	8.817
305.62	8.154
305.99	8.737
306.35	8.166
306.72	7.623
307.09	7.658
307.45	9.122
307.82	6.027
308.19	9.272
308.55	10.032
308.92	7.089
309.29	7.814
309.65	7.211
310.02	8.140
310.38	6.667
310.75	7.497
311.12	8.393
311.48	8.046
311.85	7.547
312.22	7.908
312.58	8.316
312.95	7.603
313.31	6.602
313.68	7.692
314.05	8.777
314.41	8.442
314.78	7.049
315.14	8.540
315.51	9.578
315.87	8.218
316.24	8.441
316.61	7.018
316.97	8.415
317.34	6.164
317.70	7.361
318.07	7.603
318.43	8.415
318.80	8.529
319.16	7.721
319.53	7.317
319.89	7.905
320.26	8.600
320.62	7.738
320.99	8.182
321.35	8.586
321.72	7.598
322.08	8.193
322.45	8.259
322.81	8.624
323.18	8.767
323.54	8.813
323.91	8.679
324.27	8.222
324.64	7.176
325.00	8.115
325.37	8.644
325.73	9.336
326.10	8.297
326.46	8.065
326.83	8.283
327.19	7.771
327.56	8.101
327.92	8.224
328.29	9.406
328.65	8.656
329.01	9.116
329.38	7.771
329.74	8.310
330.11	8.294
330.47	8.724
330.84	9.007
331.20	9.016
331.56	8.624
331.93	7.222
332.29	7.986
332.66	8.496
333.02	8.592
333.38	8.853
333.75	9.269
334.11	7.740
334.48	7.897
334.84	9.007
335.20	7.636
335.57	6.709
335.93	7.589
336.29	6.502
336.66	8.206
337.02	7.692
337.38	9.630
337.75	7.754
338.11	8.326
338.47	7.090
338.84	7.791
339.20	7.798
339.56	9.215
339.93	7.182
340.29	8.696
340.65	8.289
341.02	8.290
341.38	8.007
341.74	7.719
342.11	8.122
342.47	7.665
342.83	7.363
343.20	8.139
343.56	7.666
343.92	7.807
344.28	7.908
344.65	7.567
345.01	8.165
345.37	6.604
345.73	7.191
346.10	7.928
346.46	7.288
346.82	7.990
347.19	7.435
347.55	7.061
347.91	7.443
348.27	8.299
348.63	7.692
349.00	8.172
349.36	7.471
349.72	7.859
350.08	7.293
350.45	7.486
350.81	8.042
351.17	7.374
351.53	7.944
351.89	6.766
352.26	7.893
352.62	8.420
352.98	7.618
353.34	7.149
353.70	6.710
354.07	7.500
354.43	7.302
354.79	6.436
355.15	7.502
355.51	7.594
355.87	7.347
356.24	7.492
356.60	7.057
356.96	7.401
357.32	7.931
357.68	7.480
358.04	6.651
358.40	7.205
358.77	7.355
359.13	7.103
359.49	6.588
359.85	5.635
360.21	6.300
360.57	8.171
360.93	7.385
361.29	7.634
361.66	5.960
362.02	7.388
362.38	7.224
362.74	7.664
363.10	6.292
363.46	6.383
363.82	6.425
364.18	7.489
364.54	7.652
364.90	7.224
365.26	6.176
365.62	7.524
365.98	6.793
366.35	6.375
366.71	6.941
367.07	6.191
367.43	6.531
367.79	7.566
368.15	7.399
368.51	5.669
368.87	6.852
369.23	7.023
369.59	6.372
369.95	7.206
370.31	6.481
370.67	6.739
371.03	6.667
371.39	6.633
371.75	7.132
372.11	7.539
372.47	7.331
372.83	6.628
373.19	6.431
373.55	7.021
373.91	6.996
374.27	6.942
374.63	6.400
374.99	7.274
375.35	5.304
375.71	6.580
376.07	7.407
376.42	6.946
376.78	7.952
377.14	6.377
377.50	7.417
377.86	6.316
378.22	7.332
378.58	5.138
378.94	6.600
379.30	5.916
379.66	6.599
380.02	6.695
380.38	6.072
380.74	6.783
381.09	7.152
381.45	7.314
381.81	7.002
382.17	6.561
382.53	6.604
382.89	6.605
383.25	6.442
383.61	7.001
383.97	6.942
384.32	6.862
384.68	6.010
385.04	6.392
385.40	6.254
385.76	6.511
386.12	6.347
386.48	6.734
386.83	6.543
387.19	7.112
387.55	7.174
387.91	6.711
388.27	6.254
388.62	7.621
388.98	5.774
389.34	7.322
389.70	6.806
390.06	7.795
390.42	6.680
390.77	6.997
391.13	6.382
391.49	7.805
391.85	7.320
392.20	5.868
392.56	6.313
392.92	6.357
393.28	5.444
393.64	7.434
393.99	6.964
394.35	6.390
394.71	6.587
395.07	6.729
395.42	6.366
395.78	6.934
396.14	6.952
396.50	6.892
396.85	6.739
397.21	6.289
397.57	6.510
397.92	7.332
398.28	5.661
398.64	6.511
399.00	6.715
399.35	6.373
399.71	6.481
400.07	7.096
400.42	6.748
400.78	7.238
401.14	5.793
401.49	6.328
401.85	5.929
402.21	6.587
402.57	6.971
402.92	6.936
403.28	6.746
403.63	6.498
403.99	6.369
404.35	6.848
404.70	6.355
405.06	6.581
405.42	6.176
405.77	6.400
406.13	6.998
406.49	7.156
406.84	6.675
407.20	5.733
407.55	6.445
407.91	6.600
408.27	5.807
408.62	7.285
408.98	6.985
409.34	6.212
409.69	6.323
410.05	5.576
410.40	6.972
410.76	6.750
411.11	7.298
411.47	6.581
411.83	7.392
412.18	6.617
412.54	5.853
412.89	7.169
413.25	6.612
413.60	6.177
413.96	6.132
414.31	6.683
414.67	6.844
415.03	6.954
415.38	7.023
415.74	6.109
416.09	7.250
416.45	6.627
416.80	6.411
417.16	7.038
417.51	7.432
417.87	6.808
418.22	6.625
418.58	7.230
418.93	6.695
419.29	7.002
419.64	7.179
420.00	7.195
420.35	6.261
420.71	7.233
421.06	6.683
421.42	6.257
421.77	6.951
422.12	5.839
422.48	6.044
422.83	6.931
423.19	6.575
423.54	6.558
423.90	6.667
424.25	7.203
424.61	7.143
424.96	6.706
425.31	6.755
425.67	6.067
426.02	5.943
426.38	7.082
426.73	6.378
427.09	6.869
427.44	6.843
427.79	6.613
428.15	7.381
428.50	6.144
428.85	7.151
429.21	6.350
429.56	6.947
429.92	6.492
430.27	5.958
430.62	6.605
430.98	6.435
431.33	7.320
431.68	6.859
432.04	7.135
432.39	6.168
432.74	6.583
433.10	7.074
433.45	6.414
433.80	6.652
434.16	6.677
434.51	6.368
434.86	6.499
435.22	6.782
435.57	6.626
435.92	6.202
436.28	7.058
436.63	7.892
436.98	6.983
437.34	7.275
437.69	6.593
438.04	7.195
438.39	7.761
438.75	7.379
439.10	6.480
439.45	6.907
439.81	6.405
440.16	6.663
440.51	7.147
440.86	7.122
441.22	6.841
441.57	6.847
441.92	6.960
442.27	7.158
442.63	6.740
442.98	6.873
443.33	7.174
443.68	6.608
444.03	7.272
444.39	6.621
444.74	6.710
445.09	7.116
445.44	6.506
445.79	7.076
446.15	8.152
446.50	6.300
446.85	7.091
447.20	7.190
447.55	6.421
447.91	6.729
448.26	6.344
448.61	6.897
448.96	7.807
449.31	7.762
449.66	6.978
450.02	6.741
450.37	6.633
450.72	6.881
451.07	6.642
451.42	6.444
451.77	7.575
452.12	7.102
452.47	7.711
452.83	6.818
453.18	7.090
453.53	8.287
453.88	7.383
454.23	7.053
454.58	8.419
454.93	7.819
455.28	6.920
455.63	7.524
455.98	8.155
456.34	6.972
456.69	7.639
457.04	7.245
457.39	6.780
457.74	6.907
458.09	7.073
458.44	7.298
458.79	6.562
459.14	6.998
459.49	7.998
459.84	7.258
460.19	6.482
460.54	7.407
460.89	7.076
461.24	7.468
461.59	8.483
461.94	6.597
462.29	7.122
462.64	7.147
462.99	6.246
463.34	8.267
463.69	7.442
464.04	8.290
464.39	7.768
464.74	7.427
465.09	7.057
465.44	6.814
465.79	6.991
466.14	6.732
466.49	7.230
466.84	6.830
467.19	6.518
467.54	7.813
467.89	6.903
468.24	7.388
468.59	8.364
468.94	6.842
469.29	7.391
469.64	8.701
469.99	7.578
470.34	7.199
470.68	7.184
471.03	7.279
471.38	7.644
471.73	8.061
472.08	8.487
472.43	7.726
472.78	6.583
473.13	8.216
473.48	7.615
473.83	8.171
474.17	7.032
474.52	6.948
474.87	7.823
475.22	7.719
475.57	6.502
475.92	6.745
476.27	6.764
476.61	7.612
476.96	6.652
477.31	6.436
477.66	7.713
478.01	6.900
478.36	7.139
478.70	6.282
479.05	7.348
479.40	7.625
479.75	7.168
480.10	6.511
480.45	6.997
480.79	6.259
481.14	6.605
481.49	6.455
481.84	6.722
482.19	6.951
482.53	6.927
482.88	6.747
483.23	6.449
483.58	7.097
483.92	6.748
484.27	5.839
484.62	6.078
484.97	5.873
485.31	6.267
485.66	5.703
486.01	5.195
486.36	4.850
486.70	4.722
487.05	5.300
487.40	5.260
487.75	5.476
488.09	5.732
488.44	5.704
488.79	6.401
489.13	6.341
489.48	6.688
489.83	6.603
490.17	7.102
490.52	6.864
490.87	6.875
491.22	6.958
491.56	6.606
491.91	6.747
492.26	6.890
492.60	6.820
492.95	5.987
493.30	7.056
493.64	6.720
493.99	6.546
494.34	6.892
494.68	7.051
495.03	7.002
495.37	6.887
495.72	6.579
496.07	6.682
496.41	6.416
496.76	6.816
497.11	6.574
497.45	6.428
497.80	6.910
498.14	6.860
498.49	6.976
498.84	7.095
499.18	6.714
499.53	6.600
499.87	6.850
500.22	7.537
500.56	7.670
500.91	6.731
501.26	7.397
501.60	6.692
501.95	6.370
502.29	6.560
502.64	7.123
502.98	6.498
503.33	6.901
503.67	6.868
504.02	7.063
504.36	7.066
504.71	6.790
505.06	6.651
505.40	7.098
505.75	6.847
506.09	6.948
506.44	7.153
506.78	7.014
507.13	6.714
507.47	7.626
507.82	7.042
508.16	7.801
508.51	6.900
508.85	7.398
509.19	6.786
509.54	6.786
509.88	7.264
510.23	6.272
510.57	7.895
510.92	7.716
511.26	6.526
511.61	7.676
511.95	6.994
512.30	7.370
512.64	6.663
512.98	6.913
513.33	7.388
513.67	7.257
514.02	7.251
514.36	7.209
514.70	7.416
515.05	7.697
515.39	7.459
515.74	7.545
516.08	8.385
516.42	8.047
516.77	7.915
517.11	7.159
517.46	8.465
517.80	7.027
518.14	6.775
518.49	8.051
518.83	8.125
519.17	7.794
519.52	7.074
519.86	8.443
520.20	8.150
520.55	8.199
520.89	7.908
521.23	7.901
521.58	7.923
521.92	8.022
522.26	8.237
522.61	8.037
522.95	8.410
523.29	7.730
523.64	8.232
523.98	7.948
524.32	8.203
524.66	7.998
525.01	9.130
525.35	7.435
525.69	7.820
526.04	8.536
526.38	7.566
526.72	8.160
527.06	9.040
527.41	7.488
527.75	8.360
528.09	8.285
528.43	8.604
528.78	7.867
529.12	8.242
529.46	8.267
529.80	7.859
530.15	8.660
530.49	8.492
530.83	7.848
531.17	8.943
531.51	8.820
531.86	7.935
532.20	9.192
532.54	9.033
532.88	8.344
533.22	8.432
533.57	8.457
533.91	8.067
534.25	8.566
534.59	8.115
534.93	8.269
535.27	8.630
535.62	8.120
535.96	9.102
536.30	7.374
536.64	9.208
536.98	8.162
537.32	8.295
537.66	8.400
538.01	8.163
538.35	8.727
538.69	9.062
539.03	7.992
539.37	7.859
539.71	7.907
540.05	8.627
540.39	7.508
540.73	7.503
541.07	8.241
541.42	8.611
541.76	8.839
542.10	8.538
542.44	7.815
542.78	8.498
543.12	7.422
543.46	8.787
543.80	8.848
544.14	8.216
544.48	9.016
544.82	8.339
545.16	7.938
545.50	8.419
545.84	8.333
546.18	7.879
546.52	8.534
546.86	8.110
547.20	9.103
547.54	8.818
547.88	8.737
548.22	8.281
548.56	8.239
548.90	9.155
549.24	8.013
549.58	9.618
549.92	7.624
550.26	8.239
550.60	9.267
550.94	8.944
551.28	7.974
551.62	8.843
551.96	8.211
552.30	9.625
552.64	8.114
552.98	8.814
553.32	9.171
553.66	9.680
554.00	8.579
554.34	8.696
554.68	9.728
555.02	8.674
555.36	8.212
555.69	8.728
556.03	8.950
556.37	8.595
556.71	8.595
557.05	8.964
557.39	8.887
557.73	8.751
558.07	9.065
558.41	8.249
558.75	9.037
559.08	8.799
559.42	8.466
559.76	8.529
560.10	8.423
560.44	8.945
560.78	8.250
561.12	8.245
561.45	9.192
561.79	9.097
562.13	8.182
562.47	8.333
562.81	7.810
563.15	8.562
563.48	8.554
563.82	8.806
564.16	8.044
564.50	7.487
564.84	8.786
565.17	7.786
565.51	8.690
565.85	8.629
566.19	7.389
566.52	9.246
566.86	8.017
567.20	8.255
567.54	7.877
567.88	7.985
568.21	7.672
568.55	7.634
568.89	7.344
569.23	6.551
569.56	7.004
569.90	6.755
570.24	6.530
570.57	6.698
570.91	6.464
571.25	6.300
571.59	6.510
571.92	5.789
572.26	6.268
572.60	6.607
572.93	6.447
573.27	6.211
573.61	6.365
573.95	6.382
574.28	6.055
574.62	6.025
574.96	5.806
575.29	5.989
575.63	6.072
575.97	6.170
576.30	6.240
576.64	5.939
576.98	6.004
577.31	5.846
577.65	5.863
577.98	5.509
578.32	5.739
578.66	5.765
578.99	5.889
579.33	5.810
579.67	5.741
580.00	6.210
580.34	6.099
580.67	5.932
581.01	6.139
581.35	5.768
581.68	5.858
582.02	5.527
582.35	5.588
582.69	5.742
583.02	5.901
583.36	5.995
583.70	6.219
584.03	6.191
584.37	6.509
584.70	5.721
585.04	6.238
585.37	6.174
585.71	6.273
586.04	6.282
586.38	6.452
586.72	6.628
587.05	6.275
587.39	6.253
587.72	6.519
588.06	6.190
588.39	6.502
588.73	6.571
589.06	6.793
589.40	6.768
589.73	6.688
590.07	7.117
590.40	7.088
590.73	7.416
591.07	7.123
591.40	7.086
591.74	7.619
592.07	8.028
592.41	7.979
592.74	6.704
593.08	6.729
593.41	7.245
593.75	6.496
594.08	6.537
594.41	6.893
594.75	6.765
595.08	7.122
595.42	7.180
595.75	6.624
596.09	7.698
596.42	7.701
596.75	7.387
597.09	8.225
597.42	7.715
597.75	7.201
598.09	7.261
598.42	7.560
598.76	7.256
599.09	6.727
599.42	7.023
599.76	6.881
600.09	6.740
600.42	7.378
600.76	6.607
601.09	6.958
601.42	7.458
601.76	6.831
602.09	7.312
602.42	7.484
602.76	7.336
603.09	7.671
603.42	7.575
603.76	6.898
604.09	7.135
604.42	7.012
604.76	8.477
605.09	6.859
605.42	7.311
605.75	7.202
606.09	7.239
606.42	7.070
606.75	7.715
607.09	7.869
607.42	6.761
607.75	7.173
608.08	7.251
608.42	7.889
608.75	7.755
609.08	7.123
609.41	7.853
609.75	8.051
610.08	8.011
610.41	7.868
610.74	7.379
611.07	7.905
611.41	7.753
611.74	8.648
612.07	7.919
612.40	7.765
612.73	7.474
613.07	8.513
613.40	8.689
613.73	7.236
614.06	7.849
614.39	8.128
614.72	8.000
615.06	7.511
615.39	7.484
615.72	7.669
616.05	7.709
616.38	8.116
616.71	8.789
617.05	8.716
617.38	8.238
617.71	8.529
618.04	8.474
618.37	9.107
618.70	8.961
619.03	8.816
619.36	8.758
619.69	8.380
620.03	9.821
620.36	9.358
620.69	9.521
621.02	9.071
621.35	9.084
621.68	9.735
622.01	8.204
622.34	9.834
622.67	8.897
623.00	8.437
623.33	8.292
623.66	8.863
623.99	9.131
624.32	8.845
624.65	8.545
624.99	8.569
625.32	8.907
625.65	9.992
625.98	9.377
626.31	9.409
626.64	9.224
626.97	8.978
627.30	8.978
627.63	10.500
627.96	10.513
628.29	10.411
628.62	10.430
628.95	11.981
629.28	10.949
629.61	11.457
629.94	9.524
630.26	10.010
630.59	11.058
630.92	9.770
631.25	9.773
631.58	11.111
631.91	10.852
632.24	9.705
632.57	10.913
632.90	11.075
633.23	11.298
633.56	11.638
633.89	11.891
634.22	11.578
634.55	11.006
634.88	10.659
635.20	11.470
635.53	12.048
635.86	11.262
636.19	12.353
636.52	10.265
636.85	11.111
637.18	11.636
637.51	12.530
637.83	9.125
638.16	12.148
638.49	13.224
638.82	12.137
639.15	11.625
639.48	12.469
639.81	11.394
640.13	12.891
640.46	13.691
640.79	11.361
641.12	11.967
641.45	11.034
641.77	12.224
642.10	12.719
642.43	12.312
642.76	12.229
643.09	13.804
643.41	11.684
643.74	14.815
644.07	12.195
644.40	14.571
644.73	13.228
645.05	15.055
645.38	13.428
645.71	12.238
646.04	14.452
646.36	14.691
646.69	14.381
647.02	13.265
647.35	15.292
647.67	14.513
648.00	14.472
648.33	12.706
648.66	13.333
648.98	14.243
649.31	13.602
649.64	13.154
649.96	14.307
650.29	12.796
650.62	12.783
650.94	15.883
651.27	14.358
651.60	14.476
651.92	13.898
652.25	13.029
652.58	13.084
652.90	15.956
653.23	13.097
653.56	12.756
653.88	13.471
654.21	15.166
654.54	13.861
654.86	15.109
655.19	10.676
655.52	6.874
655.84	4.720
656.17	5.545
656.49	7.586
656.82	7.834
657.15	6.106
657.47	4.667
657.80	3.834
658.13	4.053
658.45	6.212
658.78	6.787
659.10	7.320
659.43	7.828
659.75	8.173
660.08	9.494
660.41	11.173
660.73	13.088
661.06	13.057
661.38	16.364
661.71	15.769
662.03	16.568
662.36	14.513
662.68	14.659
663.01	15.152
663.33	14.013
663.66	15.546
663.98	14.255
664.31	14.076
664.63	14.980
664.96	14.688
665.28	15.984
665.61	14.035
665.93	14.487
666.26	14.199
666.58	15.063
666.91	17.548
667.23	17.303
667.56	13.175
667.88	16.453
668.21	18.550
668.53	15.618
668.86	13.203
669.18	18.124
669.50	17.391
669.83	16.993
670.15	16.222
670.48	14.379
670.80	15.948
671.13	15.924
671.45	15.319
671.77	15.071
672.10	15.157
672.42	14.311
672.75	15.091
673.07	11.444
673.39	13.201
673.72	12.109
674.04	13.137
674.37	13.592
674.69	13.906
675.01	12.971
675.34	16.632
675.66	16.421
675.98	16.090
676.31	15.756
676.63	17.622
676.95	14.885
677.28	15.187
677.60	14.505
677.92	18.354
678.25	17.864
678.57	15.339
678.89	15.832
679.22	13.360
679.54	12.977
679.86	15.780
680.18	15.742
680.51	14.362
680.83	14.591
681.15	15.849
681.48	14.934
681.80	15.087
682.12	15.134
682.44	14.700
682.77	16.497
683.09	17.811
683.41	14.634
683.73	16.115
684.06	18.182
684.38	14.481
684.70	16.667
685.02	16.135
685.34	13.187
685.67	13.811
685.99	12.027
686.31	11.604
686.63	12.544
686.96	13.571
687.28	13.538
687.60	13.406
687.92	15.539
688.24	13.878
688.56	14.859
688.89	17.635
689.21	17.904
689.53	16.075
689.85	16.630
690.17	14.700
690.49	17.622
690.82	16.355
691.14	15.848
691.46	13.291
691.78	16.867
692.10	14.876
692.42	16.367
692.74	14.108
693.06	16.596
693.39	16.632
693.71	15.502
694.03	15.789
694.35	14.935
694.67	15.561
694.99	18.049
695.31	18.627
695.63	16.268
695.95	17.848
696.27	14.975
696.59	16.580
696.91	18.912
697.23	15.493
697.56	15.352
697.88	12.474
698.20	15.000
698.52	15.699
698.84	15.813
699.16	16.820
699.48	17.102
699.80	16.184
700.12	18.182
700.44	15.915
700.76	16.851
701.08	18.678
701.40	17.039
701.72	19.242
702.04	23.295
702.36	16.431
702.68	16.714
703.00	19.114
703.32	17.553
703.64	16.622
703.96	20.891
704.28	19.186
704.60	22.287
704.91	19.881
705.23	20.528
705.55	18.605
705.87	23.920
706.19	21.555
706.51	20.872
706.83	19.697
707.15	22.969
707.47	16.667
707.79	18.673
708.11	18.037
708.43	17.143
708.74	15.561
709.06	13.766
709.38	18.110
709.70	19.477
710.02	21.662
710.34	17.273
710.66	20.896
710.98	21.591
711.29	20.640
711.61	20.944
711.93	19.872
712.25	23.794
712.57	20.221
712.89	19.031
713.20	24.620
713.52	23.026
713.84	19.304
714.16	18.902
714.48	21.264
714.80	24.012
715.11	19.308
715.43	16.914
715.75	19.130
716.07	20.128
716.39	16.614
716.70	22.259
717.02	19.065
717.34	22.968
717.66	22.761
717.97	25.498
718.29	26.296
718.61	22.628
718.93	23.162
719.24	21.453
719.56	23.390
719.88	24.746
720.20	26.351
720.51	23.345
720.83	24.907
721.15	18.657
721.46	19.504
721.78	24.014
722.10	22.264
722.42	22.932
722.73	20.974
723.05	23.361
723.37	21.457
723.68	24.710
724.00	23.984
724.32	23.790
724.63	21.545
724.95	23.013
725.27	25.506
725.58	26.172
725.90	25.547
726.22	25.283
726.53	21.875
726.85	24.915
727.16	20.641
727.48	22.695
727.80	23.106
728.11	25.000
728.43	20.769
728.74	20.789
729.06	25.547
729.38	26.471
729.69	21.708
730.01	21.160
730.32	19.444
730.64	21.739
730.96	20.132
731.27	21.192
731.59	20.183
731.90	19.825
732.22	16.149
732.53	19.195
732.85	19.231
733.16	19.936
733.48	20.266
733.80	21.104
734.11	21.338
734.43	18.639
734.74	15.714
735.06	16.905
735.37	20.809
735.69	20.064
736.00	17.647
736.32	20.249
736.63	19.808
736.95	21.725
737.26	15.306
737.58	14.194
737.89	20.401
738.21	23.208
738.52	23.571
738.83	22.642
739.15	20.000
739.46	24.453
739.78	18.056
740.09	22.154
740.41	20.323
740.72	18.118
741.04	23.333
741.35	21.250
741.66	32.000
741.98	22.642
742.29	28.230
742.61	30.172
742.92	25.339
743.23	28.205
743.55	25.600
743.86	26.316
744.18	26.549
744.49	24.402
744.80	31.455
745.12	30.000
745.43	25.110
745.74	30.180
746.06	26.147
746.37	30.045
746.68	29.412
747.00	31.481
747.31	26.190
747.62	21.681
747.94	22.907
748.25	23.830
748.56	31.718
748.88	26.238
749.19	31.500
749.50	31.163
749.82	27.642
750.13	24.490
750.44	24.818
750.75	23.158
751.07	24.116
751.38	25.087
751.69	19.495
752.01	18.797
752.32	20.217
752.63	21.277
752.94	22.951
753.26	28.800
753.57	20.325
753.88	26.562
754.19	21.071
754.51	22.917
754.82	18.412
755.13	23.019
755.44	22.932
755.75	20.438
756.07	20.213
756.38	18.613
756.69	21.812
757.00	18.563
757.31	21.068
757.63	17.544
757.94	17.694
758.25	16.912
758.56	16.049
758.87	17.742
759.18	19.091
759.50	20.376
759.81	20.249
760.12	16.562
760.43	19.484
760.74	17.663
761.05	18.927
761.36	17.112
761.67	18.182
761.99	18.323
762.30	19.792
762.61	20.992
762.92	26.172
763.23	25.630
763.54	29.200
763.85	25.000
764.16	25.385
764.47	25.856
764.78	18.728
765.10	15.506
765.41	18.879
765.72	21.257
766.03	20.690
766.34	18.667
766.65	25.106
766.96	24.359
767.27	30.457
767.58	31.771
767.89	30.526
768.20	32.184
768.51	29.442
768.82	27.523
769.13	22.764
769.44	22.267
769.75	24.034
770.06	18.349
770.37	28.054
770.68	29.630
770.99	22.667
771.30	22.131
771.61	27.354
771.92	24.590
772.23	28.992
772.54	28.718
772.85	31.414
773.16	31.915
773.47	29.348
773.78	31.980
774.09	36.310
774.39	30.994
774.70	29.630
775.01	33.333
775.32	47.712
775.63	38.158
775.94	25.180
776.25	51.969
776.56	42.537
776.87	39.344
777.18	39.062
777.48	49.618
777.79	42.424
778.10	44.444
778.41	44.643
778.72	38.686
779.03	39.597
779.34	42.953
779.65	34.459
779.95	33.129
780.26	36.601
780.57	35.862
780.88	47.656
781.19	45.113
781.50	39.865
781.80	36.478
782.11	34.463
782.42	29.114
782.73	33.742
783.04	39.865
783.34	39.437
783.65	42.466
783.96	36.567
784.27	30.070
784.57	37.410
784.88	31.481
785.19	46.825
785.50	47.170
785.81	44.776
786.11	48.361
786.42	39.535
786.73	44.248
787.04	53.774
787.34	46.429
787.65	51.000
787.96	42.342
788.26	42.975
788.57	44.068
788.88	43.802
789.19	47.917
789.49	48.485
789.80	43.511
790.11	51.429
790.41	48.515
790.72	55.422
791.03	57.609
791.33	47.674
791.64	50.515
791.95	61.386
792.25	58.889
792.56	61.039
792.87	76.923
793.17	67.089
793.48	65.517
793.79	60.920
794.09	57.955
794.40	40.336
794.70	44.118
795.01	37.778
795.32	32.374
795.62	44.882
795.93	43.103
796.23	52.212
796.54	49.412
796.85	59.459
797.15	78.873
797.46	75.758
797.76	75.904
798.07	62.025
798.37	63.077
798.68	68.182
798.99	53.521
799.29	55.844
799.60	56.818
799.90	63.014
800.21	76.119
800.51	93.103
800.82	115.789
801.12	81.967
801.43	81.818
801.73	68.919
802.04	79.365
802.34	72.840
802.65	78.125
802.95	100.000
803.26	89.063
803.56	61.429
803.87	73.846
804.17	57.353
804.48	112.963
804.78	75.862
805.09	79.412
805.39	88.462
805.70	78.571
806.00	65.574
806.30	66.667
806.61	69.512
806.91	63.291
807.22	71.053
807.52	44.776
807.83	77.465
808.13	70.312
808.43	71.667
808.74	67.105
809.04	81.159
809.35	71.642
809.65	67.105
809.95	101.613
810.26	93.220
810.56	74.603
810.86	97.727
811.17	119.048
811.47	91.667
811.77	85.185
812.08	101.818
812.38	102.000
812.69	141.667
812.99	118.182
813.29	100.000
813.59	95.238
813.90	126.531
814.20	80.000
814.50	75.385
814.81	91.176
815.11	69.388
815.41	81.967
815.72	111.905
816.02	105.455
816.32	126.190
816.62	75.000
816.93	117.073
817.23	128.571
817.53	106.818
817.84	163.636
818.14	117.391
818.44	126.667
818.74	152.941
819.04	135.000
819.35	137.143
819.65	158.824
819.95	164.286
820.25	230.000
820.56	130.769
820.86	102.273
821.16	111.628
821.46	100.000
821.76	122.000
822.07	140.000
822.37	120.000
822.67	133.333
822.97	113.725
823.27	185.714
823.57	143.243
823.88	122.500
824.18	170.000
824.48	123.810
824.78	232.000
825.08	191.667
825.38	129.730
825.69	109.756
825.99	179.167
826.29	124.138
826.59	171.053
826.89	147.368
827.19	132.353
827.49	145.161
827.79	152.273
828.09	122.727
828.39	110.638
828.70	120.408
829.00	140.741
829.30	158.065
829.60	130.000
829.90	293.333
830.20	142.857
830.50	178.261
830.80	195.652
831.10	183.333
831.40	166.667
831.70	165.217
832.00	203.846
832.30	207.407
832.60	275.000
832.90	180.000
833.20	385.714
833.50	161.290
833.80	172.414
834.10	150.000
834.40	180.769
834.70	238.889
835.00	276.190
835.30	160.000
835.60	246.154
835.90	193.103
836.20	292.857
836.50	179.310
836.80	152.000
837.10	169.444
837.40	233.333
837.70	311.765
838.00	207.407
838.30	180.952
838.60	247.619
838.90	215.385
839.19	235.000
839.49	371.429
839.79	325.000
840.09	270.000
840.39	261.905
840.69	213.043
840.99	244.444
841.29	430.000
841.59	391.667
841.88	325.000
842.18	148.276
842.48	233.333
842.78	156.667
843.08	200.000
843.38	159.375
843.68	800.000
843.97	242.308
844.27	168.966
844.57	285.714
844.87	293.750
845.17	192.593
845.47	1366.667
845.76	500.000
846.06	311.765
846.36	425.000
846.66	357.143
846.96	281.250
847.25	372.727
847.55	381.818
847.85	221.739
848.15	460.000
848.44	328.571
848.74	227.778
849.04	264.706
849.34	500.000
849.63	210.526
849.93	481.818
850.23	1000.000
850.53	378.571
850.82	2150.000
851.12	-3700.000
851.42	3700.000
851.71	245.000
852.01	-1100.000
852.31	216.667
852.61	1500.000
852.90	280.952
853.20	248.000
853.50	311.765
853.79	271.429
854.09	229.167
854.39	287.500
854.68	154.054
854.98	164.516
855.28	156.667
855.57	179.310
855.87	155.556
856.17	231.579
856.46	233.333
856.76	305.882
857.05	162.069
857.35	195.833
857.65	253.333
857.94	213.043
858.24	230.769
858.53	235.000
858.83	236.364
859.13	333.333
859.42	0.000
859.72	544.444
860.01	409.091
860.31	222.727
860.60	226.316
860.90	200.000
861.20	466.667
861.49	458.333
861.79	-4000.000
862.08	712.500
862.38	276.190
862.67	346.154
862.97	370.588
863.26	533.333
863.56	222.222
863.85	366.667
864.15	550.000
864.44	380.000
864.74	716.667
865.03	600.000
865.33	236.842
865.62	436.364
865.92	384.615
866.21	350.000
866.51	0.000
866.80	409.091
867.10	980.000
867.39	400.000
867.69	336.364
867.98	226.316
868.27	400.000
868.57	236.842
868.86	-3800.000
869.16	306.250
869.45	1900.000
869.75	-3800.000
870.04	350.000
870.33	771.429
870.63	1150.000
870.92	2150.000
871.22	628.571
871.51	323.529
871.80	223.810
872.10	371.429
>>>>>End Processed Spectral Data<<<<<
