SpectraSuite Data File
++++++++++++++++++++++++++++++++++++
Date: Wed May 13 16:32:50 PDT 2015
User: schluterlab
Dark Spectrum Present: Yes
Reference Spectrum Present: Yes
Number of Sampled Component Spectra: 1
Spectrometers: USB2E3373
Integration Time (usec): 3000 (USB2E3373)
Spectra Averaged: 3 (USB2E3373)
Boxcar Smoothing: 0 (USB2E3373)
Correct for Electrical Dark: No (USB2E3373)
Strobe/Lamp Enabled: No (USB2E3373)
Correct for Detector Non-linearity: No (USB2E3373)
Correct for Stray Light: No (USB2E3373)
Number of Pixels in Processed Spectrum: 2048
>>>>>Begin Processed Spectral Data<<<<<
178.53	0.000
178.91	-1200.000
179.29	-1250.000
179.67	-172.222
180.04	-1300.000
180.42	2200.000
180.80	960.000
181.18	-1150.000
181.56	585.714
181.94	0.000
182.31	-600.000
182.69	1800.000
183.07	-550.000
183.45	-477.778
183.83	463.636
184.20	-370.000
184.58	1850.000
184.96	4500.000
185.34	-580.000
185.72	-475.000
186.09	-1950.000
186.47	2400.000
186.85	2050.000
187.23	4800.000
187.61	-1500.000
187.98	1275.000
188.36	472.727
188.74	445.455
189.12	-640.000
189.49	600.000
189.87	-4900.000
190.25	-1050.000
190.63	414.286
191.00	353.846
191.38	783.333
191.76	-950.000
192.14	1325.000
192.51	600.000
192.89	933.333
193.27	550.000
193.65	-1000.000
194.02	410.000
194.40	780.000
194.78	410.000
195.15	475.000
195.53	700.000
195.91	-1700.000
196.29	312.500
196.66	310.526
197.04	-250.000
197.42	0.000
197.79	490.000
198.17	-4700.000
198.55	657.143
198.92	637.500
199.30	860.000
199.68	0.000
200.05	361.111
200.43	600.000
200.81	3800.000
201.18	1700.000
201.56	-1566.667
201.94	588.889
202.31	644.444
202.69	416.667
203.07	460.000
203.44	0.000
203.82	1200.000
204.19	714.286
204.57	385.714
204.95	662.500
205.32	1400.000
205.70	545.455
206.08	342.857
206.45	2550.000
206.83	425.000
207.20	816.667
207.58	700.000
207.96	300.000
208.33	787.500
208.71	-750.000
209.08	600.000
209.46	511.111
209.84	390.909
210.21	-1266.667
210.59	1025.000
210.96	-387.500
211.34	2350.000
211.71	510.000
212.09	783.333
212.46	0.000
212.84	1900.000
213.22	1100.000
213.59	-4200.000
213.97	733.333
214.34	728.571
214.72	581.818
215.09	880.000
215.47	-2100.000
215.84	-2450.000
216.22	1266.667
216.59	407.143
216.97	1250.000
217.34	463.636
217.72	-733.333
218.09	0.000
218.47	-4600.000
218.84	566.667
219.22	757.143
219.59	1333.333
219.97	-685.714
220.34	960.000
220.72	-1366.667
221.09	364.286
221.47	1500.000
221.84	-783.333
222.22	0.000
222.59	1200.000
222.97	-2250.000
223.34	1040.000
223.72	330.769
224.09	940.000
224.46	1450.000
224.84	-4300.000
225.21	-920.000
225.59	-3600.000
225.96	600.000
226.34	250.000
226.71	2300.000
227.08	562.500
227.46	460.000
227.83	-1250.000
228.21	-1650.000
228.58	588.889
228.95	-1950.000
229.33	-2200.000
229.70	1666.667
230.08	642.857
230.45	-720.000
230.82	408.333
231.20	683.333
231.57	571.429
231.95	441.667
232.32	250.000
232.69	300.000
233.07	471.429
233.44	276.923
233.81	-1533.333
234.19	236.842
234.56	316.667
234.93	433.333
235.31	409.091
235.68	276.923
236.05	250.000
236.43	172.727
236.80	210.526
237.17	3100.000
237.55	185.714
237.92	171.429
238.29	204.762
238.67	138.710
239.04	137.931
239.41	102.778
239.79	97.826
240.16	100.000
240.53	106.818
240.91	80.392
241.28	82.000
241.65	80.000
242.02	68.116
242.40	64.516
242.77	58.333
243.14	54.839
243.51	49.438
243.89	61.176
244.26	42.222
244.63	48.387
245.00	48.936
245.38	44.554
245.75	34.579
246.12	34.862
246.49	38.686
246.87	44.000
247.24	33.077
247.61	37.143
247.98	37.908
248.36	32.432
248.73	27.389
249.10	32.484
249.47	24.294
249.84	30.481
250.22	24.599
250.59	27.219
250.96	24.747
251.33	27.488
251.70	30.693
252.08	20.952
252.45	19.283
252.82	17.826
253.19	20.000
253.56	20.784
253.94	22.407
254.31	22.266
254.68	22.308
255.05	21.033
255.42	21.138
255.79	18.750
256.16	20.578
256.54	11.307
256.91	18.149
257.28	11.871
257.65	17.492
258.02	18.323
258.39	16.404
258.76	15.050
259.14	15.774
259.51	14.894
259.88	13.665
260.25	16.012
260.62	15.318
260.99	14.907
261.36	16.517
261.73	10.029
262.10	11.337
262.47	14.930
262.85	13.092
263.22	9.117
263.59	13.675
263.96	13.462
264.33	16.188
264.70	13.421
265.07	14.066
265.44	12.121
265.81	11.679
266.18	13.317
266.55	10.000
266.92	14.251
267.29	14.120
267.66	12.156
268.03	11.591
268.40	14.019
268.77	10.979
269.14	10.811
269.51	13.995
269.88	14.452
270.25	9.932
270.62	10.787
270.99	14.409
271.36	13.948
271.73	9.112
272.10	10.652
272.47	12.473
272.84	9.957
273.21	11.321
273.58	10.917
273.95	9.644
274.32	10.331
274.69	13.490
275.06	11.811
275.43	9.362
275.80	9.018
276.17	8.961
276.54	10.395
276.91	11.067
277.28	10.547
277.65	11.219
278.02	9.110
278.39	10.547
278.76	11.091
279.13	10.755
279.50	11.359
279.87	9.960
280.23	10.978
280.60	9.091
280.97	9.242
281.34	10.619
281.71	11.273
282.08	10.940
282.45	10.364
282.82	8.703
283.19	9.269
283.56	8.596
283.92	11.506
284.29	9.877
284.66	10.526
285.03	7.957
285.40	8.099
285.77	9.091
286.14	7.599
286.51	10.000
286.87	9.744
287.24	10.423
287.61	10.433
287.98	10.227
288.35	9.509
288.72	10.125
289.08	10.329
289.45	8.567
289.82	8.780
290.19	9.105
290.56	8.576
290.93	6.798
291.29	8.436
291.66	7.965
292.03	11.337
292.40	9.985
292.77	8.432
293.13	7.910
293.50	9.329
293.87	8.889
294.24	8.593
294.60	7.132
294.97	8.140
295.34	8.604
295.71	7.955
296.08	7.835
296.44	7.703
296.81	8.058
297.18	8.401
297.55	6.596
297.91	7.916
298.28	8.835
298.65	8.486
299.02	8.959
299.38	7.171
299.75	5.121
300.12	6.897
300.48	7.250
300.85	8.755
301.22	7.389
301.59	7.071
301.95	7.053
302.32	6.675
302.69	8.244
303.05	7.636
303.42	6.914
303.79	7.475
304.15	5.828
304.52	7.184
304.89	6.156
305.25	6.961
305.62	8.381
305.99	7.910
306.35	8.166
306.72	7.848
307.09	7.658
307.45	7.995
307.82	8.147
308.19	7.395
308.55	8.738
308.92	7.734
309.29	7.392
309.65	6.469
310.02	7.400
310.38	7.419
310.75	7.286
311.12	8.598
311.48	8.359
311.85	7.966
312.22	8.741
312.58	7.588
312.95	8.342
313.31	8.641
313.68	8.004
314.05	10.059
314.41	9.045
314.78	9.366
315.14	9.732
315.51	8.548
315.87	9.307
316.24	8.640
316.61	7.797
316.97	8.023
317.34	8.023
317.70	9.751
318.07	10.202
318.43	9.589
318.80	9.372
319.16	9.322
319.53	9.006
319.89	10.381
320.26	9.900
320.62	10.218
320.99	10.404
321.35	10.505
321.72	11.088
322.08	11.056
322.45	11.443
322.81	11.822
323.18	12.042
323.54	11.596
323.91	10.943
324.27	12.141
324.64	9.506
325.00	10.640
325.37	12.284
325.73	11.759
326.10	11.739
326.46	11.738
326.83	11.821
327.19	12.810
327.56	12.544
327.92	11.199
328.29	11.446
328.65	11.694
329.01	13.357
329.38	11.933
329.74	12.558
330.11	12.347
330.47	13.131
330.84	14.890
331.20	11.749
331.56	12.202
331.93	13.333
332.29	12.334
332.66	12.655
333.02	12.066
333.38	12.918
333.75	14.528
334.11	12.989
334.48	13.576
334.84	11.581
335.20	12.727
335.57	10.789
335.93	11.518
336.29	12.179
336.66	11.091
337.02	12.036
337.38	12.407
337.75	11.854
338.11	12.802
338.47	12.063
338.84	12.282
339.20	11.651
339.56	13.321
339.93	12.545
340.29	12.591
340.65	12.567
341.02	12.653
341.38	12.189
341.74	11.930
342.11	12.140
342.47	13.304
342.83	12.928
343.20	13.939
343.56	11.794
343.92	12.281
344.28	13.010
344.65	13.156
345.01	11.869
345.37	11.664
345.73	12.860
346.10	13.470
346.46	12.458
346.82	12.768
347.19	11.779
347.55	12.479
347.91	12.783
348.27	12.818
348.63	12.709
349.00	12.540
349.36	13.300
349.72	12.991
350.08	11.507
350.45	12.612
350.81	12.266
351.17	12.561
351.53	12.203
351.89	11.964
352.26	12.786
352.62	12.670
352.98	13.209
353.34	12.983
353.70	12.602
354.07	12.500
354.43	12.619
354.79	12.389
355.15	12.849
355.51	13.589
355.87	13.061
356.24	13.355
356.60	12.430
356.96	13.435
357.32	12.592
357.68	12.598
358.04	13.777
358.40	13.618
358.77	13.850
359.13	12.786
359.49	12.863
359.85	11.190
360.21	12.281
360.57	13.930
360.93	13.154
361.29	13.454
361.66	12.848
362.02	12.985
362.38	13.004
362.74	13.467
363.10	12.583
363.46	12.766
363.82	12.850
364.18	12.996
364.54	13.447
364.90	14.023
365.26	12.574
365.62	13.952
365.98	12.783
366.35	13.539
366.71	13.738
367.07	13.693
367.43	13.933
367.79	13.919
368.15	14.152
368.51	13.953
368.87	14.418
369.23	13.753
369.59	13.831
369.95	13.382
370.31	14.530
370.67	13.043
371.03	14.232
371.39	13.776
371.75	14.853
372.11	14.367
372.47	15.249
372.83	14.553
373.19	14.595
373.55	14.634
373.91	15.906
374.27	14.227
374.63	14.109
374.99	15.325
375.35	14.027
375.71	13.982
376.07	15.569
376.42	15.750
376.78	15.838
377.14	15.468
377.50	16.026
377.86	15.093
378.22	16.182
378.58	15.038
378.94	15.399
379.30	15.712
379.66	16.244
380.02	16.400
380.38	15.604
380.74	16.507
381.09	17.054
381.45	17.087
381.81	17.629
382.17	17.389
382.53	16.792
382.89	17.222
383.25	17.011
383.61	18.587
383.97	17.573
384.32	17.218
384.68	18.587
385.04	18.009
385.40	18.452
385.76	17.813
386.12	18.394
386.48	18.880
386.83	18.217
387.19	19.728
387.55	19.233
387.91	18.440
388.27	19.129
388.62	19.668
388.98	18.735
389.34	19.274
389.70	20.110
390.06	20.089
390.42	20.104
390.77	20.229
391.13	20.038
391.49	20.749
391.85	18.905
392.20	19.117
392.56	20.265
392.92	20.365
393.28	19.467
393.64	19.844
393.99	21.075
394.35	20.161
394.71	21.016
395.07	20.748
395.42	21.261
395.78	21.310
396.14	19.429
396.50	21.742
396.85	22.123
397.21	21.085
397.57	21.079
397.92	20.913
398.28	20.796
398.64	20.609
399.00	20.425
399.35	20.079
399.71	21.354
400.07	20.934
400.42	20.982
400.78	21.592
401.14	21.098
401.49	20.597
401.85	21.295
402.21	20.120
402.57	20.605
402.92	21.248
403.28	22.049
403.63	21.163
403.99	20.318
404.35	22.242
404.70	21.043
405.06	20.326
405.42	21.585
405.77	20.343
406.13	19.921
406.49	21.171
406.84	21.146
407.20	20.626
407.55	21.698
407.91	21.400
408.27	21.059
408.62	20.470
408.98	22.243
409.34	21.218
409.69	21.161
410.05	21.314
410.40	20.917
410.76	21.027
411.11	20.929
411.47	20.575
411.83	20.831
412.18	20.161
412.54	21.793
412.89	21.084
413.25	21.192
413.60	21.618
413.96	20.704
414.31	20.474
414.67	21.610
415.03	21.523
415.38	21.134
415.74	21.222
416.09	21.163
416.45	20.482
416.80	21.745
417.16	21.716
417.51	20.504
417.87	21.002
418.22	21.388
418.58	21.756
418.93	20.577
419.29	21.515
419.64	20.592
420.00	20.671
420.35	20.928
420.71	21.160
421.06	20.883
421.42	20.468
421.77	20.516
422.12	19.989
422.48	20.237
422.83	21.142
423.19	20.442
423.54	21.416
423.90	21.507
424.25	21.106
424.61	20.060
424.96	20.117
425.31	20.653
425.67	19.775
426.02	20.171
426.38	20.513
426.73	20.597
427.09	20.729
427.44	20.759
427.79	20.932
428.15	21.369
428.50	21.182
428.85	21.156
429.21	20.817
429.56	19.907
429.92	20.936
430.27	20.258
430.62	20.328
430.98	20.135
431.33	20.309
431.68	20.838
432.04	20.234
432.39	21.074
432.74	20.766
433.10	21.109
433.45	19.883
433.80	20.455
434.16	21.528
434.51	20.737
434.86	20.981
435.22	20.122
435.57	20.790
435.92	19.602
436.28	21.234
436.63	20.475
436.98	20.378
437.34	21.109
437.69	20.712
438.04	20.742
438.39	21.194
438.75	20.686
439.10	20.223
439.45	21.074
439.81	20.181
440.16	20.836
440.51	20.855
440.86	20.324
441.22	20.133
441.57	20.064
441.92	20.471
442.27	20.075
442.63	20.379
442.98	20.563
443.33	21.087
443.68	20.289
444.03	19.912
444.39	19.474
444.74	20.076
445.09	20.539
445.44	20.284
445.79	19.693
446.15	20.275
446.50	19.817
446.85	19.836
447.20	20.092
447.55	19.989
447.91	20.188
448.26	19.533
448.61	20.068
448.96	21.318
449.31	20.472
449.66	20.484
450.02	19.666
450.37	19.444
450.72	19.853
451.07	19.988
451.42	19.757
451.77	21.844
452.12	19.630
452.47	20.025
452.83	20.629
453.18	20.844
453.53	20.841
453.88	19.905
454.23	20.084
454.58	20.836
454.93	21.170
455.28	19.888
455.63	20.449
455.98	20.536
456.34	20.289
456.69	20.726
457.04	20.248
457.39	20.339
457.74	20.429
458.09	20.587
458.44	20.410
458.79	19.143
459.14	20.372
459.49	20.549
459.84	19.335
460.19	20.801
460.54	19.850
460.89	20.461
461.24	20.158
461.59	20.628
461.94	19.359
462.29	20.237
462.64	20.166
462.99	20.104
463.34	20.667
463.69	20.013
464.04	19.884
464.39	18.899
464.74	19.548
465.09	19.361
465.44	19.169
465.79	19.239
466.14	19.321
466.49	18.632
466.84	19.148
467.19	19.071
467.54	20.187
467.89	18.968
468.24	19.488
468.59	19.597
468.94	19.243
469.29	19.602
469.64	20.616
469.99	20.365
470.34	19.287
470.68	19.684
471.03	19.048
471.38	19.875
471.73	19.987
472.08	20.395
472.43	19.221
472.78	19.750
473.13	19.127
473.48	19.476
473.83	19.756
474.17	18.544
474.52	19.417
474.87	19.323
475.22	19.501
475.57	18.807
475.92	18.481
476.27	18.658
476.61	19.140
476.96	19.131
477.31	18.053
477.66	18.654
478.01	18.400
478.36	18.826
478.70	17.965
479.05	18.051
479.40	17.810
479.75	17.997
480.10	18.489
480.45	17.420
480.79	17.344
481.14	18.053
481.49	17.323
481.84	17.741
482.19	17.810
482.53	17.248
482.88	18.381
483.23	18.131
483.58	18.881
483.92	17.760
484.27	16.732
484.62	17.069
484.97	16.752
485.31	17.089
485.66	16.175
486.01	15.531
486.36	14.985
486.70	14.824
487.05	14.998
487.40	16.088
487.75	16.128
488.09	16.409
488.44	16.611
488.79	16.817
489.13	16.960
489.48	16.599
489.83	17.005
490.17	17.317
490.52	16.652
490.87	17.322
491.22	16.917
491.56	16.492
491.91	16.473
492.26	16.353
492.60	17.327
492.95	17.306
493.30	17.196
493.64	16.426
493.99	15.738
494.34	16.790
494.68	16.712
495.03	17.199
495.37	16.705
495.72	16.862
496.07	16.613
496.41	16.062
496.76	16.051
497.11	16.074
497.45	16.162
497.80	17.179
498.14	16.377
498.49	15.854
498.84	17.018
499.18	16.333
499.53	16.192
499.87	17.521
500.22	16.439
500.56	16.699
500.91	16.106
501.26	16.880
501.60	16.801
501.95	16.499
502.29	16.635
502.64	16.341
502.98	16.971
503.33	16.133
503.67	16.613
504.02	16.230
504.36	16.472
504.71	15.975
505.06	15.904
505.40	16.043
505.75	16.152
506.09	15.938
506.44	16.280
506.78	16.269
507.13	16.759
507.47	15.909
507.82	16.363
508.16	16.616
508.51	16.641
508.85	16.137
509.19	16.224
509.54	15.612
509.88	15.765
510.23	16.350
510.57	16.925
510.92	16.313
511.26	16.033
511.61	16.649
511.95	15.344
512.30	15.270
512.64	16.819
512.98	16.988
513.33	16.006
513.67	16.169
514.02	15.152
514.36	16.767
514.70	16.325
515.05	15.226
515.39	16.994
515.74	16.273
516.08	16.378
516.42	16.815
516.77	16.388
517.11	15.760
517.46	16.479
517.80	15.970
518.14	15.634
518.49	16.686
518.83	16.591
519.17	16.513
519.52	15.676
519.86	16.144
520.20	16.821
520.55	16.697
520.89	16.119
521.23	16.948
521.58	16.026
521.92	16.901
522.26	16.229
522.61	16.012
522.95	16.697
523.29	16.920
523.64	16.768
523.98	16.205
524.32	16.647
524.66	16.476
525.01	16.973
525.35	15.675
525.69	16.071
526.04	16.885
526.38	16.534
526.72	16.258
527.06	16.573
527.41	14.480
527.75	15.563
528.09	15.864
528.43	15.870
528.78	16.042
529.12	15.212
529.46	16.228
529.80	16.460
530.15	16.698
530.49	16.000
530.83	15.823
531.17	16.710
531.51	17.185
531.86	15.548
532.20	16.558
532.54	16.336
532.88	16.367
533.22	15.490
533.57	15.617
533.91	15.473
534.25	15.674
534.59	15.741
534.93	14.991
535.27	15.631
535.62	15.751
535.96	15.631
536.30	15.766
536.64	15.003
536.98	14.997
537.32	15.800
537.66	15.000
538.01	15.602
538.35	15.385
538.69	15.380
539.03	14.620
539.37	15.080
539.71	15.036
540.05	15.556
540.39	15.415
540.73	15.201
541.07	15.445
541.42	15.003
541.76	15.677
542.10	15.847
542.44	15.629
542.78	16.337
543.12	14.907
543.46	15.803
543.80	14.574
544.14	14.185
544.48	16.000
544.82	14.176
545.16	14.509
545.50	14.332
545.84	15.659
546.18	14.815
546.52	14.591
546.86	15.464
547.20	15.374
547.54	15.498
547.88	14.923
548.22	15.318
548.56	14.025
548.90	14.469
549.24	15.219
549.58	15.553
549.92	13.942
550.26	15.554
550.60	14.869
550.94	15.493
551.28	14.265
551.62	14.450
551.96	15.719
552.30	15.222
552.64	14.672
552.98	15.458
553.32	14.902
553.66	15.678
554.00	14.894
554.34	15.045
554.68	14.950
555.02	15.656
555.36	15.588
555.69	14.885
556.03	15.141
556.37	14.870
556.71	14.666
557.05	14.566
557.39	14.556
557.73	14.961
558.07	15.011
558.41	15.123
558.75	15.209
559.08	14.318
559.42	14.664
559.76	15.662
560.10	15.275
560.44	14.046
560.78	15.502
561.12	15.106
561.45	14.472
561.79	14.370
562.13	13.682
562.47	14.822
562.81	15.272
563.15	14.381
563.48	14.854
563.82	14.742
564.16	14.323
564.50	14.518
564.84	14.539
565.17	14.286
565.51	14.249
565.85	14.404
566.19	13.212
566.52	14.060
566.86	14.467
567.20	14.623
567.54	13.984
567.88	13.525
568.21	14.762
568.55	13.145
568.89	13.473
569.23	13.324
569.56	12.510
569.90	12.642
570.24	12.451
570.57	12.343
570.91	11.700
571.25	11.921
571.59	12.018
571.92	12.039
572.26	12.161
572.60	12.192
572.93	11.994
573.27	12.245
573.61	11.977
573.95	11.809
574.28	11.382
574.62	11.419
574.96	11.350
575.29	11.227
575.63	11.458
575.97	11.507
576.30	12.135
576.64	11.145
576.98	11.133
577.31	11.275
577.65	11.336
577.98	11.359
578.32	10.663
578.66	11.468
578.99	11.162
579.33	11.595
579.67	11.238
580.00	11.220
580.34	11.533
580.67	11.699
581.01	11.401
581.35	11.229
581.68	11.270
582.02	10.722
582.35	10.940
582.69	11.200
583.02	11.634
583.36	11.344
583.70	11.613
584.03	11.808
584.37	11.673
584.70	11.677
585.04	11.693
585.37	11.323
585.71	11.819
586.04	11.525
586.38	11.808
586.72	12.041
587.05	11.600
587.39	11.689
587.72	11.672
588.06	11.580
588.39	11.934
588.73	11.880
589.06	12.060
589.40	12.290
589.73	12.038
590.07	12.349
590.40	11.984
590.73	12.139
591.07	12.617
591.40	12.273
591.74	12.727
592.07	12.653
592.41	13.022
592.74	11.948
593.08	12.358
593.41	12.180
593.75	11.649
594.08	11.398
594.41	11.912
594.75	12.274
595.08	11.954
595.42	12.504
595.75	12.001
596.09	12.692
596.42	12.102
596.75	12.664
597.09	12.900
597.42	12.521
597.75	12.247
598.09	13.087
598.42	12.715
598.76	12.079
599.09	11.897
599.42	11.754
599.76	12.262
600.09	11.767
600.42	12.126
600.76	11.964
601.09	11.767
601.42	11.682
601.76	12.068
602.09	11.779
602.42	12.580
602.76	12.656
603.09	12.313
603.42	12.261
603.76	12.005
604.09	11.439
604.42	12.271
604.76	12.611
605.09	13.062
605.42	12.484
605.75	12.334
606.09	11.834
606.42	12.260
606.75	12.153
607.09	12.348
607.42	12.152
607.75	11.983
608.08	11.594
608.42	12.909
608.75	12.849
609.08	12.812
609.41	12.803
609.75	12.292
610.08	12.959
610.41	12.011
610.74	12.252
611.07	12.599
611.41	12.365
611.74	12.871
612.07	12.992
612.40	13.379
612.73	12.211
613.07	12.662
613.40	13.007
613.73	11.851
614.06	12.634
614.39	12.795
614.72	13.368
615.06	12.815
615.39	12.367
615.72	12.679
616.05	12.812
616.38	13.118
616.71	13.302
617.05	12.898
617.38	13.530
617.71	13.333
618.04	12.981
618.37	12.774
618.70	13.317
619.03	14.408
619.36	14.325
619.69	13.380
620.03	13.874
620.36	13.971
620.69	14.521
621.02	14.307
621.35	13.704
621.68	13.863
622.01	14.628
622.34	14.523
622.67	14.373
623.00	13.646
623.33	14.510
623.66	13.867
623.99	14.433
624.32	14.265
624.65	14.407
624.99	13.598
625.32	13.903
625.65	12.998
625.98	13.759
626.31	15.008
626.64	15.020
626.97	13.965
627.30	14.713
627.63	14.848
627.96	14.971
628.29	14.523
628.62	15.096
628.95	16.321
629.28	15.328
629.61	15.399
629.94	15.905
630.26	15.729
630.59	16.397
630.92	14.559
631.25	14.314
631.58	15.616
631.91	14.199
632.24	14.662
632.57	16.579
632.90	15.241
633.23	16.890
633.56	16.271
633.89	16.648
634.22	15.778
634.55	16.213
634.88	17.006
635.20	18.041
635.53	17.108
635.86	18.069
636.19	15.412
636.52	15.917
636.85	18.557
637.18	16.244
637.51	17.612
637.83	16.030
638.16	16.752
638.49	15.995
638.82	17.826
639.15	16.750
639.48	16.209
639.81	17.828
640.13	19.531
640.46	15.570
640.79	17.569
641.12	16.644
641.45	17.737
641.77	17.968
642.10	19.152
642.43	17.868
642.76	19.040
643.09	19.172
643.41	17.147
643.74	18.364
644.07	17.988
644.40	19.479
644.73	17.795
645.05	19.334
645.38	17.694
645.71	20.129
646.04	19.269
646.36	19.533
646.69	20.234
647.02	19.898
647.35	19.588
647.67	19.823
648.00	19.675
648.33	18.482
648.66	18.030
648.98	17.541
649.31	17.638
649.64	18.087
649.96	17.884
650.29	18.957
650.62	16.667
650.94	20.421
651.27	21.453
651.60	20.133
651.92	19.489
652.25	18.730
652.58	16.978
652.90	18.167
653.23	18.028
653.56	18.740
653.88	16.640
654.21	19.431
654.54	16.997
654.86	20.405
655.19	17.027
655.52	11.058
655.84	8.769
656.17	10.801
656.49	14.663
656.82	14.811
657.15	11.457
657.47	8.647
657.80	6.862
658.13	6.887
658.45	10.638
658.78	10.630
659.10	11.179
659.43	12.049
659.75	13.220
660.08	13.924
660.41	18.343
660.73	18.170
661.06	16.720
661.38	18.909
661.71	21.154
662.03	21.893
662.36	18.887
662.68	19.076
663.01	20.808
663.33	21.231
663.66	18.277
663.98	21.598
664.31	20.798
664.63	19.028
664.96	16.901
665.28	19.262
665.61	22.027
665.93	21.730
666.26	21.095
666.58	20.711
666.91	21.142
667.23	22.247
667.56	20.302
667.88	23.504
668.21	21.322
668.53	19.957
668.86	20.996
669.18	22.601
669.50	21.304
669.83	22.440
670.15	19.556
670.48	18.519
670.80	22.198
671.13	21.868
671.45	20.000
671.77	19.756
672.10	21.442
672.42	16.608
672.75	18.740
673.07	18.662
673.39	17.722
673.72	17.187
674.04	18.824
674.37	18.447
674.69	20.450
675.01	19.874
675.34	21.150
675.66	22.526
675.98	19.552
676.31	21.639
676.63	20.594
676.95	19.706
677.28	17.757
677.60	21.758
677.92	22.363
678.25	20.329
678.57	20.717
678.89	20.040
679.22	20.236
679.54	20.802
679.86	22.202
680.18	18.784
680.51	20.213
680.83	18.861
681.15	19.434
681.48	21.739
681.80	18.375
682.12	19.157
682.44	17.795
682.77	20.774
683.09	23.605
683.41	22.395
683.73	23.179
684.06	22.107
684.38	19.961
684.70	19.961
685.02	18.386
685.34	18.681
685.67	17.483
685.99	15.636
686.31	17.577
686.63	17.314
686.96	18.750
687.28	20.397
687.60	17.391
687.92	20.293
688.24	19.582
688.56	20.281
688.89	21.369
689.21	18.341
689.53	20.668
689.85	21.951
690.17	19.048
690.49	21.231
690.82	21.028
691.14	19.420
691.46	20.042
691.78	19.076
692.10	19.628
692.42	21.756
692.74	19.087
693.06	21.702
693.39	20.123
693.71	18.122
694.03	19.158
694.35	17.749
694.67	20.824
694.99	22.439
695.31	22.059
695.63	22.727
695.95	21.271
696.27	20.812
696.59	19.430
696.91	24.093
697.23	17.606
697.56	21.109
697.88	18.814
698.20	19.583
698.52	22.151
698.84	20.267
699.16	18.894
699.48	21.615
699.80	22.222
700.12	24.675
700.44	23.342
700.76	23.481
701.08	24.425
701.40	22.905
701.72	23.907
702.04	27.557
702.36	20.963
702.68	26.062
703.00	21.330
703.32	21.277
703.64	23.592
703.96	24.234
704.28	24.709
704.60	24.633
704.91	22.849
705.23	22.581
705.55	28.239
705.87	28.239
706.19	24.028
706.51	23.364
706.83	24.242
707.15	25.490
707.47	19.192
707.79	22.359
708.11	22.603
708.43	19.286
708.74	19.388
709.06	24.935
709.38	22.310
709.70	25.291
710.02	23.442
710.34	24.242
710.66	26.269
710.98	26.705
711.29	23.837
711.61	24.484
711.93	21.154
712.25	24.437
712.57	25.735
712.89	25.260
713.20	24.924
713.52	24.013
713.84	24.051
714.16	20.122
714.48	22.989
714.80	24.012
715.11	23.919
715.43	22.255
715.75	22.319
716.07	23.323
716.39	24.138
716.70	27.575
717.02	24.820
717.34	23.322
717.66	33.209
717.97	26.693
718.29	24.074
718.61	27.372
718.93	25.000
719.24	26.644
719.56	24.407
719.88	25.763
720.20	31.081
720.51	27.526
720.83	29.368
721.15	24.627
721.46	23.050
721.78	29.749
722.10	25.660
722.42	29.323
722.73	29.213
723.05	25.410
723.37	25.506
723.68	25.869
724.00	28.049
724.32	26.613
724.63	25.203
724.95	28.452
725.27	27.530
725.58	23.828
725.90	29.197
726.22	25.660
726.53	25.347
726.85	28.328
727.16	27.758
727.48	25.532
727.80	26.515
728.11	27.536
728.43	26.154
728.74	26.523
729.06	28.832
729.38	32.353
729.69	30.961
730.01	22.184
730.32	23.611
730.64	23.746
730.96	21.452
731.27	26.490
731.59	24.465
731.90	24.198
732.22	22.671
732.53	22.910
732.85	21.474
733.16	22.508
733.48	23.256
733.80	22.403
734.11	25.796
734.43	23.964
734.74	25.714
735.06	20.630
735.37	24.277
735.69	23.248
736.00	26.797
736.32	24.922
736.63	26.198
736.95	24.281
737.26	19.388
737.58	20.645
737.89	25.084
738.21	24.573
738.52	26.071
738.83	25.660
739.15	23.846
739.46	25.912
739.78	26.389
740.09	24.000
740.41	25.161
740.72	24.390
741.04	25.185
741.35	26.667
741.66	34.222
741.98	29.717
742.29	32.057
742.61	32.328
742.92	27.602
743.23	29.060
743.55	28.800
743.86	27.193
744.18	34.071
744.49	31.579
744.80	35.211
745.12	33.636
745.43	30.396
745.74	36.036
746.06	25.229
746.37	29.596
746.68	29.864
747.00	32.407
747.31	32.857
747.62	26.106
747.94	23.789
748.25	31.064
748.56	29.075
748.88	27.228
749.19	33.000
749.50	28.837
749.82	31.301
750.13	28.163
750.44	25.547
750.75	28.421
751.07	26.367
751.38	25.087
751.69	26.715
752.01	22.932
752.32	23.827
752.63	26.596
752.94	24.180
753.26	30.400
753.57	26.829
753.88	27.734
754.19	20.714
754.51	28.125
754.82	19.856
755.13	24.906
755.44	28.195
755.75	28.102
756.07	25.532
756.38	25.182
756.69	25.839
757.00	24.850
757.31	22.849
757.63	22.807
757.94	20.375
758.25	21.324
758.56	21.235
758.87	22.312
759.18	26.970
759.50	22.884
759.81	24.922
760.12	20.625
760.43	20.057
760.74	23.641
761.05	25.141
761.36	20.588
761.67	21.875
761.99	24.845
762.30	26.389
762.61	30.916
762.92	28.516
763.23	28.992
763.54	30.000
763.85	26.562
764.16	35.000
764.47	30.418
764.78	23.322
765.10	20.570
765.41	22.124
765.72	25.150
766.03	24.451
766.34	27.000
766.65	30.213
766.96	29.060
767.27	29.442
767.58	33.333
767.89	38.947
768.20	38.506
768.51	33.503
768.82	30.734
769.13	26.423
769.44	26.721
769.75	30.472
770.06	21.101
770.37	33.937
770.68	34.259
770.99	29.778
771.30	24.180
771.61	24.664
771.92	29.508
772.23	32.773
772.54	35.897
772.85	30.366
773.16	32.447
773.47	36.413
773.78	41.624
774.09	36.905
774.39	36.842
774.70	41.358
775.01	42.029
775.32	45.752
775.63	36.842
775.94	37.410
776.25	41.732
776.56	40.299
776.87	40.984
777.18	42.188
777.48	53.435
777.79	45.455
778.10	40.000
778.41	54.464
778.72	41.606
779.03	43.624
779.34	43.624
779.65	36.486
779.95	35.583
780.26	37.908
780.57	43.448
780.88	46.875
781.19	49.624
781.50	43.243
781.80	41.509
782.11	36.158
782.42	41.772
782.73	36.196
783.04	43.243
783.34	45.070
783.65	45.205
783.96	47.015
784.27	37.762
784.57	37.410
784.88	39.815
785.19	55.556
785.50	50.943
785.81	52.985
786.11	51.639
786.42	52.713
786.73	47.788
787.04	49.057
787.34	55.357
787.65	50.000
787.96	54.054
788.26	42.149
788.57	54.237
788.88	57.025
789.19	43.056
789.49	56.061
789.80	48.855
790.11	51.429
790.41	61.386
790.72	53.012
791.03	53.261
791.33	55.814
791.64	51.546
791.95	52.475
792.25	68.889
792.56	54.545
792.87	73.077
793.17	78.481
793.48	71.264
793.79	60.920
794.09	70.455
794.40	43.697
794.70	47.059
795.01	46.667
795.32	43.165
795.62	50.394
795.93	45.690
796.23	50.442
796.54	62.353
796.85	58.108
797.15	94.366
797.46	78.788
797.76	72.289
798.07	58.228
798.37	83.077
798.68	78.788
798.99	56.338
799.29	70.130
799.60	68.182
799.90	76.712
800.21	73.134
800.51	87.931
800.82	75.439
801.12	90.164
801.43	78.788
801.73	52.703
802.04	96.825
802.34	79.012
802.65	71.875
802.95	93.220
803.26	101.563
803.56	71.429
803.87	64.615
804.17	69.118
804.48	101.852
804.78	70.690
805.09	86.765
805.39	96.154
805.70	92.857
806.00	88.525
806.30	74.242
806.61	71.951
806.91	70.886
807.22	69.737
807.52	56.716
807.83	78.873
808.13	89.062
808.43	93.333
808.74	69.737
809.04	68.116
809.35	80.597
809.65	67.105
809.95	103.226
810.26	96.610
810.56	79.365
810.86	113.636
811.17	123.810
811.47	83.333
811.77	70.370
812.08	107.273
812.38	92.000
812.69	116.667
812.99	106.818
813.29	112.245
813.59	95.238
813.90	120.408
814.20	94.545
814.50	76.923
814.81	86.765
815.11	97.959
815.41	80.328
815.72	114.286
816.02	120.000
816.32	123.810
816.62	120.000
816.93	119.512
817.23	138.095
817.53	122.727
817.84	112.121
818.14	134.783
818.44	108.889
818.74	155.882
819.04	112.500
819.35	120.000
819.65	155.882
819.95	167.857
820.25	140.000
820.56	133.333
820.86	104.545
821.16	132.558
821.46	123.077
821.76	110.000
822.07	120.000
822.37	122.500
822.67	112.121
822.97	84.314
823.27	185.714
823.57	110.811
823.88	137.500
824.18	176.667
824.48	164.286
824.78	160.000
825.08	200.000
825.38	129.730
825.69	121.951
825.99	187.500
826.29	155.172
826.59	126.316
826.89	126.316
827.19	132.353
827.49	177.419
827.79	143.182
828.09	122.727
828.39	104.255
828.70	110.204
829.00	174.074
829.30	141.935
829.60	125.000
829.90	253.333
830.20	146.429
830.50	200.000
830.80	208.696
831.10	190.000
831.40	146.667
831.70	169.565
832.00	211.538
832.30	188.889
832.60	275.000
832.90	206.667
833.20	321.429
833.50	177.419
833.80	165.517
834.10	196.875
834.40	226.923
834.70	222.222
835.00	309.524
835.30	142.857
835.60	292.308
835.90	193.103
836.20	264.286
836.50	182.759
836.80	176.000
837.10	163.889
837.40	242.857
837.70	247.059
838.00	203.704
838.30	209.524
838.60	252.381
838.90	238.462
839.19	255.000
839.49	350.000
839.79	315.000
840.09	230.000
840.39	204.762
840.69	186.957
840.99	255.556
841.29	450.000
841.59	358.333
841.88	350.000
842.18	186.207
842.48	219.048
842.78	173.333
843.08	208.696
843.38	181.250
843.68	733.333
843.97	203.846
844.27	182.759
844.57	247.619
844.87	318.750
845.17	174.074
845.47	1400.000
845.76	422.222
846.06	241.176
846.36	525.000
846.66	385.714
846.96	293.750
847.25	436.364
847.55	427.273
847.85	226.087
848.15	440.000
848.44	300.000
848.74	200.000
849.04	258.824
849.34	470.000
849.63	210.526
849.93	372.727
850.23	740.000
850.53	314.286
850.82	2050.000
851.12	-3300.000
851.42	4300.000
851.71	240.000
852.01	-1366.667
852.31	195.833
852.61	1766.667
852.90	266.667
853.20	212.000
853.50	264.706
853.79	214.286
854.09	191.667
854.39	325.000
854.68	140.541
854.98	187.097
855.28	150.000
855.57	206.897
855.87	211.111
856.17	236.842
856.46	233.333
856.76	229.412
857.05	186.207
857.35	200.000
857.65	413.333
857.94	230.435
858.24	215.385
858.53	275.000
858.83	227.273
859.13	333.333
859.42	0.000
859.72	477.778
860.01	400.000
860.31	272.727
860.60	221.053
860.90	265.217
861.20	477.778
861.49	383.333
861.79	-4800.000
862.08	600.000
862.38	280.952
862.67	307.692
862.97	329.412
863.26	522.222
863.56	233.333
863.85	358.333
864.15	662.500
864.44	313.333
864.74	816.667
865.03	512.500
865.33	236.842
865.62	381.818
865.92	446.154
866.21	350.000
866.51	0.000
866.80	418.182
867.10	1000.000
867.39	461.538
867.69	427.273
867.98	278.947
868.27	454.545
868.57	289.474
868.86	-3700.000
869.16	368.750
869.45	2050.000
869.75	-4300.000
870.04	450.000
870.33	585.714
870.63	1075.000
870.92	2650.000
871.22	685.714
871.51	288.235
871.80	200.000
872.10	364.286
>>>>>End Processed Spectral Data<<<<<
