SpectraSuite Data File
++++++++++++++++++++++++++++++++++++
Date: Wed May 13 16:23:16 PDT 2015
User: schluterlab
Dark Spectrum Present: Yes
Reference Spectrum Present: Yes
Number of Sampled Component Spectra: 1
Spectrometers: USB2E3373
Integration Time (usec): 3000 (USB2E3373)
Spectra Averaged: 3 (USB2E3373)
Boxcar Smoothing: 0 (USB2E3373)
Correct for Electrical Dark: No (USB2E3373)
Strobe/Lamp Enabled: No (USB2E3373)
Correct for Detector Non-linearity: No (USB2E3373)
Correct for Stray Light: No (USB2E3373)
Number of Pixels in Processed Spectrum: 2048
>>>>>Begin Processed Spectral Data<<<<<
178.53	0.000
178.91	-1250.000
179.29	-1275.000
179.67	-211.111
180.04	-1200.000
180.42	2750.000
180.80	980.000
181.18	-850.000
181.56	657.143
181.94	0.000
182.31	-614.286
182.69	1400.000
183.07	-525.000
183.45	-455.556
183.83	618.182
184.20	-350.000
184.58	2250.000
184.96	4800.000
185.34	-680.000
185.72	-525.000
186.09	-2100.000
186.47	2700.000
186.85	2100.000
187.23	4700.000
187.61	-1600.000
187.98	1200.000
188.36	563.636
188.74	509.091
189.12	-800.000
189.49	510.000
189.87	-3900.000
190.25	-1050.000
190.63	442.857
191.00	423.077
191.38	766.667
191.76	-1225.000
192.14	1250.000
192.51	687.500
192.89	950.000
193.27	637.500
193.65	-1050.000
194.02	520.000
194.40	840.000
194.78	450.000
195.15	525.000
195.53	560.000
195.91	-1650.000
196.29	343.750
196.66	363.158
197.04	-280.000
197.42	0.000
197.79	570.000
198.17	-4300.000
198.55	571.429
198.92	600.000
199.30	1040.000
199.68	0.000
200.05	350.000
200.43	828.571
200.81	4600.000
201.18	1700.000
201.56	-1700.000
201.94	511.111
202.31	522.222
202.69	350.000
203.07	520.000
203.44	0.000
203.82	1250.000
204.19	714.286
204.57	442.857
204.95	587.500
205.32	1800.000
205.70	454.545
206.08	364.286
206.45	2250.000
206.83	412.500
207.20	833.333
207.58	560.000
207.96	300.000
208.33	637.500
208.71	-700.000
209.08	728.571
209.46	588.889
209.84	545.455
210.21	-1300.000
210.59	1275.000
210.96	-412.500
211.34	3100.000
211.71	520.000
212.09	716.667
212.46	0.000
212.84	1366.667
213.22	1275.000
213.59	-3500.000
213.97	750.000
214.34	714.286
214.72	527.273
215.09	900.000
215.47	-2200.000
215.84	-2250.000
216.22	1733.333
216.59	357.143
216.97	1500.000
217.34	454.545
217.72	-550.000
218.09	0.000
218.47	-4300.000
218.84	533.333
219.22	671.429
219.59	1966.667
219.97	-571.429
220.34	880.000
220.72	-1800.000
221.09	400.000
221.47	1150.000
221.84	-900.000
222.22	0.000
222.59	1175.000
222.97	-2400.000
223.34	1060.000
223.72	400.000
224.09	1020.000
224.46	2400.000
224.84	-4500.000
225.21	-900.000
225.59	-3800.000
225.96	660.000
226.34	310.000
226.71	2950.000
227.08	650.000
227.46	590.000
227.83	-1125.000
228.21	-2200.000
228.58	577.778
228.95	-2650.000
229.33	-2100.000
229.70	1733.333
230.08	714.286
230.45	-560.000
230.82	341.667
231.20	783.333
231.57	657.143
231.95	375.000
232.32	204.545
232.69	418.182
233.07	642.857
233.44	284.615
233.81	-1700.000
234.19	284.211
234.56	333.333
234.93	333.333
235.31	409.091
235.68	300.000
236.05	307.143
236.43	145.455
236.80	273.684
237.17	3100.000
237.55	219.048
237.92	210.714
238.29	242.857
238.67	164.516
239.04	162.069
239.41	116.667
239.79	93.478
240.16	90.476
240.53	115.909
240.91	100.000
241.28	84.000
241.65	84.000
242.02	94.203
242.40	64.516
242.77	86.667
243.14	62.366
243.51	75.281
243.89	63.529
244.26	53.333
244.63	60.215
245.00	50.000
245.38	53.465
245.75	53.271
246.12	44.954
246.49	52.555
246.87	49.600
247.24	47.692
247.61	47.143
247.98	41.830
248.36	33.108
248.73	42.038
249.10	43.949
249.47	34.463
249.84	33.690
250.22	36.364
250.59	34.911
250.96	33.838
251.33	34.597
251.70	40.099
252.08	29.524
252.45	24.215
252.82	25.217
253.19	28.936
253.56	27.059
253.94	31.535
254.31	26.953
254.68	33.462
255.05	28.413
255.42	27.236
255.79	21.691
256.16	27.437
256.54	24.382
256.91	25.979
257.28	23.381
257.65	26.733
258.02	25.155
258.39	24.290
258.76	25.753
259.14	23.512
259.51	23.404
259.88	22.360
260.25	23.263
260.62	22.254
260.99	21.429
261.36	25.826
261.73	21.203
262.10	21.512
262.47	22.535
262.85	22.006
263.22	21.368
263.59	23.647
263.96	20.604
264.33	24.282
264.70	20.000
265.07	20.716
265.44	20.455
265.81	19.465
266.18	20.603
266.55	18.537
266.92	20.147
267.29	20.139
267.66	20.183
268.03	18.864
268.40	18.925
268.77	15.752
269.14	19.144
269.51	20.767
269.88	17.016
270.25	20.542
270.62	19.326
270.99	20.215
271.36	18.670
271.73	17.757
272.10	15.652
272.47	20.645
272.84	17.965
273.21	16.981
273.58	17.249
273.95	17.820
274.32	19.008
274.69	18.630
275.06	16.142
275.43	19.362
275.80	15.230
276.17	19.959
276.54	19.543
276.91	18.775
277.28	17.188
277.65	17.215
278.02	16.563
278.39	20.117
278.76	17.818
279.13	16.981
279.50	16.574
279.87	17.131
280.23	17.964
280.60	14.313
280.97	16.081
281.34	17.876
281.71	18.727
282.08	17.658
282.45	13.273
282.82	16.874
283.19	14.439
283.56	15.789
283.92	15.736
284.29	16.402
284.66	14.156
285.03	15.552
285.40	15.845
285.77	14.815
286.14	15.544
286.51	16.333
286.87	16.923
287.24	16.938
287.61	15.249
287.98	15.747
288.35	16.006
288.72	15.888
289.08	13.772
289.45	14.333
289.82	15.772
290.19	13.344
290.56	14.242
290.93	13.746
291.29	15.337
291.66	13.274
292.03	16.715
292.40	17.621
292.77	12.870
293.13	14.478
293.50	13.703
293.87	13.778
294.24	12.593
294.60	11.354
294.97	14.244
295.34	13.540
295.71	15.341
296.08	14.103
296.44	11.692
296.81	12.021
297.18	14.905
297.55	11.346
297.91	12.137
298.28	13.788
298.65	14.491
299.02	13.175
299.38	12.218
299.75	10.377
300.12	12.771
300.48	13.500
300.85	12.700
301.22	12.994
301.59	13.763
301.95	12.217
302.32	12.452
302.69	12.425
303.05	11.394
303.42	12.099
303.79	13.024
304.15	11.655
304.52	11.587
304.89	12.660
305.25	12.645
305.62	12.571
305.99	14.050
306.35	12.640
306.72	12.220
307.09	12.653
307.45	12.050
307.82	10.491
308.19	11.589
308.55	14.024
308.92	12.030
309.29	12.144
309.65	11.983
310.02	12.051
310.38	12.581
310.75	12.777
311.12	12.385
311.48	12.539
311.85	12.998
312.22	12.903
312.58	11.850
312.95	13.200
313.31	11.650
313.68	12.370
314.05	13.511
314.41	12.965
314.78	13.092
315.14	13.406
315.51	13.388
315.87	13.861
316.24	11.817
316.61	11.891
316.97	12.524
317.34	12.329
317.70	12.906
318.07	12.705
318.43	13.601
318.80	12.840
319.16	13.277
319.53	12.852
319.89	12.571
320.26	14.500
320.62	13.591
320.99	12.828
321.35	13.434
321.72	14.682
322.08	14.610
322.45	15.025
322.81	14.438
323.18	14.162
323.54	15.677
323.91	15.189
324.27	13.958
324.64	13.793
325.00	13.796
325.37	15.742
325.73	15.440
326.10	15.004
326.46	13.978
326.83	15.358
327.19	15.371
327.56	14.634
327.92	14.873
328.29	14.818
328.65	15.470
329.01	15.253
329.38	14.616
329.74	15.789
330.11	14.986
330.47	15.335
330.84	15.809
331.20	15.209
331.56	16.330
331.93	13.981
332.29	15.173
332.66	15.310
333.02	15.174
333.38	15.718
333.75	16.399
334.11	16.637
334.48	15.439
334.84	16.636
335.20	15.545
335.57	14.325
335.93	14.554
336.29	14.744
336.66	15.960
337.02	14.299
337.38	16.019
337.75	14.528
338.11	15.846
338.47	15.930
338.84	14.574
339.20	14.954
339.56	14.599
339.93	14.545
340.29	14.583
340.65	15.062
341.02	15.532
341.38	15.480
341.74	15.000
342.11	14.498
342.47	15.330
342.83	15.154
343.20	15.325
343.56	14.406
343.92	15.965
344.28	15.306
344.65	15.391
345.01	15.236
345.37	13.894
345.73	16.159
346.10	13.896
346.46	15.339
346.82	15.157
347.19	13.868
347.55	14.778
347.91	15.049
348.27	15.366
348.63	15.635
349.00	13.916
349.36	14.286
349.72	14.595
350.08	15.154
350.45	15.053
350.81	15.435
351.17	14.587
351.53	14.660
351.89	14.604
352.26	15.391
352.62	14.755
352.98	15.154
353.34	16.352
353.70	14.403
354.07	15.323
354.43	15.476
354.79	15.044
355.15	14.924
355.51	15.907
355.87	15.918
356.24	14.251
356.60	14.354
356.96	14.803
357.32	14.636
357.68	15.512
358.04	15.360
358.40	15.044
358.77	15.180
359.13	14.128
359.49	14.431
359.85	13.730
360.21	14.912
360.57	15.798
360.93	14.769
361.29	15.117
361.66	14.396
362.02	15.522
362.38	14.981
362.74	15.699
363.10	14.064
363.46	14.380
363.82	15.646
364.18	14.758
364.54	15.007
364.90	15.368
365.26	15.515
365.62	14.682
365.98	14.463
366.35	14.756
366.71	14.678
367.07	14.931
367.43	15.530
367.79	15.061
368.15	16.379
368.51	14.317
368.87	14.918
369.23	14.777
369.59	15.568
369.95	14.191
370.31	14.815
370.67	16.304
371.03	15.655
371.39	15.743
371.75	14.779
372.11	15.292
372.47	15.616
372.83	15.994
373.19	14.090
373.55	15.595
373.91	15.758
374.27	14.158
374.63	15.782
374.99	15.819
375.35	14.166
375.71	14.736
376.07	15.706
376.42	16.300
376.78	15.639
377.14	15.332
377.50	15.430
377.86	16.090
378.22	15.550
378.58	15.288
378.94	15.085
379.30	15.967
379.66	15.482
380.02	15.663
380.38	15.422
380.74	15.786
381.09	16.504
381.45	15.796
381.81	16.585
382.17	16.242
382.53	15.535
382.89	16.235
383.25	15.572
383.61	16.543
383.97	16.573
384.32	16.032
384.68	16.171
385.04	16.533
385.40	15.975
385.76	16.155
386.12	16.580
386.48	16.992
386.83	17.126
387.19	16.945
387.55	17.192
387.91	16.868
388.27	16.248
388.62	16.718
388.98	16.585
389.34	16.646
389.70	16.554
390.06	17.364
390.42	17.704
390.77	17.048
391.13	16.911
391.49	17.195
391.85	17.632
392.20	16.467
392.56	16.667
392.92	17.245
393.28	15.799
393.64	17.206
393.99	16.982
394.35	16.625
394.71	16.750
395.07	16.822
395.42	17.244
395.78	18.003
396.14	18.063
396.50	18.108
396.85	17.673
397.21	17.448
397.57	16.987
397.92	17.188
398.28	16.592
398.64	18.100
399.00	17.180
399.35	16.300
399.71	16.898
400.07	17.978
400.42	17.853
400.78	17.431
401.14	16.829
401.49	17.910
401.85	17.362
402.21	17.784
402.57	17.335
402.92	17.970
403.28	16.802
403.63	17.017
403.99	16.815
404.35	17.333
404.70	16.787
405.06	17.705
405.42	16.843
405.77	17.200
406.13	17.099
406.49	18.096
406.84	17.720
407.20	16.844
407.55	17.549
407.91	17.600
408.27	17.230
408.62	17.881
408.98	17.157
409.34	17.712
409.69	16.194
410.05	17.658
410.40	18.104
410.76	17.264
411.11	17.732
411.47	17.316
411.83	17.227
412.18	16.945
412.54	16.750
412.89	16.988
413.25	17.237
413.60	17.295
413.96	17.061
414.31	17.558
414.67	17.364
415.03	17.417
415.38	17.461
415.74	17.235
416.09	17.374
416.45	17.871
416.80	17.317
417.16	17.560
417.51	18.713
417.87	17.341
418.22	16.972
418.58	17.624
418.93	16.892
419.29	16.932
419.64	18.073
420.00	17.256
420.35	18.203
420.71	17.454
421.06	17.780
421.42	17.135
421.77	17.489
422.12	16.227
422.48	16.622
422.83	17.123
423.19	17.569
423.54	17.295
423.90	17.217
424.25	17.923
424.61	16.726
424.96	17.376
425.31	17.331
425.67	17.079
426.02	17.086
426.38	18.376
426.73	17.379
427.09	17.325
427.44	17.596
427.79	16.906
428.15	17.440
428.50	17.905
428.85	18.236
429.21	17.725
429.56	16.744
429.92	16.709
430.27	16.485
430.62	16.539
430.98	16.866
431.33	16.237
431.68	17.225
432.04	16.773
432.39	16.505
432.74	17.415
433.10	17.487
433.45	17.259
433.80	15.909
434.16	16.827
434.51	17.211
434.86	17.617
435.22	17.399
435.57	16.839
435.92	16.033
436.28	17.734
436.63	18.267
436.98	16.829
437.34	17.949
437.69	17.853
438.04	17.032
438.39	16.657
438.75	17.490
439.10	17.039
439.45	17.237
439.81	17.885
440.16	16.657
440.51	17.223
440.86	17.140
441.22	17.297
441.57	16.985
441.92	17.042
442.27	17.223
442.63	17.378
442.98	18.310
443.33	17.174
443.68	16.933
444.03	17.326
444.39	16.407
444.74	16.342
445.09	17.951
445.44	17.113
445.79	17.516
446.15	17.417
446.50	16.694
446.85	16.804
447.20	16.828
447.55	17.309
447.91	17.319
448.26	16.806
448.61	17.128
448.96	17.386
449.31	17.267
449.66	17.051
450.02	16.936
450.37	16.553
450.72	17.992
451.07	16.819
451.42	17.386
451.77	18.086
452.12	17.552
452.47	17.600
452.83	17.832
453.18	18.215
453.53	18.120
453.88	17.720
454.23	18.171
454.58	17.747
454.93	19.072
455.28	17.020
455.63	17.112
455.98	18.631
456.34	17.274
456.69	17.783
457.04	18.080
457.39	16.891
457.74	17.586
458.09	17.309
458.44	17.104
458.79	16.811
459.14	17.664
459.49	17.513
459.84	17.119
460.19	17.089
460.54	16.898
460.89	17.279
461.24	17.972
461.59	17.838
461.94	17.818
462.29	18.872
462.64	18.507
462.99	17.567
463.34	19.333
463.69	17.699
464.04	17.507
464.39	17.913
464.74	17.528
465.09	17.310
465.44	16.343
465.79	16.667
466.14	16.858
466.49	17.297
466.84	18.155
467.19	17.743
467.54	17.813
467.89	17.647
468.24	18.615
468.59	18.315
468.94	17.776
469.29	18.252
469.64	18.809
469.99	17.862
470.34	18.230
470.68	18.678
471.03	18.503
471.38	19.180
471.73	19.121
472.08	19.013
472.43	18.907
472.78	18.433
473.13	19.255
473.48	18.290
473.83	17.805
474.17	18.793
474.52	17.804
474.87	18.797
475.22	17.876
475.57	17.625
475.92	18.428
476.27	18.264
476.61	17.761
476.96	17.977
477.31	17.949
477.66	18.217
478.01	18.087
478.36	17.768
478.70	17.757
479.05	17.572
479.40	17.912
479.75	18.149
480.10	17.495
480.45	16.992
480.79	17.200
481.14	17.759
481.49	17.845
481.84	17.604
482.19	17.719
482.53	17.431
482.88	17.915
483.23	17.944
483.58	18.426
483.92	17.948
484.27	17.211
484.62	17.543
484.97	17.659
485.31	17.123
485.66	15.290
486.01	14.094
486.36	13.809
486.70	13.891
487.05	14.862
487.40	15.654
487.75	15.581
488.09	16.864
488.44	16.878
488.79	17.830
489.13	17.609
489.48	17.577
489.83	17.479
490.17	18.194
490.52	17.892
490.87	18.137
491.22	18.554
491.56	17.358
491.91	17.962
492.26	17.869
492.60	17.880
492.95	17.446
493.30	18.084
493.64	17.779
493.99	17.363
494.34	18.686
494.68	18.132
495.03	18.562
495.37	18.148
495.72	18.421
496.07	18.515
496.41	17.301
496.76	18.030
497.11	17.785
497.45	17.979
497.80	18.234
498.14	18.406
498.49	18.244
498.84	18.408
499.18	18.286
499.53	18.139
499.87	17.754
500.22	18.323
500.56	19.078
500.91	18.077
501.26	17.781
501.60	19.079
501.95	18.148
502.29	18.697
502.64	17.598
502.98	17.578
503.33	18.419
503.67	18.190
504.02	18.382
504.36	18.905
504.71	18.710
505.06	18.795
505.40	18.814
505.75	18.226
506.09	19.145
506.44	18.155
506.78	18.850
507.13	18.677
507.47	19.596
507.82	19.453
508.16	18.794
508.51	19.635
508.85	18.918
509.19	19.184
509.54	18.929
509.88	18.908
510.23	19.589
510.57	19.763
510.92	19.420
511.26	19.424
511.61	19.554
511.95	18.946
512.30	19.512
512.64	20.097
512.98	19.346
513.33	20.021
513.67	19.104
514.02	19.210
514.36	20.808
514.70	19.590
515.05	19.855
515.39	19.405
515.74	20.608
516.08	20.738
516.42	20.810
516.77	20.011
517.11	20.366
517.46	20.711
517.80	20.616
518.14	20.324
518.49	20.420
518.83	20.227
519.17	20.785
519.52	21.109
519.86	20.194
520.20	21.387
520.55	20.886
520.89	21.107
521.23	22.014
521.58	21.729
521.92	22.413
522.26	21.293
522.61	21.495
522.95	21.793
523.29	21.424
523.64	22.256
523.98	21.811
524.32	21.411
524.66	22.369
525.01	22.672
525.35	21.066
525.69	21.059
526.04	22.368
526.38	21.965
526.72	21.227
527.06	21.594
527.41	20.730
527.75	21.801
528.09	21.644
528.43	22.371
528.78	22.127
529.12	20.848
529.46	20.943
529.80	21.906
530.15	21.869
530.49	21.415
530.83	22.215
531.17	22.258
531.51	23.281
531.86	21.871
532.20	22.099
532.54	22.934
532.88	22.336
533.22	21.611
533.57	22.037
533.91	21.674
534.25	21.810
534.59	22.392
534.93	21.059
535.27	21.666
535.62	21.123
535.96	21.343
536.30	21.551
536.64	22.859
536.98	22.296
537.32	21.330
537.66	22.067
538.01	22.844
538.35	22.560
538.69	22.399
539.03	21.897
539.37	20.831
539.71	20.609
540.05	22.288
540.39	21.927
540.73	21.604
541.07	22.713
541.42	21.918
541.76	22.774
542.10	22.251
542.44	22.252
542.78	23.386
543.12	21.561
543.46	22.951
543.80	22.056
544.14	21.117
544.48	22.286
544.82	22.386
545.16	22.186
545.50	21.530
545.84	21.841
546.18	22.155
546.52	23.125
546.86	22.268
547.20	22.117
547.54	21.309
547.88	22.577
548.22	20.922
548.56	21.761
548.90	22.343
549.24	22.290
549.58	22.306
549.92	22.321
550.26	23.011
550.60	22.683
550.94	22.465
551.28	22.751
551.62	22.574
551.96	22.737
552.30	23.276
552.64	22.583
552.98	22.441
553.32	21.915
553.66	22.836
554.00	23.679
554.34	23.050
554.68	22.461
555.02	23.131
555.36	22.199
555.69	22.192
556.03	21.669
556.37	21.965
556.71	21.555
557.05	22.549
557.39	23.723
557.73	22.653
558.07	23.495
558.41	22.793
558.75	22.924
559.08	23.490
559.42	23.432
559.76	23.676
560.10	22.912
560.44	22.781
560.78	21.823
561.12	22.559
561.45	23.012
561.79	22.347
562.13	21.797
562.47	22.746
562.81	22.594
563.15	23.010
563.48	21.883
563.82	22.440
564.16	21.452
564.50	21.549
564.84	21.745
565.17	22.587
565.51	22.748
565.85	21.764
566.19	20.977
566.52	22.293
566.86	20.856
567.20	21.521
567.54	21.062
567.88	21.347
568.21	21.852
568.55	20.071
568.89	19.747
569.23	19.385
569.56	18.664
569.90	18.415
570.24	18.120
570.57	17.613
570.91	17.292
571.25	17.912
571.59	17.614
571.92	17.512
572.26	17.735
572.60	17.778
572.93	17.361
573.27	17.717
573.61	17.560
573.95	17.442
574.28	16.935
574.62	16.764
574.96	16.535
575.29	16.489
575.63	16.870
575.97	16.949
576.30	16.808
576.64	16.856
576.98	17.088
577.31	16.451
577.65	16.938
577.98	16.265
578.32	16.064
578.66	16.289
578.99	16.526
579.33	16.606
579.67	16.614
580.00	16.735
580.34	17.252
580.67	17.183
581.01	17.023
581.35	16.609
581.68	16.254
582.02	15.375
582.35	15.515
582.69	15.785
583.02	15.987
583.36	17.039
583.70	17.258
584.03	17.450
584.37	17.760
584.70	17.320
585.04	16.977
585.37	16.915
585.71	16.682
586.04	17.081
586.38	17.032
586.72	17.758
587.05	16.816
587.39	16.649
587.72	16.594
588.06	16.622
588.39	17.421
588.73	17.366
589.06	17.825
589.40	18.283
589.73	18.057
590.07	18.719
590.40	18.122
590.73	19.204
591.07	19.048
591.40	19.739
591.74	19.654
592.07	19.503
592.41	18.851
592.74	17.940
593.08	17.488
593.41	17.305
593.75	17.177
594.08	18.237
594.41	17.922
594.75	18.041
595.08	18.218
595.42	18.109
595.75	17.521
596.09	19.039
596.42	18.939
596.75	19.713
597.09	19.913
597.42	18.803
597.75	18.887
598.09	19.130
598.42	19.588
598.76	18.484
599.09	18.434
599.42	17.868
599.76	18.009
600.09	17.596
600.42	17.458
600.76	17.536
601.09	18.106
601.42	18.531
601.76	18.102
602.09	19.091
602.42	18.193
602.76	18.984
603.09	18.529
603.42	18.430
603.76	17.683
604.09	17.991
604.42	18.223
604.76	19.612
605.09	18.960
605.42	18.854
605.75	18.957
606.09	18.666
606.42	18.594
606.75	19.121
607.09	19.339
607.42	18.357
607.75	18.186
608.08	18.454
608.42	18.736
608.75	19.297
609.08	18.733
609.41	19.372
609.75	19.200
610.08	19.793
610.41	18.948
610.74	19.584
611.07	19.219
611.41	20.069
611.74	19.558
612.07	19.928
612.40	20.252
612.73	19.737
613.07	20.744
613.40	18.852
613.73	19.769
614.06	20.000
614.39	19.664
614.72	20.526
615.06	19.643
615.39	19.268
615.72	18.865
616.05	19.511
616.38	19.844
616.71	20.071
617.05	20.318
617.38	21.407
617.71	20.661
618.04	20.312
618.37	20.225
618.70	20.473
619.03	22.237
619.36	22.064
619.69	22.676
620.03	22.596
620.36	22.794
620.69	23.356
621.02	22.345
621.35	23.179
621.68	22.430
622.01	22.136
622.34	23.903
622.67	21.825
623.00	22.377
623.33	20.944
623.66	21.944
623.99	21.576
624.32	22.254
624.65	21.116
624.99	21.317
625.32	22.520
625.65	22.164
625.98	23.290
626.31	22.862
626.64	23.265
626.97	23.358
627.30	22.860
627.63	24.528
627.96	23.633
628.29	23.972
628.62	25.892
628.95	25.660
629.28	24.544
629.61	25.298
629.94	23.714
630.26	23.928
630.59	24.881
630.92	25.383
631.25	23.297
631.58	25.626
631.91	23.834
632.24	24.051
632.57	24.659
632.90	26.096
633.23	25.615
633.56	26.893
633.89	27.067
634.22	25.312
634.55	28.047
634.88	25.988
635.20	25.926
635.53	28.554
635.86	26.980
636.19	26.588
636.52	26.644
636.85	25.544
637.18	27.189
637.51	27.896
637.83	25.647
638.16	27.494
638.49	27.708
638.82	28.066
639.15	28.375
639.48	28.055
639.81	27.346
640.13	28.516
640.46	27.919
640.79	29.590
641.12	27.785
641.45	29.190
641.77	29.455
642.10	29.825
642.43	28.078
642.76	29.257
643.09	29.755
643.41	27.314
643.74	29.784
644.07	28.963
644.40	29.908
644.73	30.394
645.05	32.013
645.38	28.752
645.71	30.596
646.04	30.066
646.36	33.723
646.69	30.602
647.02	31.633
647.35	31.443
647.67	30.796
648.00	31.707
648.33	28.878
648.66	27.424
648.98	29.535
649.31	27.653
649.64	26.906
649.96	29.210
650.29	27.014
650.62	29.450
650.94	31.280
651.27	30.574
651.60	31.281
651.92	30.990
652.25	27.036
652.58	30.062
652.90	29.700
653.23	27.427
653.56	28.346
653.88	29.477
654.21	29.384
654.54	27.888
654.86	27.882
655.19	27.027
655.52	17.334
655.84	11.696
656.17	14.579
656.49	20.119
656.82	21.032
657.15	16.918
657.47	12.797
657.80	10.230
658.13	11.102
658.45	17.401
658.78	18.054
659.10	18.975
659.43	20.524
659.75	22.197
660.08	24.873
660.41	28.864
660.73	31.131
661.06	30.732
661.38	34.000
661.71	32.885
662.03	33.136
662.36	30.020
662.68	31.526
663.01	33.131
663.33	33.546
663.66	31.092
663.98	31.317
664.31	32.773
664.63	30.162
664.96	31.791
665.28	32.172
665.61	31.189
665.93	31.388
666.26	32.657
666.58	29.289
666.91	35.941
667.23	35.955
667.56	29.590
667.88	33.547
668.21	36.034
668.53	34.490
668.86	33.766
669.18	37.100
669.50	33.261
669.83	32.680
670.15	32.667
670.48	32.680
670.80	33.405
671.13	33.333
671.45	32.553
671.77	32.587
672.10	30.314
672.42	29.329
672.75	28.690
673.07	30.106
673.39	26.582
673.72	28.906
674.04	30.784
674.37	29.903
674.69	32.311
675.01	29.498
675.34	32.238
675.66	31.579
675.98	31.161
676.31	31.933
676.63	32.059
676.95	31.656
677.28	33.645
677.60	31.429
677.92	31.646
678.25	31.828
678.57	31.873
678.89	30.862
679.22	28.487
679.54	30.344
679.86	29.725
680.18	30.411
680.51	29.965
680.83	28.826
681.15	31.887
681.48	33.081
681.80	28.046
682.12	30.460
682.44	29.400
682.77	30.754
683.09	34.335
683.41	33.481
683.73	31.347
684.06	30.579
684.38	31.311
684.70	28.876
685.02	29.456
685.34	25.641
685.67	28.846
685.99	27.491
686.31	25.597
686.63	25.795
686.96	28.393
687.28	29.964
687.60	28.261
687.92	28.519
688.24	26.046
688.56	29.920
688.89	34.232
689.21	32.533
689.53	29.854
689.85	30.377
690.17	28.986
690.49	31.635
690.82	31.075
691.14	29.018
691.46	28.692
691.78	30.924
692.10	30.785
692.42	30.739
692.74	28.838
693.06	27.447
693.39	30.390
693.71	29.039
694.03	30.526
694.35	29.437
694.67	32.037
694.99	33.171
695.31	31.127
695.63	33.014
695.95	33.252
696.27	30.711
696.59	31.865
696.91	34.197
697.23	30.047
697.56	30.704
697.88	26.176
698.20	29.375
698.52	29.677
698.84	30.067
699.16	31.797
699.48	28.266
699.80	30.676
700.12	34.026
700.44	33.156
700.76	33.978
701.08	32.184
701.40	35.196
701.72	35.277
702.04	39.205
702.36	31.728
702.68	36.261
703.00	32.964
703.32	29.255
703.64	32.440
703.96	36.212
704.28	35.756
704.60	36.364
704.91	33.531
705.23	35.777
705.55	37.874
705.87	44.186
706.19	38.163
706.51	36.760
706.83	37.576
707.15	35.294
707.47	28.788
707.79	31.450
708.11	28.311
708.43	28.095
708.74	30.357
709.06	30.130
709.38	33.071
709.70	33.430
710.02	36.795
710.34	32.121
710.66	36.119
710.98	31.250
711.29	36.337
711.61	37.463
711.93	38.782
712.25	40.193
712.57	37.132
712.89	34.948
713.20	34.043
713.52	38.487
713.84	35.759
714.16	31.402
714.48	33.908
714.80	37.690
715.11	30.548
715.43	33.828
715.75	33.623
716.07	37.061
716.39	35.737
716.70	38.206
717.02	37.050
717.34	38.869
717.66	39.925
717.97	38.645
718.29	37.037
718.61	38.686
718.93	40.441
719.24	38.754
719.56	34.915
719.88	35.254
720.20	37.838
720.51	37.282
720.83	32.714
721.15	34.328
721.46	34.397
721.78	34.050
722.10	36.604
722.42	39.474
722.73	37.828
723.05	36.066
723.37	35.628
723.68	38.224
724.00	41.057
724.32	40.323
724.63	38.618
724.95	40.586
725.27	42.510
725.58	39.844
725.90	38.321
726.22	37.736
726.53	27.778
726.85	35.154
727.16	36.299
727.48	32.979
727.80	33.333
728.11	39.493
728.43	38.077
728.74	36.918
729.06	39.416
729.38	42.647
729.69	37.722
730.01	32.082
730.32	34.375
730.64	34.448
730.96	29.043
731.27	34.437
731.59	31.498
731.90	30.029
732.22	30.745
732.53	30.341
732.85	29.808
733.16	34.727
733.48	35.216
733.80	31.169
734.11	36.943
734.43	30.769
734.74	27.714
735.06	26.074
735.37	34.682
735.69	32.484
736.00	33.987
736.32	31.153
736.63	30.990
736.95	32.268
737.26	27.211
737.58	26.774
737.89	36.120
738.21	31.741
738.52	35.714
738.83	35.094
739.15	36.538
739.46	33.942
739.78	33.333
740.09	31.077
740.41	34.194
740.72	34.495
741.04	37.407
741.35	38.333
741.66	40.889
741.98	39.623
742.29	40.191
742.61	44.828
742.92	40.271
743.23	36.325
743.55	40.000
743.86	39.474
744.18	40.708
744.49	45.933
744.80	41.784
745.12	45.909
745.43	40.529
745.74	41.892
746.06	42.661
746.37	40.807
746.68	38.009
747.00	42.593
747.31	44.286
747.62	37.611
747.94	40.529
748.25	37.447
748.56	42.731
748.88	41.584
749.19	46.500
749.50	42.791
749.82	36.992
750.13	30.204
750.44	35.766
750.75	33.333
751.07	34.405
751.38	36.585
751.69	32.130
752.01	34.586
752.32	33.935
752.63	34.752
752.94	35.656
753.26	40.800
753.57	33.333
753.88	35.156
754.19	31.071
754.51	33.333
754.82	31.047
755.13	38.113
755.44	37.218
755.75	30.292
756.07	29.433
756.38	30.292
756.69	31.879
757.00	30.539
757.31	32.938
757.63	28.655
757.94	26.542
758.25	27.696
758.56	28.889
758.87	27.957
759.18	35.152
759.50	32.288
759.81	27.103
760.12	26.563
760.43	28.653
760.74	29.076
761.05	30.226
761.36	26.738
761.67	30.114
761.99	29.503
762.30	34.722
762.61	34.733
762.92	37.891
763.23	36.134
763.54	42.400
763.85	31.250
764.16	35.000
764.47	34.221
764.78	30.035
765.10	26.899
765.41	26.844
765.72	29.940
766.03	28.213
766.34	30.000
766.65	36.170
766.96	34.188
767.27	40.102
767.58	37.500
767.89	47.368
768.20	45.977
768.51	36.041
768.82	39.450
769.13	32.927
769.44	35.223
769.75	33.047
770.06	31.651
770.37	38.914
770.68	43.056
770.99	40.889
771.30	30.738
771.61	36.771
771.92	34.426
772.23	39.076
772.54	42.051
772.85	39.267
773.16	43.617
773.47	41.848
773.78	39.594
774.09	38.095
774.39	46.199
774.70	44.444
775.01	50.000
775.32	54.248
775.63	42.105
775.94	46.043
776.25	56.693
776.56	50.746
776.87	44.262
777.18	54.688
777.48	53.435
777.79	49.242
778.10	50.370
778.41	58.036
778.72	49.635
779.03	44.295
779.34	48.993
779.65	45.946
779.95	40.491
780.26	40.523
780.57	54.483
780.88	69.531
781.19	52.632
781.50	50.000
781.80	39.623
782.11	41.808
782.42	40.506
782.73	43.558
783.04	47.297
783.34	52.113
783.65	52.055
783.96	52.239
784.27	42.657
784.57	48.921
784.88	40.741
785.19	55.556
785.50	51.887
785.81	47.015
786.11	63.115
786.42	51.938
786.73	57.522
787.04	66.038
787.34	51.786
787.65	54.000
787.96	54.955
788.26	49.587
788.57	61.017
788.88	60.331
789.19	52.083
789.49	50.758
789.80	52.672
790.11	71.429
790.41	66.337
790.72	81.928
791.03	75.000
791.33	68.605
791.64	73.196
791.95	69.307
792.25	62.222
792.56	74.026
792.87	91.026
793.17	82.278
793.48	77.011
793.79	66.667
794.09	70.455
794.40	53.782
794.70	52.206
795.01	44.444
795.32	44.604
795.62	53.543
795.93	59.483
796.23	64.602
796.54	69.412
796.85	77.027
797.15	84.507
797.46	80.303
797.76	83.133
798.07	79.747
798.37	73.846
798.68	81.818
798.99	67.606
799.29	71.429
799.60	71.591
799.90	89.041
800.21	71.642
800.51	65.517
800.82	80.702
801.12	88.525
801.43	87.879
801.73	75.676
802.04	84.127
802.34	74.074
802.65	85.938
802.95	84.746
803.26	84.375
803.56	77.143
803.87	86.154
804.17	85.294
804.48	112.963
804.78	101.724
805.09	79.412
805.39	96.154
805.70	94.643
806.00	93.443
806.30	72.727
806.61	84.146
806.91	77.215
807.22	65.789
807.52	62.687
807.83	81.690
808.13	78.125
808.43	90.000
808.74	80.263
809.04	89.855
809.35	80.597
809.65	76.316
809.95	91.935
810.26	91.525
810.56	87.302
810.86	125.000
811.17	140.476
811.47	101.667
811.77	90.741
812.08	101.818
812.38	132.000
812.69	108.333
812.99	150.000
813.29	126.531
813.59	126.190
813.90	124.490
814.20	92.727
814.50	78.462
814.81	91.176
815.11	110.204
815.41	98.361
815.72	159.524
816.02	100.000
816.32	111.905
816.62	115.000
816.93	134.146
817.23	138.095
817.53	115.909
817.84	172.727
818.14	128.261
818.44	122.222
818.74	152.941
819.04	117.500
819.35	154.286
819.65	152.941
819.95	175.000
820.25	230.000
820.56	148.718
820.86	150.000
821.16	155.814
821.46	151.282
821.76	140.000
822.07	157.143
822.37	145.000
822.67	130.303
822.97	111.765
823.27	189.286
823.57	145.946
823.88	155.000
824.18	140.000
824.48	171.429
824.78	188.000
825.08	166.667
825.38	145.946
825.69	139.024
825.99	195.833
826.29	148.276
826.59	155.263
826.89	160.526
827.19	173.529
827.49	154.839
827.79	140.909
828.09	127.273
828.39	121.277
828.70	106.122
829.00	162.963
829.30	193.548
829.60	130.000
829.90	260.000
830.20	185.714
830.50	178.261
830.80	226.087
831.10	173.333
831.40	186.667
831.70	191.304
832.00	180.769
832.30	159.259
832.60	368.750
832.90	190.000
833.20	364.286
833.50	187.097
833.80	168.966
834.10	209.375
834.40	238.462
834.70	305.556
835.00	280.952
835.30	145.714
835.60	192.308
835.90	179.310
836.20	314.286
836.50	182.759
836.80	176.000
837.10	175.000
837.40	261.905
837.70	317.647
838.00	181.481
838.30	190.476
838.60	338.095
838.90	230.769
839.19	245.000
839.49	314.286
839.79	290.000
840.09	235.000
840.39	252.381
840.69	247.826
840.99	244.444
841.29	350.000
841.59	383.333
841.88	312.500
842.18	179.310
842.48	257.143
842.78	170.000
843.08	204.348
843.38	203.125
843.68	750.000
843.97	203.846
844.27	162.069
844.57	271.429
844.87	343.750
845.17	218.519
845.47	1366.667
845.76	555.556
846.06	305.882
846.36	475.000
846.66	378.571
846.96	256.250
847.25	436.364
847.55	418.182
847.85	243.478
848.15	540.000
848.44	385.714
848.74	238.889
849.04	305.882
849.34	490.000
849.63	236.842
849.93	581.818
850.23	840.000
850.53	400.000
850.82	2150.000
851.12	-4200.000
851.42	4600.000
851.71	275.000
852.01	-1166.667
852.31	204.167
852.61	1666.667
852.90	233.333
853.20	180.000
853.50	288.235
853.79	242.857
854.09	195.833
854.39	256.250
854.68	178.378
854.98	167.742
855.28	126.667
855.57	210.345
855.87	218.519
856.17	200.000
856.46	246.667
856.76	205.882
857.05	158.621
857.35	187.500
857.65	346.667
857.94	186.957
858.24	226.923
858.53	295.000
858.83	200.000
859.13	393.333
859.42	0.000
859.72	477.778
860.01	400.000
860.31	236.364
860.60	268.421
860.90	213.043
861.20	544.444
861.49	433.333
861.79	-3500.000
862.08	487.500
862.38	271.429
862.67	276.923
862.97	317.647
863.26	566.667
863.56	266.667
863.85	375.000
864.15	575.000
864.44	400.000
864.74	783.333
865.03	600.000
865.33	278.947
865.62	390.909
865.92	476.923
866.21	441.667
866.51	0.000
866.80	400.000
867.10	960.000
867.39	430.769
867.69	427.273
867.98	226.316
868.27	409.091
868.57	326.316
868.86	-4600.000
869.16	331.250
869.45	1750.000
869.75	-3300.000
870.04	408.333
870.33	571.429
870.63	1050.000
870.92	2750.000
871.22	828.571
871.51	252.941
871.80	214.286
872.10	385.714
>>>>>End Processed Spectral Data<<<<<
