SpectraSuite Data File
++++++++++++++++++++++++++++++++++++
Date: Wed May 13 16:04:35 PDT 2015
User: schluterlab
Dark Spectrum Present: Yes
Reference Spectrum Present: Yes
Number of Sampled Component Spectra: 1
Spectrometers: USB2E3373
Integration Time (usec): 3000 (USB2E3373)
Spectra Averaged: 3 (USB2E3373)
Boxcar Smoothing: 0 (USB2E3373)
Correct for Electrical Dark: No (USB2E3373)
Strobe/Lamp Enabled: No (USB2E3373)
Correct for Detector Non-linearity: No (USB2E3373)
Correct for Stray Light: No (USB2E3373)
Number of Pixels in Processed Spectrum: 2048
>>>>>Begin Processed Spectral Data<<<<<
178.53	0.000
178.91	-450.000
179.29	-425.000
179.67	-100.000
180.04	-625.000
180.42	1500.000
180.80	600.000
181.18	-600.000
181.56	371.429
181.94	0.000
182.31	-385.714
182.69	866.667
183.07	-250.000
183.45	-244.444
183.83	290.909
184.20	-180.000
184.58	1300.000
184.96	2700.000
185.34	-500.000
185.72	-350.000
186.09	-900.000
186.47	1500.000
186.85	1150.000
187.23	2100.000
187.61	-633.333
187.98	725.000
188.36	272.727
188.74	227.273
189.12	-360.000
189.49	370.000
189.87	-2200.000
190.25	-500.000
190.63	200.000
191.00	223.077
191.38	333.333
191.76	-450.000
192.14	750.000
192.51	450.000
192.89	500.000
193.27	312.500
193.65	-800.000
194.02	290.000
194.40	460.000
194.78	330.000
195.15	275.000
195.53	370.000
195.91	-250.000
196.29	218.750
196.66	189.474
197.04	-100.000
197.42	0.000
197.79	420.000
198.17	-2700.000
198.55	385.714
198.92	425.000
199.30	380.000
199.68	0.000
200.05	211.111
200.43	514.286
200.81	2100.000
201.18	1033.333
201.56	-666.667
201.94	333.333
202.31	311.111
202.69	308.333
203.07	320.000
203.44	0.000
203.82	550.000
204.19	400.000
204.57	328.571
204.95	312.500
205.32	1000.000
205.70	309.091
206.08	192.857
206.45	1400.000
206.83	281.250
207.20	633.333
207.58	300.000
207.96	194.444
208.33	300.000
208.71	-283.333
209.08	528.571
209.46	355.556
209.84	300.000
210.21	-900.000
210.59	825.000
210.96	-237.500
211.34	1350.000
211.71	320.000
212.09	350.000
212.46	0.000
212.84	966.667
213.22	900.000
213.59	-2500.000
213.97	366.667
214.34	485.714
214.72	381.818
215.09	640.000
215.47	-850.000
215.84	-1450.000
216.22	833.333
216.59	192.857
216.97	700.000
217.34	300.000
217.72	-266.667
218.09	0.000
218.47	-1700.000
218.84	233.333
219.22	228.571
219.59	1033.333
219.97	-257.143
220.34	400.000
220.72	-1000.000
221.09	264.286
221.47	975.000
221.84	-433.333
222.22	0.000
222.59	800.000
222.97	-1600.000
223.34	540.000
223.72	223.077
224.09	560.000
224.46	1150.000
224.84	-2100.000
225.21	-600.000
225.59	-2800.000
225.96	420.000
226.34	200.000
226.71	1250.000
227.08	300.000
227.46	360.000
227.83	-400.000
228.21	-1000.000
228.58	244.444
228.95	-1450.000
229.33	-1300.000
229.70	900.000
230.08	357.143
230.45	-400.000
230.82	258.333
231.20	466.667
231.57	314.286
231.95	283.333
232.32	118.182
232.69	227.273
233.07	442.857
233.44	215.385
233.81	-933.333
234.19	136.842
234.56	216.667
234.93	275.000
235.31	300.000
235.68	223.077
236.05	192.857
236.43	130.303
236.80	115.789
237.17	2500.000
237.55	176.190
237.92	150.000
238.29	190.476
238.67	119.355
239.04	148.276
239.41	88.889
239.79	93.478
240.16	111.905
240.53	125.000
240.91	94.118
241.28	86.000
241.65	80.000
242.02	85.507
242.40	95.161
242.77	81.667
243.14	73.118
243.51	82.022
243.89	85.882
244.26	72.222
244.63	62.366
245.00	77.660
245.38	63.366
245.75	67.290
246.12	62.385
246.49	70.803
246.87	69.600
247.24	66.923
247.61	67.143
247.98	54.248
248.36	58.784
248.73	56.688
249.10	64.968
249.47	55.932
249.84	56.684
250.22	57.754
250.59	56.213
250.96	59.091
251.33	58.768
251.70	65.347
252.08	57.619
252.45	55.605
252.82	54.783
253.19	58.298
253.56	49.412
253.94	58.506
254.31	50.781
254.68	59.231
255.05	56.089
255.42	56.911
255.79	54.779
256.16	52.708
256.54	50.530
256.91	51.601
257.28	52.518
257.65	51.485
258.02	50.932
258.39	48.896
258.76	49.164
259.14	55.655
259.51	52.584
259.88	51.863
260.25	49.547
260.62	48.844
260.99	52.484
261.36	49.550
261.73	49.570
262.10	50.291
262.47	50.704
262.85	49.861
263.22	48.718
263.59	50.997
263.96	48.626
264.33	51.436
264.70	52.632
265.07	49.872
265.44	51.010
265.81	46.715
266.18	51.508
266.55	49.512
266.92	52.088
267.29	50.694
267.66	47.248
268.03	48.864
268.40	50.234
268.77	48.449
269.14	47.748
269.51	50.339
269.88	51.049
270.25	48.307
270.62	49.213
270.99	50.108
271.36	46.352
271.73	46.963
272.10	48.478
272.47	49.892
272.84	47.835
273.21	49.057
273.58	47.162
273.95	44.654
274.32	45.248
274.69	46.681
275.06	43.898
275.43	49.362
275.80	44.890
276.17	47.862
276.54	46.570
276.91	48.221
277.28	46.289
277.65	45.648
278.02	49.068
278.39	47.656
278.76	46.545
279.13	46.604
279.50	44.507
279.87	45.219
280.23	46.108
280.60	44.681
280.97	46.765
281.34	46.726
281.71	44.364
282.08	45.681
282.45	45.273
282.82	45.471
283.19	46.168
283.56	45.614
283.92	44.839
284.29	44.092
284.66	44.465
285.03	42.676
285.40	42.958
285.77	44.108
286.14	44.732
286.51	45.833
286.87	44.615
287.24	45.765
287.61	43.820
287.98	44.481
288.35	41.838
288.72	42.056
289.08	41.315
289.45	40.857
289.82	42.114
290.19	40.188
290.56	39.051
290.93	38.520
291.29	39.724
291.66	40.413
292.03	38.663
292.40	40.382
292.77	37.722
293.13	38.806
293.50	40.379
293.87	39.111
294.24	37.333
294.60	37.263
294.97	39.971
295.34	36.671
295.71	38.778
296.08	35.470
296.44	37.552
296.81	35.271
297.18	37.398
297.55	34.169
297.91	36.412
298.28	37.082
298.65	36.423
299.02	37.418
299.38	34.263
299.75	34.367
300.12	34.610
300.48	34.625
300.85	34.155
301.22	34.268
301.59	34.596
301.95	34.887
302.32	33.761
302.69	34.289
303.05	34.424
303.42	33.580
303.79	34.202
304.15	31.702
304.52	33.256
304.89	33.914
305.25	33.063
305.62	33.069
305.99	34.475
306.35	33.557
306.72	33.184
307.09	33.185
307.45	33.333
307.82	32.143
308.19	32.340
308.55	35.491
308.92	33.512
309.29	32.101
309.65	32.450
310.02	34.567
310.38	32.688
310.75	33.369
311.12	33.265
311.48	33.229
311.85	34.382
312.22	33.299
312.58	32.017
312.95	34.002
313.31	31.553
313.68	34.304
314.05	35.700
314.41	33.970
314.78	34.642
315.14	35.253
315.51	35.736
315.87	33.861
316.24	34.657
316.61	35.478
316.97	33.562
317.34	34.540
317.70	35.564
318.07	35.226
318.43	35.910
318.80	34.396
319.16	34.652
319.53	34.053
319.89	35.905
320.26	35.800
320.62	36.012
320.99	36.162
321.35	35.354
321.72	36.140
322.08	37.117
322.45	36.716
322.81	37.016
323.18	36.802
323.54	37.199
323.91	37.830
324.27	37.189
324.64	36.999
325.00	36.519
325.37	35.942
325.73	38.510
326.10	37.423
326.46	37.455
326.83	37.360
327.19	37.489
327.56	36.585
327.92	37.883
328.29	37.356
328.65	38.582
329.01	38.538
329.38	38.575
329.74	37.673
330.11	36.664
330.47	38.843
330.84	38.879
331.20	37.705
331.56	39.083
331.93	37.500
332.29	38.598
332.66	38.938
333.02	39.031
333.38	39.115
333.75	38.948
334.11	38.256
334.48	37.533
334.84	37.592
335.20	38.364
335.57	38.259
335.93	36.964
336.29	39.103
336.66	39.044
337.02	38.190
337.38	37.130
337.75	36.898
338.11	38.048
338.47	38.306
338.84	39.047
339.20	37.982
339.56	38.412
339.93	39.091
340.29	38.315
340.65	37.701
341.02	39.267
341.38	38.612
341.74	39.123
342.11	39.389
342.47	37.709
342.83	37.671
343.20	39.567
343.56	37.152
343.92	38.772
344.28	38.265
344.65	38.865
345.01	37.879
345.37	36.964
345.73	38.240
346.10	38.022
346.46	37.373
346.82	37.891
347.19	37.510
347.55	37.931
347.91	38.026
348.27	38.537
348.63	37.542
349.00	37.621
349.36	37.356
349.72	36.087
350.08	38.250
350.45	38.568
350.81	37.206
351.17	38.979
351.53	38.247
351.89	37.624
352.26	37.490
352.62	38.091
352.98	37.277
353.34	39.113
353.70	37.316
354.07	37.742
354.43	38.016
354.79	37.088
355.15	38.148
355.51	38.050
355.87	38.939
356.24	38.518
356.60	36.969
356.96	38.697
357.32	39.330
357.68	37.402
358.04	38.084
358.40	37.213
358.77	38.263
359.13	38.200
359.49	37.490
359.85	37.540
360.21	38.756
360.57	38.599
360.93	38.308
361.29	38.322
361.66	37.848
362.02	38.955
362.38	38.859
362.74	39.286
363.10	37.898
363.46	37.784
363.82	38.624
364.18	38.620
364.54	40.045
364.90	39.235
365.26	37.941
365.62	39.226
365.98	38.568
366.35	38.037
366.71	38.250
367.07	39.548
367.43	38.970
367.79	39.543
368.15	40.302
368.51	39.608
368.87	39.186
369.23	39.356
369.59	39.754
369.95	40.294
370.31	39.387
370.67	41.014
371.03	40.974
371.39	38.994
371.75	40.956
372.11	39.545
372.47	41.349
372.83	41.210
373.19	39.957
373.55	42.055
373.91	42.121
374.27	39.519
374.63	41.964
374.99	42.373
375.35	41.731
375.71	41.330
376.07	40.535
376.42	41.403
376.78	41.418
377.14	41.520
377.50	41.589
377.86	40.891
378.22	42.920
378.58	41.604
378.94	42.112
379.30	42.303
379.66	42.386
380.02	41.953
380.38	41.712
380.74	42.017
381.09	42.543
381.45	44.069
381.81	43.550
382.17	44.395
382.53	43.333
382.89	43.210
383.25	43.215
383.61	44.796
383.97	44.528
384.32	44.105
384.68	43.123
385.04	43.516
385.40	43.344
385.76	43.796
386.12	44.236
386.48	44.430
386.83	44.708
387.19	46.197
387.55	44.712
387.91	44.740
388.27	45.677
388.62	45.175
388.98	44.165
389.34	45.181
389.70	45.371
390.06	46.641
390.42	46.693
390.77	46.501
391.13	45.948
391.49	45.685
391.85	45.767
392.20	45.931
392.56	45.833
392.92	46.321
393.28	45.148
393.64	45.683
393.99	46.854
394.35	47.146
394.71	46.173
395.07	45.670
395.42	46.910
395.78	46.565
396.14	46.120
396.50	47.431
396.85	45.455
397.21	45.006
397.57	45.815
397.92	46.154
398.28	46.917
398.64	45.579
399.00	45.999
399.35	45.854
399.71	46.759
400.07	46.718
400.42	45.644
400.78	46.864
401.14	47.317
401.49	46.388
401.85	45.735
402.21	45.988
402.57	46.144
402.92	47.667
403.28	47.096
403.63	46.101
403.99	45.478
404.35	45.455
404.70	46.043
405.06	45.486
405.42	46.226
405.77	45.429
406.13	45.993
406.49	45.949
406.84	45.836
407.20	44.681
407.55	46.650
407.91	46.800
408.27	46.586
408.62	46.057
408.98	44.608
409.34	45.203
409.69	45.097
410.05	46.035
410.40	45.688
410.76	45.341
411.11	44.029
411.47	44.920
411.83	45.510
412.18	43.970
412.54	46.077
412.89	44.217
413.25	44.156
413.60	45.151
413.96	44.505
414.31	44.350
414.67	44.170
415.03	44.238
415.38	46.070
415.74	45.402
416.09	45.069
416.45	45.783
416.80	45.869
417.16	45.308
417.51	45.654
417.87	44.059
418.22	45.489
418.58	44.997
418.93	44.656
419.29	44.749
419.64	45.403
420.00	44.817
420.35	44.580
420.71	46.204
421.06	43.735
421.42	44.971
421.77	44.955
422.12	43.796
422.48	44.954
422.83	44.962
423.19	43.867
423.54	46.373
423.90	45.449
424.25	44.891
424.61	44.583
424.96	45.481
425.31	44.241
425.67	44.213
426.02	44.057
426.38	45.238
426.73	44.470
427.09	44.681
427.44	44.163
427.79	45.083
428.15	44.762
428.50	44.587
428.85	44.756
429.21	44.451
429.56	45.671
429.92	44.892
430.27	43.793
430.62	44.240
430.98	44.681
431.33	44.072
431.68	45.131
432.04	44.302
432.39	44.489
432.74	44.345
433.10	44.822
433.45	45.481
433.80	43.792
434.16	45.673
434.51	44.632
434.86	43.729
435.22	45.247
435.57	44.681
435.92	44.236
436.28	46.619
436.63	45.254
436.98	44.419
437.34	44.544
437.69	45.799
438.04	44.969
438.39	44.776
438.75	44.451
439.10	44.804
439.45	44.156
439.81	44.955
440.16	44.495
440.51	44.933
440.86	44.933
441.22	45.050
441.57	45.329
441.92	43.910
442.27	44.510
442.63	44.392
442.98	44.958
443.33	44.511
443.68	44.812
444.03	44.558
444.39	44.937
444.74	45.292
445.09	44.798
445.44	44.122
445.79	43.741
446.15	43.833
446.50	44.696
446.85	44.193
447.20	44.008
447.55	44.724
447.91	43.409
448.26	44.407
448.61	44.093
448.96	44.075
449.31	44.038
449.66	43.950
450.02	44.234
450.37	43.991
450.72	43.316
451.07	43.693
451.42	42.979
451.77	44.334
452.12	43.591
452.47	43.159
452.83	43.939
453.18	43.276
453.53	43.785
453.88	43.532
454.23	43.096
454.58	45.245
454.93	45.010
455.28	44.202
455.63	44.235
455.98	45.417
456.34	43.279
456.69	44.333
457.04	45.139
457.39	43.776
457.74	43.529
458.09	43.301
458.44	43.786
458.79	42.299
459.14	43.623
459.49	43.608
459.84	43.380
460.19	42.428
460.54	43.229
460.89	44.871
461.24	43.837
461.59	43.986
461.94	42.663
462.29	43.086
462.64	42.055
462.99	41.770
463.34	43.867
463.69	42.589
464.04	43.246
464.39	41.971
464.74	42.305
465.09	42.823
465.44	42.105
465.79	43.177
466.14	41.872
466.49	41.713
466.84	42.674
467.19	41.521
467.54	42.625
467.89	42.797
468.24	41.070
468.59	42.552
468.94	40.745
469.29	41.710
469.64	42.838
469.99	43.234
470.34	42.470
470.68	41.739
471.03	42.721
471.38	42.391
471.73	42.172
472.08	41.711
472.43	41.457
472.78	42.462
473.13	41.656
473.48	41.823
473.83	41.585
474.17	41.319
474.52	41.625
474.87	41.973
475.22	43.180
475.57	40.140
475.92	40.998
476.27	41.206
476.61	40.871
476.96	40.737
477.31	41.758
477.66	40.700
478.01	40.617
478.36	41.724
478.70	40.498
479.05	40.735
479.40	40.532
479.75	40.671
480.10	40.706
480.45	40.600
480.79	39.895
481.14	40.264
481.49	41.433
481.84	39.552
482.19	40.618
482.53	40.183
482.88	40.065
483.23	40.654
483.58	40.355
483.92	41.143
484.27	39.172
484.62	40.086
484.97	39.890
485.31	41.438
485.66	40.733
486.01	40.217
486.36	38.141
486.70	37.683
487.05	37.528
487.40	38.355
487.75	38.828
488.09	38.459
488.44	38.959
488.79	39.566
489.13	39.916
489.48	39.233
489.83	39.404
490.17	39.281
490.52	38.884
490.87	38.263
491.22	38.881
491.56	37.950
491.91	38.809
492.26	37.483
492.60	38.433
492.95	38.587
493.30	38.037
493.64	39.384
493.99	39.090
494.34	38.205
494.68	39.148
495.03	38.252
495.37	39.041
495.72	39.133
496.07	38.608
496.41	38.009
496.76	38.698
497.11	38.046
497.45	38.519
497.80	38.484
498.14	37.923
498.49	37.951
498.84	38.543
499.18	37.905
499.53	38.509
499.87	37.698
500.22	38.106
500.56	38.689
500.91	38.510
501.26	38.217
501.60	38.681
501.95	37.443
502.29	38.379
502.64	38.920
502.98	37.915
503.33	38.574
503.67	37.216
504.02	37.184
504.36	36.734
504.71	38.007
505.06	38.169
505.40	37.822
505.75	36.789
506.09	36.978
506.44	38.234
506.78	38.480
507.13	37.355
507.47	38.081
507.82	38.602
508.16	37.741
508.51	38.407
508.85	37.438
509.19	36.990
509.54	36.990
509.88	36.425
510.23	37.172
510.57	38.958
510.92	36.769
511.26	37.256
511.61	37.344
511.95	36.848
512.30	36.850
512.64	37.668
512.98	36.817
513.33	36.724
513.67	37.407
514.02	37.175
514.36	38.285
514.70	36.469
515.05	36.698
515.39	37.241
515.74	37.613
516.08	36.836
516.42	37.736
516.77	37.848
517.11	36.238
517.46	36.682
517.80	37.747
518.14	36.306
518.49	35.998
518.83	37.784
519.17	37.182
519.52	37.125
519.86	37.193
520.20	36.301
520.55	38.540
520.89	36.557
521.23	37.575
521.58	36.435
521.92	38.273
522.26	35.754
522.61	37.259
522.95	35.973
523.29	35.362
523.64	35.488
523.98	37.523
524.32	35.766
524.66	36.621
525.01	36.642
525.35	37.361
525.69	35.283
526.04	35.950
526.38	36.425
526.72	36.442
527.06	36.723
527.41	34.406
527.75	36.592
528.09	36.609
528.43	36.648
528.78	36.693
529.12	36.121
529.46	37.110
529.80	36.757
530.15	36.262
530.49	35.446
530.83	35.696
531.17	37.076
531.51	36.641
531.86	36.710
532.20	36.571
532.54	35.682
532.88	35.366
533.22	34.478
533.57	36.049
533.91	35.521
534.25	35.419
534.59	35.570
534.93	35.336
535.27	36.029
535.62	36.325
535.96	36.974
536.30	36.109
536.64	35.351
536.98	35.169
537.32	35.286
537.66	36.000
538.01	35.747
538.35	34.712
538.69	35.673
539.03	35.218
539.37	34.760
539.71	35.839
540.05	34.706
540.39	35.615
540.73	34.282
541.07	35.432
541.42	35.290
541.76	35.484
542.10	35.123
542.44	35.033
542.78	35.837
543.12	35.189
543.46	35.410
543.80	34.938
544.14	33.761
544.48	34.159
544.82	35.022
545.16	34.418
545.50	34.769
545.84	34.341
546.18	35.623
546.52	34.067
546.86	35.326
547.20	34.929
547.54	34.603
547.88	35.778
548.22	34.745
548.56	34.906
548.90	34.059
549.24	35.084
549.58	34.584
549.92	35.096
550.26	34.162
550.60	34.232
550.94	34.014
551.28	34.089
551.62	35.945
551.96	34.035
552.30	35.290
552.64	33.536
552.98	34.712
553.32	35.401
553.66	34.901
554.00	34.660
554.34	33.678
554.68	34.835
555.02	34.415
555.36	33.820
555.69	33.627
556.03	34.859
556.37	34.720
556.71	34.038
557.05	33.403
557.39	33.170
557.73	33.169
558.07	34.445
558.41	34.515
558.75	35.489
559.08	34.526
559.42	35.072
559.76	34.265
560.10	33.119
560.44	34.312
560.78	33.466
561.12	33.443
561.45	34.355
561.79	33.421
562.13	33.467
562.47	34.290
562.81	33.961
563.15	33.779
563.48	33.488
563.82	34.181
564.16	33.748
564.50	32.422
564.84	33.186
565.17	33.526
565.51	33.674
565.85	33.629
566.19	33.563
566.52	34.262
566.86	32.851
567.20	34.080
567.54	34.189
567.88	32.700
568.21	33.333
568.55	33.670
568.89	33.852
569.23	32.308
569.56	33.522
569.90	32.566
570.24	33.297
570.57	32.982
570.91	32.127
571.25	32.551
571.59	32.518
571.92	32.316
572.26	32.207
572.60	32.372
572.93	32.024
573.27	33.185
573.61	32.859
573.95	33.359
574.28	32.487
574.62	32.046
574.96	32.473
575.29	32.177
575.63	32.266
575.97	31.867
576.30	32.369
576.64	32.348
576.98	31.405
577.31	32.394
577.65	32.682
577.98	32.509
578.32	31.851
578.66	32.075
578.99	31.568
579.33	31.808
579.67	30.990
580.00	31.959
580.34	31.490
580.67	32.096
581.01	32.089
581.35	32.277
581.68	31.895
582.02	32.097
582.35	31.664
582.69	32.045
583.02	31.450
583.36	31.842
583.70	31.194
584.03	31.766
584.37	32.543
584.70	31.897
585.04	31.629
585.37	32.036
585.71	32.119
586.04	31.916
586.38	31.870
586.72	32.505
587.05	31.703
587.39	31.451
587.72	31.796
588.06	31.403
588.39	31.687
588.73	31.652
589.06	32.128
589.40	32.155
589.73	31.679
590.07	31.708
590.40	31.750
590.73	32.358
591.07	32.601
591.40	32.644
591.74	33.680
592.07	32.373
592.41	32.162
592.74	32.097
593.08	31.679
593.41	31.825
593.75	30.700
594.08	31.344
594.41	32.025
594.75	31.719
595.08	31.317
595.42	31.839
595.75	31.660
596.09	32.332
596.42	32.181
596.75	32.165
597.09	32.121
597.42	30.354
597.75	31.910
598.09	30.739
598.42	31.959
598.76	31.779
599.09	30.901
599.42	31.259
599.76	32.247
600.09	31.585
600.42	30.789
600.76	31.214
601.09	30.893
601.42	32.192
601.76	30.778
602.09	31.423
602.42	32.205
602.76	32.527
603.09	32.179
603.42	31.706
603.76	30.678
604.09	31.020
604.42	31.023
604.76	31.295
605.09	31.717
605.42	30.996
605.75	32.036
606.09	30.663
606.42	31.222
606.75	31.190
607.09	32.315
607.42	30.766
607.75	30.127
608.08	30.569
608.42	31.645
608.75	30.523
609.08	31.036
609.41	30.176
609.75	31.110
610.08	31.103
610.41	31.192
610.74	31.031
611.07	31.621
611.41	31.060
611.74	31.624
612.07	31.781
612.40	31.165
612.73	30.684
613.07	30.550
613.40	31.806
613.73	29.470
614.06	30.538
614.39	31.201
614.72	30.895
615.06	31.408
615.39	30.573
615.72	29.806
616.05	29.771
616.38	30.128
616.71	31.770
617.05	31.802
617.38	30.547
617.71	29.790
618.04	31.611
618.37	30.988
618.70	31.487
619.03	31.316
619.36	30.550
619.69	30.634
620.03	31.181
620.36	31.417
620.69	31.575
621.02	31.047
621.35	30.384
621.68	30.607
622.01	31.734
622.34	30.484
622.67	31.255
623.00	30.521
623.33	30.808
623.66	30.307
623.99	31.075
624.32	31.027
624.65	30.226
624.99	29.887
625.32	30.630
625.65	30.203
625.98	30.899
626.31	30.715
626.64	31.837
626.97	30.590
627.30	30.507
627.63	31.091
627.96	30.866
628.29	30.884
628.62	30.924
628.95	32.642
629.28	31.204
629.61	31.622
629.94	32.095
630.26	30.982
630.59	30.791
630.92	31.034
631.25	30.306
631.58	29.930
631.91	31.643
632.24	30.169
632.57	30.325
632.90	31.031
633.23	30.201
633.56	32.881
633.89	29.898
634.22	31.555
634.55	30.769
634.88	30.898
635.20	30.824
635.53	31.084
635.86	31.807
636.19	30.588
636.52	30.219
636.85	30.126
637.18	28.917
637.51	31.442
637.83	27.990
638.16	30.179
638.49	31.108
638.82	32.364
639.15	30.750
639.48	31.920
639.81	32.306
640.13	31.901
640.46	31.812
640.79	31.440
641.12	30.674
641.45	30.307
641.77	33.579
642.10	31.287
642.43	30.631
642.76	31.424
643.09	32.209
643.41	30.804
643.74	32.253
644.07	31.402
644.40	34.049
644.73	30.866
645.05	32.647
645.38	30.174
645.71	29.952
646.04	31.894
646.36	32.387
646.69	33.612
647.02	31.293
647.35	31.443
647.67	30.619
648.00	31.220
648.33	31.518
648.66	31.515
648.98	32.084
649.31	30.344
649.64	30.194
649.96	29.806
650.29	30.648
650.62	29.935
650.94	29.335
651.27	33.784
651.60	30.616
651.92	31.629
652.25	31.107
652.58	31.464
652.90	30.806
653.23	29.738
653.56	31.496
653.88	31.220
654.21	30.490
654.54	30.693
654.86	32.399
655.19	30.135
655.52	26.181
655.84	27.776
656.17	35.043
656.49	46.669
656.82	45.790
657.15	34.184
657.47	24.796
657.80	18.984
658.13	19.455
658.45	28.476
658.78	29.299
659.10	29.466
659.43	30.088
659.75	31.309
660.08	32.342
660.41	33.333
660.73	33.926
661.06	31.847
661.38	34.545
661.71	31.923
662.03	32.742
662.36	28.628
662.68	31.928
663.01	32.525
663.33	32.909
663.66	32.563
663.98	32.613
664.31	30.252
664.63	30.364
664.96	29.577
665.28	32.992
665.61	28.265
665.93	28.974
666.26	33.874
666.58	31.590
666.91	34.038
667.23	30.562
667.56	31.533
667.88	30.128
668.21	34.328
668.53	29.501
668.86	30.303
669.18	33.049
669.50	30.217
669.83	35.730
670.15	31.111
670.48	32.026
670.80	33.836
671.13	32.272
671.45	30.213
671.77	32.790
672.10	31.978
672.42	30.742
672.75	30.680
673.07	30.458
673.39	29.476
673.72	29.492
674.04	30.588
674.37	30.291
674.69	30.266
675.01	30.544
675.34	31.828
675.66	32.842
675.98	31.568
676.31	30.672
676.63	30.361
676.95	30.189
677.28	33.178
677.60	28.571
677.92	31.224
678.25	32.854
678.57	32.271
678.89	34.469
679.22	32.220
679.54	32.443
679.86	31.009
680.18	30.233
680.51	33.156
680.83	31.317
681.15	32.453
681.48	30.813
681.80	30.754
682.12	32.759
682.44	29.594
682.77	33.605
683.09	34.335
683.41	32.373
683.73	31.567
684.06	32.025
684.38	30.724
684.70	30.620
685.02	30.582
685.34	30.403
685.67	30.070
685.99	30.584
686.31	31.058
686.63	27.739
686.96	30.000
687.28	32.130
687.60	31.884
687.92	31.261
688.24	31.179
688.56	31.325
688.89	31.120
689.21	31.878
689.53	31.106
689.85	31.707
690.17	31.263
690.49	32.909
690.82	32.009
691.14	29.241
691.46	30.380
691.78	30.924
692.10	34.091
692.42	30.339
692.74	30.498
693.06	31.064
693.39	33.470
693.71	32.751
694.03	31.789
694.35	29.870
694.67	31.579
694.99	30.976
695.31	29.412
695.63	31.818
695.95	31.785
696.27	28.934
696.59	28.756
696.91	32.383
697.23	29.812
697.56	32.623
697.88	29.448
698.20	31.458
698.52	29.462
698.84	29.844
699.16	30.876
699.48	32.067
699.80	34.058
700.12	34.026
700.44	33.156
700.76	32.044
701.08	31.034
701.40	30.168
701.72	35.569
702.04	35.795
702.36	27.479
702.68	34.278
703.00	31.025
703.32	33.511
703.64	30.295
703.96	33.705
704.28	32.558
704.60	36.364
704.91	33.531
705.23	31.085
705.55	33.223
705.87	38.538
706.19	31.095
706.51	31.153
706.83	36.364
707.15	34.174
707.47	28.535
707.79	32.678
708.11	29.452
708.43	31.429
708.74	29.337
709.06	29.351
709.38	31.496
709.70	34.012
710.02	32.344
710.34	29.091
710.66	35.224
710.98	31.250
711.29	30.814
711.61	32.743
711.93	32.372
712.25	33.762
712.57	31.250
712.89	32.526
713.20	32.219
713.52	31.908
713.84	34.177
714.16	31.098
714.48	31.897
714.80	37.994
715.11	32.565
715.43	31.454
715.75	31.884
716.07	33.227
716.39	29.781
716.70	31.894
717.02	32.014
717.34	32.862
717.66	36.194
717.97	37.450
718.29	33.704
718.61	32.117
718.93	32.721
719.24	34.602
719.56	32.542
719.88	33.559
720.20	36.486
720.51	35.192
720.83	35.316
721.15	30.597
721.46	35.816
721.78	37.276
722.10	34.717
722.42	37.970
722.73	33.708
723.05	31.557
723.37	31.984
723.68	33.591
724.00	33.333
724.32	36.290
724.63	32.520
724.95	39.749
725.27	39.271
725.58	35.156
725.90	37.591
726.22	38.113
726.53	35.069
726.85	32.765
727.16	35.587
727.48	30.496
727.80	35.227
728.11	32.971
728.43	28.846
728.74	35.842
729.06	35.766
729.38	38.603
729.69	33.096
730.01	35.495
730.32	31.597
730.64	33.779
730.96	28.053
731.27	37.748
731.59	36.391
731.90	31.487
732.22	32.919
732.53	30.031
732.85	33.654
733.16	34.727
733.48	35.880
733.80	33.442
734.11	33.758
734.43	38.166
734.74	34.000
735.06	30.946
735.37	36.705
735.69	32.803
736.00	34.967
736.32	33.333
736.63	31.949
736.95	32.588
737.26	27.891
737.58	32.903
737.89	34.448
738.21	32.082
738.52	35.714
738.83	30.189
739.15	30.000
739.46	34.672
739.78	34.375
740.09	35.077
740.41	33.548
740.72	30.314
741.04	33.333
741.35	34.167
741.66	37.333
741.98	28.774
742.29	35.407
742.61	38.793
742.92	36.199
743.23	33.333
743.55	36.400
743.86	34.211
744.18	35.398
744.49	40.670
744.80	38.967
745.12	35.909
745.43	32.599
745.74	39.189
746.06	33.028
746.37	31.839
746.68	33.032
747.00	34.259
747.31	38.095
747.62	35.398
747.94	37.004
748.25	29.787
748.56	38.326
748.88	32.673
749.19	41.500
749.50	35.814
749.82	32.520
750.13	31.837
750.44	34.672
750.75	35.439
751.07	32.154
751.38	33.449
751.69	33.574
752.01	33.083
752.32	32.491
752.63	34.752
752.94	31.967
753.26	37.200
753.57	29.268
753.88	35.156
754.19	34.286
754.51	36.806
754.82	31.769
755.13	37.358
755.44	34.586
755.75	29.927
756.07	33.333
756.38	29.927
756.69	32.215
757.00	30.240
757.31	33.531
757.63	30.994
757.94	32.708
758.25	31.373
758.56	30.617
758.87	32.527
759.18	33.939
759.50	31.661
759.81	31.464
760.12	28.438
760.43	32.665
760.74	32.065
761.05	33.616
761.36	29.947
761.67	32.102
761.99	33.851
762.30	33.681
762.61	31.679
762.92	37.109
763.23	34.034
763.54	35.200
763.85	33.984
764.16	36.538
764.47	36.502
764.78	34.629
765.10	31.329
765.41	35.103
765.72	34.731
766.03	31.661
766.34	35.333
766.65	40.000
766.96	36.325
767.27	41.117
767.58	33.333
767.89	36.316
768.20	41.379
768.51	34.010
768.82	39.908
769.13	30.894
769.44	37.247
769.75	36.481
770.06	29.817
770.37	41.629
770.68	38.426
770.99	35.556
771.30	32.787
771.61	43.946
771.92	38.115
772.23	41.176
772.54	37.949
772.85	34.031
773.16	39.362
773.47	42.391
773.78	41.624
774.09	37.500
774.39	39.766
774.70	39.506
775.01	41.304
775.32	45.752
775.63	39.474
775.94	41.007
776.25	48.031
776.56	41.045
776.87	49.180
777.18	51.563
777.48	48.855
777.79	48.485
778.10	37.778
778.41	38.393
778.72	37.226
779.03	46.980
779.34	42.282
779.65	37.162
779.95	38.037
780.26	47.059
780.57	44.138
780.88	52.344
781.19	50.376
781.50	45.270
781.80	38.994
782.11	39.548
782.42	37.342
782.73	41.718
783.04	46.622
783.34	47.183
783.65	54.110
783.96	47.015
784.27	39.161
784.57	35.971
784.88	29.630
785.19	46.032
785.50	42.453
785.81	44.776
786.11	52.459
786.42	48.062
786.73	49.558
787.04	47.170
787.34	49.107
787.65	49.000
787.96	44.144
788.26	40.496
788.57	50.847
788.88	50.413
789.19	51.389
789.49	51.515
789.80	47.328
790.11	47.619
790.41	47.525
790.72	53.012
791.03	50.000
791.33	50.000
791.64	48.454
791.95	50.495
792.25	51.111
792.56	51.948
792.87	71.795
793.17	60.759
793.48	56.322
793.79	55.172
794.09	53.409
794.40	42.857
794.70	55.882
795.01	37.778
795.32	45.324
795.62	45.669
795.93	50.000
796.23	48.673
796.54	43.529
796.85	45.946
797.15	63.380
797.46	56.061
797.76	65.060
798.07	62.025
798.37	60.000
798.68	60.606
798.99	45.070
799.29	59.740
799.60	47.727
799.90	58.904
800.21	59.701
800.51	34.483
800.82	75.439
801.12	54.098
801.43	54.545
801.73	51.351
802.04	61.905
802.34	61.728
802.65	64.063
802.95	66.102
803.26	84.375
803.56	51.429
803.87	50.769
804.17	57.353
804.48	79.630
804.78	53.448
805.09	61.765
805.39	65.385
805.70	53.571
806.00	72.131
806.30	65.152
806.61	59.756
806.91	55.696
807.22	64.474
807.52	37.313
807.83	60.563
808.13	54.688
808.43	61.667
808.74	39.474
809.04	69.565
809.35	56.716
809.65	67.105
809.95	74.194
810.26	72.881
810.56	68.254
810.86	86.364
811.17	64.286
811.47	83.333
811.77	68.519
812.08	76.364
812.38	70.000
812.69	86.111
812.99	97.727
813.29	85.714
813.59	50.000
813.90	108.163
814.20	60.000
814.50	61.538
814.81	76.471
815.11	79.592
815.41	49.180
815.72	92.857
816.02	90.909
816.32	78.571
816.62	65.000
816.93	63.415
817.23	97.619
817.53	86.364
817.84	103.030
818.14	84.783
818.44	55.556
818.74	102.941
819.04	77.500
819.35	97.143
819.65	117.647
819.95	92.857
820.25	95.000
820.56	105.128
820.86	88.636
821.16	118.605
821.46	102.564
821.76	88.000
822.07	137.143
822.37	95.000
822.67	100.000
822.97	72.549
823.27	121.429
823.57	110.811
823.88	82.500
824.18	133.333
824.48	104.762
824.78	152.000
825.08	79.167
825.38	108.108
825.69	95.122
825.99	150.000
826.29	68.966
826.59	73.684
826.89	94.737
827.19	102.941
827.49	103.226
827.79	95.455
828.09	88.636
828.39	59.574
828.70	71.429
829.00	96.296
829.30	87.097
829.60	87.500
829.90	213.333
830.20	103.571
830.50	139.130
830.80	108.696
831.10	116.667
831.40	106.667
831.70	134.783
832.00	142.308
832.30	122.222
832.60	137.500
832.90	133.333
833.20	250.000
833.50	122.581
833.80	131.034
834.10	115.625
834.40	142.308
834.70	150.000
835.00	238.095
835.30	91.429
835.60	138.462
835.90	131.034
836.20	200.000
836.50	127.586
836.80	80.000
837.10	133.333
837.40	166.667
837.70	152.941
838.00	111.111
838.30	95.238
838.60	142.857
838.90	126.923
839.19	135.000
839.49	250.000
839.79	230.000
840.09	120.000
840.39	147.619
840.69	121.739
840.99	144.444
841.29	170.000
841.59	150.000
841.88	206.250
842.18	100.000
842.48	185.714
842.78	130.000
843.08	104.348
843.38	90.625
843.68	400.000
843.97	150.000
844.27	106.897
844.57	190.476
844.87	175.000
845.17	118.519
845.47	933.333
845.76	111.111
846.06	176.471
846.36	200.000
846.66	135.714
846.96	162.500
847.25	181.818
847.55	118.182
847.85	165.217
848.15	240.000
848.44	171.429
848.74	122.222
849.04	141.176
849.34	280.000
849.63	105.263
849.93	300.000
850.23	380.000
850.53	178.571
850.82	1150.000
851.12	-2600.000
851.42	2800.000
851.71	150.000
852.01	-400.000
852.31	112.500
852.61	1033.333
852.90	185.714
853.20	132.000
853.50	164.706
853.79	119.048
854.09	133.333
854.39	175.000
854.68	102.703
854.98	96.774
855.28	110.000
855.57	127.586
855.87	118.519
856.17	189.474
856.46	60.000
856.76	147.059
857.05	103.448
857.35	166.667
857.65	166.667
857.94	134.783
858.24	111.538
858.53	180.000
858.83	190.909
859.13	186.667
859.42	0.000
859.72	366.667
860.01	227.273
860.31	140.909
860.60	194.737
860.90	126.087
861.20	288.889
861.49	266.667
861.79	-2600.000
862.08	400.000
862.38	147.619
862.67	192.308
862.97	217.647
863.26	322.222
863.56	88.889
863.85	191.667
864.15	250.000
864.44	213.333
864.74	466.667
865.03	325.000
865.33	152.632
865.62	218.182
865.92	246.154
866.21	200.000
866.51	0.000
866.80	227.273
867.10	440.000
867.39	261.538
867.69	200.000
867.98	157.895
868.27	190.909
868.57	184.211
868.86	-2100.000
869.16	181.250
869.45	750.000
869.75	-1700.000
870.04	216.667
870.33	385.714
870.63	650.000
870.92	1150.000
871.22	414.286
871.51	223.529
871.80	119.048
872.10	242.857
>>>>>End Processed Spectral Data<<<<<
