SpectraSuite Data File
++++++++++++++++++++++++++++++++++++
Date: Wed May 13 16:25:14 PDT 2015
User: schluterlab
Dark Spectrum Present: Yes
Reference Spectrum Present: Yes
Number of Sampled Component Spectra: 1
Spectrometers: USB2E3373
Integration Time (usec): 3000 (USB2E3373)
Spectra Averaged: 3 (USB2E3373)
Boxcar Smoothing: 0 (USB2E3373)
Correct for Electrical Dark: No (USB2E3373)
Strobe/Lamp Enabled: No (USB2E3373)
Correct for Detector Non-linearity: No (USB2E3373)
Correct for Stray Light: No (USB2E3373)
Number of Pixels in Processed Spectrum: 2048
>>>>>Begin Processed Spectral Data<<<<<
178.53	0.000
178.91	-1300.000
179.29	-1075.000
179.67	-250.000
180.04	-1100.000
180.42	2350.000
180.80	1120.000
181.18	-925.000
181.56	585.714
181.94	0.000
182.31	-600.000
182.69	1566.667
183.07	-487.500
183.45	-488.889
183.83	436.364
184.20	-360.000
184.58	2350.000
184.96	5700.000
185.34	-800.000
185.72	-562.500
186.09	-2100.000
186.47	2950.000
186.85	2550.000
187.23	5600.000
187.61	-1600.000
187.98	1350.000
188.36	554.545
188.74	454.545
189.12	-780.000
189.49	480.000
189.87	-4300.000
190.25	-1000.000
190.63	385.714
191.00	361.538
191.38	783.333
191.76	-1000.000
192.14	1175.000
192.51	650.000
192.89	1083.333
193.27	512.500
193.65	-1200.000
194.02	480.000
194.40	880.000
194.78	530.000
195.15	500.000
195.53	620.000
195.91	-1800.000
196.29	312.500
196.66	305.263
197.04	-340.000
197.42	0.000
197.79	600.000
198.17	-4500.000
198.55	557.143
198.92	700.000
199.30	860.000
199.68	0.000
200.05	366.667
200.43	842.857
200.81	3500.000
201.18	1600.000
201.56	-1366.667
201.94	566.667
202.31	533.333
202.69	358.333
203.07	550.000
203.44	0.000
203.82	1175.000
204.19	757.143
204.57	364.286
204.95	612.500
205.32	1533.333
205.70	500.000
206.08	414.286
206.45	2700.000
206.83	350.000
207.20	966.667
207.58	920.000
207.96	272.222
208.33	650.000
208.71	-683.333
209.08	785.714
209.46	500.000
209.84	490.909
210.21	-1600.000
210.59	1300.000
210.96	-437.500
211.34	1950.000
211.71	580.000
212.09	750.000
212.46	0.000
212.84	1700.000
213.22	1350.000
213.59	-4100.000
213.97	783.333
214.34	671.429
214.72	554.545
215.09	800.000
215.47	-2100.000
215.84	-2300.000
216.22	1566.667
216.59	428.571
216.97	1250.000
217.34	445.455
217.72	-650.000
218.09	0.000
218.47	-4600.000
218.84	711.111
219.22	685.714
219.59	1466.667
219.97	-557.143
220.34	780.000
220.72	-1600.000
221.09	357.143
221.47	1450.000
221.84	-900.000
222.22	0.000
222.59	1400.000
222.97	-2550.000
223.34	960.000
223.72	430.769
224.09	1060.000
224.46	2300.000
224.84	-4200.000
225.21	-1040.000
225.59	-4000.000
225.96	600.000
226.34	315.000
226.71	2500.000
227.08	525.000
227.46	560.000
227.83	-950.000
228.21	-1900.000
228.58	588.889
228.95	-2450.000
229.33	-2400.000
229.70	1333.333
230.08	728.571
230.45	-760.000
230.82	375.000
231.20	900.000
231.57	657.143
231.95	383.333
232.32	245.455
232.69	472.727
233.07	600.000
233.44	300.000
233.81	-1700.000
234.19	278.947
234.56	425.000
234.93	391.667
235.31	454.545
235.68	346.154
236.05	314.286
236.43	139.394
236.80	215.789
237.17	4400.000
237.55	228.571
237.92	182.143
238.29	247.619
238.67	196.774
239.04	193.103
239.41	127.778
239.79	102.174
240.16	114.286
240.53	95.455
240.91	86.275
241.28	94.000
241.65	82.000
242.02	101.449
242.40	69.355
242.77	75.000
243.14	61.290
243.51	65.169
243.89	62.353
244.26	60.000
244.63	54.839
245.00	52.128
245.38	50.495
245.75	42.991
246.12	39.450
246.49	48.905
246.87	56.800
247.24	45.385
247.61	41.429
247.98	31.373
248.36	31.757
248.73	36.306
249.10	30.573
249.47	34.463
249.84	34.225
250.22	31.551
250.59	28.994
250.96	29.293
251.33	29.384
251.70	34.158
252.08	30.952
252.45	24.664
252.82	26.087
253.19	25.106
253.56	25.098
253.94	24.066
254.31	26.953
254.68	24.615
255.05	25.092
255.42	23.984
255.79	25.000
256.16	24.549
256.54	20.848
256.91	22.420
257.28	14.748
257.65	22.772
258.02	23.602
258.39	15.142
258.76	20.736
259.14	17.857
259.51	21.581
259.88	19.876
260.25	18.731
260.62	20.231
260.99	17.391
261.36	22.222
261.73	18.052
262.10	15.988
262.47	18.873
262.85	16.992
263.22	16.239
263.59	20.513
263.96	20.330
264.33	17.755
264.70	18.421
265.07	18.926
265.44	17.424
265.81	15.328
266.18	18.844
266.55	17.317
266.92	15.233
267.29	18.287
267.66	16.514
268.03	19.545
268.40	16.822
268.77	14.081
269.14	15.991
269.51	16.479
269.88	18.648
270.25	16.930
270.62	15.955
270.99	17.634
271.36	17.382
271.73	14.953
272.10	16.304
272.47	15.269
272.84	15.368
273.21	15.094
273.58	13.100
273.95	11.950
274.32	11.570
274.69	14.133
275.06	16.929
275.43	13.404
275.80	15.230
276.17	14.460
276.54	14.969
276.91	14.822
277.28	13.086
277.65	14.700
278.02	14.286
278.39	15.234
278.76	13.273
279.13	13.585
279.50	14.898
279.87	14.542
280.23	11.577
280.60	13.153
280.97	13.494
281.34	14.867
281.71	14.000
282.08	14.395
282.45	12.727
282.82	13.144
283.19	12.656
283.56	11.754
283.92	14.721
284.29	11.287
284.66	13.612
285.03	13.743
285.40	11.268
285.77	13.805
286.14	12.263
286.51	14.000
286.87	13.504
287.24	13.029
287.61	12.841
287.98	14.123
288.35	10.935
288.72	12.928
289.08	12.050
289.45	13.180
289.82	12.520
290.19	9.733
290.56	10.567
290.93	12.085
291.29	11.656
291.66	12.389
292.03	15.407
292.40	13.510
292.77	9.615
293.13	10.746
293.50	10.933
293.87	10.222
294.24	10.519
294.60	9.461
294.97	11.483
295.34	11.425
295.71	12.216
296.08	11.396
296.44	10.729
296.81	11.096
297.18	12.602
297.55	8.047
297.91	10.554
298.28	11.647
298.65	10.705
299.02	10.540
299.38	9.562
299.75	8.491
300.12	9.834
300.48	10.125
300.85	11.714
301.22	9.045
301.59	8.712
301.95	11.839
302.32	9.243
302.69	10.036
303.05	11.273
303.42	9.012
303.79	10.419
304.15	10.140
304.52	9.270
304.89	10.685
305.25	9.745
305.62	10.193
305.99	10.272
306.35	9.508
306.72	10.202
307.09	12.098
307.45	10.811
307.82	8.482
308.19	10.596
308.55	10.680
308.92	10.097
309.29	9.820
309.65	9.544
310.02	9.725
310.38	9.892
310.75	11.193
311.12	10.440
311.48	10.972
311.85	9.958
312.22	10.198
312.58	10.499
312.95	11.088
313.31	10.680
313.68	10.499
314.05	12.722
314.41	10.452
314.78	11.682
315.14	11.023
315.51	12.358
315.87	12.277
316.24	12.612
316.61	11.696
316.97	11.057
317.34	11.742
317.70	13.193
318.07	13.282
318.43	12.622
318.80	13.121
319.16	13.465
319.53	13.415
319.89	14.857
320.26	16.200
320.62	14.881
320.99	15.152
321.35	14.343
321.72	15.195
322.08	16.782
322.45	17.811
322.81	17.151
323.18	17.726
323.54	17.718
323.91	19.057
324.27	18.834
324.64	18.826
325.00	18.215
325.37	19.654
325.73	21.364
326.10	21.536
326.46	22.491
326.83	22.519
327.19	23.911
327.56	22.909
327.92	25.722
328.29	25.555
328.65	26.335
329.01	25.361
329.38	25.439
329.74	27.793
330.11	27.427
330.47	28.007
330.84	29.596
331.20	27.505
331.56	29.358
331.93	28.981
332.29	29.902
332.66	29.735
333.02	30.165
333.38	29.630
333.75	31.283
334.11	29.537
334.48	31.056
334.84	31.250
335.20	30.000
335.57	30.190
335.93	30.268
336.29	30.861
336.66	31.740
337.02	30.588
337.38	33.148
337.75	30.838
338.11	30.886
338.47	31.031
338.84	32.814
339.20	31.101
339.56	32.664
339.93	32.091
340.29	31.341
340.65	31.640
341.02	31.850
341.38	31.762
341.74	30.175
342.11	31.790
342.47	32.952
342.83	31.849
343.20	33.247
343.56	31.424
343.92	31.842
344.28	32.143
344.65	32.588
345.01	31.987
345.37	30.532
345.73	32.572
346.10	32.225
346.46	31.525
346.82	31.054
347.19	31.579
347.55	31.199
347.91	32.201
348.27	31.389
348.63	31.438
349.00	32.201
349.36	31.199
349.72	31.435
350.08	30.632
350.45	33.116
350.81	31.844
351.17	31.767
351.53	33.088
351.89	30.858
352.26	32.281
352.62	32.237
352.98	31.605
353.34	32.621
353.70	31.260
354.07	32.177
354.43	31.429
354.79	30.249
355.15	31.205
355.51	32.774
355.87	32.408
356.24	32.166
356.60	30.714
356.96	32.180
357.32	32.379
357.68	32.598
358.04	31.433
358.40	31.116
358.77	32.316
359.13	31.255
359.49	31.216
359.85	31.032
360.21	31.978
360.57	32.607
360.93	32.077
361.29	32.124
361.66	31.192
362.02	31.418
362.38	32.548
362.74	32.440
363.10	31.088
363.46	31.255
363.82	32.577
364.18	31.791
364.54	32.392
364.90	32.578
365.26	32.279
365.62	33.090
365.98	30.898
366.35	31.089
366.71	32.393
367.07	32.338
367.43	32.946
367.79	33.119
368.15	33.908
368.51	31.541
368.87	31.977
369.23	32.992
369.59	32.947
369.95	32.059
370.31	32.764
370.67	32.609
371.03	33.783
371.39	33.163
371.75	34.265
372.11	32.077
372.47	32.845
372.83	33.285
373.19	32.948
373.55	34.812
373.91	33.652
374.27	32.302
374.63	32.727
374.99	33.475
375.35	32.659
375.71	32.077
376.07	34.088
376.42	33.906
376.78	34.129
377.14	33.039
377.50	32.848
377.86	32.646
378.22	33.123
378.58	31.955
378.94	33.250
379.30	34.606
379.66	33.820
380.02	34.152
380.38	32.908
380.74	33.013
381.09	33.252
381.45	33.989
381.81	34.521
382.17	34.650
382.53	34.906
382.89	33.765
383.25	34.334
383.61	34.696
383.97	34.146
384.32	33.936
384.68	34.758
385.04	34.358
385.40	33.003
385.76	33.661
386.12	34.521
386.48	34.298
386.83	35.407
387.19	34.941
387.55	34.818
387.91	34.764
388.27	33.660
388.62	34.665
388.98	33.354
389.34	35.044
389.70	35.009
390.06	34.981
390.42	35.538
390.77	34.733
391.13	35.099
391.49	35.025
391.85	34.946
392.20	33.880
392.56	34.912
392.92	35.374
393.28	34.497
393.64	34.892
393.99	34.698
394.35	34.739
394.71	34.316
395.07	33.458
395.42	33.869
395.78	34.415
396.14	34.202
396.50	34.586
396.85	34.774
397.21	34.710
397.57	34.408
397.92	34.375
398.28	32.960
398.64	33.931
399.00	34.863
399.35	33.615
399.71	34.780
400.07	34.122
400.42	35.153
400.78	34.258
401.14	34.268
401.49	34.687
401.85	34.059
402.21	34.192
402.57	34.485
402.92	35.057
403.28	34.478
403.63	33.478
403.99	34.522
404.35	34.000
404.70	33.094
405.06	34.421
405.42	34.248
405.77	33.486
406.13	33.183
406.49	33.826
406.84	33.255
407.20	33.511
407.55	34.205
407.91	34.600
408.27	33.759
408.62	34.256
408.98	32.843
409.34	34.748
409.69	33.871
410.05	34.015
410.40	34.495
410.76	33.632
411.11	34.077
411.47	33.355
411.83	33.965
412.18	33.519
412.54	34.745
412.89	33.494
413.25	32.704
413.60	33.972
413.96	32.665
414.31	33.354
414.67	33.587
415.03	32.980
415.38	33.763
415.74	33.826
416.09	34.161
416.45	32.932
416.80	32.650
417.16	34.182
417.51	34.705
417.87	33.847
418.22	33.123
418.58	34.087
418.93	34.275
419.29	34.437
419.64	34.194
420.00	33.354
420.35	34.377
420.71	33.652
421.06	33.055
421.42	33.041
421.77	33.632
422.12	32.061
422.48	32.812
422.83	33.372
423.19	33.591
423.54	32.792
423.90	33.043
424.25	33.668
424.61	33.333
424.96	33.003
425.31	32.503
425.67	32.584
426.02	33.543
426.38	34.127
426.73	33.119
427.09	33.556
427.44	33.180
427.79	33.583
428.15	33.155
428.50	33.060
428.85	33.969
429.21	32.468
429.56	32.348
429.92	32.813
430.27	31.629
430.62	31.132
430.98	32.953
431.33	31.649
431.68	32.565
432.04	33.067
432.39	32.667
432.74	33.932
433.10	33.616
433.45	33.994
433.80	32.927
434.16	33.066
434.51	33.526
434.86	32.953
435.22	32.963
435.57	34.103
435.92	33.353
436.28	33.393
436.63	34.603
436.98	34.459
437.34	34.407
437.69	33.722
438.04	33.108
438.39	33.373
438.75	34.224
439.10	33.073
439.45	33.353
439.81	33.897
440.16	33.032
440.51	33.040
440.86	33.816
441.22	33.927
441.57	32.749
441.92	33.726
442.27	32.939
442.63	32.438
442.98	34.254
443.33	32.554
443.68	33.402
444.03	33.041
444.39	32.084
444.74	33.983
445.09	33.315
445.44	33.516
445.79	32.657
446.15	33.669
446.50	32.956
446.85	32.734
447.20	32.177
447.55	33.724
447.91	33.094
448.26	33.333
448.61	33.917
448.96	34.219
449.31	33.577
449.66	33.258
450.02	32.145
450.37	33.390
450.72	32.657
451.07	32.541
451.42	33.009
451.77	33.705
452.12	32.794
452.47	33.893
452.83	33.625
453.18	32.885
453.53	34.385
453.88	32.959
454.23	33.174
454.58	33.495
454.93	34.329
455.28	34.165
455.63	33.677
455.98	34.345
456.34	33.543
456.69	33.626
457.04	33.746
457.39	33.489
457.74	33.372
458.09	32.892
458.44	33.751
458.79	32.158
459.14	33.465
459.49	33.041
459.84	33.130
460.19	32.940
460.54	32.870
460.89	33.571
461.24	33.940
461.59	33.934
461.94	32.799
462.29	33.353
462.64	32.482
462.99	34.092
463.34	34.200
463.69	33.021
464.04	33.101
464.39	32.232
464.74	34.106
465.09	33.414
465.44	33.075
465.79	31.432
466.14	32.895
466.49	32.258
466.84	32.574
467.19	32.227
467.54	33.562
467.89	32.833
468.24	33.333
468.59	32.906
468.94	33.415
469.29	33.419
469.64	34.137
469.99	33.491
470.34	33.157
470.68	33.261
471.03	33.537
471.38	34.190
471.73	33.245
472.08	33.092
472.43	33.103
472.78	32.916
473.13	34.275
473.48	33.084
473.83	33.659
474.17	33.354
474.52	33.437
474.87	33.275
475.22	33.140
475.57	32.348
475.92	33.086
476.27	32.074
476.61	33.536
476.96	32.270
477.31	31.973
477.66	33.042
478.01	32.410
478.36	32.628
478.70	32.243
479.05	32.641
479.40	31.883
479.75	33.147
480.10	32.356
480.45	31.985
480.79	32.059
481.14	32.143
481.49	32.226
481.84	31.962
482.19	32.667
482.53	32.248
482.88	32.248
483.23	32.850
483.58	31.756
483.92	32.849
484.27	30.893
484.62	30.862
484.97	31.612
485.31	32.089
485.66	30.162
486.01	28.537
486.36	27.490
486.70	27.251
487.05	28.146
487.40	29.367
487.75	30.504
488.09	30.391
488.44	31.121
488.79	32.333
489.13	31.665
489.48	31.281
489.83	30.816
490.17	31.477
490.52	31.621
490.87	31.615
491.22	32.378
491.56	31.754
491.91	32.108
492.26	32.062
492.60	31.982
492.95	31.618
493.30	31.121
493.64	32.105
493.99	31.894
494.34	31.129
494.68	32.234
495.03	32.425
495.37	31.643
495.72	32.456
496.07	32.111
496.41	31.991
496.76	32.014
497.11	32.508
497.45	31.439
497.80	32.102
498.14	31.449
498.49	31.805
498.84	31.735
499.18	31.476
499.53	31.861
499.87	31.780
500.22	31.229
500.56	32.524
500.91	31.442
501.26	32.385
501.60	32.748
501.95	31.668
502.29	32.568
502.64	31.983
502.98	31.931
503.33	31.947
503.67	31.787
504.02	31.057
504.36	31.867
504.71	32.193
505.06	31.904
505.40	32.134
505.75	31.340
506.09	31.924
506.44	31.722
506.78	30.833
507.13	31.802
507.47	31.515
507.82	32.320
508.16	32.320
508.51	32.522
508.85	31.480
509.19	31.429
509.54	32.449
509.88	31.788
510.23	31.877
510.57	32.611
510.92	32.418
511.26	31.603
511.61	31.846
511.95	31.681
512.30	32.185
512.64	32.402
512.98	32.422
513.33	32.602
513.67	32.284
514.02	31.494
514.36	32.496
514.70	31.323
515.05	33.129
515.39	33.146
515.74	32.827
516.08	32.700
516.42	33.074
516.77	33.445
517.11	33.019
517.46	32.731
517.80	33.682
518.14	32.368
518.49	32.555
518.83	32.102
519.17	31.928
519.52	33.220
519.86	33.428
520.20	32.832
520.55	33.812
520.89	33.698
521.23	32.931
521.58	33.733
521.92	34.354
522.26	33.008
522.61	33.333
522.95	33.333
523.29	33.658
523.64	32.866
523.98	32.594
524.32	33.052
524.66	32.892
525.01	33.517
525.35	31.908
525.69	32.512
526.04	32.586
526.38	32.459
526.72	32.393
527.06	33.082
527.41	31.869
527.75	33.826
528.09	33.783
528.43	32.377
528.78	32.575
529.12	32.909
529.46	33.558
529.80	32.797
530.15	33.271
530.49	31.938
530.83	33.987
531.17	33.551
531.51	33.722
531.86	33.161
532.20	33.768
532.54	32.992
532.88	32.863
533.22	31.980
533.57	33.272
533.91	32.390
534.25	32.564
534.59	32.764
534.93	32.124
535.27	32.529
535.62	33.028
535.96	32.580
536.30	33.185
536.64	33.677
536.98	33.311
537.32	32.785
537.66	32.933
538.01	32.456
538.35	32.256
538.69	33.695
539.03	32.359
539.37	31.502
539.71	31.821
540.05	32.614
540.39	32.824
540.73	32.277
541.07	33.550
541.42	32.420
541.76	33.290
542.10	33.441
542.44	32.583
542.78	33.860
543.12	31.670
543.46	32.590
543.80	33.116
544.14	32.221
544.48	32.317
544.82	31.751
545.16	32.921
545.50	31.748
545.84	31.855
546.18	33.064
546.52	33.448
546.86	32.509
547.20	32.637
547.54	32.465
547.88	33.355
548.22	31.818
548.56	31.321
548.90	31.242
549.24	31.919
549.58	32.879
549.92	31.525
550.26	33.097
550.60	32.573
550.94	33.239
551.28	32.260
551.62	33.645
551.96	32.070
552.30	32.696
552.64	31.778
552.98	33.288
553.32	31.895
553.66	33.129
554.00	32.258
554.34	31.401
554.68	31.831
555.02	31.523
555.36	32.150
555.69	30.717
556.03	32.167
556.37	31.855
556.71	33.015
557.05	32.633
557.39	32.890
557.73	32.463
558.07	33.430
558.41	31.838
558.75	31.815
559.08	34.079
559.42	33.636
559.76	31.912
560.10	32.548
560.44	32.844
560.78	31.936
561.12	31.332
561.45	32.334
561.79	31.444
562.13	31.455
562.47	32.582
562.81	31.729
563.15	31.037
563.48	31.034
563.82	31.115
564.16	31.131
564.50	30.729
564.84	31.606
565.17	31.725
565.51	30.543
565.85	30.964
566.19	30.808
566.52	31.856
566.86	31.525
567.20	32.075
567.54	30.308
567.88	29.929
568.21	30.053
568.55	29.323
568.89	28.648
569.23	28.610
569.56	27.854
569.90	28.151
570.24	27.449
570.57	26.930
570.91	26.341
571.25	26.251
571.59	26.686
571.92	25.778
572.26	26.488
572.60	26.456
572.93	26.237
573.27	26.501
573.61	26.661
573.95	26.253
574.28	25.603
574.62	25.559
574.96	25.520
575.29	25.339
575.63	25.864
575.97	25.514
576.30	25.996
576.64	25.676
576.98	24.988
577.31	25.762
577.65	25.776
577.98	25.030
578.32	24.543
578.66	24.990
578.99	25.405
579.33	25.732
579.67	25.322
580.00	25.485
580.34	25.439
580.67	25.455
581.01	25.883
581.35	25.343
581.68	25.200
582.02	24.663
582.35	24.394
582.69	24.540
583.02	25.131
583.36	25.917
583.70	26.099
584.03	25.705
584.37	26.324
584.70	26.071
585.04	26.052
585.37	25.536
585.71	26.057
586.04	25.562
586.38	25.758
586.72	26.457
587.05	25.401
587.39	25.778
587.72	25.973
588.06	25.720
588.39	26.420
588.73	25.931
589.06	26.800
589.40	27.003
589.73	27.737
590.07	27.722
590.40	27.220
590.73	27.322
591.07	28.002
591.40	27.794
591.74	28.225
592.07	27.356
592.41	27.408
592.74	26.704
593.08	26.416
593.41	26.004
593.75	25.547
594.08	26.517
594.41	26.546
594.75	26.617
595.08	26.235
595.42	26.585
595.75	26.638
596.09	27.751
596.42	26.994
596.75	27.227
597.09	28.225
597.42	26.644
597.75	27.253
598.09	27.565
598.42	26.632
598.76	26.591
599.09	26.036
599.42	26.274
599.76	26.428
600.09	26.047
600.42	26.406
600.76	26.393
601.09	25.974
601.42	26.636
601.76	26.717
602.09	26.680
602.42	27.309
602.76	27.126
603.09	27.301
603.42	26.591
603.76	26.448
604.09	26.483
604.42	26.335
604.76	27.625
605.09	26.649
605.42	26.208
605.75	26.821
606.09	26.596
606.42	26.890
606.75	25.923
607.09	26.999
607.42	26.530
607.75	26.287
608.08	25.836
608.42	26.894
608.75	26.375
609.08	27.012
609.41	27.035
609.75	27.156
610.08	27.663
610.41	26.955
610.74	27.058
611.07	27.372
611.41	27.036
611.74	28.004
612.07	27.795
612.40	28.122
612.73	27.737
613.07	28.502
613.40	27.646
613.73	27.373
614.06	27.527
614.39	27.792
614.72	27.684
615.06	27.311
615.39	27.707
615.72	27.147
616.05	27.432
616.38	28.627
616.71	27.791
617.05	28.386
617.38	29.284
617.71	27.748
618.04	27.344
618.37	27.912
618.70	29.060
619.03	29.145
619.36	30.007
619.69	29.085
620.03	29.602
620.36	29.144
620.69	28.493
621.02	29.720
621.35	29.366
621.68	30.062
622.01	29.721
622.34	30.257
622.67	30.646
623.00	28.907
623.33	27.949
623.66	30.021
623.99	29.676
624.32	28.959
624.65	29.590
624.99	28.824
625.32	28.820
625.65	30.203
625.98	29.439
626.31	31.882
626.64	30.776
626.97	32.086
627.30	31.172
627.63	30.599
627.96	31.287
628.29	30.621
628.62	31.747
628.95	33.585
629.28	33.303
629.61	31.714
629.94	31.905
630.26	31.173
630.59	32.316
630.92	33.238
631.25	31.293
631.58	33.033
631.91	32.556
632.24	32.806
632.57	32.529
632.90	34.320
633.23	33.781
633.56	35.480
633.89	33.862
634.22	33.144
634.55	35.976
634.88	32.814
635.20	34.528
635.53	33.253
635.86	35.520
636.19	33.294
636.52	34.487
636.85	32.417
637.18	32.143
637.51	33.215
637.83	31.689
638.16	33.504
638.49	33.879
638.82	34.513
639.15	34.875
639.48	33.666
639.81	35.255
640.13	34.896
640.46	34.497
640.79	35.139
641.12	33.838
641.45	36.034
641.77	36.524
642.10	36.111
642.43	33.183
642.76	35.139
643.09	36.503
643.41	36.267
643.74	37.346
644.07	36.128
644.40	35.429
644.73	38.268
645.05	36.767
645.38	36.967
645.71	36.876
646.04	37.043
646.36	38.898
646.69	37.625
647.02	37.245
647.35	36.942
647.67	37.345
648.00	34.797
648.33	34.983
648.66	34.394
648.98	35.082
649.31	36.024
649.64	36.173
649.96	34.873
650.29	34.755
650.62	33.010
650.94	38.412
651.27	37.838
651.60	38.103
651.92	36.581
652.25	33.388
652.58	35.202
652.90	35.545
653.23	33.590
653.56	34.646
653.88	36.609
654.21	35.861
654.54	34.983
654.86	35.047
655.19	34.054
655.52	22.893
655.84	18.453
656.17	23.147
656.49	31.303
656.82	32.388
657.15	24.924
657.47	18.983
657.80	15.090
658.13	15.962
658.45	24.487
658.78	24.863
659.10	26.401
659.43	28.012
659.75	30.594
660.08	32.532
660.41	35.568
660.73	38.628
661.06	36.146
661.38	38.364
661.71	37.115
662.03	39.448
662.36	35.586
662.68	37.550
663.01	40.202
663.33	37.580
663.66	40.126
663.98	40.389
664.31	37.395
664.63	36.640
664.96	37.022
665.28	37.705
665.61	36.062
665.93	38.431
666.26	38.337
666.58	40.167
666.91	41.860
667.23	40.449
667.56	38.877
667.88	42.308
668.21	38.806
668.53	38.829
668.86	38.528
669.18	40.725
669.50	39.565
669.83	40.087
670.15	38.444
670.48	36.819
670.80	38.147
671.13	40.764
671.45	37.660
671.77	39.919
672.10	36.229
672.42	34.629
672.75	33.997
673.07	35.387
673.39	34.539
673.72	34.375
674.04	37.059
674.37	37.087
674.69	34.560
675.01	39.121
675.34	38.193
675.66	39.579
675.98	38.697
676.31	37.815
676.63	38.429
676.95	37.526
677.28	38.785
677.60	35.604
677.92	39.030
678.25	36.961
678.57	37.052
678.89	36.473
679.22	34.774
679.54	37.977
679.86	36.514
680.18	33.453
680.51	33.865
680.83	34.520
681.15	36.604
681.48	37.429
681.80	33.849
682.12	35.057
682.44	35.010
682.77	36.049
683.09	37.768
683.41	37.251
683.73	39.735
684.06	38.017
684.38	35.421
684.70	36.240
685.02	33.959
685.34	31.685
685.67	34.091
685.99	32.131
686.31	32.423
686.63	32.332
686.96	33.929
687.28	33.755
687.60	31.522
687.92	34.918
688.24	33.080
688.56	34.337
688.89	38.797
689.21	37.555
689.53	37.996
689.85	38.137
690.17	34.576
690.49	38.641
690.82	36.449
691.14	35.045
691.46	33.544
691.78	35.141
692.10	34.711
692.42	34.930
692.74	34.440
693.06	35.106
693.39	37.372
693.71	35.153
694.03	32.632
694.35	36.147
694.67	35.011
694.99	36.341
695.31	36.275
695.63	38.278
695.95	37.653
696.27	32.234
696.59	38.601
696.91	40.155
697.23	33.099
697.56	33.902
697.88	33.333
698.20	31.250
698.52	32.903
698.84	37.639
699.16	35.253
699.48	35.154
699.80	38.647
700.12	42.338
700.44	40.584
700.76	36.740
701.08	44.253
701.40	38.547
701.72	44.898
702.04	47.443
702.36	35.694
702.68	40.510
703.00	40.997
703.32	38.032
703.64	34.584
703.96	40.390
704.28	38.663
704.60	40.176
704.91	42.433
705.23	38.123
705.55	42.193
705.87	46.512
706.19	45.936
706.51	43.614
706.83	39.394
707.15	37.255
707.47	35.606
707.79	34.889
708.11	34.703
708.43	30.952
708.74	35.969
709.06	37.662
709.38	35.696
709.70	36.628
710.02	40.653
710.34	36.061
710.66	40.896
710.98	39.205
711.29	38.081
711.61	38.643
711.93	39.103
712.25	43.087
712.57	45.956
712.89	42.907
713.20	42.857
713.52	43.092
713.84	38.608
714.16	38.110
714.48	36.494
714.80	42.249
715.11	35.735
715.43	37.982
715.75	39.710
716.07	38.019
716.39	37.931
716.70	39.867
717.02	42.806
717.34	44.523
717.66	48.881
717.97	43.825
718.29	43.333
718.61	40.876
718.93	40.441
719.24	44.291
719.56	40.678
719.88	44.068
720.20	41.892
720.51	44.251
720.83	42.751
721.15	41.418
721.46	42.553
721.78	45.878
722.10	41.887
722.42	43.985
722.73	44.569
723.05	45.902
723.37	40.891
723.68	44.788
724.00	43.496
724.32	41.935
724.63	39.024
724.95	41.841
725.27	44.534
725.58	46.875
725.90	44.161
726.22	46.038
726.53	38.194
726.85	37.201
727.16	41.637
727.48	39.716
727.80	40.530
728.11	40.217
728.43	35.769
728.74	40.143
729.06	44.161
729.38	47.059
729.69	41.993
730.01	37.884
730.32	39.236
730.64	38.796
730.96	34.653
731.27	37.748
731.59	38.226
731.90	35.277
732.22	37.888
732.53	35.913
732.85	37.179
733.16	36.656
733.48	42.857
733.80	40.260
734.11	37.261
734.43	35.799
734.74	32.000
735.06	31.232
735.37	36.994
735.69	37.580
736.00	37.255
736.32	37.072
736.63	34.505
736.95	38.658
737.26	30.612
737.58	33.548
737.89	37.458
738.21	42.662
738.52	32.857
738.83	33.208
739.15	38.077
739.46	44.526
739.78	37.500
740.09	34.462
740.41	37.742
740.72	36.934
741.04	38.519
741.35	40.833
741.66	46.667
741.98	42.453
742.29	46.411
742.61	49.138
742.92	42.534
743.23	45.299
743.55	44.400
743.86	41.228
744.18	40.708
744.49	44.976
744.80	50.704
745.12	47.727
745.43	44.053
745.74	45.946
746.06	46.330
746.37	47.085
746.68	44.796
747.00	45.370
747.31	43.810
747.62	41.150
747.94	40.529
748.25	41.277
748.56	49.780
748.88	50.495
749.19	50.500
749.50	46.047
749.82	41.463
750.13	40.816
750.44	37.956
750.75	38.246
751.07	41.479
751.38	39.721
751.69	38.628
752.01	39.098
752.32	41.155
752.63	35.816
752.94	40.574
753.26	44.000
753.57	40.244
753.88	44.531
754.19	35.714
754.51	39.236
754.82	36.462
755.13	36.981
755.44	36.090
755.75	35.036
756.07	37.589
756.38	32.117
756.69	33.221
757.00	32.635
757.31	33.234
757.63	33.626
757.94	34.316
758.25	31.618
758.56	29.383
758.87	30.376
759.18	33.333
759.50	33.856
759.81	32.399
760.12	33.437
760.43	34.670
760.74	31.522
761.05	34.181
761.36	33.422
761.67	32.386
761.99	36.025
762.30	37.153
762.61	39.313
762.92	39.453
763.23	39.916
763.54	41.200
763.85	36.719
764.16	43.846
764.47	38.783
764.78	35.689
765.10	32.278
765.41	37.463
765.72	32.934
766.03	37.931
766.34	34.333
766.65	43.404
766.96	42.735
767.27	47.208
767.58	48.958
767.89	44.737
768.20	50.575
768.51	45.178
768.82	44.954
769.13	36.992
769.44	36.842
769.75	40.343
770.06	38.991
770.37	41.629
770.68	46.296
770.99	36.000
771.30	33.607
771.61	42.152
771.92	40.984
772.23	42.857
772.54	47.179
772.85	47.120
773.16	48.936
773.47	47.283
773.78	50.254
774.09	41.667
774.39	46.784
774.70	51.235
775.01	55.797
775.32	52.941
775.63	47.368
775.94	55.396
776.25	59.843
776.56	52.239
776.87	59.016
777.18	50.000
777.48	56.489
777.79	54.545
778.10	56.296
778.41	59.821
778.72	45.255
779.03	51.007
779.34	46.309
779.65	47.297
779.95	58.896
780.26	49.673
780.57	53.793
780.88	66.406
781.19	54.135
781.50	56.081
781.80	45.912
782.11	48.023
782.42	51.266
782.73	50.307
783.04	55.405
783.34	51.408
783.65	63.699
783.96	56.716
784.27	55.944
784.57	51.799
784.88	43.519
785.19	59.524
785.50	64.151
785.81	58.209
786.11	58.197
786.42	59.690
786.73	56.637
787.04	67.925
787.34	67.857
787.65	71.000
787.96	60.360
788.26	56.198
788.57	56.780
788.88	61.983
789.19	54.861
789.49	59.091
789.80	69.466
790.11	79.048
790.41	72.277
790.72	71.084
791.03	60.870
791.33	70.930
791.64	65.979
791.95	80.198
792.25	78.889
792.56	87.013
792.87	84.615
793.17	89.873
793.48	90.805
793.79	62.069
794.09	73.864
794.40	63.025
794.70	55.147
795.01	45.926
795.32	48.201
795.62	55.118
795.93	55.172
796.23	57.522
796.54	69.412
796.85	87.838
797.15	95.775
797.46	87.879
797.76	72.289
798.07	86.076
798.37	78.462
798.68	84.848
798.99	63.380
799.29	79.221
799.60	70.455
799.90	73.973
800.21	77.612
800.51	87.931
800.82	110.526
801.12	78.689
801.43	103.030
801.73	75.676
802.04	115.873
802.34	82.716
802.65	85.938
802.95	118.644
803.26	112.500
803.56	82.857
803.87	93.846
804.17	82.353
804.48	109.259
804.78	84.483
805.09	80.882
805.39	90.385
805.70	94.643
806.00	100.000
806.30	95.455
806.61	73.171
806.91	69.620
807.22	73.684
807.52	88.060
807.83	88.732
808.13	84.375
808.43	103.333
808.74	77.632
809.04	92.754
809.35	97.015
809.65	81.579
809.95	114.516
810.26	91.525
810.56	88.889
810.86	127.273
811.17	130.952
811.47	106.667
811.77	103.704
812.08	114.545
812.38	110.000
812.69	158.333
812.99	150.000
813.29	118.367
813.59	92.857
813.90	146.939
814.20	98.182
814.50	81.538
814.81	100.000
815.11	110.204
815.41	101.639
815.72	145.238
816.02	110.909
816.32	150.000
816.62	140.000
816.93	121.951
817.23	145.238
817.53	122.727
817.84	154.545
818.14	119.565
818.44	142.222
818.74	167.647
819.04	135.000
819.35	162.857
819.65	158.824
819.95	167.857
820.25	205.000
820.56	128.205
820.86	127.273
821.16	148.837
821.46	117.949
821.76	118.000
822.07	154.286
822.37	145.000
822.67	181.818
822.97	111.765
823.27	225.000
823.57	167.568
823.88	172.500
824.18	186.667
824.48	150.000
824.78	212.000
825.08	175.000
825.38	154.054
825.69	143.902
825.99	245.833
826.29	165.517
826.59	155.263
826.89	136.842
827.19	158.824
827.49	167.742
827.79	134.091
828.09	127.273
828.39	112.766
828.70	116.327
829.00	192.593
829.30	161.290
829.60	145.000
829.90	320.000
830.20	203.571
830.50	178.261
830.80	195.652
831.10	190.000
831.40	180.000
831.70	169.565
832.00	223.077
832.30	211.111
832.60	318.750
832.90	206.667
833.20	342.857
833.50	190.323
833.80	186.207
834.10	137.500
834.40	192.308
834.70	283.333
835.00	328.571
835.30	162.857
835.60	230.769
835.90	158.621
836.20	307.143
836.50	220.690
836.80	168.000
837.10	161.111
837.40	247.619
837.70	311.765
838.00	148.148
838.30	200.000
838.60	280.952
838.90	203.846
839.19	255.000
839.49	392.857
839.79	310.000
840.09	235.000
840.39	242.857
840.69	256.522
840.99	277.778
841.29	420.000
841.59	308.333
841.88	312.500
842.18	175.862
842.48	271.429
842.78	190.000
843.08	226.087
843.38	196.875
843.68	916.667
843.97	184.615
844.27	227.586
844.57	300.000
844.87	300.000
845.17	185.185
845.47	1633.333
845.76	433.333
846.06	276.471
846.36	475.000
846.66	335.714
846.96	293.750
847.25	400.000
847.55	390.909
847.85	260.870
848.15	520.000
848.44	321.429
848.74	222.222
849.04	288.235
849.34	480.000
849.63	273.684
849.93	481.818
850.23	920.000
850.53	428.571
850.82	2150.000
851.12	-3500.000
851.42	4200.000
851.71	275.000
852.01	-1066.667
852.31	245.833
852.61	1266.667
852.90	242.857
853.20	248.000
853.50	311.765
853.79	266.667
854.09	216.667
854.39	318.750
854.68	175.676
854.98	154.839
855.28	173.333
855.57	217.241
855.87	174.074
856.17	263.158
856.46	246.667
856.76	288.235
857.05	193.103
857.35	258.333
857.65	320.000
857.94	247.826
858.24	207.692
858.53	255.000
858.83	240.909
859.13	286.667
859.42	0.000
859.72	666.667
860.01	463.636
860.31	250.000
860.60	278.947
860.90	186.957
861.20	422.222
861.49	516.667
861.79	-4900.000
862.08	650.000
862.38	280.952
862.67	307.692
862.97	329.412
863.26	555.556
863.56	277.778
863.85	341.667
864.15	637.500
864.44	373.333
864.74	783.333
865.03	600.000
865.33	321.053
865.62	418.182
865.92	430.769
866.21	275.000
866.51	0.000
866.80	418.182
867.10	1180.000
867.39	392.308
867.69	490.909
867.98	247.368
868.27	427.273
868.57	305.263
868.86	-4700.000
869.16	343.750
869.45	2050.000
869.75	-4200.000
870.04	408.333
870.33	614.286
870.63	1075.000
870.92	2550.000
871.22	742.857
871.51	294.118
871.80	214.286
872.10	350.000
>>>>>End Processed Spectral Data<<<<<
