SpectraSuite Data File
++++++++++++++++++++++++++++++++++++
Date: Wed May 13 16:29:29 PDT 2015
User: schluterlab
Dark Spectrum Present: Yes
Reference Spectrum Present: Yes
Number of Sampled Component Spectra: 1
Spectrometers: USB2E3373
Integration Time (usec): 3000 (USB2E3373)
Spectra Averaged: 3 (USB2E3373)
Boxcar Smoothing: 0 (USB2E3373)
Correct for Electrical Dark: No (USB2E3373)
Strobe/Lamp Enabled: No (USB2E3373)
Correct for Detector Non-linearity: No (USB2E3373)
Correct for Stray Light: No (USB2E3373)
Number of Pixels in Processed Spectrum: 2048
>>>>>Begin Processed Spectral Data<<<<<
178.53	0.000
178.91	-1050.000
179.29	-1125.000
179.67	-216.667
180.04	-1225.000
180.42	2200.000
180.80	880.000
181.18	-1050.000
181.56	614.286
181.94	0.000
182.31	-628.571
182.69	1700.000
183.07	-625.000
183.45	-488.889
183.83	454.545
184.20	-370.000
184.58	2100.000
184.96	4200.000
185.34	-760.000
185.72	-500.000
186.09	-1950.000
186.47	2350.000
186.85	1900.000
187.23	4000.000
187.61	-1633.333
187.98	1100.000
188.36	572.727
188.74	445.455
189.12	-780.000
189.49	600.000
189.87	-4400.000
190.25	-1100.000
190.63	400.000
191.00	338.462
191.38	866.667
191.76	-1175.000
192.14	1325.000
192.51	650.000
192.89	950.000
193.27	512.500
193.65	-875.000
194.02	400.000
194.40	1200.000
194.78	530.000
195.15	450.000
195.53	600.000
195.91	-1900.000
196.29	350.000
196.66	310.526
197.04	-330.000
197.42	0.000
197.79	620.000
198.17	-4300.000
198.55	628.571
198.92	825.000
199.30	760.000
199.68	0.000
200.05	294.444
200.43	700.000
200.81	3700.000
201.18	1666.667
201.56	-1700.000
201.94	477.778
202.31	544.444
202.69	458.333
203.07	470.000
203.44	0.000
203.82	1150.000
204.19	757.143
204.57	400.000
204.95	662.500
205.32	1566.667
205.70	481.818
206.08	400.000
206.45	2350.000
206.83	362.500
207.20	833.333
207.58	740.000
207.96	311.111
208.33	775.000
208.71	-850.000
209.08	657.143
209.46	622.222
209.84	381.818
210.21	-1433.333
210.59	1350.000
210.96	-437.500
211.34	2250.000
211.71	610.000
212.09	800.000
212.46	0.000
212.84	1533.333
213.22	1275.000
213.59	-4100.000
213.97	783.333
214.34	842.857
214.72	463.636
215.09	1040.000
215.47	-2800.000
215.84	-2550.000
216.22	1533.333
216.59	385.714
216.97	1200.000
217.34	418.182
217.72	-633.333
218.09	0.000
218.47	-4600.000
218.84	622.222
219.22	628.571
219.59	1733.333
219.97	-628.571
220.34	840.000
220.72	-1566.667
221.09	364.286
221.47	1200.000
221.84	-766.667
222.22	0.000
222.59	1200.000
222.97	-2150.000
223.34	1000.000
223.72	423.077
224.09	1040.000
224.46	1950.000
224.84	-3600.000
225.21	-980.000
225.59	-4900.000
225.96	510.000
226.34	260.000
226.71	2900.000
227.08	550.000
227.46	470.000
227.83	-975.000
228.21	-2250.000
228.58	533.333
228.95	-2550.000
229.33	-2000.000
229.70	1633.333
230.08	785.714
230.45	-740.000
230.82	341.667
231.20	700.000
231.57	642.857
231.95	558.333
232.32	259.091
232.69	418.182
233.07	557.143
233.44	330.769
233.81	-1366.667
234.19	331.579
234.56	416.667
234.93	383.333
235.31	472.727
235.68	323.077
236.05	371.429
236.43	190.909
236.80	226.316
237.17	5000.000
237.55	261.905
237.92	225.000
238.29	285.714
238.67	180.645
239.04	217.241
239.41	161.111
239.79	89.130
240.16	128.571
240.53	129.545
240.91	127.451
241.28	106.000
241.65	110.000
242.02	104.348
242.40	100.000
242.77	108.333
243.14	75.269
243.51	85.393
243.89	74.118
244.26	92.222
244.63	89.247
245.00	84.043
245.38	71.287
245.75	73.832
246.12	69.725
246.49	78.832
246.87	80.000
247.24	66.923
247.61	70.000
247.98	58.170
248.36	58.108
248.73	59.873
249.10	64.968
249.47	60.452
249.84	62.567
250.22	54.011
250.59	58.580
250.96	63.131
251.33	60.190
251.70	56.931
252.08	57.619
252.45	53.812
252.82	52.174
253.19	52.766
253.56	55.294
253.94	51.867
254.31	50.391
254.68	53.077
255.05	52.768
255.42	56.911
255.79	53.309
256.16	52.347
256.54	52.650
256.91	50.534
257.28	50.000
257.65	50.165
258.02	48.758
258.39	46.372
258.76	47.826
259.14	47.917
259.51	46.201
259.88	46.273
260.25	48.943
260.62	44.798
260.99	50.932
261.36	47.748
261.73	47.851
262.10	46.802
262.47	45.634
262.85	48.468
263.22	45.014
263.59	47.009
263.96	43.132
264.33	45.431
264.70	45.526
265.07	47.570
265.44	47.980
265.81	40.389
266.18	43.216
266.55	44.878
266.92	42.752
267.29	43.750
267.66	41.743
268.03	42.500
268.40	43.458
268.77	42.482
269.14	42.568
269.51	41.986
269.88	45.921
270.25	46.275
270.62	43.596
270.99	44.731
271.36	41.416
271.73	42.523
272.10	42.826
272.47	43.011
272.84	39.827
273.21	42.348
273.58	43.231
273.95	42.348
274.32	40.496
274.69	43.041
275.06	37.008
275.43	44.468
275.80	42.084
276.17	39.919
276.54	41.996
276.91	41.304
277.28	39.648
277.65	41.393
278.02	40.787
278.39	42.969
278.76	39.091
279.13	41.321
279.50	38.547
279.87	40.239
280.23	43.313
280.60	38.878
280.97	38.632
281.34	40.177
281.71	37.818
282.08	41.267
282.45	38.182
282.82	39.964
283.19	39.572
283.56	37.719
283.92	39.255
284.29	37.919
284.66	39.564
285.03	38.156
285.40	36.092
285.77	38.215
286.14	36.615
286.51	38.333
286.87	37.436
287.24	36.156
287.61	36.758
287.98	35.714
288.35	33.914
288.72	37.227
289.08	37.246
289.45	36.244
289.82	35.285
290.19	36.264
290.56	34.303
290.93	32.779
291.29	35.276
291.66	33.628
292.03	35.029
292.40	34.361
292.77	33.136
293.13	35.821
293.50	32.507
293.87	33.481
294.24	32.741
294.60	31.441
294.97	31.686
295.34	33.850
295.71	32.955
296.08	31.624
296.44	31.224
296.81	30.383
297.18	33.469
297.55	29.024
297.91	29.024
298.28	33.467
298.65	30.809
299.02	30.567
299.38	30.146
299.75	29.515
300.12	28.480
300.48	26.625
300.85	30.949
301.22	29.554
301.59	28.283
301.95	28.463
302.32	29.268
302.69	29.749
303.05	29.818
303.42	27.037
303.79	28.652
304.15	27.622
304.52	26.419
304.89	27.875
305.25	27.030
305.62	27.067
305.99	28.689
306.35	28.188
306.72	26.345
307.09	27.858
307.45	27.928
307.82	26.674
308.19	28.366
308.55	27.400
308.92	26.531
309.29	27.138
309.65	26.193
310.02	24.736
310.38	26.989
310.75	27.138
311.12	26.203
311.48	27.064
311.85	28.512
312.22	27.367
312.58	26.819
312.95	28.300
313.31	25.340
313.68	27.443
314.05	28.895
314.41	27.538
314.78	26.788
315.14	27.309
315.51	29.454
315.87	28.020
316.24	27.309
316.61	28.168
316.97	28.082
317.34	26.125
317.70	29.732
318.07	28.585
318.43	30.235
318.80	29.522
319.16	28.814
319.53	28.987
319.89	31.714
320.26	30.900
320.62	30.556
320.99	31.414
321.35	30.303
321.72	33.676
322.08	31.885
322.45	32.935
322.81	34.012
323.18	33.333
323.54	32.931
323.91	33.396
324.27	33.461
324.64	33.830
325.00	33.363
325.37	35.214
325.73	36.355
326.10	35.834
326.46	36.380
326.83	38.050
327.19	36.892
327.56	35.976
327.92	38.233
328.29	39.485
328.65	39.134
329.01	37.906
329.38	38.760
329.74	39.797
330.11	40.057
330.47	39.853
330.84	39.430
331.20	38.980
331.56	38.440
331.93	41.481
332.29	39.752
332.66	41.062
333.02	41.133
333.38	40.921
333.75	40.642
334.11	40.569
334.48	40.816
334.84	41.452
335.20	42.182
335.57	41.251
335.93	40.446
336.29	42.125
336.66	42.651
337.02	42.353
337.38	40.463
337.75	40.642
338.11	42.167
338.47	41.897
338.84	42.255
339.20	41.743
339.56	42.153
339.93	42.545
340.29	42.935
340.65	42.781
341.02	42.670
341.38	42.616
341.74	41.316
342.11	42.009
342.47	42.467
342.83	42.551
343.20	43.896
343.56	42.123
343.92	43.070
344.28	42.262
344.65	43.508
345.01	42.003
345.37	41.424
345.73	43.232
346.10	42.711
346.46	43.475
346.82	44.069
347.19	41.938
347.55	42.282
347.91	42.314
348.27	43.550
348.63	43.813
349.00	43.366
349.36	43.760
349.72	44.346
350.08	42.950
350.45	42.636
350.81	41.592
351.17	43.760
351.53	43.817
351.89	41.997
352.26	43.410
352.62	44.266
352.98	41.572
353.34	42.892
353.70	41.899
354.07	44.758
354.43	42.381
354.79	41.593
355.15	41.421
355.51	44.045
355.87	43.673
356.24	42.590
356.60	42.743
356.96	44.006
357.32	44.481
357.68	43.858
358.04	43.468
358.40	44.339
358.77	43.975
359.13	43.489
359.49	42.039
359.85	43.254
360.21	44.737
360.57	44.280
360.93	44.385
361.29	42.328
361.66	42.879
362.02	43.582
362.38	44.259
362.74	44.866
363.10	42.487
363.46	43.727
363.82	43.462
364.18	42.878
364.54	45.097
364.90	44.334
365.26	43.897
365.62	45.362
365.98	44.777
366.35	43.338
366.71	43.962
367.07	44.428
367.43	45.428
367.79	46.824
368.15	45.905
368.51	43.895
368.87	45.182
369.23	45.282
369.59	45.257
369.95	45.000
370.31	45.442
370.67	44.783
371.03	45.468
371.39	45.991
371.75	45.956
372.11	45.092
372.47	45.674
372.83	46.254
373.19	46.171
373.55	46.637
373.91	47.644
374.27	44.605
374.63	46.982
374.99	47.952
375.35	46.685
375.71	47.019
376.07	46.776
376.42	48.624
376.78	47.714
377.14	48.100
377.50	47.219
377.86	48.005
378.22	47.408
378.58	47.180
378.94	48.523
379.30	48.728
379.66	49.175
380.02	49.140
380.38	48.816
380.74	48.980
381.09	49.022
381.45	50.215
381.81	49.693
382.17	50.701
382.53	49.245
382.89	50.988
383.25	51.094
383.61	51.239
383.97	49.969
384.32	50.468
384.68	51.115
385.04	51.506
385.40	51.022
385.76	52.027
386.12	52.008
386.48	50.535
386.83	52.983
387.19	54.113
387.55	52.876
387.91	52.721
388.27	52.851
388.62	53.165
388.98	52.334
389.34	53.317
389.70	52.422
390.06	53.612
390.42	54.669
390.77	52.926
391.13	53.861
391.49	54.251
391.85	54.042
392.20	52.871
392.56	54.293
392.92	54.267
393.28	52.959
393.64	52.638
393.99	54.490
394.35	53.536
394.71	53.764
395.07	54.143
395.42	55.501
395.78	54.580
396.14	54.066
396.50	56.140
396.85	54.673
397.21	54.747
397.57	54.805
397.92	54.868
398.28	54.148
398.64	54.361
399.00	54.785
399.35	54.653
399.71	52.951
400.07	54.406
400.42	54.172
400.78	53.920
401.14	55.122
401.49	54.328
401.85	54.688
402.21	54.371
402.57	54.411
402.92	55.170
403.28	53.904
403.63	53.527
403.99	54.395
404.35	55.212
404.70	54.257
405.06	53.524
405.42	55.084
405.77	53.657
406.13	53.273
406.49	53.755
406.84	53.751
407.20	53.901
407.55	54.180
407.91	55.533
408.27	55.265
408.62	53.040
408.98	53.431
409.34	53.321
409.69	53.935
410.05	53.470
410.40	54.190
410.76	53.345
411.11	51.809
411.47	52.268
411.83	51.985
412.18	53.061
412.54	53.113
412.89	52.711
413.25	52.656
413.60	54.663
413.96	51.305
414.31	52.430
414.67	52.725
415.03	52.980
415.38	52.126
415.74	53.698
416.09	52.972
416.45	53.815
416.80	52.545
417.16	53.083
417.51	51.891
417.87	52.087
418.22	51.672
418.58	53.712
418.93	52.641
419.29	50.859
419.64	52.519
420.00	52.805
420.35	52.348
420.71	52.241
421.06	51.671
421.42	51.520
421.77	51.345
422.12	51.151
422.48	51.484
422.83	52.592
423.19	50.939
423.54	51.132
423.90	51.652
424.25	51.312
424.61	51.071
424.96	51.137
425.31	50.886
425.67	49.831
426.02	50.057
426.38	51.526
426.73	49.912
427.09	51.915
427.44	51.064
427.79	50.086
428.15	50.417
428.50	50.907
428.85	50.775
429.21	50.138
429.56	49.559
429.92	49.371
430.27	49.454
430.62	50.026
430.98	48.832
431.33	49.227
431.68	49.791
432.04	47.497
432.39	49.743
432.74	49.013
433.10	50.085
433.45	49.038
433.80	49.390
434.16	49.199
434.51	48.053
434.86	49.031
435.22	49.138
435.57	49.362
435.92	47.864
436.28	49.466
436.63	48.731
436.98	49.342
437.34	49.135
437.69	49.242
438.04	47.667
438.39	49.194
438.75	48.286
439.10	48.659
439.45	48.347
439.81	48.580
440.16	46.640
440.51	48.740
440.86	48.697
441.22	47.942
441.57	49.204
441.92	47.953
442.27	48.385
442.63	48.183
442.98	48.901
443.33	48.804
443.68	47.186
444.03	47.633
444.39	47.225
444.74	46.807
445.09	48.140
445.44	45.708
445.79	46.660
446.15	46.427
446.50	47.819
446.85	46.506
447.20	46.609
447.55	48.185
447.91	46.663
448.26	46.800
448.61	47.145
448.96	47.121
449.31	47.357
449.66	46.652
450.02	46.574
450.37	45.522
450.72	46.588
451.07	46.496
451.42	46.079
451.77	46.154
452.12	46.132
452.47	46.269
452.83	46.737
453.18	45.477
453.53	46.382
453.88	45.600
454.23	46.264
454.58	46.517
454.93	47.425
455.28	45.075
455.63	45.631
455.98	45.833
456.34	45.603
456.69	46.650
457.04	45.635
457.39	45.354
457.74	44.225
458.09	45.888
458.44	44.926
458.79	44.740
459.14	45.542
459.49	44.250
459.84	44.211
460.19	44.372
460.54	43.229
460.89	44.761
461.24	44.991
461.59	45.555
461.94	44.266
462.29	45.282
462.64	43.523
462.99	43.331
463.34	45.267
463.69	45.716
464.04	44.522
464.39	43.246
464.74	43.197
465.09	43.607
465.44	42.825
465.79	42.841
466.14	42.583
466.49	42.492
466.84	43.082
467.19	42.607
467.54	42.938
467.89	41.957
468.24	43.223
468.59	42.979
468.94	42.456
469.29	44.023
469.64	43.775
469.99	43.640
470.34	42.206
470.68	43.319
471.03	42.381
471.38	42.877
471.73	41.972
472.08	42.829
472.43	40.955
472.78	42.001
473.13	41.399
473.48	41.698
473.83	41.585
474.17	41.568
474.52	42.432
474.87	41.740
475.22	42.368
475.57	41.537
475.92	41.795
476.27	40.812
476.61	40.706
476.96	40.792
477.31	40.712
477.66	42.013
478.01	40.774
478.36	41.407
478.70	41.018
479.05	40.682
479.40	39.867
479.75	39.553
480.10	40.557
480.45	39.886
480.79	40.134
481.14	41.096
481.49	40.437
481.84	40.375
482.19	40.073
482.53	39.954
482.88	39.693
483.23	39.953
483.58	39.809
483.92	40.112
484.27	38.301
484.62	39.095
484.97	39.456
485.31	40.582
485.66	39.995
486.01	38.467
486.36	37.673
486.70	36.054
487.05	36.716
487.40	37.487
487.75	37.185
488.09	38.186
488.44	38.025
488.79	39.060
489.13	38.044
489.48	38.948
489.83	38.196
490.17	38.843
490.52	38.087
490.87	37.901
491.22	38.245
491.56	36.720
491.91	38.018
492.26	36.794
492.60	37.512
492.95	37.418
493.30	36.495
493.64	36.911
493.99	37.790
494.34	37.928
494.68	38.278
495.03	37.359
495.37	37.273
495.72	38.060
496.07	38.144
496.41	36.770
496.76	37.511
497.11	35.660
497.45	36.469
497.80	36.804
498.14	36.957
498.49	36.585
498.84	37.440
499.18	36.143
499.53	36.230
499.87	36.906
500.22	36.222
500.56	37.330
500.91	36.827
501.26	36.273
501.60	37.494
501.95	36.664
502.29	36.692
502.64	36.685
502.98	36.793
503.33	35.603
503.67	36.705
504.02	36.155
504.36	36.734
504.71	36.199
505.06	35.904
505.40	35.926
505.75	35.487
506.09	35.909
506.44	35.570
506.78	37.019
507.13	35.941
507.47	36.313
507.82	35.157
508.16	35.765
508.51	36.682
508.85	37.041
509.19	36.633
509.54	35.816
509.88	35.497
510.23	36.710
510.57	36.584
510.92	36.199
511.26	35.971
511.61	36.359
511.95	35.543
512.30	35.472
512.64	35.572
512.98	35.423
513.33	36.081
513.67	35.059
514.02	34.957
514.36	35.336
514.70	35.529
515.05	35.081
515.39	35.334
515.74	35.642
516.08	36.054
516.42	35.405
516.77	35.229
517.11	34.517
517.46	34.481
517.80	35.424
518.14	34.047
518.49	35.064
518.83	34.545
519.17	34.988
519.52	35.257
519.86	34.855
520.20	34.798
520.55	35.248
520.89	35.219
521.23	35.042
521.58	34.574
521.92	34.660
522.26	33.618
522.61	34.517
522.95	34.438
523.29	34.388
523.64	33.963
523.98	34.750
524.32	34.680
524.66	34.756
525.01	34.681
525.35	34.387
525.69	34.236
526.04	34.268
526.38	34.045
526.72	34.417
527.06	35.028
527.41	33.106
527.75	35.498
528.09	34.875
528.43	34.736
528.78	34.296
529.12	34.182
529.46	33.803
529.80	34.158
530.15	34.642
530.49	33.477
530.83	33.608
531.17	35.379
531.51	35.473
531.86	35.032
532.20	35.463
532.54	34.721
532.88	34.018
533.22	34.041
533.57	35.123
533.91	33.775
534.25	33.597
534.59	34.045
534.93	34.265
535.27	35.305
535.62	34.005
535.96	34.338
536.30	33.884
536.64	33.806
536.98	34.638
537.32	34.167
537.66	34.667
538.01	33.114
538.35	34.260
538.69	34.014
539.03	33.138
539.37	33.291
539.71	32.080
540.05	34.052
540.39	33.887
540.73	32.600
541.07	34.134
541.42	33.920
541.76	34.581
542.10	33.700
542.44	32.914
542.78	33.597
543.12	32.885
543.46	34.164
543.80	34.678
544.14	32.606
544.48	32.952
544.82	33.547
545.16	33.767
545.50	31.748
545.84	33.669
546.18	33.535
546.52	33.173
546.86	33.540
547.20	33.918
547.54	33.200
547.88	33.992
548.22	32.441
548.56	33.270
548.90	32.714
549.24	32.323
549.58	32.674
549.92	32.692
550.26	34.233
550.60	32.503
550.94	32.465
551.28	31.895
551.62	32.782
551.96	32.491
552.30	33.106
552.64	33.401
552.98	32.814
553.32	32.367
553.66	33.333
554.00	33.768
554.34	32.229
554.68	32.833
555.02	32.581
555.36	32.846
555.69	32.138
556.03	32.503
556.37	33.220
556.71	31.173
557.05	32.143
557.39	31.910
557.73	31.263
558.07	32.560
558.41	32.417
558.75	32.476
559.08	32.364
559.42	31.897
559.76	32.059
560.10	31.977
560.44	31.866
560.78	32.468
561.12	31.926
561.45	32.138
561.79	31.378
562.13	31.388
562.47	32.923
562.81	33.473
563.15	32.575
563.48	31.830
563.82	33.855
564.16	32.309
564.50	31.576
564.84	32.301
565.17	31.789
565.51	32.332
565.85	32.234
566.19	31.810
566.52	32.046
566.86	30.681
567.20	32.075
567.54	32.934
567.88	30.527
568.21	31.799
568.55	31.901
568.89	31.663
569.23	31.328
569.56	31.822
569.90	31.245
570.24	31.360
570.57	31.044
570.91	30.511
571.25	31.285
571.59	30.751
571.92	31.682
572.26	31.138
572.60	30.871
572.93	30.825
573.27	31.263
573.61	31.156
573.95	31.370
574.28	31.055
574.62	30.515
574.96	30.227
575.29	30.213
575.63	30.208
575.97	30.279
576.30	30.297
576.64	30.402
576.98	30.603
577.31	30.314
577.65	30.532
577.98	30.961
578.32	30.163
578.66	30.377
578.99	29.948
579.33	30.574
579.67	29.798
580.00	30.664
580.34	29.782
580.67	30.678
581.01	30.717
581.35	30.579
581.68	30.407
582.02	30.523
582.35	30.108
582.69	30.282
583.02	30.362
583.36	30.459
583.70	30.445
584.03	30.355
584.37	30.646
584.70	30.512
585.04	30.822
585.37	30.126
585.71	30.146
586.04	29.983
586.38	30.434
586.72	30.765
587.05	30.372
587.39	29.842
587.72	30.044
588.06	30.096
588.39	29.904
588.73	30.683
589.06	30.165
589.40	30.236
589.73	30.165
590.07	30.249
590.40	29.814
590.73	29.820
591.07	30.566
591.40	30.072
591.74	30.996
592.07	30.716
592.41	31.790
592.74	30.037
593.08	30.446
593.41	30.275
593.75	30.012
594.08	30.238
594.41	30.612
594.75	30.277
595.08	30.279
595.42	30.438
595.75	31.090
596.09	30.192
596.42	30.609
596.75	30.266
597.09	31.342
597.42	29.258
597.75	30.574
598.09	30.435
598.42	29.897
598.76	30.158
599.09	30.065
599.42	29.840
599.76	29.502
600.09	29.180
600.42	29.657
600.76	29.536
601.09	29.290
601.42	30.137
601.76	28.805
602.09	29.012
602.42	30.215
602.76	30.552
603.09	29.622
603.42	29.949
603.76	29.840
604.09	30.322
604.42	30.167
604.76	29.861
605.09	30.057
605.42	29.970
605.75	29.719
606.09	30.053
606.42	30.200
606.75	28.992
607.09	29.510
607.42	29.953
607.75	28.608
608.08	29.353
608.42	29.942
608.75	29.351
609.08	29.232
609.41	29.367
609.75	29.538
610.08	30.160
610.41	29.469
610.74	29.991
611.07	29.694
611.41	29.048
611.74	29.864
612.07	30.176
612.40	30.378
612.73	29.579
613.07	30.334
613.40	29.647
613.73	28.474
614.06	30.376
614.39	30.467
614.72	30.263
615.06	29.569
615.39	29.034
615.72	29.141
616.05	29.027
616.38	29.961
616.71	30.166
617.05	30.153
617.38	29.826
617.71	29.910
618.04	29.808
618.37	29.746
618.70	29.745
619.03	29.868
619.36	29.871
619.69	30.282
620.03	29.670
620.36	29.813
620.69	30.753
621.02	30.900
621.35	29.679
621.68	29.673
622.01	30.108
622.34	30.711
622.67	30.875
623.00	29.640
623.33	28.878
623.66	30.665
623.99	28.940
624.32	29.173
624.65	30.579
624.99	29.603
625.32	28.965
625.65	31.255
625.98	29.746
626.31	29.782
626.64	30.857
626.97	30.507
627.30	29.426
627.63	29.779
627.96	30.698
628.29	29.921
628.62	29.552
628.95	30.094
629.28	30.657
629.61	31.256
629.94	30.857
630.26	28.885
630.59	29.647
630.92	29.310
631.25	27.937
631.58	29.129
631.91	31.237
632.24	30.380
632.57	30.640
632.90	30.154
633.23	29.978
633.56	31.186
633.89	30.464
634.22	30.874
634.55	31.124
634.88	29.820
635.20	31.900
635.53	28.795
635.86	29.455
636.19	31.059
636.52	31.603
636.85	28.981
637.18	30.760
637.51	30.615
637.83	28.730
638.16	30.946
638.49	30.353
638.82	32.491
639.15	29.625
639.48	29.925
639.81	30.429
640.13	31.510
640.46	31.544
640.79	30.251
641.12	30.399
641.45	31.564
641.77	30.486
642.10	31.579
642.43	29.880
642.76	31.889
643.09	31.595
643.41	32.018
643.74	32.253
644.07	31.402
644.40	31.748
644.73	30.709
645.05	31.696
645.38	30.964
645.71	32.528
646.04	31.894
646.36	33.389
646.69	33.612
647.02	31.973
647.35	31.615
647.67	31.858
648.00	31.220
648.33	32.013
648.66	30.758
648.98	30.885
649.31	31.988
649.64	30.792
649.96	30.104
650.29	30.332
650.62	29.612
650.94	32.415
651.27	31.588
651.60	32.113
651.92	31.150
652.25	29.967
652.58	31.776
652.90	31.122
653.23	30.663
653.56	31.496
653.88	30.745
654.21	33.491
654.54	30.363
654.86	31.620
655.19	30.270
655.52	24.985
655.84	25.429
656.17	32.852
656.49	44.319
656.82	44.033
657.15	32.776
657.47	24.338
657.80	18.390
658.13	19.088
658.45	28.097
658.78	28.004
659.10	28.277
659.43	29.340
659.75	31.353
660.08	32.152
660.41	32.868
660.73	32.910
661.06	32.006
661.38	32.909
661.71	32.500
662.03	33.333
662.36	32.207
662.68	31.727
663.01	33.939
663.33	31.635
663.66	31.513
663.98	33.261
664.31	34.034
664.63	32.389
664.96	28.370
665.28	31.352
665.61	30.214
665.93	31.187
666.26	31.643
666.58	32.008
666.91	34.249
667.23	35.281
667.56	32.181
667.88	35.684
668.21	33.049
668.53	34.490
668.86	32.251
669.18	33.475
669.50	33.043
669.83	34.858
670.15	34.222
670.48	31.590
670.80	34.052
671.13	32.059
671.45	31.702
671.77	31.365
672.10	30.869
672.42	30.742
672.75	33.499
673.07	30.458
673.39	33.635
673.72	30.664
674.04	32.157
674.37	31.262
674.69	28.834
675.01	31.590
675.34	34.086
675.66	33.053
675.98	30.143
676.31	34.874
676.63	31.635
676.95	33.124
677.28	30.841
677.60	35.604
677.92	35.232
678.25	34.086
678.57	32.669
678.89	32.665
679.22	31.238
679.54	32.252
679.86	33.028
680.18	33.274
680.51	31.206
680.83	31.495
681.15	32.075
681.48	33.837
681.80	30.561
682.12	31.034
682.44	29.981
682.77	31.772
683.09	34.335
683.41	32.594
683.73	31.126
684.06	36.157
684.38	33.659
684.70	31.589
685.02	33.396
685.34	32.051
685.67	30.594
685.99	28.866
686.31	32.594
686.63	30.742
686.96	30.893
687.28	30.686
687.60	32.609
687.92	31.627
688.24	29.658
688.56	33.936
688.89	32.158
689.21	35.808
689.53	31.315
689.85	32.816
690.17	30.642
690.49	34.395
690.82	35.981
691.14	31.027
691.46	31.435
691.78	32.329
692.10	32.851
692.42	32.735
692.74	31.950
693.06	33.404
693.39	28.542
693.71	37.555
694.03	31.789
694.35	31.169
694.67	29.977
694.99	34.634
695.31	33.578
695.63	33.732
695.95	33.985
696.27	30.203
696.59	34.456
696.91	34.715
697.23	31.455
697.56	31.557
697.88	31.493
698.20	32.292
698.52	33.118
698.84	34.744
699.16	32.028
699.48	32.779
699.80	31.884
700.12	40.779
700.44	36.340
700.76	38.398
701.08	35.632
701.40	37.151
701.72	34.985
702.04	35.227
702.36	31.161
702.68	32.861
703.00	33.518
703.32	31.649
703.64	32.708
703.96	33.983
704.28	34.012
704.60	35.777
704.91	35.312
705.23	34.604
705.55	38.206
705.87	41.860
706.19	35.689
706.51	35.202
706.83	35.455
707.15	37.535
707.47	33.838
707.79	35.135
708.11	33.105
708.43	32.143
708.74	33.673
709.06	36.623
709.38	33.858
709.70	38.953
710.02	38.872
710.34	34.242
710.66	39.104
710.98	37.500
711.29	37.209
711.61	38.348
711.93	34.615
712.25	39.550
712.57	38.971
712.89	37.024
713.20	37.082
713.52	38.158
713.84	35.127
714.16	37.195
714.48	31.034
714.80	42.249
715.11	38.040
715.43	34.718
715.75	38.551
716.07	38.339
716.39	37.618
716.70	36.877
717.02	36.691
717.34	37.809
717.66	42.910
717.97	37.450
718.29	34.444
718.61	37.591
718.93	38.235
719.24	43.599
719.56	37.966
719.88	40.339
720.20	42.230
720.51	39.373
720.83	40.520
721.15	42.164
721.46	35.461
721.78	41.577
722.10	40.377
722.42	37.594
722.73	38.202
723.05	42.213
723.37	37.652
723.68	44.015
724.00	34.146
724.32	39.919
724.63	39.431
724.95	36.402
725.27	42.915
725.58	44.531
725.90	40.511
726.22	43.019
726.53	40.972
726.85	37.201
727.16	39.146
727.48	39.362
727.80	43.939
728.11	39.855
728.43	38.077
728.74	39.068
729.06	40.511
729.38	41.912
729.69	39.502
730.01	34.130
730.32	37.847
730.64	36.789
730.96	36.964
731.27	38.742
731.59	38.838
731.90	37.318
732.22	37.578
732.53	31.579
732.85	37.179
733.16	35.691
733.48	38.538
733.80	39.610
734.11	40.127
734.43	35.503
734.74	36.286
735.06	33.238
735.37	38.439
735.69	35.987
736.00	39.216
736.32	39.564
736.63	37.380
736.95	36.741
737.26	33.333
737.58	33.548
737.89	39.130
738.21	38.225
738.52	44.286
738.83	37.358
739.15	40.385
739.46	40.511
739.78	36.111
740.09	39.077
740.41	37.742
740.72	37.282
741.04	43.333
741.35	38.750
741.66	44.889
741.98	36.321
742.29	46.890
742.61	44.828
742.92	38.009
743.23	44.444
743.55	44.000
743.86	41.667
744.18	44.248
744.49	47.847
744.80	47.418
745.12	46.818
745.43	44.493
745.74	46.396
746.06	46.330
746.37	42.152
746.68	44.344
747.00	49.537
747.31	43.810
747.62	37.168
747.94	34.361
748.25	42.128
748.56	44.493
748.88	43.564
749.19	51.500
749.50	41.860
749.82	37.398
750.13	39.592
750.44	42.701
750.75	38.246
751.07	40.836
751.38	40.418
751.69	44.043
752.01	36.466
752.32	35.379
752.63	35.106
752.94	36.475
753.26	43.200
753.57	38.211
753.88	42.578
754.19	34.643
754.51	40.972
754.82	38.267
755.13	39.245
755.44	38.346
755.75	33.942
756.07	37.234
756.38	36.496
756.69	37.248
757.00	31.437
757.31	35.312
757.63	33.918
757.94	33.780
758.25	34.559
758.56	34.074
758.87	32.527
759.18	39.091
759.50	35.110
759.81	35.826
760.12	38.750
760.43	36.963
760.74	35.870
761.05	36.441
761.36	33.957
761.67	35.795
761.99	38.199
762.30	40.278
762.61	40.458
762.92	40.625
763.23	39.916
763.54	40.800
763.85	41.016
764.16	41.154
764.47	36.502
764.78	37.102
765.10	32.278
765.41	37.758
765.72	37.725
766.03	36.677
766.34	36.667
766.65	45.532
766.96	44.872
767.27	45.685
767.58	52.083
767.89	47.368
768.20	46.552
768.51	42.132
768.82	46.330
769.13	37.805
769.44	42.915
769.75	45.064
770.06	35.321
770.37	43.891
770.68	45.833
770.99	42.222
771.30	40.574
771.61	43.946
771.92	43.852
772.23	44.958
772.54	44.615
772.85	47.644
773.16	48.936
773.47	45.652
773.78	51.269
774.09	40.476
774.39	51.462
774.70	49.383
775.01	55.797
775.32	62.092
775.63	55.921
775.94	58.273
776.25	59.055
776.56	56.716
776.87	50.000
777.18	59.375
777.48	61.832
777.79	53.030
778.10	60.741
778.41	63.393
778.72	45.985
779.03	51.007
779.34	48.993
779.65	50.676
779.95	57.055
780.26	57.516
780.57	53.103
780.88	58.594
781.19	65.414
781.50	56.757
781.80	50.314
782.11	50.282
782.42	44.937
782.73	49.080
783.04	52.703
783.34	62.676
783.65	63.699
783.96	58.209
784.27	55.944
784.57	58.273
784.88	50.000
785.19	58.730
785.50	51.887
785.81	73.134
786.11	56.557
786.42	57.364
786.73	61.947
787.04	66.038
787.34	58.036
787.65	63.000
787.96	66.667
788.26	59.504
788.57	58.475
788.88	65.289
789.19	52.778
789.49	59.848
789.80	64.885
790.11	75.238
790.41	83.168
790.72	75.904
791.03	75.000
791.33	73.256
791.64	60.825
791.95	67.327
792.25	67.778
792.56	81.818
792.87	85.897
793.17	94.937
793.48	75.862
793.79	70.115
794.09	77.273
794.40	66.387
794.70	63.971
795.01	61.481
795.32	53.957
795.62	58.268
795.93	63.793
796.23	53.982
796.54	71.765
796.85	77.027
797.15	84.507
797.46	81.818
797.76	85.542
798.07	70.886
798.37	81.538
798.68	84.848
798.99	74.648
799.29	85.714
799.60	71.591
799.90	102.740
800.21	89.552
800.51	98.276
800.82	94.737
801.12	86.885
801.43	96.970
801.73	79.730
802.04	87.302
802.34	71.605
802.65	85.938
802.95	115.254
803.26	93.750
803.56	90.000
803.87	93.846
804.17	73.529
804.48	100.000
804.78	86.207
805.09	88.235
805.39	92.308
805.70	105.357
806.00	93.443
806.30	90.909
806.61	76.829
806.91	77.215
807.22	75.000
807.52	74.627
807.83	92.958
808.13	95.312
808.43	100.000
808.74	72.368
809.04	97.101
809.35	98.507
809.65	86.842
809.95	111.290
810.26	110.169
810.56	95.238
810.86	154.545
811.17	138.095
811.47	101.667
811.77	100.000
812.08	107.273
812.38	90.000
812.69	108.333
812.99	145.455
813.29	130.612
813.59	102.381
813.90	132.653
814.20	103.636
814.50	100.000
814.81	105.882
815.11	93.878
815.41	111.475
815.72	133.333
816.02	105.455
816.32	130.952
816.62	122.500
816.93	129.268
817.23	150.000
817.53	104.545
817.84	178.788
818.14	117.391
818.44	117.778
818.74	147.059
819.04	147.500
819.35	134.286
819.65	170.588
819.95	192.857
820.25	215.000
820.56	138.462
820.86	127.273
821.16	125.581
821.46	151.282
821.76	124.000
822.07	168.571
822.37	170.000
822.67	139.394
822.97	90.196
823.27	175.000
823.57	127.027
823.88	150.000
824.18	176.667
824.48	150.000
824.78	176.000
825.08	187.500
825.38	145.946
825.69	121.951
825.99	254.167
826.29	182.759
826.59	144.737
826.89	144.737
827.19	144.118
827.49	170.968
827.79	136.364
828.09	113.636
828.39	97.872
828.70	124.490
829.00	174.074
829.30	141.935
829.60	120.000
829.90	373.333
830.20	185.714
830.50	182.609
830.80	200.000
831.10	160.000
831.40	170.000
831.70	156.522
832.00	196.154
832.30	177.778
832.60	256.250
832.90	163.333
833.20	378.571
833.50	158.065
833.80	189.655
834.10	178.125
834.40	173.077
834.70	300.000
835.00	314.286
835.30	151.429
835.60	323.077
835.90	158.621
836.20	314.286
836.50	193.103
836.80	180.000
837.10	155.556
837.40	228.571
837.70	294.118
838.00	185.185
838.30	185.714
838.60	252.381
838.90	226.923
839.19	275.000
839.49	378.571
839.79	270.000
840.09	225.000
840.39	228.571
840.69	265.217
840.99	233.333
841.29	450.000
841.59	366.667
841.88	350.000
842.18	165.517
842.48	228.571
842.78	196.667
843.08	230.435
843.38	146.875
843.68	816.667
843.97	238.462
844.27	189.655
844.57	261.905
844.87	350.000
845.17	203.704
845.47	1333.333
845.76	444.444
846.06	323.529
846.36	462.500
846.66	328.571
846.96	325.000
847.25	436.364
847.55	372.727
847.85	208.696
848.15	510.000
848.44	300.000
848.74	255.556
849.04	282.353
849.34	520.000
849.63	247.368
849.93	390.909
850.23	820.000
850.53	321.429
850.82	1850.000
851.12	-4100.000
851.42	4400.000
851.71	275.000
852.01	-1466.667
852.31	216.667
852.61	1400.000
852.90	261.905
853.20	192.000
853.50	411.765
853.79	261.905
854.09	187.500
854.39	325.000
854.68	172.973
854.98	151.613
855.28	180.000
855.57	210.345
855.87	240.741
856.17	194.737
856.46	253.333
856.76	294.118
857.05	175.862
857.35	200.000
857.65	346.667
857.94	230.435
858.24	226.923
858.53	250.000
858.83	236.364
859.13	326.667
859.42	0.000
859.72	544.444
860.01	363.636
860.31	218.182
860.60	215.789
860.90	234.783
861.20	455.556
861.49	425.000
861.79	-3000.000
862.08	550.000
862.38	238.095
862.67	438.462
862.97	311.765
863.26	500.000
863.56	283.333
863.85	375.000
864.15	700.000
864.44	366.667
864.74	700.000
865.03	562.500
865.33	278.947
865.62	345.455
865.92	353.846
866.21	375.000
866.51	0.000
866.80	372.727
867.10	940.000
867.39	392.308
867.69	445.455
867.98	252.632
868.27	481.818
868.57	215.789
868.86	-3900.000
869.16	368.750
869.45	2200.000
869.75	-3300.000
870.04	408.333
870.33	585.714
870.63	950.000
870.92	2350.000
871.22	685.714
871.51	300.000
871.80	185.714
872.10	378.571
>>>>>End Processed Spectral Data<<<<<
