SpectraSuite Data File
++++++++++++++++++++++++++++++++++++
Date: Wed May 13 16:49:59 PDT 2015
User: schluterlab
Dark Spectrum Present: Yes
Reference Spectrum Present: Yes
Number of Sampled Component Spectra: 1
Spectrometers: USB2E3373
Integration Time (usec): 3000 (USB2E3373)
Spectra Averaged: 3 (USB2E3373)
Boxcar Smoothing: 0 (USB2E3373)
Correct for Electrical Dark: No (USB2E3373)
Strobe/Lamp Enabled: No (USB2E3373)
Correct for Detector Non-linearity: No (USB2E3373)
Correct for Stray Light: No (USB2E3373)
Number of Pixels in Processed Spectrum: 2048
>>>>>Begin Processed Spectral Data<<<<<
178.53	0.000
178.91	-1125.000
179.29	-1400.000
179.67	-222.222
180.04	-1275.000
180.42	2300.000
180.80	1080.000
181.18	-1075.000
181.56	657.143
181.94	0.000
182.31	-657.143
182.69	1800.000
183.07	-475.000
183.45	-433.333
183.83	527.273
184.20	-520.000
184.58	2500.000
184.96	5500.000
185.34	-860.000
185.72	-600.000
186.09	-1800.000
186.47	2350.000
186.85	1700.000
187.23	4500.000
187.61	-1566.667
187.98	1300.000
188.36	518.182
188.74	509.091
189.12	-940.000
189.49	570.000
189.87	-4800.000
190.25	-1450.000
190.63	428.571
191.00	469.231
191.38	900.000
191.76	-1025.000
192.14	1300.000
192.51	600.000
192.89	900.000
193.27	587.500
193.65	-1100.000
194.02	450.000
194.40	920.000
194.78	600.000
195.15	425.000
195.53	640.000
195.91	-2500.000
196.29	350.000
196.66	273.684
197.04	-410.000
197.42	0.000
197.79	560.000
198.17	-4100.000
198.55	571.429
198.92	662.500
199.30	920.000
199.68	0.000
200.05	300.000
200.43	785.714
200.81	4200.000
201.18	1733.333
201.56	-1733.333
201.94	477.778
202.31	600.000
202.69	350.000
203.07	450.000
203.44	0.000
203.82	1250.000
204.19	700.000
204.57	364.286
204.95	675.000
205.32	1400.000
205.70	563.636
206.08	357.143
206.45	2300.000
206.83	331.250
207.20	950.000
207.58	720.000
207.96	272.222
208.33	612.500
208.71	-916.667
209.08	814.286
209.46	511.111
209.84	372.727
210.21	-1633.333
210.59	1150.000
210.96	-450.000
211.34	2550.000
211.71	570.000
212.09	716.667
212.46	0.000
212.84	1600.000
213.22	1275.000
213.59	-5100.000
213.97	866.667
214.34	714.286
214.72	472.727
215.09	1120.000
215.47	-2250.000
215.84	-2200.000
216.22	1766.667
216.59	328.571
216.97	1275.000
217.34	454.545
217.72	-650.000
218.09	0.000
218.47	-4800.000
218.84	644.444
219.22	757.143
219.59	1433.333
219.97	-614.286
220.34	880.000
220.72	-1700.000
221.09	364.286
221.47	1525.000
221.84	-816.667
222.22	0.000
222.59	1350.000
222.97	-2550.000
223.34	1040.000
223.72	461.538
224.09	1080.000
224.46	2200.000
224.84	-4300.000
225.21	-1040.000
225.59	-4600.000
225.96	600.000
226.34	285.000
226.71	2350.000
227.08	662.500
227.46	570.000
227.83	-925.000
228.21	-2350.000
228.58	577.778
228.95	-2500.000
229.33	-2600.000
229.70	1600.000
230.08	685.714
230.45	-920.000
230.82	333.333
231.20	916.667
231.57	614.286
231.95	466.667
232.32	240.909
232.69	463.636
233.07	700.000
233.44	300.000
233.81	-1433.333
234.19	321.053
234.56	516.667
234.93	391.667
235.31	436.364
235.68	338.462
236.05	371.429
236.43	172.727
236.80	173.684
237.17	4600.000
237.55	214.286
237.92	182.143
238.29	219.048
238.67	154.839
239.04	189.655
239.41	119.444
239.79	102.174
240.16	135.714
240.53	136.364
240.91	90.196
241.28	100.000
241.65	96.000
242.02	81.159
242.40	59.677
242.77	81.667
243.14	70.968
243.51	68.539
243.89	63.529
244.26	55.556
244.63	50.538
245.00	58.511
245.38	65.347
245.75	51.402
246.12	37.615
246.49	48.905
246.87	48.800
247.24	52.308
247.61	45.000
247.98	41.176
248.36	35.811
248.73	38.854
249.10	38.217
249.47	38.418
249.84	38.503
250.22	31.551
250.59	36.686
250.96	33.838
251.33	38.863
251.70	34.158
252.08	31.429
252.45	31.839
252.82	30.870
253.19	27.234
253.56	27.451
253.94	29.876
254.31	30.469
254.68	30.000
255.05	24.723
255.42	26.423
255.79	25.735
256.16	28.881
256.54	22.615
256.91	25.979
257.28	24.101
257.65	22.442
258.02	22.671
258.39	23.975
258.76	19.732
259.14	19.940
259.51	25.228
259.88	23.602
260.25	27.492
260.62	19.653
260.99	22.981
261.36	23.724
261.73	20.917
262.10	20.349
262.47	19.155
262.85	18.942
263.22	19.088
263.59	20.228
263.96	21.978
264.33	19.321
264.70	20.789
265.07	21.995
265.44	18.182
265.81	17.518
266.18	19.095
266.55	18.293
266.92	19.410
267.29	19.444
267.66	19.725
268.03	18.864
268.40	19.393
268.77	17.184
269.14	18.018
269.51	18.962
269.88	15.851
270.25	16.253
270.62	17.753
270.99	20.860
271.36	19.099
271.73	16.589
272.10	17.391
272.47	19.140
272.84	18.831
273.21	21.384
273.58	17.904
273.95	15.933
274.32	14.876
274.69	16.916
275.06	17.323
275.43	18.511
275.80	15.631
276.17	17.108
276.54	18.711
276.91	16.798
277.28	16.992
277.65	16.054
278.02	16.356
278.39	15.820
278.76	16.364
279.13	16.038
279.50	17.132
279.87	16.335
280.23	15.569
280.60	14.507
280.97	15.896
281.34	16.637
281.71	16.182
282.08	17.274
282.45	16.000
282.82	17.584
283.19	13.725
283.56	14.386
283.92	13.875
284.29	14.991
284.66	14.156
285.03	14.828
285.40	17.254
285.77	14.815
286.14	14.853
286.51	14.000
286.87	15.556
287.24	15.961
287.61	14.286
287.98	14.610
288.35	14.263
288.72	12.305
289.08	15.336
289.45	14.003
289.82	14.472
290.19	12.402
290.56	13.629
290.93	12.689
291.29	13.650
291.66	14.749
292.03	16.715
292.40	15.272
292.77	12.722
293.13	13.134
293.50	12.245
293.87	11.704
294.24	12.741
294.60	11.936
294.97	13.372
295.34	12.835
295.71	13.778
296.08	12.108
296.44	11.967
296.81	12.285
297.18	14.363
297.55	11.214
297.91	12.269
298.28	12.851
298.65	15.144
299.02	13.175
299.38	10.890
299.75	10.782
300.12	10.217
300.48	11.750
300.85	12.454
301.22	12.484
301.59	11.237
301.95	11.083
302.32	11.425
302.69	11.231
303.05	12.364
303.42	11.481
303.79	12.458
304.15	10.373
304.52	9.965
304.89	11.034
305.25	10.325
305.62	12.344
305.99	10.626
306.35	10.850
306.72	11.883
307.09	11.654
307.45	12.275
307.82	10.714
308.19	11.479
308.55	11.866
308.92	10.526
309.29	11.827
309.65	11.453
310.02	10.994
310.38	10.430
310.75	10.454
311.12	10.850
311.48	10.867
311.85	11.530
312.22	11.134
312.58	10.811
312.95	10.454
313.31	10.971
313.68	11.227
314.05	13.116
314.41	11.558
314.78	11.782
315.14	11.321
315.51	11.637
315.87	12.376
316.24	11.718
316.61	11.891
316.97	11.448
317.34	9.785
317.70	11.185
318.07	11.453
318.43	11.840
318.80	11.528
319.16	11.488
319.53	10.976
319.89	12.667
320.26	11.800
320.62	11.310
320.99	12.323
321.35	11.515
321.72	11.191
322.08	11.945
322.45	12.935
322.81	13.372
323.18	12.620
323.54	11.596
323.91	11.981
324.27	13.384
324.64	11.463
325.00	10.730
325.37	12.557
325.73	12.747
326.10	11.827
326.46	12.186
326.83	11.734
327.19	12.980
327.56	11.585
327.92	12.423
328.29	11.801
328.65	13.168
329.01	13.538
329.38	12.673
329.74	11.911
330.11	12.064
330.47	12.672
330.84	13.051
331.20	12.295
331.56	11.927
331.93	12.407
332.29	12.422
332.66	12.566
333.02	11.974
333.38	12.285
333.75	12.210
334.11	12.456
334.48	11.979
334.84	11.673
335.20	13.000
335.57	11.786
335.93	10.179
336.29	10.806
336.66	12.173
337.02	11.584
337.38	12.037
337.75	11.497
338.11	11.996
338.47	12.247
338.84	12.099
339.20	11.009
339.56	11.588
339.93	11.364
340.29	11.775
340.65	11.141
341.02	12.042
341.38	11.922
341.74	12.193
342.11	11.266
342.47	11.454
342.83	10.873
343.20	12.294
343.56	11.963
343.92	10.702
344.28	11.650
344.65	11.178
345.01	10.943
345.37	9.691
345.73	11.675
346.10	11.424
346.46	11.356
346.82	11.862
347.19	10.693
347.55	11.248
347.91	11.084
348.27	10.682
348.63	10.702
349.00	10.437
349.36	11.084
349.72	11.307
350.08	10.778
350.45	10.496
350.81	11.048
351.17	10.778
351.53	10.074
351.89	10.644
352.26	12.234
352.62	10.826
352.98	11.345
353.34	10.846
353.70	10.556
354.07	11.290
354.43	10.794
354.79	10.539
355.15	11.572
355.51	11.351
355.87	11.347
356.24	10.261
356.60	10.104
356.96	10.941
357.32	10.630
357.68	11.181
358.04	10.610
358.40	11.085
358.77	10.720
359.13	10.339
359.49	11.059
359.85	8.492
360.21	11.005
360.57	11.907
360.93	10.769
361.29	10.809
361.66	9.985
362.02	10.821
362.38	10.342
362.74	11.458
363.10	9.845
363.46	10.492
363.82	10.809
364.18	10.646
364.54	10.104
364.90	11.402
365.26	10.221
365.62	10.957
365.98	9.642
366.35	9.814
366.71	10.774
367.07	10.706
367.43	10.087
367.79	10.635
368.15	11.997
368.51	10.247
368.87	10.278
369.23	10.973
369.59	11.079
369.95	9.853
370.31	11.538
370.67	10.000
371.03	11.236
371.39	10.787
371.75	10.221
372.11	11.451
372.47	11.364
372.83	11.383
373.19	11.127
373.55	10.421
373.91	11.561
374.27	11.203
374.63	10.473
374.99	11.088
375.35	10.328
375.71	10.555
376.07	11.454
376.42	10.454
376.78	11.465
377.14	10.787
377.50	11.722
377.86	10.372
378.22	11.694
378.58	10.464
378.94	10.245
379.30	11.641
379.66	10.343
380.02	11.732
380.38	11.111
380.74	11.164
381.09	11.308
381.45	11.985
381.81	11.364
382.17	11.847
382.53	11.384
382.89	12.222
383.25	11.632
383.61	12.639
383.97	12.445
384.32	10.917
384.68	11.462
385.04	12.108
385.40	11.827
385.76	11.732
386.12	12.047
386.48	11.643
386.83	12.829
387.19	12.616
387.55	12.245
387.91	11.971
388.27	12.324
388.62	12.969
388.98	11.425
389.34	12.703
389.70	12.630
390.06	13.308
390.42	12.192
390.77	12.532
391.13	13.338
391.49	13.135
391.85	12.985
392.20	12.429
392.56	13.194
392.92	12.301
393.28	12.071
393.64	12.770
393.99	12.706
394.35	12.717
394.71	12.673
395.07	12.710
395.42	13.164
395.78	12.595
396.14	13.966
396.50	13.095
396.85	13.414
397.21	12.269
397.57	12.461
397.92	13.221
398.28	11.771
398.64	13.441
399.00	12.815
399.35	12.465
399.71	12.616
400.07	12.714
400.42	12.638
400.78	12.606
401.14	12.195
401.49	13.075
401.85	11.857
402.21	12.754
402.57	13.202
402.92	13.178
403.28	12.804
403.63	12.562
403.99	11.911
404.35	12.970
404.70	12.290
405.06	12.522
405.42	12.414
405.77	13.086
406.13	12.923
406.49	12.892
406.84	12.581
407.20	11.998
407.55	12.763
407.91	12.133
408.27	12.444
408.62	12.643
408.98	12.316
409.34	12.239
409.69	12.129
410.05	12.330
410.40	12.049
410.76	11.947
411.11	12.485
411.47	12.204
411.83	13.134
412.18	12.307
412.54	12.578
412.89	12.892
413.25	12.161
413.60	12.847
413.96	12.568
414.31	12.880
414.67	11.787
415.03	12.781
415.38	13.015
415.74	12.733
416.09	13.390
416.45	13.119
416.80	12.360
417.16	13.003
417.51	12.409
417.87	11.561
418.22	12.934
418.58	13.557
418.93	13.145
419.29	12.794
419.64	12.972
420.00	13.110
420.35	12.000
420.71	12.552
421.06	12.530
421.42	12.339
421.77	12.388
422.12	11.903
422.48	11.441
422.83	12.930
423.19	13.315
423.54	12.594
423.90	13.043
424.25	13.009
424.61	12.798
424.96	11.953
425.31	13.068
425.67	11.742
426.02	12.971
426.38	12.943
426.73	11.995
427.09	12.036
427.44	12.593
427.79	11.903
428.15	12.381
428.50	12.171
428.85	12.872
429.21	11.872
429.56	11.768
429.92	11.575
430.27	11.966
430.62	11.828
430.98	12.247
431.33	12.216
431.68	12.565
432.04	11.928
432.39	11.479
432.74	13.106
433.10	12.281
433.45	12.595
433.80	11.585
434.16	11.806
434.51	12.368
434.86	12.714
435.22	13.118
435.57	11.915
435.92	12.522
436.28	13.227
436.63	13.631
436.98	12.650
437.34	13.238
437.69	13.361
438.04	12.085
438.39	13.194
438.75	12.899
439.10	12.514
439.45	12.633
439.81	13.293
440.16	12.253
440.51	12.595
440.86	12.565
441.22	13.293
441.57	12.951
441.92	12.794
442.27	12.217
442.63	12.322
442.98	12.563
443.33	13.696
443.68	12.648
444.03	12.445
444.39	12.123
444.74	12.825
445.09	12.992
445.44	12.302
445.79	12.667
446.15	13.129
446.50	12.439
446.85	12.590
447.20	12.698
447.55	12.898
447.91	12.410
448.26	12.632
448.61	12.945
448.96	13.289
449.31	13.105
449.66	13.056
450.02	13.148
450.37	13.095
450.72	12.521
451.07	13.467
451.42	13.009
451.77	13.917
452.12	13.453
452.47	13.495
452.83	13.345
453.18	13.386
453.53	13.915
453.88	13.054
454.23	13.628
454.58	13.568
454.93	14.431
455.28	13.030
455.63	13.532
455.98	13.810
456.34	13.693
456.69	14.402
457.04	13.684
457.39	12.683
457.74	13.117
458.09	13.571
458.44	13.455
458.79	13.232
459.14	13.544
459.49	13.660
459.84	13.019
460.19	13.494
460.54	12.558
460.89	13.549
461.24	13.479
461.59	14.003
461.94	14.057
462.29	14.065
462.64	13.593
462.99	13.533
463.34	13.667
463.69	13.258
464.04	13.623
464.39	13.797
464.74	13.547
465.09	13.631
465.44	13.352
465.79	13.423
466.14	13.082
466.49	13.348
466.84	12.960
467.19	12.915
467.54	14.438
467.89	13.145
468.24	13.554
468.59	14.469
468.94	13.439
469.29	13.303
469.64	14.190
469.99	14.141
470.34	13.276
470.68	13.721
471.03	13.469
471.38	13.829
471.73	13.524
472.08	15.000
472.43	14.133
472.78	13.693
473.13	13.671
473.48	13.733
473.83	14.451
474.17	13.317
474.52	13.648
474.87	13.952
475.22	12.943
475.57	12.413
475.92	13.648
476.27	12.796
476.61	13.624
476.96	12.974
477.31	12.977
477.66	12.910
478.01	12.755
478.36	13.273
478.70	12.773
479.05	12.833
479.40	13.357
479.75	13.574
480.10	12.425
480.45	12.899
480.79	12.136
481.14	13.112
481.49	13.147
481.84	12.483
482.19	13.130
482.53	12.661
482.88	13.122
483.23	13.551
483.58	12.830
483.92	12.418
484.27	11.939
484.62	12.198
484.97	12.101
485.31	12.329
485.66	11.578
486.01	10.777
486.36	10.329
486.70	10.157
487.05	10.848
487.40	10.930
487.75	11.145
488.09	11.799
488.44	11.708
488.79	12.116
489.13	12.529
489.48	12.561
489.83	11.782
490.17	13.064
490.52	12.489
490.87	12.845
491.22	12.733
491.56	11.708
491.91	12.983
492.26	12.035
492.60	12.258
492.95	12.114
493.30	13.131
493.64	12.179
493.99	12.303
494.34	12.812
494.68	12.363
495.03	13.205
495.37	12.704
495.72	12.378
496.07	12.900
496.41	12.080
496.76	12.577
497.11	11.706
497.45	12.296
497.80	12.620
498.14	11.932
498.49	12.537
498.84	12.560
499.18	12.190
499.53	12.488
499.87	12.488
500.22	12.577
500.56	13.107
500.91	12.548
501.26	12.328
501.60	12.672
501.95	12.145
502.29	12.512
502.64	12.663
502.98	12.716
503.33	12.431
503.67	12.204
504.02	12.769
504.36	12.541
504.71	12.311
505.06	12.627
505.40	12.056
505.75	12.536
506.09	12.391
506.44	12.481
506.78	12.616
507.13	12.620
507.47	12.929
507.82	12.614
508.16	12.715
508.51	13.293
508.85	11.718
509.19	12.449
509.54	13.010
509.88	12.210
510.23	12.442
510.57	13.261
510.92	12.947
511.26	13.052
511.61	13.330
511.95	12.944
512.30	12.301
512.64	13.810
512.98	13.451
513.33	13.437
513.67	12.807
514.02	12.608
514.36	12.671
514.70	13.116
515.05	12.995
515.39	13.124
515.74	13.457
516.08	14.421
516.42	13.762
516.77	14.214
517.11	13.041
517.46	13.544
517.80	13.298
518.14	13.318
518.49	13.536
518.83	13.920
519.17	13.453
519.52	13.016
519.86	13.520
520.20	13.815
520.55	13.525
520.89	13.504
521.23	14.113
521.58	13.625
521.92	14.636
522.26	13.423
522.61	13.894
522.95	14.303
523.29	13.451
523.64	14.146
523.98	13.617
524.32	14.415
524.66	14.552
525.01	13.664
525.35	13.259
525.69	13.732
526.04	13.396
526.38	13.423
526.72	13.374
527.06	13.434
527.41	12.562
527.75	13.891
528.09	14.001
528.43	14.149
528.78	13.891
529.12	13.394
529.46	13.901
529.80	13.676
530.15	14.081
530.49	13.600
530.83	14.557
531.17	13.969
531.51	14.981
531.86	13.613
532.20	14.342
532.54	13.965
532.88	13.736
533.22	13.804
533.57	14.630
533.91	13.486
534.25	13.062
534.59	13.911
534.93	13.504
535.27	13.518
535.62	13.614
535.96	13.873
536.30	13.414
536.64	14.102
536.98	14.399
537.32	13.232
537.66	14.400
538.01	13.627
538.35	14.544
538.69	14.805
539.03	12.801
539.37	13.291
539.71	12.703
540.05	14.248
540.39	13.688
540.73	13.325
541.07	14.341
541.42	13.568
541.76	14.129
542.10	13.001
542.44	14.040
542.78	15.415
543.12	12.604
543.46	14.885
543.80	13.988
544.14	12.901
544.48	14.095
544.82	13.278
545.16	13.012
545.50	13.368
545.84	13.710
546.18	13.670
546.52	13.765
546.86	13.883
547.20	13.958
547.54	13.427
547.88	14.349
548.22	13.138
548.56	12.956
548.90	13.252
549.24	12.458
549.58	13.643
549.92	13.049
550.26	13.920
550.60	14.869
550.94	14.507
551.28	13.241
551.62	12.940
551.96	12.912
552.30	14.539
552.64	12.914
552.98	13.831
553.32	13.688
553.66	14.519
554.00	13.795
554.34	13.941
554.68	14.092
555.02	14.316
555.36	13.361
555.69	14.005
556.03	13.997
556.37	13.165
556.71	13.711
557.05	12.745
557.39	13.436
557.73	13.691
558.07	14.866
558.41	13.676
558.75	13.519
559.08	14.392
559.42	12.850
559.76	14.338
560.10	14.133
560.44	12.928
560.78	13.772
561.12	13.193
561.45	13.820
561.79	13.909
562.13	13.816
562.47	13.456
562.81	13.598
563.15	13.645
563.48	13.594
563.82	13.438
564.16	13.277
564.50	12.630
564.84	13.211
565.17	12.741
565.51	13.482
565.85	13.515
566.19	12.837
566.52	12.793
566.86	12.477
567.20	13.384
567.54	12.272
567.88	11.678
568.21	12.857
568.55	12.538
568.89	12.354
569.23	11.943
569.56	11.741
569.90	11.660
570.24	10.621
570.57	10.779
570.91	10.375
571.25	10.562
571.59	11.105
571.92	10.455
572.26	10.716
572.60	11.111
572.93	10.825
573.27	10.648
573.61	10.720
573.95	10.775
574.28	10.276
574.62	10.180
574.96	10.323
575.29	10.087
575.63	10.442
575.97	10.336
576.30	11.073
576.64	10.134
576.98	10.136
577.31	10.143
577.65	9.837
577.98	9.992
578.32	9.790
578.66	10.126
578.99	10.546
579.33	10.336
579.67	9.779
580.00	10.333
580.34	10.323
580.67	10.376
581.01	10.052
581.35	9.900
581.68	10.024
582.02	9.603
582.35	9.946
582.69	9.873
583.02	9.939
583.36	10.261
583.70	10.440
584.03	10.345
584.37	10.935
584.70	10.789
585.04	10.470
585.37	10.368
585.71	10.879
586.04	10.486
586.38	10.423
586.72	10.853
587.05	10.649
587.39	10.158
587.72	10.152
588.06	10.192
588.39	10.672
588.73	10.414
589.06	11.031
589.40	10.539
589.73	11.440
590.07	11.174
590.40	11.217
590.73	11.007
591.07	11.559
591.40	11.978
591.74	12.251
592.07	11.693
592.41	11.244
592.74	11.536
593.08	10.893
593.41	11.009
593.75	10.212
594.08	10.694
594.41	11.099
594.75	10.832
595.08	11.167
595.42	10.823
595.75	11.254
596.09	11.641
596.42	11.788
596.75	11.271
597.09	11.818
597.42	11.509
597.75	11.600
598.09	11.696
598.42	11.684
598.76	11.066
599.09	10.642
599.42	11.135
599.76	11.603
600.09	10.929
600.42	11.103
600.76	10.750
601.09	11.694
601.42	11.187
601.76	11.120
602.09	11.700
602.42	11.704
602.76	12.092
603.09	11.644
603.42	11.558
603.76	10.671
604.09	11.206
604.42	11.007
604.76	11.936
605.09	11.621
605.42	11.458
605.75	11.300
606.09	10.817
606.42	10.503
606.75	11.448
607.09	12.139
607.42	11.168
607.75	10.549
608.08	11.290
608.42	11.744
608.75	10.866
609.08	11.933
609.41	11.756
609.75	11.577
610.08	11.687
610.41	11.080
610.74	11.826
611.07	12.154
611.41	11.874
611.74	11.815
612.07	12.629
612.40	11.805
612.73	11.368
613.07	12.231
613.40	12.480
613.73	11.064
614.06	11.559
614.39	12.166
614.72	12.211
615.06	11.922
615.39	11.783
615.72	11.401
616.05	11.855
616.38	12.840
616.71	11.461
617.05	12.485
617.38	12.087
617.71	12.432
618.04	12.740
618.37	12.655
618.70	12.881
619.03	13.816
619.36	12.288
619.69	13.592
620.03	14.217
620.36	13.235
620.69	12.877
621.02	13.864
621.35	13.547
621.68	13.084
622.01	13.932
622.34	13.086
622.67	13.384
623.00	13.500
623.33	13.081
623.66	13.152
623.99	12.371
624.32	13.766
624.65	12.500
624.99	12.606
625.32	13.541
625.65	13.449
625.98	14.297
626.31	13.453
626.64	14.367
626.97	13.633
627.30	12.968
627.63	15.094
627.96	14.550
628.29	13.298
628.62	14.730
628.95	16.132
629.28	14.234
629.61	14.207
629.94	15.714
630.26	14.204
630.59	13.537
630.92	14.272
631.25	13.820
631.58	14.815
631.91	13.692
632.24	15.717
632.57	14.376
632.90	14.583
633.23	14.206
633.56	15.706
633.89	14.949
634.22	15.323
634.55	17.160
634.88	15.569
635.20	15.651
635.53	16.627
635.86	16.460
636.19	15.765
636.52	15.225
636.85	14.548
637.18	14.977
637.51	17.139
637.83	13.194
638.16	16.880
638.49	14.987
638.82	16.435
639.15	16.500
639.48	16.085
639.81	17.292
640.13	18.490
640.46	17.047
640.79	16.513
641.12	15.406
641.45	16.480
641.77	16.495
642.10	15.497
642.43	17.117
642.76	17.183
643.09	16.718
643.41	17.754
643.74	17.747
644.07	16.768
644.40	19.172
644.73	18.425
645.05	19.968
645.38	17.694
645.71	19.002
646.04	17.442
646.36	17.529
646.69	19.398
647.02	18.537
647.35	18.557
647.67	18.584
648.00	19.187
648.33	17.987
648.66	16.515
648.98	18.141
649.31	16.741
649.64	15.695
649.96	18.629
650.29	17.062
650.62	16.828
650.94	19.449
651.27	18.581
651.60	17.637
651.92	19.808
652.25	16.938
652.58	16.355
652.90	18.483
653.23	14.946
653.56	16.535
653.88	16.482
654.21	20.221
654.54	16.337
654.86	17.601
655.19	15.541
655.52	9.863
655.84	7.608
656.17	9.586
656.49	13.118
656.82	13.470
657.15	10.354
657.47	7.858
657.80	6.167
658.13	6.650
658.45	9.878
658.78	9.928
659.10	10.465
659.43	11.368
659.75	12.327
660.08	13.165
660.41	15.642
660.73	18.043
661.06	17.834
661.38	20.182
661.71	19.038
662.03	19.527
662.36	18.688
662.68	17.269
663.01	20.000
663.33	18.896
663.66	18.277
663.98	20.086
664.31	20.168
664.63	19.231
664.96	17.907
665.28	21.311
665.61	20.858
665.93	19.115
666.26	18.864
666.58	19.038
666.91	19.662
667.23	21.124
667.56	18.143
667.88	21.368
668.21	21.535
668.53	19.523
668.86	20.996
669.18	20.469
669.50	20.652
669.83	23.094
670.15	21.333
670.48	22.004
670.80	19.828
671.13	20.170
671.45	19.574
671.77	19.552
672.10	17.375
672.42	18.198
672.75	18.408
673.07	16.901
673.39	17.541
673.72	16.992
674.04	19.804
674.37	19.029
674.69	18.814
675.01	20.293
675.34	20.945
675.66	21.895
675.98	23.014
676.31	18.697
676.63	20.807
676.95	19.497
677.28	18.224
677.60	17.802
677.92	20.886
678.25	19.097
678.57	18.526
678.89	18.838
679.22	18.468
679.54	19.466
679.86	19.083
680.18	19.499
680.51	17.553
680.83	17.972
681.15	20.000
681.48	19.093
681.80	19.923
682.12	17.241
682.44	14.507
682.77	20.570
683.09	23.605
683.41	19.734
683.73	20.751
684.06	18.388
684.38	17.808
684.70	19.767
685.02	20.450
685.34	16.667
685.67	17.483
685.99	17.869
686.31	16.553
686.63	15.018
686.96	16.964
687.28	17.509
687.60	18.297
687.92	20.658
688.24	18.441
688.56	20.281
688.89	20.332
689.21	19.869
689.53	19.833
689.85	19.956
690.17	19.255
690.49	22.293
690.82	18.458
691.14	19.866
691.46	18.354
691.78	21.486
692.10	21.694
692.42	19.162
692.74	19.295
693.06	17.234
693.39	20.945
693.71	19.869
694.03	20.842
694.35	20.130
694.67	19.222
694.99	20.976
695.31	19.608
695.63	19.856
695.95	18.826
696.27	17.766
696.59	23.834
696.91	22.280
697.23	19.014
697.56	22.814
697.88	16.769
698.20	17.708
698.52	18.710
698.84	18.040
699.16	18.433
699.48	19.952
699.80	21.739
700.12	23.636
700.44	22.016
700.76	23.481
701.08	21.839
701.40	20.950
701.72	23.324
702.04	25.568
702.36	23.513
702.68	19.547
703.00	20.222
703.32	22.872
703.64	23.592
703.96	23.120
704.28	23.837
704.60	23.754
704.91	25.816
705.23	22.287
705.55	24.917
705.87	31.229
706.19	22.261
706.51	23.988
706.83	25.455
707.15	26.891
707.47	20.707
707.79	19.165
708.11	21.233
708.43	18.810
708.74	18.878
709.06	22.597
709.38	22.310
709.70	20.930
710.02	22.255
710.34	21.212
710.66	22.985
710.98	23.295
711.29	23.547
711.61	26.254
711.93	21.474
712.25	26.367
712.57	26.103
712.89	24.913
713.20	25.228
713.52	25.987
713.84	24.367
714.16	23.780
714.48	25.575
714.80	26.140
715.11	20.749
715.43	21.365
715.75	24.348
716.07	23.003
716.39	24.765
716.70	23.588
717.02	28.417
717.34	24.735
717.66	30.597
717.97	32.271
718.29	27.037
718.61	25.912
718.93	28.309
719.24	23.529
719.56	23.051
719.88	24.407
720.20	26.351
720.51	25.087
720.83	30.855
721.15	23.507
721.46	23.404
721.78	28.315
722.10	29.434
722.42	25.564
722.73	25.094
723.05	26.230
723.37	26.721
723.68	28.571
724.00	25.203
724.32	28.226
724.63	26.016
724.95	29.289
725.27	29.555
725.58	28.125
725.90	31.387
726.22	25.283
726.53	24.653
726.85	24.915
727.16	27.402
727.48	25.177
727.80	26.894
728.11	32.246
728.43	22.692
728.74	27.240
729.06	26.642
729.38	31.618
729.69	28.470
730.01	22.526
730.32	24.653
730.64	23.746
730.96	23.432
731.27	25.497
731.59	23.242
731.90	23.907
732.22	22.360
732.53	21.053
732.85	24.679
733.16	23.794
733.48	22.924
733.80	25.000
734.11	28.025
734.43	24.556
734.74	18.857
735.06	21.777
735.37	23.988
735.69	23.248
736.00	29.085
736.32	26.480
736.63	22.684
736.95	28.435
737.26	17.687
737.58	23.226
737.89	28.094
738.21	24.232
738.52	27.857
738.83	22.642
739.15	26.154
739.46	27.372
739.78	26.389
740.09	22.462
740.41	28.710
740.72	22.997
741.04	27.778
741.35	25.833
741.66	37.778
741.98	25.943
742.29	34.928
742.61	31.034
742.92	24.434
743.23	27.350
743.55	25.200
743.86	29.386
744.18	31.858
744.49	35.885
744.80	30.516
745.12	31.818
745.43	27.753
745.74	29.730
746.06	31.193
746.37	32.287
746.68	30.769
747.00	34.259
747.31	34.286
747.62	27.434
747.94	26.872
748.25	29.787
748.56	35.242
748.88	27.228
749.19	38.000
749.50	33.023
749.82	30.488
750.13	26.531
750.44	22.993
750.75	26.316
751.07	29.260
751.38	27.526
751.69	27.076
752.01	27.820
752.32	25.632
752.63	29.078
752.94	28.279
753.26	33.200
753.57	25.203
753.88	28.125
754.19	27.857
754.51	26.389
754.82	25.271
755.13	30.189
755.44	24.060
755.75	20.438
756.07	26.241
756.38	22.628
756.69	25.503
757.00	22.754
757.31	22.849
757.63	20.468
757.94	22.520
758.25	20.588
758.56	20.741
758.87	22.312
759.18	23.636
759.50	23.511
759.81	24.611
760.12	24.062
760.43	22.063
760.74	23.913
761.05	24.294
761.36	20.588
761.67	23.580
761.99	22.981
762.30	23.611
762.61	22.137
762.92	29.687
763.23	28.151
763.54	30.400
763.85	25.391
764.16	32.308
764.47	29.278
764.78	25.088
765.10	24.684
765.41	23.894
765.72	23.353
766.03	23.197
766.34	25.667
766.65	26.809
766.96	26.496
767.27	32.995
767.58	33.333
767.89	40.000
768.20	34.483
768.51	27.919
768.82	33.486
769.13	26.016
769.44	29.150
769.75	24.893
770.06	22.936
770.37	36.199
770.68	34.259
770.99	32.444
771.30	27.459
771.61	30.942
771.92	30.328
772.23	37.395
772.54	37.436
772.85	33.508
773.16	36.702
773.47	34.239
773.78	41.117
774.09	32.738
774.39	34.503
774.70	37.654
775.01	35.507
775.32	49.673
775.63	43.421
775.94	46.763
776.25	50.394
776.56	50.000
776.87	40.164
777.18	51.563
777.48	47.328
777.79	46.212
778.10	48.148
778.41	51.786
778.72	31.387
779.03	42.953
779.34	42.282
779.65	37.162
779.95	43.558
780.26	44.444
780.57	35.862
780.88	51.562
781.19	45.113
781.50	46.622
781.80	40.252
782.11	35.028
782.42	37.342
782.73	39.264
783.04	43.919
783.34	37.324
783.65	49.315
783.96	47.761
784.27	36.364
784.57	45.324
784.88	47.222
785.19	46.825
785.50	53.774
785.81	56.716
786.11	54.098
786.42	46.512
786.73	45.133
787.04	50.000
787.34	51.786
787.65	61.000
787.96	45.946
788.26	38.017
788.57	53.390
788.88	56.198
789.19	47.917
789.49	43.182
789.80	47.328
790.11	60.952
790.41	65.347
790.72	61.446
791.03	60.870
791.33	60.465
791.64	52.577
791.95	57.426
792.25	68.889
792.56	63.636
792.87	80.769
793.17	77.215
793.48	74.713
793.79	67.816
794.09	60.227
794.40	49.580
794.70	60.294
795.01	40.000
795.32	38.129
795.62	41.732
795.93	48.276
796.23	53.097
796.54	60.000
796.85	68.919
797.15	77.465
797.46	69.697
797.76	78.313
798.07	73.418
798.37	78.462
798.68	74.242
798.99	76.056
799.29	74.026
799.60	68.182
799.90	67.123
800.21	79.104
800.51	86.207
800.82	100.000
801.12	90.164
801.43	90.909
801.73	85.135
802.04	93.651
802.34	77.778
802.65	92.188
802.95	88.136
803.26	103.125
803.56	67.143
803.87	67.692
804.17	83.824
804.48	90.741
804.78	84.483
805.09	82.353
805.39	80.769
805.70	105.357
806.00	98.361
806.30	68.182
806.61	71.951
806.91	59.494
807.22	69.737
807.52	68.657
807.83	77.465
808.13	84.375
808.43	76.667
808.74	82.895
809.04	79.710
809.35	76.119
809.65	73.684
809.95	100.000
810.26	81.356
810.56	90.476
810.86	106.818
811.17	121.429
811.47	113.333
811.77	94.444
812.08	101.818
812.38	102.000
812.69	152.778
812.99	138.636
813.29	118.367
813.59	97.619
813.90	118.367
814.20	90.909
814.50	93.846
814.81	85.294
815.11	108.163
815.41	93.443
815.72	133.333
816.02	112.727
816.32	126.190
816.62	140.000
816.93	136.585
817.23	152.381
817.53	90.909
817.84	139.394
818.14	121.739
818.44	115.556
818.74	170.588
819.04	142.500
819.35	134.286
819.65	188.235
819.95	175.000
820.25	190.000
820.56	153.846
820.86	113.636
821.16	153.488
821.46	146.154
821.76	110.000
822.07	140.000
822.37	135.000
822.67	139.394
822.97	105.882
823.27	164.286
823.57	94.595
823.88	157.500
824.18	183.333
824.48	142.857
824.78	176.000
825.08	208.333
825.38	143.243
825.69	131.707
825.99	208.333
826.29	137.931
826.59	152.632
826.89	150.000
827.19	164.706
827.49	170.968
827.79	150.000
828.09	145.455
828.39	129.787
828.70	124.490
829.00	148.148
829.30	141.935
829.60	130.000
829.90	326.667
830.20	171.429
830.50	217.391
830.80	195.652
831.10	183.333
831.40	173.333
831.70	169.565
832.00	230.769
832.30	211.111
832.60	312.500
832.90	213.333
833.20	328.571
833.50	154.839
833.80	182.759
834.10	184.375
834.40	211.538
834.70	244.444
835.00	271.429
835.30	145.714
835.60	284.615
835.90	203.448
836.20	342.857
836.50	165.517
836.80	172.000
837.10	177.778
837.40	280.952
837.70	335.294
838.00	203.704
838.30	219.048
838.60	271.429
838.90	230.769
839.19	270.000
839.49	357.143
839.79	350.000
840.09	260.000
840.39	204.762
840.69	273.913
840.99	244.444
841.29	500.000
841.59	316.667
841.88	306.250
842.18	144.828
842.48	252.381
842.78	160.000
843.08	282.609
843.38	153.125
843.68	700.000
843.97	215.385
844.27	182.759
844.57	266.667
844.87	393.750
845.17	181.481
845.47	1333.333
845.76	433.333
846.06	288.235
846.36	550.000
846.66	335.714
846.96	281.250
847.25	409.091
847.55	318.182
847.85	243.478
848.15	540.000
848.44	285.714
848.74	233.333
849.04	288.235
849.34	520.000
849.63	210.526
849.93	400.000
850.23	1020.000
850.53	464.286
850.82	2250.000
851.12	-3600.000
851.42	5200.000
851.71	285.000
852.01	-1133.333
852.31	204.167
852.61	1466.667
852.90	261.905
853.20	220.000
853.50	329.412
853.79	280.952
854.09	216.667
854.39	318.750
854.68	164.865
854.98	174.194
855.28	216.667
855.57	203.448
855.87	211.111
856.17	210.526
856.46	306.667
856.76	300.000
857.05	182.759
857.35	179.167
857.65	353.333
857.94	243.478
858.24	203.846
858.53	235.000
858.83	245.455
859.13	320.000
859.42	0.000
859.72	488.889
860.01	454.545
860.31	231.818
860.60	226.316
860.90	234.783
861.20	566.667
861.49	416.667
861.79	-4100.000
862.08	537.500
862.38	280.952
862.67	300.000
862.97	323.529
863.26	477.778
863.56	283.333
863.85	400.000
864.15	600.000
864.44	326.667
864.74	950.000
865.03	650.000
865.33	273.684
865.62	418.182
865.92	338.462
866.21	391.667
866.51	0.000
866.80	490.909
867.10	1260.000
867.39	400.000
867.69	454.545
867.98	273.684
868.27	463.636
868.57	257.895
868.86	-3300.000
869.16	268.750
869.45	1700.000
869.75	-3400.000
870.04	433.333
870.33	642.857
870.63	900.000
870.92	2700.000
871.22	742.857
871.51	241.176
871.80	271.429
872.10	364.286
>>>>>End Processed Spectral Data<<<<<
