SpectraSuite Data File
++++++++++++++++++++++++++++++++++++
Date: Wed May 13 16:31:04 PDT 2015
User: schluterlab
Dark Spectrum Present: Yes
Reference Spectrum Present: Yes
Number of Sampled Component Spectra: 1
Spectrometers: USB2E3373
Integration Time (usec): 3000 (USB2E3373)
Spectra Averaged: 3 (USB2E3373)
Boxcar Smoothing: 0 (USB2E3373)
Correct for Electrical Dark: No (USB2E3373)
Strobe/Lamp Enabled: No (USB2E3373)
Correct for Detector Non-linearity: No (USB2E3373)
Correct for Stray Light: No (USB2E3373)
Number of Pixels in Processed Spectrum: 2048
>>>>>Begin Processed Spectral Data<<<<<
178.53	0.000
178.91	-1175.000
179.29	-1175.000
179.67	-200.000
180.04	-1050.000
180.42	2500.000
180.80	1060.000
181.18	-1175.000
181.56	671.429
181.94	0.000
182.31	-628.571
182.69	1700.000
183.07	-575.000
183.45	-466.667
183.83	536.364
184.20	-380.000
184.58	2400.000
184.96	4900.000
185.34	-800.000
185.72	-412.500
186.09	-2100.000
186.47	2100.000
186.85	1800.000
187.23	4100.000
187.61	-1466.667
187.98	1325.000
188.36	463.636
188.74	445.455
189.12	-1060.000
189.49	570.000
189.87	-5200.000
190.25	-1100.000
190.63	378.571
191.00	407.692
191.38	850.000
191.76	-1075.000
192.14	1400.000
192.51	625.000
192.89	983.333
193.27	512.500
193.65	-1250.000
194.02	470.000
194.40	860.000
194.78	540.000
195.15	433.333
195.53	530.000
195.91	-1950.000
196.29	287.500
196.66	231.579
197.04	-280.000
197.42	0.000
197.79	690.000
198.17	-4100.000
198.55	700.000
198.92	650.000
199.30	800.000
199.68	0.000
200.05	300.000
200.43	814.286
200.81	3500.000
201.18	1566.667
201.56	-1500.000
201.94	511.111
202.31	655.556
202.69	350.000
203.07	570.000
203.44	0.000
203.82	1175.000
204.19	757.143
204.57	414.286
204.95	512.500
205.32	1533.333
205.70	490.909
206.08	407.143
206.45	2800.000
206.83	343.750
207.20	933.333
207.58	740.000
207.96	311.111
208.33	750.000
208.71	-750.000
209.08	642.857
209.46	588.889
209.84	400.000
210.21	-1200.000
210.59	1325.000
210.96	-400.000
211.34	2100.000
211.71	500.000
212.09	816.667
212.46	0.000
212.84	1733.333
213.22	1150.000
213.59	-4200.000
213.97	900.000
214.34	771.429
214.72	554.545
215.09	940.000
215.47	-2050.000
215.84	-2600.000
216.22	1500.000
216.59	357.143
216.97	1200.000
217.34	445.455
217.72	-683.333
218.09	0.000
218.47	-5100.000
218.84	611.111
219.22	771.429
219.59	1733.333
219.97	-700.000
220.34	860.000
220.72	-1733.333
221.09	414.286
221.47	1450.000
221.84	-833.333
222.22	0.000
222.59	1300.000
222.97	-2300.000
223.34	1060.000
223.72	392.308
224.09	1000.000
224.46	2600.000
224.84	-5100.000
225.21	-920.000
225.59	-4500.000
225.96	580.000
226.34	295.000
226.71	2550.000
227.08	637.500
227.46	490.000
227.83	-1200.000
228.21	-1950.000
228.58	655.556
228.95	-2900.000
229.33	-2050.000
229.70	1766.667
230.08	714.286
230.45	-1000.000
230.82	366.667
231.20	933.333
231.57	585.714
231.95	383.333
232.32	254.545
232.69	427.273
233.07	600.000
233.44	392.308
233.81	-1800.000
234.19	289.474
234.56	408.333
234.93	308.333
235.31	500.000
235.68	307.692
236.05	357.143
236.43	215.152
236.80	284.211
237.17	4900.000
237.55	276.190
237.92	239.286
238.29	319.048
238.67	206.452
239.04	234.483
239.41	180.556
239.79	136.957
240.16	159.524
240.53	188.636
240.91	152.941
241.28	172.000
241.65	160.000
242.02	130.435
242.40	114.516
242.77	140.000
243.14	108.602
243.51	110.112
243.89	105.882
244.26	100.000
244.63	91.398
245.00	105.319
245.38	87.129
245.75	85.981
246.12	93.578
246.49	86.131
246.87	85.600
247.24	89.231
247.61	81.429
247.98	84.314
248.36	75.676
248.73	82.803
249.10	82.803
249.47	77.401
249.84	74.866
250.22	74.332
250.59	82.840
250.96	79.293
251.33	78.673
251.70	76.733
252.08	79.048
252.45	70.404
252.82	68.261
253.19	71.915
253.56	69.020
253.94	72.614
254.31	66.406
254.68	73.846
255.05	64.945
255.42	69.512
255.79	66.544
256.16	68.953
256.54	68.198
256.91	70.463
257.28	63.309
257.65	61.056
258.02	64.596
258.39	61.514
258.76	62.207
259.14	63.393
259.51	62.006
259.88	63.043
260.25	63.142
260.62	62.428
260.99	65.839
261.36	63.664
261.73	58.739
262.10	64.535
262.47	63.944
262.85	61.560
263.22	58.689
263.59	63.248
263.96	59.890
264.33	58.486
264.70	62.105
265.07	62.660
265.44	60.859
265.81	56.934
266.18	58.543
266.55	60.976
266.92	59.705
267.29	57.176
267.66	60.092
268.03	58.182
268.40	59.579
268.77	58.711
269.14	56.982
269.51	59.368
269.88	63.170
270.25	58.239
270.62	60.899
270.99	57.419
271.36	56.867
271.73	59.579
272.10	59.565
272.47	57.634
272.84	58.442
273.21	58.281
273.58	56.550
273.95	52.830
274.32	58.264
274.69	57.388
275.06	52.362
275.43	59.362
275.80	56.313
276.17	57.026
276.54	56.549
276.91	54.743
277.28	53.125
277.65	56.480
278.02	55.280
278.39	56.055
278.76	56.182
279.13	53.585
279.50	53.073
279.87	53.187
280.23	55.489
280.60	52.224
280.97	53.789
281.34	54.690
281.71	52.000
282.08	56.430
282.45	54.727
282.82	52.931
283.19	49.198
283.56	52.456
283.92	51.946
284.29	48.501
284.66	53.539
285.03	50.452
285.40	51.056
285.77	51.347
286.14	49.741
286.51	53.333
286.87	52.137
287.24	51.303
287.61	48.796
287.98	52.760
288.35	50.079
288.72	47.508
289.08	48.513
289.45	49.423
289.82	49.431
290.19	47.253
290.56	48.392
290.93	45.317
291.29	47.853
291.66	44.395
292.03	48.983
292.40	47.283
292.77	45.562
293.13	46.269
293.50	45.918
293.87	44.593
294.24	45.333
294.60	43.377
294.97	43.750
295.34	45.134
295.71	44.602
296.08	41.595
296.44	44.567
296.81	41.876
297.18	43.496
297.55	39.710
297.91	42.084
298.28	43.909
298.65	42.298
299.02	41.502
299.38	42.098
299.75	39.892
300.12	42.784
300.48	42.000
300.85	40.567
301.22	40.637
301.59	40.152
301.95	40.050
302.32	41.207
302.69	39.068
303.05	40.242
303.42	39.506
303.79	40.657
304.15	40.210
304.52	40.440
304.89	39.605
305.25	39.327
305.62	38.845
305.99	41.558
306.35	41.051
306.72	39.686
307.09	41.620
307.45	41.667
307.82	39.732
308.19	40.839
308.55	40.885
308.92	40.602
309.29	40.232
309.65	40.933
310.02	39.323
310.38	41.398
310.75	42.661
311.12	41.249
311.48	42.529
311.85	42.767
312.22	42.144
312.58	41.996
312.95	44.351
313.31	42.233
313.68	44.075
314.05	44.970
314.41	45.528
314.78	43.807
315.14	44.290
315.51	44.593
315.87	44.851
316.24	46.276
316.61	43.372
316.97	46.086
317.34	45.205
317.70	46.367
318.07	47.449
318.43	48.826
318.80	47.235
319.16	47.646
319.53	47.186
319.89	50.476
320.26	50.300
320.62	51.190
320.99	49.798
321.35	50.606
321.72	51.540
322.08	52.616
322.45	54.328
322.81	51.938
323.18	54.432
323.54	53.525
323.91	53.208
324.27	55.736
324.64	55.918
325.00	54.914
325.37	56.870
325.73	58.438
326.10	57.988
326.46	58.513
326.83	60.052
327.19	59.009
327.56	59.495
327.92	60.805
328.29	61.402
328.65	61.050
329.01	60.199
329.38	60.685
329.74	61.496
330.11	61.263
330.47	62.167
330.84	62.500
331.20	62.295
331.56	61.284
331.93	63.981
332.29	61.224
332.66	63.186
333.02	63.528
333.38	63.866
333.75	62.745
334.11	63.790
334.48	62.023
334.84	64.062
335.20	63.182
335.57	61.469
335.93	60.893
336.29	62.454
336.66	63.300
337.02	61.538
337.38	62.500
337.75	63.102
338.11	64.011
338.47	64.641
338.84	63.428
339.20	64.220
339.56	64.051
339.93	63.636
340.29	63.768
340.65	63.993
341.02	62.391
341.38	64.413
341.74	62.719
342.11	61.834
342.47	63.965
342.83	62.500
343.20	64.329
343.56	62.258
343.92	62.719
344.28	63.180
344.65	64.574
345.01	62.542
345.37	62.693
345.73	63.875
346.10	63.001
346.46	63.220
346.82	63.427
347.19	60.819
347.55	61.823
347.91	63.673
348.27	64.503
348.63	62.960
349.00	63.269
349.36	62.890
349.72	62.390
350.08	61.912
350.45	63.059
350.81	62.713
351.17	62.723
351.53	64.210
351.89	62.211
352.26	63.299
352.62	64.074
352.98	64.425
353.34	63.846
353.70	62.930
354.07	62.419
354.43	61.984
354.79	61.786
355.15	62.729
355.51	63.869
355.87	64.163
356.24	65.472
356.60	63.593
356.96	63.234
357.32	64.513
357.68	63.307
358.04	63.262
358.40	65.083
358.77	63.850
359.13	62.510
359.49	64.157
359.85	64.206
360.21	64.195
360.57	65.992
360.93	64.769
361.29	64.777
361.66	65.015
362.02	63.358
362.38	64.563
362.74	65.997
363.10	64.767
363.46	64.050
363.82	65.684
364.18	65.198
364.54	65.825
364.90	65.439
365.26	65.441
365.62	65.961
365.98	65.084
366.35	63.610
366.71	66.016
367.07	65.841
367.43	67.344
367.79	67.951
368.15	66.595
368.51	66.642
368.87	65.810
369.23	66.350
369.59	67.487
369.95	67.574
370.31	67.379
370.67	65.362
371.03	68.390
371.39	67.201
371.75	67.868
372.11	67.141
372.47	68.109
372.83	70.461
373.19	67.052
373.55	69.697
373.91	70.398
374.27	66.667
374.63	69.673
374.99	68.715
375.35	69.365
375.71	69.431
376.07	69.547
376.42	70.220
376.78	70.378
377.14	70.760
377.50	71.523
377.86	71.742
378.22	70.164
378.58	69.361
378.94	69.705
379.30	71.247
379.66	71.827
380.02	70.086
380.38	71.160
380.74	71.849
381.09	71.271
381.45	73.755
381.81	73.157
382.17	73.758
382.53	73.082
382.89	73.086
383.25	74.046
383.61	74.040
383.97	74.296
384.32	72.739
384.68	73.854
385.04	73.202
385.40	74.489
385.76	74.816
386.12	74.352
386.48	74.764
386.83	76.139
387.19	76.994
387.55	74.521
387.91	75.514
388.27	76.334
388.62	76.767
388.98	75.369
389.34	75.845
389.70	74.739
390.06	76.869
390.42	76.654
390.77	77.163
391.13	78.175
391.49	77.094
391.85	77.467
392.20	77.539
392.56	78.409
392.92	77.693
393.28	76.686
393.64	76.739
393.99	76.298
394.35	77.109
394.71	75.847
395.07	76.698
395.42	79.666
395.78	78.117
396.14	77.219
396.50	79.449
396.85	79.720
397.21	76.880
397.57	77.991
397.92	78.666
398.28	76.289
398.64	77.479
399.00	77.896
399.35	77.947
399.71	79.688
400.07	77.587
400.42	78.221
400.78	77.986
401.14	78.537
401.49	79.403
401.85	77.253
402.21	78.802
402.57	76.743
402.92	79.382
403.28	78.763
403.63	78.094
403.99	78.726
404.35	78.303
404.70	78.177
405.06	77.927
405.42	78.291
405.77	78.800
406.13	77.314
406.49	77.469
406.84	78.086
407.20	77.187
407.55	78.111
407.91	80.267
408.27	80.153
408.62	76.279
408.98	78.676
409.34	76.691
409.69	79.226
410.05	78.934
410.40	78.410
410.76	76.643
411.11	75.392
411.47	76.102
411.83	76.909
412.18	76.376
412.54	79.016
412.89	75.964
413.25	77.804
413.60	78.135
413.96	77.292
414.31	77.217
414.67	78.264
415.03	77.881
415.38	76.224
415.74	77.814
416.09	78.250
416.45	77.845
416.80	77.132
417.16	77.614
417.51	78.633
417.87	77.521
418.22	78.549
418.58	79.471
418.93	77.703
419.29	77.976
419.64	77.519
420.00	76.463
420.35	77.043
420.71	77.645
421.06	76.372
421.42	76.082
421.77	76.570
422.12	76.923
422.48	76.255
422.83	77.111
423.19	75.304
423.54	76.901
423.90	76.290
424.25	77.443
424.61	77.024
424.96	78.076
425.31	75.969
425.67	75.843
426.02	76.971
426.38	79.060
426.73	76.653
427.09	77.933
427.44	77.343
427.79	76.596
428.15	76.071
428.50	75.834
428.85	77.592
429.21	76.367
429.56	77.605
429.92	75.491
430.27	74.826
430.62	75.781
430.98	77.218
431.33	74.845
431.68	76.492
432.04	74.814
432.39	78.013
432.74	77.020
433.10	76.570
433.45	78.134
433.80	77.494
434.16	75.000
434.51	75.579
434.86	76.796
435.22	76.487
435.57	77.143
435.92	76.419
436.28	78.114
436.63	75.938
436.98	77.046
437.34	76.565
437.69	76.313
438.04	76.110
438.39	76.716
438.75	76.409
439.10	75.922
439.45	75.148
439.81	76.858
440.16	76.115
440.51	76.040
440.86	76.202
441.22	75.473
441.57	76.221
441.92	76.049
442.27	76.695
442.63	75.566
442.98	76.113
443.33	75.163
443.68	75.994
444.03	76.135
444.39	75.609
444.74	76.623
445.09	75.418
445.44	75.724
445.79	74.864
446.15	74.590
446.50	76.037
446.85	75.077
447.20	75.421
447.55	76.326
447.91	76.062
448.26	75.682
448.61	76.145
448.96	76.744
449.31	77.897
449.66	75.408
450.02	75.042
450.37	74.660
450.72	75.127
451.07	73.857
451.42	73.435
451.77	75.925
452.12	72.460
452.47	75.435
452.83	75.408
453.18	74.389
453.53	74.892
453.88	75.015
454.23	75.075
454.58	75.833
454.93	76.033
455.28	75.187
455.63	74.575
455.98	75.060
456.34	75.188
456.69	76.331
457.04	75.046
457.39	74.284
457.74	74.927
458.09	73.491
458.44	75.371
458.79	73.210
459.14	75.000
459.49	73.905
459.84	73.407
460.19	72.717
460.54	71.354
460.89	73.341
461.24	74.135
461.59	74.550
461.94	73.366
462.29	73.769
462.64	72.623
462.99	72.739
463.34	75.667
463.69	72.921
464.04	73.855
464.39	71.884
464.74	73.797
465.09	72.376
465.44	72.188
465.79	72.651
466.14	71.812
466.49	70.745
466.84	73.147
467.19	70.670
467.54	72.562
467.89	72.149
468.24	70.739
468.59	73.199
468.94	69.884
469.29	71.530
469.64	73.762
469.99	72.260
470.34	72.721
470.68	73.779
471.03	72.381
471.38	73.523
471.73	71.219
472.08	73.092
472.43	70.980
472.78	72.219
473.13	70.539
473.48	71.161
473.83	71.463
474.17	70.691
474.52	71.774
474.87	70.753
475.22	70.459
475.57	69.533
475.92	69.995
476.27	71.082
476.61	70.987
476.96	70.973
477.31	69.440
477.66	70.077
478.01	69.995
478.36	70.968
478.70	69.886
479.05	70.288
479.40	69.345
479.75	69.344
480.10	70.080
480.45	69.110
480.79	69.422
481.14	69.618
481.49	68.486
481.84	69.684
482.19	69.423
482.53	67.752
482.88	69.474
483.23	69.299
483.58	69.472
483.92	69.588
484.27	67.102
484.62	68.147
484.97	66.929
485.31	70.068
485.66	70.624
486.01	66.802
486.36	64.502
486.70	62.720
487.05	63.983
487.40	65.858
487.75	65.991
488.09	66.909
488.44	66.978
488.79	68.463
489.13	68.564
489.48	68.026
489.83	66.811
490.17	68.566
490.52	67.095
490.87	68.566
491.22	66.485
491.56	66.469
491.91	66.589
492.26	66.651
492.60	66.175
492.95	64.827
493.30	65.327
493.64	66.869
493.99	65.924
494.34	66.929
494.68	66.941
495.03	66.447
495.37	65.472
495.72	66.959
496.07	67.239
496.41	65.398
496.76	66.623
497.11	66.772
497.45	67.303
497.80	65.979
498.14	65.700
498.49	66.341
498.84	66.635
499.18	65.905
499.53	66.429
499.87	66.030
500.22	66.180
500.56	67.670
500.91	65.433
501.26	66.145
501.60	66.682
501.95	64.711
502.29	66.401
502.64	66.480
502.98	65.264
503.33	64.397
503.67	67.007
504.02	65.154
504.36	64.998
504.71	65.999
505.06	64.916
505.40	64.511
505.75	64.224
506.09	66.278
506.44	66.058
506.78	66.001
507.13	65.068
507.47	66.010
507.82	65.502
508.16	66.211
508.51	66.514
508.85	64.399
509.19	64.643
509.54	64.847
509.88	64.812
510.23	65.553
510.57	67.492
510.92	65.976
511.26	64.132
511.61	64.627
511.95	64.875
512.30	64.740
512.64	66.040
512.98	64.845
513.33	66.221
513.67	63.767
514.02	64.935
514.36	65.920
514.70	66.021
515.05	64.138
515.39	64.554
515.74	65.822
516.08	64.897
516.42	65.538
516.77	66.388
517.11	64.650
517.46	63.883
517.80	65.796
518.14	65.721
518.49	67.911
518.83	65.000
519.17	64.319
519.52	64.290
519.86	64.689
520.20	64.855
520.55	66.068
520.89	66.484
521.23	65.682
521.58	64.886
521.92	65.156
522.26	64.430
522.61	64.548
522.95	65.071
523.29	65.003
523.64	64.512
523.98	66.112
524.32	65.078
524.66	64.823
525.01	64.890
525.35	64.684
525.69	65.025
526.04	65.047
526.38	64.002
526.72	63.926
527.06	66.102
527.41	62.809
527.75	65.981
528.09	65.511
528.43	66.093
528.78	65.028
529.12	63.455
529.46	66.075
529.80	64.790
530.15	64.299
530.49	62.585
530.83	64.620
531.17	64.948
531.51	65.110
531.86	65.097
532.20	64.016
532.54	64.318
532.88	64.634
533.22	63.210
533.57	63.951
533.91	62.131
534.25	63.670
534.59	64.002
534.93	63.534
535.27	63.609
535.62	64.469
535.96	65.035
536.30	63.001
536.64	63.168
536.98	64.499
537.32	63.397
537.66	65.000
538.01	64.582
538.35	64.124
538.69	65.029
539.03	63.483
539.37	63.195
539.71	62.216
540.05	64.575
540.39	65.183
540.73	62.354
541.07	65.672
541.42	64.775
541.76	64.258
542.10	64.618
542.44	64.570
542.78	64.032
543.12	62.316
543.46	63.016
543.80	64.021
544.14	62.709
544.48	62.921
544.82	63.695
545.16	64.476
545.50	62.211
545.84	62.634
546.18	63.906
546.52	64.006
546.86	64.330
547.20	64.666
547.54	63.260
547.88	64.605
548.22	62.329
548.56	62.013
548.90	61.780
549.24	63.704
549.58	64.939
549.92	63.118
550.26	64.702
550.60	63.001
550.94	64.718
551.28	64.009
551.62	64.558
551.96	64.140
552.30	65.188
552.64	64.638
552.98	63.593
553.32	63.115
553.66	62.509
554.00	63.555
554.34	64.734
554.68	64.092
555.02	63.963
555.36	64.161
555.69	61.840
556.03	63.055
556.37	63.097
556.71	62.278
557.05	63.796
557.39	63.191
557.73	63.444
558.07	63.742
558.41	64.689
558.75	64.364
559.08	65.175
559.42	64.021
559.76	65.662
560.10	64.097
560.44	62.893
560.78	63.074
561.12	63.852
561.45	63.103
561.79	63.481
562.13	63.313
562.47	64.071
562.81	65.342
563.15	62.542
563.48	62.401
563.82	63.405
564.16	62.590
564.50	61.654
564.84	61.947
565.17	63.385
565.51	62.236
565.85	62.690
566.19	62.868
566.52	63.268
566.86	62.146
567.20	62.618
567.54	63.470
567.88	61.380
568.21	63.386
568.55	63.448
568.89	62.986
569.23	62.255
569.56	61.215
569.90	61.283
570.24	61.033
570.57	60.626
570.91	59.373
571.25	59.821
571.59	60.177
571.92	60.916
572.26	60.456
572.60	60.390
572.93	59.700
573.27	60.426
573.61	60.357
573.95	60.388
574.28	60.151
574.62	60.398
574.96	59.594
575.29	59.845
575.63	59.756
575.97	59.307
576.30	59.692
576.64	60.627
576.98	59.699
577.31	60.513
577.65	60.261
577.98	60.153
578.32	59.214
578.66	59.560
578.99	59.028
579.33	59.743
579.67	59.304
580.00	60.609
580.34	60.631
580.67	59.986
581.01	60.355
581.35	60.585
581.68	60.126
582.02	59.192
582.35	59.222
582.69	59.409
583.02	59.866
583.36	60.295
583.70	60.365
584.03	60.789
584.37	60.791
584.70	61.494
585.04	60.274
585.37	60.275
585.71	60.832
586.04	59.845
586.38	61.050
586.72	60.453
587.05	60.255
587.39	61.135
587.72	60.680
588.06	60.619
588.39	60.878
588.73	60.018
589.06	60.860
589.40	61.616
589.73	61.880
590.07	61.637
590.40	61.162
590.73	61.944
591.07	63.044
591.40	61.704
591.74	61.818
592.07	62.391
592.41	61.637
592.74	59.888
593.08	60.693
593.41	60.962
593.75	59.650
594.08	60.543
594.41	61.364
594.75	61.072
595.08	60.630
595.42	61.856
595.75	61.717
596.09	61.134
596.42	61.375
596.75	61.672
597.09	61.991
597.42	60.413
597.75	62.656
598.09	61.435
598.42	60.911
598.76	61.532
599.09	60.889
599.42	61.099
599.76	61.420
600.09	60.146
600.42	60.373
600.76	60.036
601.09	60.729
601.42	61.910
601.76	61.101
602.09	60.672
602.42	62.022
602.76	62.515
603.09	61.526
603.42	61.343
603.76	60.785
604.09	61.109
604.42	61.557
604.76	60.945
605.09	61.512
605.42	60.881
605.75	60.886
606.09	62.220
606.42	61.953
606.75	60.141
607.09	61.030
607.42	61.960
607.75	60.675
608.08	60.747
608.42	61.811
608.75	60.866
609.08	60.592
609.41	60.685
609.75	62.363
610.08	62.158
610.41	61.592
610.74	62.488
611.07	62.401
611.41	62.169
611.74	63.499
612.07	61.905
612.40	63.379
612.73	62.316
613.07	62.769
613.40	62.191
613.73	61.825
614.06	63.011
614.39	61.091
614.72	62.053
615.06	61.765
615.39	61.996
615.72	60.378
616.05	61.191
616.38	62.257
616.71	63.836
617.05	63.133
617.38	63.319
617.71	62.823
618.04	63.522
618.37	61.739
618.70	63.161
619.03	63.421
619.36	62.865
619.69	62.676
620.03	65.522
620.36	62.901
620.69	64.041
621.02	64.159
621.35	63.352
621.68	63.474
622.01	64.396
622.34	62.859
622.67	63.498
623.00	63.169
623.33	62.044
623.66	63.831
623.99	63.991
624.32	62.126
624.65	63.701
624.99	62.748
625.32	62.201
625.65	64.087
625.98	64.412
626.31	63.219
626.64	64.082
626.97	66.085
627.30	64.672
627.63	64.561
627.96	63.667
628.29	66.404
628.62	64.684
628.95	65.472
629.28	64.872
629.61	65.170
629.94	66.571
630.26	65.682
630.59	65.586
630.92	65.900
631.25	63.870
631.58	64.665
631.91	65.923
632.24	65.295
632.57	64.848
632.90	66.667
633.23	66.219
633.56	67.006
633.89	65.912
634.22	67.083
634.55	66.154
634.88	68.024
635.20	67.981
635.53	66.024
635.86	66.584
636.19	66.235
636.52	64.245
636.85	64.719
637.18	65.553
637.51	65.130
637.83	64.488
638.16	67.391
638.49	67.128
638.82	67.257
639.15	67.875
639.48	64.090
639.81	68.097
640.13	67.318
640.46	66.309
640.79	67.239
641.12	66.025
641.45	66.760
641.77	68.925
642.10	67.105
642.43	68.919
642.76	70.279
643.09	69.172
643.41	68.134
643.74	68.673
644.07	67.683
644.40	68.252
644.73	67.717
645.05	69.572
645.38	67.457
645.71	69.082
646.04	70.764
646.36	71.953
646.69	69.900
647.02	67.687
647.35	68.557
647.67	72.212
648.00	69.106
648.33	69.637
648.66	66.212
648.98	70.165
649.31	65.022
649.64	66.816
649.96	66.468
650.29	68.246
650.62	67.314
650.94	68.233
651.27	72.804
651.60	66.057
651.92	67.412
652.25	67.915
652.58	68.069
652.90	67.615
653.23	65.794
653.56	65.197
653.88	66.719
654.21	67.615
654.54	68.647
654.86	67.290
655.19	63.514
655.52	53.497
655.84	54.004
656.17	69.041
656.49	91.404
656.82	91.631
657.15	69.539
657.47	51.290
657.80	39.774
658.13	41.367
658.45	62.177
658.78	62.530
659.10	63.425
659.43	66.916
659.75	69.004
660.08	73.291
660.41	75.326
660.73	76.239
661.06	70.701
661.38	73.091
661.71	70.192
662.03	70.414
662.36	67.992
662.68	70.482
663.01	69.697
663.33	66.667
663.66	69.958
663.98	70.194
664.31	70.588
664.63	65.587
664.96	68.410
665.28	68.648
665.61	69.981
665.93	68.209
666.26	68.966
666.58	68.619
666.91	72.304
667.23	70.112
667.56	66.523
667.88	69.444
668.21	70.362
668.53	72.234
668.86	70.130
669.18	69.723
669.50	69.565
669.83	72.331
670.15	73.333
670.48	71.242
670.80	71.121
671.13	71.125
671.45	66.170
671.77	71.283
672.10	67.468
672.42	67.491
672.75	67.662
673.07	67.254
673.39	66.727
673.72	67.578
674.04	73.529
674.37	67.184
674.69	67.894
675.01	72.176
675.34	70.226
675.66	73.474
675.98	67.617
676.31	71.429
676.63	70.488
676.95	66.457
677.28	70.093
677.60	67.033
677.92	68.354
678.25	69.405
678.57	69.323
678.89	70.741
679.22	68.762
679.54	68.511
679.86	69.725
680.18	67.800
680.51	68.972
680.83	66.192
681.15	69.057
681.48	70.510
681.80	67.311
682.12	68.391
682.44	66.731
682.77	69.246
683.09	71.459
683.41	73.171
683.73	70.861
684.06	68.388
684.38	66.732
684.70	68.217
685.02	69.418
685.34	66.300
685.67	67.133
685.99	66.495
686.31	66.724
686.63	65.901
686.96	65.179
687.28	67.329
687.60	63.225
687.92	66.362
688.24	68.631
688.56	72.088
688.89	71.369
689.21	72.707
689.53	67.015
689.85	72.727
690.17	66.667
690.49	66.242
690.82	71.028
691.14	68.304
691.46	65.823
691.78	70.281
692.10	68.388
692.42	67.665
692.74	68.257
693.06	70.638
693.39	67.351
693.71	67.031
694.03	68.632
694.35	67.965
694.67	71.396
694.99	73.902
695.31	70.098
695.63	71.531
695.95	70.171
696.27	73.350
696.59	69.948
696.91	72.798
697.23	65.728
697.56	66.738
697.88	66.462
698.20	70.208
698.52	67.527
698.84	69.042
699.16	67.972
699.48	70.071
699.80	68.116
700.12	74.805
700.44	74.271
700.76	67.956
701.08	70.977
701.40	73.184
701.72	72.886
702.04	75.000
702.36	66.856
702.68	67.422
703.00	70.360
703.32	67.287
703.64	69.437
703.96	69.638
704.28	73.837
704.60	76.246
704.91	72.107
705.23	72.727
705.55	77.741
705.87	73.422
706.19	76.678
706.51	68.536
706.83	74.242
707.15	71.148
707.47	68.182
707.79	69.533
708.11	69.178
708.43	65.238
708.74	70.408
709.06	70.390
709.38	69.029
709.70	76.163
710.02	72.997
710.34	70.000
710.66	69.254
710.98	68.182
711.29	71.221
711.61	75.516
711.93	72.115
712.25	74.277
712.57	80.882
712.89	76.125
713.20	68.997
713.52	73.684
713.84	68.038
714.16	66.159
714.48	65.805
714.80	75.076
715.11	71.182
715.43	71.513
715.75	68.406
716.07	73.482
716.39	71.787
716.70	74.086
717.02	73.022
717.34	68.551
717.66	76.493
717.97	78.486
718.29	73.333
718.61	73.723
718.93	75.735
719.24	70.242
719.56	72.881
719.88	76.949
720.20	71.622
720.51	76.655
720.83	76.952
721.15	70.149
721.46	73.404
721.78	75.986
722.10	73.585
722.42	83.083
722.73	77.528
723.05	73.770
723.37	75.304
723.68	72.973
724.00	75.610
724.32	75.806
724.63	76.423
724.95	75.732
725.27	76.518
725.58	75.781
725.90	80.292
726.22	71.321
726.53	75.000
726.85	69.966
727.16	71.174
727.48	73.404
727.80	74.242
728.11	68.841
728.43	74.231
728.74	73.118
729.06	74.453
729.38	75.735
729.69	77.936
730.01	63.481
730.32	75.000
730.64	73.244
730.96	70.297
731.27	70.530
731.59	72.783
731.90	66.181
732.22	69.876
732.53	65.325
732.85	69.551
733.16	67.203
733.48	70.100
733.80	72.403
734.11	73.567
734.43	70.414
734.74	66.571
735.06	69.628
735.37	71.676
735.69	73.248
736.00	76.144
736.32	71.340
736.63	68.051
736.95	73.163
737.26	68.027
737.58	71.290
737.89	70.903
738.21	73.379
738.52	67.500
738.83	69.434
739.15	70.000
739.46	68.613
739.78	72.917
740.09	66.769
740.41	70.968
740.72	68.990
741.04	70.741
741.35	72.917
741.66	83.111
741.98	71.226
742.29	78.469
742.61	81.466
742.92	76.471
743.23	75.214
743.55	75.600
743.86	71.491
744.18	76.991
744.49	75.120
744.80	81.690
745.12	75.455
745.43	80.617
745.74	78.829
746.06	78.899
746.37	71.300
746.68	73.303
747.00	75.463
747.31	80.476
747.62	69.027
747.94	77.093
748.25	73.617
748.56	77.533
748.88	80.198
749.19	85.000
749.50	73.953
749.82	67.480
750.13	70.204
750.44	68.613
750.75	75.088
751.07	74.920
751.38	70.383
751.69	71.119
752.01	71.805
752.32	63.899
752.63	69.504
752.94	77.869
753.26	77.600
753.57	69.106
753.88	70.703
754.19	66.071
754.51	71.181
754.82	66.065
755.13	69.811
755.44	67.669
755.75	66.423
756.07	68.085
756.38	68.978
756.69	71.477
757.00	66.467
757.31	64.688
757.63	68.129
757.94	67.292
758.25	61.029
758.56	63.457
758.87	64.785
759.18	70.606
759.50	64.263
759.81	65.109
760.12	68.125
760.43	68.195
760.74	62.772
761.05	66.102
761.36	64.439
761.67	68.750
761.99	67.391
762.30	68.750
762.61	67.176
762.92	67.578
763.23	71.849
763.54	71.600
763.85	66.797
764.16	70.769
764.47	77.947
764.78	67.491
765.10	63.608
765.41	66.962
765.72	67.365
766.03	64.577
766.34	67.333
766.65	77.872
766.96	73.077
767.27	75.127
767.58	79.167
767.89	71.579
768.20	81.034
768.51	71.574
768.82	70.183
769.13	72.358
769.44	69.636
769.75	73.391
770.06	68.349
770.37	73.303
770.68	69.444
770.99	71.111
771.30	66.393
771.61	78.027
771.92	71.721
772.23	74.370
772.54	71.282
772.85	78.534
773.16	78.723
773.47	72.283
773.78	80.203
774.09	73.810
774.39	81.287
774.70	72.222
775.01	86.232
775.32	86.928
775.63	86.184
775.94	82.734
776.25	92.126
776.56	90.299
776.87	93.443
777.18	82.031
777.48	93.130
777.79	85.606
778.10	80.000
778.41	83.929
778.72	81.752
779.03	75.168
779.34	73.826
779.65	83.108
779.95	70.552
780.26	86.928
780.57	86.897
780.88	89.844
781.19	90.977
781.50	84.459
781.80	83.019
782.11	77.966
782.42	77.848
782.73	79.755
783.04	89.189
783.34	89.437
783.65	80.822
783.96	87.313
784.27	83.916
784.57	77.698
784.88	97.222
785.19	84.921
785.50	100.000
785.81	84.328
786.11	90.984
786.42	97.674
786.73	96.460
787.04	93.396
787.34	90.179
787.65	100.000
787.96	86.486
788.26	90.909
788.57	103.390
788.88	93.388
789.19	82.639
789.49	94.697
789.80	85.496
790.11	106.667
790.41	111.881
790.72	103.614
791.03	100.000
791.33	103.488
791.64	97.938
791.95	93.069
792.25	87.778
792.56	114.286
792.87	119.231
793.17	113.924
793.48	104.598
793.79	96.552
794.09	104.545
794.40	91.597
794.70	86.029
795.01	85.926
795.32	79.856
795.62	83.465
795.93	86.207
796.23	100.000
796.54	97.647
796.85	105.405
797.15	128.169
797.46	118.182
797.76	110.843
798.07	108.861
798.37	124.615
798.68	109.091
798.99	97.183
799.29	105.195
799.60	92.045
799.90	121.918
800.21	137.313
800.51	117.241
800.82	138.596
801.12	124.590
801.43	133.333
801.73	104.054
802.04	115.873
802.34	107.407
802.65	106.250
802.95	122.034
803.26	114.063
803.56	95.714
803.87	115.385
804.17	126.471
804.48	133.333
804.78	108.621
805.09	120.588
805.39	130.769
805.70	114.286
806.00	131.148
806.30	100.000
806.61	95.122
806.91	120.253
807.22	107.895
807.52	107.463
807.83	109.859
808.13	110.938
808.43	131.667
808.74	90.789
809.04	118.841
809.35	128.358
809.65	111.842
809.95	133.871
810.26	105.085
810.56	119.048
810.86	145.455
811.17	183.333
811.47	126.667
811.77	138.889
812.08	127.273
812.38	126.000
812.69	163.889
812.99	179.545
813.29	138.776
813.59	121.429
813.90	151.020
814.20	107.273
814.50	103.077
814.81	139.706
815.11	134.694
815.41	106.557
815.72	173.810
816.02	132.727
816.32	154.762
816.62	132.500
816.93	160.976
817.23	178.571
817.53	168.182
817.84	206.061
818.14	152.174
818.44	151.111
818.74	173.529
819.04	142.500
819.35	174.286
819.65	182.353
819.95	210.714
820.25	245.000
820.56	174.359
820.86	154.545
821.16	165.116
821.46	169.231
821.76	172.000
822.07	180.000
822.37	162.500
822.67	203.030
822.97	121.569
823.27	257.143
823.57	156.757
823.88	185.000
824.18	186.667
824.48	140.476
824.78	240.000
825.08	237.500
825.38	154.054
825.69	136.585
825.99	258.333
826.29	193.103
826.59	178.947
826.89	142.105
827.19	194.118
827.49	219.355
827.79	165.909
828.09	150.000
828.39	142.553
828.70	167.347
829.00	185.185
829.30	183.871
829.60	145.000
829.90	340.000
830.20	185.714
830.50	239.130
830.80	195.652
831.10	226.667
831.40	223.333
831.70	186.957
832.00	196.154
832.30	240.741
832.60	337.500
832.90	230.000
833.20	414.286
833.50	229.032
833.80	193.103
834.10	221.875
834.40	207.692
834.70	322.222
835.00	300.000
835.30	157.143
835.60	338.462
835.90	179.310
836.20	314.286
836.50	251.724
836.80	216.000
837.10	183.333
837.40	238.095
837.70	311.765
838.00	203.704
838.30	247.619
838.60	261.905
838.90	207.692
839.19	260.000
839.49	364.286
839.79	385.000
840.09	290.000
840.39	309.524
840.69	230.435
840.99	288.889
841.29	400.000
841.59	316.667
841.88	293.750
842.18	189.655
842.48	271.429
842.78	206.667
843.08	221.739
843.38	181.250
843.68	1050.000
843.97	223.077
844.27	186.207
844.57	271.429
844.87	325.000
845.17	222.222
845.47	1666.667
845.76	488.889
846.06	305.882
846.36	725.000
846.66	342.857
846.96	287.500
847.25	381.818
847.55	436.364
847.85	282.609
848.15	490.000
848.44	392.857
848.74	255.556
849.04	305.882
849.34	490.000
849.63	257.895
849.93	390.909
850.23	960.000
850.53	421.429
850.82	2500.000
851.12	-4300.000
851.42	5200.000
851.71	280.000
852.01	-1233.333
852.31	233.333
852.61	1700.000
852.90	323.810
853.20	224.000
853.50	335.294
853.79	276.190
854.09	208.333
854.39	368.750
854.68	170.270
854.98	196.774
855.28	193.333
855.57	196.552
855.87	207.407
856.17	294.737
856.46	213.333
856.76	305.882
857.05	231.034
857.35	220.833
857.65	353.333
857.94	265.217
858.24	273.077
858.53	305.000
858.83	240.909
859.13	306.667
859.42	0.000
859.72	566.667
860.01	454.545
860.31	200.000
860.60	263.158
860.90	230.435
861.20	622.222
861.49	475.000
861.79	-4900.000
862.08	612.500
862.38	271.429
862.67	415.385
862.97	335.294
863.26	588.889
863.56	288.889
863.85	383.333
864.15	575.000
864.44	353.333
864.74	983.333
865.03	650.000
865.33	310.526
865.62	427.273
865.92	484.615
866.21	350.000
866.51	0.000
866.80	445.455
867.10	1120.000
867.39	500.000
867.69	454.545
867.98	310.526
868.27	454.545
868.57	300.000
868.86	-4700.000
869.16	350.000
869.45	2250.000
869.75	-3900.000
870.04	425.000
870.33	714.286
870.63	1025.000
870.92	2350.000
871.22	700.000
871.51	358.824
871.80	185.714
872.10	314.286
>>>>>End Processed Spectral Data<<<<<
