SpectraSuite Data File
++++++++++++++++++++++++++++++++++++
Date: Wed May 13 16:47:53 PDT 2015
User: schluterlab
Dark Spectrum Present: Yes
Reference Spectrum Present: Yes
Number of Sampled Component Spectra: 1
Spectrometers: USB2E3373
Integration Time (usec): 3000 (USB2E3373)
Spectra Averaged: 3 (USB2E3373)
Boxcar Smoothing: 0 (USB2E3373)
Correct for Electrical Dark: No (USB2E3373)
Strobe/Lamp Enabled: No (USB2E3373)
Correct for Detector Non-linearity: No (USB2E3373)
Correct for Stray Light: No (USB2E3373)
Number of Pixels in Processed Spectrum: 2048
>>>>>Begin Processed Spectral Data<<<<<
178.53	0.000
178.91	-1475.000
179.29	-1450.000
179.67	-250.000
180.04	-1475.000
180.42	2700.000
180.80	1160.000
181.18	-1100.000
181.56	642.857
181.94	0.000
182.31	-714.286
182.69	1733.333
183.07	-600.000
183.45	-466.667
183.83	481.818
184.20	-420.000
184.58	2400.000
184.96	5000.000
185.34	-760.000
185.72	-487.500
186.09	-1950.000
186.47	2700.000
186.85	2250.000
187.23	4700.000
187.61	-1666.667
187.98	1325.000
188.36	463.636
188.74	463.636
189.12	-720.000
189.49	490.000
189.87	-4900.000
190.25	-1350.000
190.63	414.286
191.00	407.692
191.38	850.000
191.76	-1150.000
192.14	1275.000
192.51	537.500
192.89	900.000
193.27	625.000
193.65	-1225.000
194.02	450.000
194.40	980.000
194.78	480.000
195.15	466.667
195.53	650.000
195.91	-2250.000
196.29	325.000
196.66	326.316
197.04	-420.000
197.42	0.000
197.79	620.000
198.17	-5000.000
198.55	642.857
198.92	625.000
199.30	860.000
199.68	0.000
200.05	350.000
200.43	728.571
200.81	4400.000
201.18	1366.667
201.56	-1500.000
201.94	511.111
202.31	555.556
202.69	375.000
203.07	470.000
203.44	0.000
203.82	1175.000
204.19	657.143
204.57	478.571
204.95	600.000
205.32	1566.667
205.70	518.182
206.08	421.429
206.45	2400.000
206.83	375.000
207.20	1000.000
207.58	820.000
207.96	333.333
208.33	687.500
208.71	-783.333
209.08	828.571
209.46	555.556
209.84	481.818
210.21	-1466.667
210.59	1500.000
210.96	-487.500
211.34	1950.000
211.71	570.000
212.09	766.667
212.46	0.000
212.84	1533.333
213.22	1325.000
213.59	-4600.000
213.97	950.000
214.34	700.000
214.72	472.727
215.09	940.000
215.47	-2100.000
215.84	-2500.000
216.22	1700.000
216.59	371.429
216.97	1225.000
217.34	472.727
217.72	-616.667
218.09	0.000
218.47	-4400.000
218.84	677.778
219.22	857.143
219.59	1633.333
219.97	-557.143
220.34	760.000
220.72	-1300.000
221.09	392.857
221.47	1200.000
221.84	-816.667
222.22	0.000
222.59	1200.000
222.97	-2300.000
223.34	1060.000
223.72	407.692
224.09	1040.000
224.46	2550.000
224.84	-4900.000
225.21	-1020.000
225.59	-5500.000
225.96	660.000
226.34	255.000
226.71	2650.000
227.08	575.000
227.46	510.000
227.83	-1400.000
228.21	-2250.000
228.58	666.667
228.95	-2600.000
229.33	-2250.000
229.70	1366.667
230.08	714.286
230.45	-600.000
230.82	433.333
231.20	883.333
231.57	500.000
231.95	475.000
232.32	218.182
232.69	418.182
233.07	757.143
233.44	346.154
233.81	-1566.667
234.19	268.421
234.56	383.333
234.93	425.000
235.31	481.818
235.68	292.308
236.05	350.000
236.43	148.485
236.80	252.632
237.17	4500.000
237.55	180.952
237.92	171.429
238.29	195.238
238.67	167.742
239.04	217.241
239.41	144.444
239.79	113.043
240.16	123.810
240.53	113.636
240.91	86.275
241.28	82.000
241.65	106.000
242.02	84.058
242.40	83.871
242.77	85.000
243.14	72.043
243.51	79.775
243.89	65.882
244.26	53.333
244.63	61.290
245.00	37.234
245.38	51.485
245.75	42.991
246.12	43.119
246.49	56.934
246.87	46.400
247.24	50.000
247.61	45.714
247.98	43.791
248.36	38.514
248.73	43.312
249.10	38.854
249.47	38.983
249.84	36.898
250.22	35.829
250.59	35.503
250.96	34.343
251.33	35.071
251.70	37.624
252.08	30.952
252.45	29.596
252.82	30.870
253.19	30.213
253.56	27.843
253.94	32.780
254.31	30.859
254.68	29.615
255.05	30.996
255.42	27.642
255.79	27.574
256.16	28.520
256.54	26.502
256.91	28.470
257.28	22.302
257.65	25.083
258.02	27.640
258.39	25.237
258.76	25.753
259.14	28.274
259.51	22.492
259.88	21.739
260.25	24.471
260.62	22.832
260.99	24.224
261.36	24.024
261.73	23.209
262.10	22.965
262.47	25.915
262.85	23.120
263.22	22.222
263.59	23.077
263.96	23.901
264.33	22.193
264.70	21.842
265.07	24.552
265.44	22.222
265.81	18.735
266.18	21.859
266.55	20.732
266.92	19.902
267.29	24.074
267.66	22.706
268.03	21.818
268.40	22.664
268.77	19.809
269.14	21.396
269.51	20.542
269.88	22.378
270.25	23.476
270.62	20.449
270.99	22.796
271.36	22.318
271.73	18.458
272.10	23.043
272.47	21.075
272.84	20.779
273.21	18.449
273.58	18.122
273.95	19.497
274.32	17.975
274.69	20.343
275.06	19.488
275.43	18.085
275.80	19.238
276.17	20.978
276.54	19.751
276.91	19.960
277.28	18.164
277.65	21.663
278.02	18.427
278.39	19.141
278.76	20.364
279.13	20.566
279.50	18.808
279.87	18.725
280.23	19.561
280.60	16.634
280.97	17.006
281.34	20.000
281.71	20.545
282.08	19.770
282.45	17.273
282.82	16.874
283.19	17.469
283.56	17.719
283.92	20.305
284.29	16.578
284.66	17.967
285.03	18.083
285.40	17.254
285.77	16.498
286.14	16.926
286.51	16.833
286.87	19.316
287.24	18.893
287.61	17.978
287.98	17.045
288.35	15.372
288.72	16.822
289.08	17.058
289.45	14.662
289.82	16.260
290.19	14.443
290.56	15.314
290.93	14.502
291.29	16.871
291.66	17.404
292.03	17.442
292.40	17.181
292.77	15.828
293.13	16.119
293.50	16.327
293.87	16.148
294.24	13.926
294.60	13.392
294.97	16.424
295.34	16.079
295.71	15.767
296.08	13.818
296.44	15.543
296.81	13.738
297.18	16.125
297.55	13.061
297.91	14.248
298.28	14.993
298.65	13.838
299.02	16.469
299.38	13.413
299.75	12.938
300.12	13.155
300.48	12.750
300.85	13.440
301.22	12.994
301.59	12.374
301.95	14.484
302.32	13.350
302.69	13.262
303.05	12.970
303.42	12.840
303.79	13.364
304.15	13.287
304.52	12.978
304.89	13.473
305.25	12.297
305.62	13.137
305.99	14.168
306.35	12.304
306.72	13.677
307.09	13.097
307.45	13.514
307.82	11.607
308.19	12.914
308.55	14.132
308.92	12.782
309.29	12.672
309.65	12.831
310.02	13.953
310.38	12.043
310.75	12.777
311.12	12.692
311.48	12.644
311.85	13.417
312.22	11.342
312.58	12.682
312.95	13.411
313.31	11.650
313.68	12.994
314.05	14.201
314.41	12.261
314.78	13.897
315.14	13.307
315.51	13.182
315.87	13.465
316.24	13.605
316.61	13.743
316.97	13.209
317.34	13.405
317.70	13.480
318.07	13.956
318.43	14.677
318.80	15.370
319.16	14.783
319.53	13.977
319.89	14.667
320.26	15.200
320.62	15.675
320.99	14.646
321.35	15.556
321.72	15.092
322.08	16.091
322.45	18.806
322.81	16.376
323.18	17.630
323.54	17.161
323.91	17.736
324.27	17.017
324.64	17.148
325.00	17.313
325.37	18.653
325.73	19.749
326.10	19.506
326.46	18.728
326.83	20.449
327.19	19.983
327.56	20.383
327.92	20.472
328.29	20.852
328.65	21.455
329.01	21.300
329.38	21.092
329.74	20.960
330.11	22.337
330.47	22.773
330.84	23.805
331.20	23.679
331.56	23.028
331.93	23.426
332.29	24.579
332.66	23.451
333.02	23.583
333.38	24.119
333.75	24.777
334.11	24.199
334.48	25.555
334.84	23.346
335.20	24.455
335.57	24.660
335.93	22.857
336.29	23.718
336.66	23.264
337.02	23.982
337.38	25.000
337.75	24.153
338.11	24.799
338.47	25.322
338.84	25.390
339.20	23.853
339.56	25.821
339.93	25.727
340.29	24.547
340.65	24.955
341.02	24.607
341.38	26.068
341.74	24.211
342.11	24.891
342.47	26.520
342.83	24.401
343.20	25.455
343.56	23.589
343.92	25.439
344.28	25.085
344.65	26.827
345.01	24.411
345.37	23.499
345.73	26.058
346.10	24.297
346.46	24.915
346.82	25.288
347.19	25.230
347.55	24.466
347.91	25.000
348.27	26.787
348.63	25.753
349.00	25.647
349.36	26.026
349.72	24.218
350.08	25.041
350.45	24.736
350.81	24.614
351.17	24.554
351.53	24.652
351.89	25.330
352.26	26.046
352.62	24.940
352.98	24.959
353.34	26.869
353.70	25.614
354.07	24.758
354.43	24.365
354.79	25.422
355.15	25.698
355.51	26.379
355.87	25.878
356.24	26.466
356.60	25.581
356.96	26.066
357.32	26.574
357.68	25.748
358.04	25.653
358.40	25.416
358.77	26.213
359.13	25.414
359.49	25.961
359.85	25.159
360.21	25.359
360.57	26.304
360.93	26.846
361.29	25.624
361.66	25.542
362.02	26.418
362.38	26.540
362.74	26.116
363.10	25.167
363.46	25.238
363.82	26.909
364.18	27.680
364.54	26.300
364.90	26.133
365.26	26.471
365.62	25.931
365.98	26.297
366.35	25.931
366.71	26.392
367.07	26.147
367.43	27.213
367.79	26.981
368.15	28.592
368.51	26.744
368.87	27.266
369.23	26.847
369.59	28.458
369.95	27.353
370.31	27.778
370.67	26.449
371.03	28.240
371.39	27.332
371.75	27.426
372.11	28.094
372.47	27.199
372.83	27.882
373.19	27.023
373.55	28.529
373.91	29.308
374.27	26.804
374.63	28.073
374.99	28.602
375.35	27.216
375.71	27.964
376.07	29.218
376.42	28.404
376.78	29.622
377.14	28.697
377.50	29.205
377.86	28.457
378.22	29.836
378.58	26.817
378.94	28.850
379.30	29.071
379.66	29.315
380.02	28.931
380.38	27.140
380.74	28.752
381.09	30.073
381.45	29.871
381.81	30.221
382.17	29.554
382.53	30.126
382.89	28.951
383.25	29.331
383.61	30.297
383.97	28.643
384.32	29.445
384.68	29.864
385.04	29.502
385.40	29.536
385.76	30.651
386.12	29.663
386.48	31.026
386.83	30.789
387.19	31.540
387.55	31.169
387.91	30.109
388.27	30.963
388.62	30.608
388.98	29.853
389.34	30.976
389.70	30.901
390.06	31.622
390.42	31.128
390.77	30.980
391.13	32.355
391.49	31.599
391.85	29.981
392.20	30.662
392.56	31.881
392.92	30.783
393.28	30.473
393.64	32.074
393.99	31.216
394.35	30.707
394.71	30.740
395.07	31.651
395.42	31.891
395.78	31.298
396.14	30.912
396.50	32.769
396.85	32.676
397.21	32.121
397.57	31.866
397.92	31.611
398.28	30.213
398.64	32.616
399.00	32.289
399.35	31.641
399.71	31.655
400.07	31.638
400.42	31.779
400.78	32.630
401.14	31.402
401.49	33.075
401.85	32.305
402.21	30.958
402.57	32.141
402.92	32.850
403.28	33.104
403.63	31.931
403.99	31.656
404.35	32.303
404.70	32.434
405.06	31.974
405.42	32.252
405.77	32.171
406.13	31.038
406.49	32.170
406.84	31.896
407.20	31.738
407.55	32.355
407.91	32.733
408.27	31.461
408.62	31.186
408.98	32.721
409.34	32.411
409.69	32.774
410.05	32.094
410.40	31.743
410.76	32.378
411.11	32.147
411.47	31.182
411.83	31.704
412.18	31.231
412.54	32.130
412.89	32.651
413.25	32.409
413.60	32.366
413.96	31.148
414.31	32.685
414.67	33.460
415.03	33.245
415.38	32.732
415.74	32.926
416.09	32.528
416.45	33.266
416.80	33.642
417.16	32.842
417.51	32.847
417.87	32.691
418.22	33.565
418.58	34.151
418.93	33.108
419.29	33.800
419.64	33.753
420.00	33.841
420.35	32.406
420.71	32.636
421.06	32.995
421.42	33.450
421.77	34.081
422.12	32.510
422.48	31.678
422.83	32.964
423.19	33.425
423.54	33.198
423.90	34.261
424.25	33.780
424.61	32.381
424.96	33.528
425.31	33.444
425.67	33.146
426.02	33.143
426.38	34.799
426.73	33.119
427.09	33.617
427.44	33.583
427.79	33.813
428.15	33.869
428.50	32.943
428.85	33.313
429.21	32.855
429.56	33.385
429.92	33.417
430.27	32.721
430.62	32.463
430.98	32.693
431.33	32.938
431.68	34.084
432.04	32.748
432.39	33.352
432.74	34.111
433.10	33.843
433.45	34.111
433.80	32.871
434.16	34.776
434.51	33.368
434.86	33.922
435.22	33.630
435.57	35.258
435.92	33.470
436.28	34.401
436.63	34.327
436.98	34.516
437.34	33.810
437.69	35.531
438.04	33.895
438.39	34.627
438.75	34.282
439.10	34.134
439.45	34.888
439.81	33.958
440.16	34.049
440.51	33.919
440.86	35.206
441.22	34.260
441.57	34.660
441.92	35.312
442.27	33.800
442.63	33.913
442.98	35.155
443.33	33.696
443.68	34.125
444.03	33.870
444.39	34.129
444.74	34.740
445.09	34.340
445.44	34.718
445.79	34.636
446.15	34.410
446.50	35.110
446.85	34.327
447.20	35.033
447.55	34.897
447.91	35.025
448.26	34.112
448.61	35.613
448.96	35.770
449.31	34.646
449.66	34.947
450.02	35.097
450.37	34.467
450.72	34.292
451.07	35.101
451.42	35.198
451.77	35.584
452.12	34.873
452.47	35.261
452.83	35.140
453.18	35.697
453.53	35.622
453.88	35.322
454.23	34.728
454.58	36.644
454.93	35.728
455.28	34.975
455.63	36.044
455.98	35.952
456.34	35.867
456.69	35.567
457.04	35.604
457.39	35.184
457.74	34.823
458.09	35.998
458.44	34.664
458.79	34.707
459.14	35.497
459.49	34.209
459.84	35.457
460.19	34.826
460.54	34.144
460.89	34.997
461.24	34.548
461.59	36.142
461.94	35.388
462.29	36.439
462.64	35.099
462.99	35.524
463.34	35.800
463.69	35.272
464.04	35.420
464.39	35.536
464.74	34.819
465.09	34.922
465.44	33.795
465.79	35.403
466.14	35.304
466.49	34.705
466.84	36.194
467.19	35.063
467.54	36.125
467.89	35.054
468.24	35.602
468.59	35.043
468.94	34.087
469.29	35.990
469.64	36.613
469.99	36.401
470.34	36.988
470.68	35.848
471.03	34.830
471.38	36.901
471.73	35.710
472.08	36.711
472.43	35.490
472.78	35.484
473.13	35.366
473.48	36.017
473.83	36.280
474.17	35.096
474.52	36.166
474.87	35.610
475.22	35.403
475.57	35.035
475.92	34.891
476.27	34.724
476.61	34.859
476.96	35.129
477.31	34.380
477.66	36.707
478.01	34.396
478.36	35.590
478.70	34.683
479.05	35.729
479.40	34.596
479.75	34.570
480.10	34.493
480.45	34.888
480.79	34.926
481.14	34.442
481.49	34.884
481.84	34.476
482.19	34.711
482.53	34.495
482.88	35.179
483.23	35.047
483.58	34.622
483.92	35.286
484.27	34.161
484.62	34.483
484.97	33.898
485.31	34.247
485.66	33.456
486.01	32.074
486.36	30.922
486.70	30.326
487.05	31.078
487.40	31.665
487.75	32.147
488.09	33.242
488.44	33.522
488.79	34.358
489.13	33.804
489.48	33.850
489.83	33.966
490.17	34.722
490.52	34.012
490.87	34.509
491.22	34.288
491.56	33.759
491.91	35.365
492.26	33.165
492.60	33.779
492.95	33.302
493.30	33.925
493.64	34.251
493.99	33.612
494.34	34.413
494.68	34.936
495.03	34.023
495.37	34.248
495.72	33.480
496.07	34.153
496.41	33.097
496.76	33.465
497.11	33.904
497.45	34.187
497.80	34.165
498.14	34.106
498.49	34.195
498.84	34.228
499.18	33.714
499.53	33.998
499.87	33.970
500.22	34.385
500.56	34.903
500.91	33.413
501.26	34.424
501.60	34.457
501.95	33.914
502.29	34.911
502.64	33.799
502.98	33.614
503.33	33.181
503.67	34.153
504.02	33.536
504.36	34.207
504.71	34.587
505.06	34.699
505.40	34.468
505.75	33.848
506.09	33.819
506.44	33.843
506.78	34.145
507.13	34.679
507.47	35.404
507.82	34.245
508.16	33.789
508.51	34.855
508.85	33.416
509.19	34.133
509.54	34.235
509.88	34.415
510.23	34.447
510.57	34.985
510.92	35.370
511.26	34.584
511.61	34.440
511.95	34.395
512.30	34.411
512.64	34.659
512.98	34.566
513.33	34.636
513.67	34.578
514.02	33.874
514.36	35.117
514.70	34.864
515.05	34.300
515.39	34.941
515.74	35.191
516.08	35.271
516.42	35.683
516.77	35.786
517.11	34.906
517.46	35.327
517.80	35.308
518.14	35.379
518.49	35.648
518.83	34.261
519.17	35.566
519.52	34.578
519.86	35.425
520.20	35.723
520.55	35.727
520.89	35.158
521.23	36.248
521.58	35.234
521.92	35.211
522.26	35.082
522.61	36.698
522.95	36.034
523.29	35.727
523.64	35.549
523.98	35.490
524.32	35.103
524.66	35.839
525.01	35.784
525.35	34.820
525.69	35.468
526.04	35.202
526.38	35.021
526.72	35.153
527.06	35.405
527.41	34.097
527.75	36.013
528.09	35.710
528.43	35.755
528.78	35.771
529.12	35.212
529.46	36.069
529.80	35.644
530.15	35.389
530.49	34.769
530.83	35.443
531.17	36.619
531.51	37.613
531.86	35.742
532.20	36.180
532.54	35.554
532.88	35.430
533.22	34.853
533.57	34.630
533.91	34.256
534.25	35.662
534.59	35.082
534.93	35.098
535.27	35.667
535.62	33.761
535.96	36.786
536.30	34.711
536.64	35.930
536.98	35.965
537.32	34.891
537.66	36.467
538.01	35.484
538.35	35.553
538.69	36.184
539.03	34.503
539.37	34.760
539.71	34.154
540.05	35.556
540.39	34.950
540.73	34.282
541.07	35.432
541.42	34.312
541.76	35.548
542.10	35.640
542.44	35.497
542.78	36.430
543.12	33.781
543.46	35.082
543.80	35.784
544.14	34.082
544.48	34.794
544.82	35.151
545.16	36.304
545.50	35.219
545.84	34.476
546.18	35.421
546.52	34.893
546.86	34.845
547.20	34.794
547.54	34.402
547.88	35.395
548.22	34.309
548.56	33.962
548.90	33.739
549.24	35.354
549.58	35.539
549.92	35.989
550.26	36.222
550.60	35.615
550.94	35.775
551.28	33.943
551.62	35.083
551.96	34.526
552.30	35.222
552.64	35.159
552.98	35.593
553.32	34.659
553.66	35.719
554.00	34.866
554.34	34.714
554.68	34.406
555.02	34.626
555.36	34.308
555.69	34.371
556.03	34.724
556.37	34.311
556.71	34.516
557.05	34.314
557.39	36.459
557.73	35.639
558.07	35.678
558.41	35.022
558.75	34.680
559.08	35.496
559.42	35.676
559.76	34.779
560.10	34.690
560.44	35.500
560.78	33.733
561.12	35.356
561.45	33.963
561.79	34.212
562.13	34.406
562.47	34.973
562.81	34.519
563.15	34.381
563.48	35.013
563.82	35.356
564.16	34.336
564.50	33.659
564.84	33.059
565.17	34.620
565.51	33.482
565.85	34.391
566.19	32.937
566.52	34.832
566.86	33.876
567.20	34.493
567.54	33.219
567.88	32.428
568.21	33.280
568.55	33.064
568.89	32.247
569.23	31.952
569.56	31.093
569.90	31.962
570.24	31.109
570.57	30.636
570.91	30.737
571.25	29.895
571.59	29.897
571.92	29.147
572.26	30.300
572.60	29.850
572.93	29.835
573.27	30.790
573.61	30.514
573.95	30.026
574.28	29.045
574.62	29.543
574.96	29.558
575.29	29.922
575.63	29.599
575.97	29.680
576.30	29.952
576.64	29.239
576.98	29.144
577.31	29.090
577.65	29.490
577.98	29.614
578.32	28.356
578.66	29.099
578.99	29.103
579.33	29.581
579.67	28.801
580.00	29.082
580.34	29.022
580.67	29.237
581.01	29.256
581.35	29.045
581.68	29.236
582.02	28.459
582.35	28.626
582.69	29.145
583.02	28.688
583.36	29.145
583.70	29.720
584.03	29.676
584.37	29.881
584.70	29.284
585.04	28.963
585.37	29.427
585.71	29.464
586.04	29.017
586.38	29.154
586.72	30.599
587.05	29.313
587.39	29.024
587.72	29.425
588.06	29.055
588.39	29.794
588.73	29.657
589.06	30.477
589.40	30.572
589.73	30.799
590.07	30.356
590.40	30.325
590.73	30.484
591.07	31.298
591.40	30.915
591.74	31.948
592.07	30.846
592.41	30.591
592.74	30.487
593.08	29.880
593.41	29.896
593.75	28.763
594.08	29.601
594.41	29.692
594.75	30.166
595.08	29.277
595.42	30.123
595.75	29.594
596.09	29.854
596.42	30.295
596.75	30.941
597.09	31.169
597.42	30.185
597.75	30.099
598.09	30.870
598.42	30.241
598.76	29.266
599.09	29.456
599.42	29.185
599.76	29.685
600.09	29.253
600.42	28.817
600.76	29.286
601.09	30.128
601.42	29.680
601.76	29.488
602.09	29.368
602.42	29.936
602.76	30.270
603.09	29.622
603.42	30.301
603.76	29.535
604.09	29.934
604.42	29.637
604.76	31.253
605.09	30.232
605.42	30.569
605.75	30.422
606.09	30.175
606.42	30.078
606.75	29.739
607.09	30.013
607.42	30.466
607.75	28.945
608.08	29.787
608.42	30.838
608.75	30.433
609.08	29.833
609.41	30.462
609.75	29.538
610.08	30.631
610.41	29.609
610.74	30.416
611.07	30.781
611.41	29.833
611.74	31.373
612.07	31.315
612.40	30.588
612.73	30.211
613.07	30.873
613.40	31.490
613.73	31.096
614.06	30.806
614.39	30.100
614.72	30.421
615.06	31.250
615.39	30.255
615.72	29.652
616.05	29.612
616.38	30.795
616.71	31.176
617.05	31.331
617.38	30.908
617.71	31.231
618.04	31.851
618.37	30.455
618.70	31.861
619.03	31.579
619.36	31.636
619.69	32.254
620.03	31.799
620.36	31.618
620.69	31.918
621.02	32.743
621.35	32.655
621.68	32.165
622.01	33.050
622.34	33.207
622.67	32.928
623.00	30.961
623.33	32.380
623.66	32.237
623.99	31.517
624.32	31.812
624.65	31.497
624.99	31.303
625.32	32.295
625.65	32.382
625.98	32.975
626.31	33.904
626.64	31.918
626.97	33.167
627.30	32.835
627.63	33.470
627.96	34.146
628.29	33.246
628.62	33.669
628.95	35.000
629.28	33.485
629.61	34.005
629.94	33.905
630.26	33.556
630.59	33.746
630.92	33.142
631.25	32.675
631.58	34.735
631.91	32.860
632.24	33.439
632.57	32.844
632.90	34.649
633.23	33.445
633.56	36.158
633.89	34.541
634.22	35.868
634.55	38.225
634.88	35.210
635.20	35.603
635.53	34.699
635.86	36.510
636.19	35.294
636.52	33.333
636.85	35.166
637.18	32.949
637.51	35.225
637.83	33.662
638.16	35.550
638.49	36.272
638.82	36.283
639.15	36.750
639.48	35.287
639.81	36.863
640.13	36.979
640.46	36.376
640.79	36.196
641.12	35.488
641.45	34.916
641.77	38.144
642.10	36.257
642.43	36.336
642.76	37.461
643.09	38.037
643.41	36.874
643.74	39.352
644.07	37.805
644.40	40.951
644.73	39.055
645.05	37.718
645.38	37.283
645.71	38.486
646.04	38.372
646.36	39.566
646.69	37.793
647.02	40.306
647.35	39.691
647.67	39.646
648.00	38.699
648.33	37.624
648.66	37.879
648.98	36.582
649.31	34.529
649.64	35.426
649.96	36.662
650.29	36.177
650.62	36.731
650.94	37.601
651.27	38.682
651.60	37.604
651.92	38.019
652.25	35.831
652.58	37.227
652.90	37.915
653.23	36.364
653.56	33.228
653.88	36.609
654.21	36.335
654.54	36.964
654.86	37.383
655.19	35.000
655.52	25.045
655.84	22.115
656.17	28.870
656.49	38.676
656.82	39.823
657.15	29.969
657.47	22.386
657.80	17.330
658.13	18.377
658.45	27.185
658.78	27.542
659.10	28.647
659.43	30.599
659.75	32.649
660.08	34.873
660.41	38.082
660.73	39.009
661.06	37.898
661.38	40.364
661.71	41.154
662.03	39.645
662.36	38.569
662.68	37.952
663.01	41.010
663.33	40.552
663.66	40.336
663.98	39.309
664.31	39.706
664.63	36.842
664.96	35.815
665.28	40.984
665.61	37.622
665.93	37.827
666.26	39.148
666.58	39.331
666.91	40.803
667.23	42.022
667.56	37.581
667.88	40.812
668.21	40.085
668.53	38.829
668.86	41.126
669.18	42.644
669.50	38.696
669.83	43.791
670.15	41.111
670.48	39.216
670.80	42.026
671.13	38.854
671.45	37.447
671.77	38.086
672.10	37.523
672.42	35.336
672.75	36.816
673.07	38.732
673.39	39.060
673.72	36.523
674.04	37.255
674.37	38.252
674.69	40.286
675.01	37.866
675.34	40.452
675.66	42.947
675.98	38.289
676.31	40.756
676.63	40.340
676.95	39.832
677.28	35.981
677.60	36.703
677.92	40.295
678.25	38.604
678.57	36.853
678.89	38.878
679.22	36.739
679.54	35.878
679.86	36.147
680.18	37.567
680.51	37.943
680.83	36.477
681.15	36.415
681.48	39.130
681.80	37.331
682.12	36.590
682.44	35.203
682.77	37.271
683.09	39.700
683.41	39.468
683.73	40.397
684.06	39.256
684.38	36.595
684.70	36.434
685.02	39.212
685.34	32.601
685.67	32.692
685.99	36.082
686.31	36.007
686.63	34.099
686.96	34.286
687.28	36.462
687.60	36.413
687.92	35.101
688.24	36.692
688.56	37.550
688.89	39.627
689.21	40.393
689.53	38.622
689.85	34.590
690.17	36.646
690.49	39.278
690.82	38.318
691.14	36.607
691.46	36.920
691.78	37.952
692.10	39.876
692.42	37.126
692.74	36.100
693.06	36.809
693.39	40.657
693.71	39.083
694.03	40.632
694.35	37.879
694.67	36.384
694.99	39.756
695.31	39.951
695.63	38.278
695.95	37.408
696.27	37.817
696.59	40.415
696.91	38.860
697.23	36.150
697.56	36.461
697.88	33.538
698.20	36.875
698.52	37.849
698.84	37.639
699.16	36.636
699.48	36.342
699.80	37.923
700.12	42.338
700.44	42.706
700.76	38.398
701.08	42.241
701.40	37.709
701.72	40.233
702.04	42.614
702.36	37.110
702.68	44.759
703.00	40.443
703.32	38.830
703.64	39.142
703.96	40.669
704.28	43.605
704.60	42.229
704.91	43.323
705.23	45.455
705.55	42.525
705.87	49.502
706.19	41.343
706.51	39.252
706.83	44.545
707.15	40.616
707.47	41.414
707.79	38.084
708.11	36.758
708.43	39.762
708.74	37.245
709.06	41.299
709.38	40.945
709.70	41.570
710.02	42.433
710.34	40.000
710.66	38.806
710.98	39.773
711.29	41.570
711.61	42.478
711.93	41.667
712.25	45.338
712.57	48.162
712.89	44.291
713.20	42.553
713.52	45.724
713.84	39.557
714.16	42.378
714.48	41.667
714.80	45.897
715.11	39.769
715.43	40.653
715.75	40.580
716.07	41.534
716.39	39.812
716.70	41.196
717.02	44.604
717.34	43.463
717.66	45.522
717.97	49.402
718.29	42.963
718.61	45.255
718.93	46.324
719.24	44.637
719.56	39.322
719.88	41.017
720.20	43.919
720.51	44.948
720.83	46.840
721.15	44.403
721.46	43.972
721.78	48.746
722.10	46.792
722.42	45.865
722.73	44.944
723.05	43.033
723.37	44.534
723.68	45.560
724.00	45.528
724.32	49.194
724.63	43.496
724.95	46.862
725.27	49.393
725.58	47.656
725.90	46.715
726.22	45.283
726.53	38.889
726.85	41.297
727.16	43.772
727.48	40.780
727.80	44.697
728.11	43.478
728.43	43.462
728.74	40.860
729.06	41.971
729.38	45.221
729.69	45.196
730.01	39.590
730.32	38.542
730.64	41.137
730.96	37.954
731.27	40.066
731.59	40.979
731.90	37.609
732.22	38.509
732.53	35.913
732.85	41.987
733.16	37.621
733.48	41.528
733.80	40.909
734.11	37.898
734.43	38.166
734.74	37.714
735.06	32.665
735.37	39.884
735.69	41.401
736.00	39.542
736.32	43.302
736.63	38.978
736.95	39.297
737.26	37.075
737.58	36.774
737.89	43.478
738.21	40.956
738.52	43.214
738.83	43.774
739.15	43.846
739.46	45.255
739.78	38.194
740.09	39.385
740.41	42.258
740.72	39.721
741.04	42.222
741.35	46.250
741.66	47.111
741.98	43.396
742.29	55.024
742.61	51.724
742.92	49.774
743.23	42.735
743.55	43.600
743.86	42.982
744.18	51.770
744.49	48.804
744.80	52.113
745.12	52.273
745.43	45.815
745.74	50.901
746.06	48.624
746.37	50.224
746.68	46.154
747.00	50.926
747.31	49.048
747.62	42.035
747.94	48.018
748.25	40.851
748.56	48.458
748.88	47.030
749.19	55.000
749.50	47.442
749.82	40.650
750.13	45.714
750.44	43.796
750.75	43.509
751.07	45.016
751.38	40.070
751.69	40.433
752.01	38.722
752.32	41.516
752.63	41.489
752.94	45.902
753.26	48.000
753.57	43.496
753.88	44.531
754.19	40.357
754.51	45.486
754.82	39.711
755.13	44.528
755.44	43.985
755.75	43.431
756.07	38.298
756.38	38.686
756.69	39.262
757.00	36.826
757.31	38.872
757.63	37.135
757.94	34.316
758.25	36.765
758.56	30.864
758.87	35.484
759.18	39.091
759.50	34.169
759.81	41.121
760.12	37.187
760.43	36.963
760.74	36.413
761.05	36.441
761.36	38.770
761.67	34.943
761.99	34.472
762.30	40.972
762.61	41.221
762.92	42.188
763.23	41.597
763.54	46.800
763.85	39.453
764.16	43.077
764.47	45.627
764.78	34.982
765.10	33.544
765.41	37.168
765.72	40.419
766.03	37.304
766.34	38.000
766.65	44.255
766.96	45.726
767.27	50.254
767.58	53.646
767.89	47.895
768.20	54.023
768.51	43.147
768.82	42.661
769.13	38.618
769.44	44.130
769.75	44.206
770.06	38.073
770.37	48.416
770.68	46.759
770.99	44.444
771.30	38.525
771.61	48.430
771.92	47.951
772.23	47.479
772.54	49.744
772.85	51.832
773.16	46.809
773.47	47.283
773.78	54.315
774.09	45.833
774.39	48.538
774.70	51.235
775.01	61.594
775.32	58.170
775.63	55.263
775.94	57.554
776.25	57.480
776.56	63.433
776.87	55.738
777.18	58.594
777.48	67.176
777.79	60.606
778.10	64.444
778.41	57.143
778.72	51.825
779.03	49.664
779.34	54.362
779.65	52.027
779.95	61.350
780.26	60.784
780.57	57.931
780.88	67.969
781.19	52.632
781.50	60.811
781.80	55.975
782.11	53.672
782.42	51.899
782.73	45.399
783.04	56.757
783.34	53.521
783.65	61.644
783.96	57.463
784.27	49.650
784.57	53.237
784.88	60.185
785.19	61.111
785.50	67.925
785.81	68.657
786.11	54.098
786.42	61.240
786.73	61.062
787.04	72.642
787.34	66.964
787.65	73.000
787.96	69.369
788.26	58.678
788.57	71.186
788.88	63.636
789.19	56.250
789.49	64.394
789.80	60.305
790.11	77.143
790.41	74.257
790.72	73.494
791.03	86.957
791.33	80.233
791.64	78.351
791.95	70.297
792.25	76.667
792.56	76.623
792.87	83.333
793.17	91.139
793.48	86.207
793.79	94.253
794.09	68.182
794.40	68.067
794.70	60.294
795.01	66.667
795.32	54.676
795.62	55.118
795.93	57.759
796.23	70.796
796.54	74.118
796.85	71.622
797.15	95.775
797.46	81.818
797.76	83.133
798.07	86.076
798.37	86.154
798.68	83.333
798.99	78.873
799.29	87.013
799.60	73.864
799.90	89.041
800.21	92.537
800.51	100.000
800.82	114.035
801.12	86.885
801.43	96.970
801.73	82.432
802.04	87.302
802.34	83.951
802.65	98.437
802.95	106.780
803.26	96.875
803.56	71.429
803.87	84.615
804.17	98.529
804.48	112.963
804.78	93.103
805.09	85.294
805.39	115.385
805.70	96.429
806.00	96.721
806.30	80.303
806.61	78.049
806.91	79.747
807.22	97.368
807.52	77.612
807.83	88.732
808.13	95.312
808.43	101.667
808.74	71.053
809.04	94.203
809.35	98.507
809.65	86.842
809.95	114.516
810.26	89.831
810.56	100.000
810.86	134.091
811.17	145.238
811.47	106.667
811.77	124.074
812.08	121.818
812.38	108.000
812.69	138.889
812.99	138.636
813.29	122.449
813.59	119.048
813.90	120.408
814.20	96.364
814.50	95.385
814.81	98.529
815.11	100.000
815.41	111.475
815.72	135.714
816.02	107.273
816.32	126.190
816.62	115.000
816.93	124.390
817.23	150.000
817.53	125.000
817.84	160.606
818.14	119.565
818.44	122.222
818.74	167.647
819.04	137.500
819.35	128.571
819.65	170.588
819.95	182.143
820.25	210.000
820.56	151.282
820.86	127.273
821.16	137.209
821.46	146.154
821.76	122.000
822.07	140.000
822.37	147.500
822.67	160.606
822.97	109.804
823.27	203.571
823.57	145.946
823.88	165.000
824.18	193.333
824.48	142.857
824.78	184.000
825.08	145.833
825.38	145.946
825.69	160.976
825.99	225.000
826.29	148.276
826.59	136.842
826.89	176.316
827.19	191.176
827.49	174.194
827.79	138.636
828.09	138.636
828.39	114.894
828.70	120.408
829.00	192.593
829.30	170.968
829.60	147.500
829.90	260.000
830.20	182.143
830.50	208.696
830.80	234.783
831.10	190.000
831.40	163.333
831.70	191.304
832.00	234.615
832.30	192.593
832.60	343.750
832.90	186.667
833.20	364.286
833.50	193.548
833.80	144.828
834.10	200.000
834.40	196.154
834.70	266.667
835.00	304.762
835.30	137.143
835.60	300.000
835.90	193.103
836.20	357.143
836.50	168.966
836.80	168.000
837.10	194.444
837.40	238.095
837.70	247.059
838.00	188.889
838.30	214.286
838.60	280.952
838.90	242.308
839.19	255.000
839.49	357.143
839.79	335.000
840.09	275.000
840.39	290.476
840.69	243.478
840.99	233.333
841.29	450.000
841.59	325.000
841.88	350.000
842.18	172.414
842.48	271.429
842.78	183.333
843.08	178.261
843.38	171.875
843.68	866.667
843.97	207.692
844.27	168.966
844.57	233.333
844.87	262.500
845.17	248.148
845.47	1533.333
845.76	522.222
846.06	323.529
846.36	587.500
846.66	414.286
846.96	337.500
847.25	463.636
847.55	418.182
847.85	243.478
848.15	450.000
848.44	321.429
848.74	300.000
849.04	270.588
849.34	470.000
849.63	247.368
849.93	436.364
850.23	900.000
850.53	507.143
850.82	2300.000
851.12	-4400.000
851.42	4700.000
851.71	275.000
852.01	-1266.667
852.31	233.333
852.61	1500.000
852.90	228.571
853.20	252.000
853.50	341.176
853.79	261.905
854.09	212.500
854.39	325.000
854.68	154.054
854.98	196.774
855.28	180.000
855.57	196.552
855.87	214.815
856.17	252.632
856.46	300.000
856.76	300.000
857.05	158.621
857.35	204.167
857.65	366.667
857.94	195.652
858.24	230.769
858.53	285.000
858.83	245.455
859.13	333.333
859.42	0.000
859.72	577.778
860.01	390.909
860.31	245.455
860.60	300.000
860.90	252.174
861.20	633.333
861.49	541.667
861.79	-4000.000
862.08	550.000
862.38	257.143
862.67	300.000
862.97	305.882
863.26	600.000
863.56	277.778
863.85	375.000
864.15	525.000
864.44	340.000
864.74	850.000
865.03	700.000
865.33	357.895
865.62	509.091
865.92	369.231
866.21	400.000
866.51	0.000
866.80	472.727
867.10	1140.000
867.39	461.538
867.69	445.455
867.98	278.947
868.27	518.182
868.57	342.105
868.86	-4300.000
869.16	312.500
869.45	2050.000
869.75	-4600.000
870.04	475.000
870.33	600.000
870.63	1125.000
870.92	2800.000
871.22	657.143
871.51	370.588
871.80	257.143
872.10	378.571
>>>>>End Processed Spectral Data<<<<<
