SpectraSuite Data File
++++++++++++++++++++++++++++++++++++
Date: Wed May 13 16:33:43 PDT 2015
User: schluterlab
Dark Spectrum Present: Yes
Reference Spectrum Present: Yes
Number of Sampled Component Spectra: 1
Spectrometers: USB2E3373
Integration Time (usec): 3000 (USB2E3373)
Spectra Averaged: 3 (USB2E3373)
Boxcar Smoothing: 0 (USB2E3373)
Correct for Electrical Dark: No (USB2E3373)
Strobe/Lamp Enabled: No (USB2E3373)
Correct for Detector Non-linearity: No (USB2E3373)
Correct for Stray Light: No (USB2E3373)
Number of Pixels in Processed Spectrum: 2048
>>>>>Begin Processed Spectral Data<<<<<
178.53	0.000
178.91	-1200.000
179.29	-1450.000
179.67	-227.778
180.04	-1425.000
180.42	2450.000
180.80	880.000
181.18	-1125.000
181.56	700.000
181.94	0.000
182.31	-542.857
182.69	1433.333
183.07	-637.500
183.45	-566.667
183.83	590.909
184.20	-310.000
184.58	2100.000
184.96	5000.000
185.34	-700.000
185.72	-612.500
186.09	-1350.000
186.47	2400.000
186.85	2450.000
187.23	4500.000
187.61	-1566.667
187.98	1225.000
188.36	445.455
188.74	472.727
189.12	-820.000
189.49	570.000
189.87	-3700.000
190.25	-1225.000
190.63	364.286
191.00	384.615
191.38	866.667
191.76	-800.000
192.14	1325.000
192.51	637.500
192.89	900.000
193.27	612.500
193.65	-1175.000
194.02	430.000
194.40	880.000
194.78	560.000
195.15	450.000
195.53	670.000
195.91	-2100.000
196.29	393.750
196.66	273.684
197.04	-340.000
197.42	0.000
197.79	530.000
198.17	-5000.000
198.55	614.286
198.92	662.500
199.30	1040.000
199.68	0.000
200.05	344.444
200.43	714.286
200.81	4100.000
201.18	1700.000
201.56	-1633.333
201.94	533.333
202.31	588.889
202.69	400.000
203.07	540.000
203.44	0.000
203.82	1125.000
204.19	757.143
204.57	421.429
204.95	562.500
205.32	1266.667
205.70	490.909
206.08	364.286
206.45	2500.000
206.83	337.500
207.20	783.333
207.58	760.000
207.96	338.889
208.33	650.000
208.71	-800.000
209.08	685.714
209.46	611.111
209.84	463.636
210.21	-1466.667
210.59	1325.000
210.96	-387.500
211.34	2500.000
211.71	510.000
212.09	666.667
212.46	0.000
212.84	1400.000
213.22	1350.000
213.59	-4700.000
213.97	783.333
214.34	700.000
214.72	590.909
215.09	1080.000
215.47	-1950.000
215.84	-2500.000
216.22	1833.333
216.59	400.000
216.97	1150.000
217.34	445.455
217.72	-833.333
218.09	0.000
218.47	-4600.000
218.84	444.444
219.22	757.143
219.59	1633.333
219.97	-600.000
220.34	1120.000
220.72	-1600.000
221.09	407.143
221.47	1375.000
221.84	-1083.333
222.22	0.000
222.59	1150.000
222.97	-2800.000
223.34	880.000
223.72	384.615
224.09	1060.000
224.46	2050.000
224.84	-5100.000
225.21	-900.000
225.59	-4200.000
225.96	550.000
226.34	270.000
226.71	2150.000
227.08	737.500
227.46	430.000
227.83	-1100.000
228.21	-1850.000
228.58	644.444
228.95	-2200.000
229.33	-2150.000
229.70	1500.000
230.08	728.571
230.45	-900.000
230.82	358.333
231.20	700.000
231.57	757.143
231.95	425.000
232.32	227.273
232.69	290.909
233.07	728.571
233.44	376.923
233.81	-1666.667
234.19	331.579
234.56	525.000
234.93	341.667
235.31	500.000
235.68	330.769
236.05	342.857
236.43	178.788
236.80	273.684
237.17	5200.000
237.55	261.905
237.92	203.571
238.29	295.238
238.67	203.226
239.04	227.586
239.41	158.333
239.79	139.130
240.16	173.810
240.53	150.000
240.91	105.882
241.28	128.000
241.65	142.000
242.02	105.797
242.40	101.613
242.77	96.667
243.14	91.398
243.51	103.371
243.89	88.235
244.26	91.111
244.63	86.022
245.00	75.532
245.38	86.139
245.75	74.766
246.12	68.807
246.49	81.022
246.87	74.400
247.24	76.923
247.61	66.429
247.98	64.706
248.36	66.216
248.73	62.420
249.10	72.611
249.47	65.537
249.84	59.358
250.22	55.615
250.59	64.497
250.96	62.121
251.33	59.716
251.70	61.881
252.08	55.238
252.45	56.054
252.82	53.043
253.19	55.319
253.56	56.471
253.94	59.751
254.31	53.906
254.68	57.692
255.05	52.399
255.42	58.537
255.79	53.676
256.16	54.513
256.54	51.237
256.91	50.178
257.28	47.122
257.65	51.815
258.02	52.174
258.39	52.366
258.76	47.826
259.14	52.679
259.51	52.888
259.88	46.894
260.25	49.849
260.62	48.844
260.99	53.106
261.36	52.553
261.73	48.424
262.10	47.093
262.47	52.394
262.85	47.354
263.22	47.009
263.59	48.148
263.96	45.330
264.33	46.214
264.70	45.789
265.07	45.269
265.44	45.960
265.81	42.092
266.18	49.246
266.55	44.878
266.92	50.860
267.29	45.602
267.66	44.725
268.03	43.864
268.40	43.224
268.77	46.539
269.14	42.793
269.51	43.792
269.88	46.387
270.25	46.275
270.62	45.843
270.99	46.882
271.36	42.704
271.73	46.028
272.10	42.826
272.47	43.441
272.84	44.372
273.21	42.558
273.58	42.140
273.95	39.832
274.32	43.595
274.69	44.540
275.06	42.126
275.43	45.106
275.80	43.086
276.17	43.381
276.54	45.114
276.91	44.466
277.28	41.602
277.65	43.327
278.02	40.580
278.39	42.969
278.76	41.636
279.13	44.151
279.50	41.713
279.87	41.036
280.23	42.914
280.60	41.779
280.97	40.665
281.34	41.770
281.71	43.091
282.08	42.035
282.45	40.909
282.82	41.918
283.19	40.463
283.56	41.228
283.92	42.809
284.29	39.153
284.66	41.198
285.03	39.964
285.40	40.845
285.77	41.077
286.14	37.997
286.51	41.667
286.87	39.316
287.24	40.554
287.61	37.079
287.98	39.448
288.35	37.401
288.72	37.227
289.08	38.341
289.45	38.056
289.82	37.561
290.19	35.950
290.56	35.835
290.93	35.801
291.29	36.656
291.66	34.513
292.03	34.593
292.40	37.298
292.77	34.615
293.13	33.582
293.50	35.423
293.87	35.259
294.24	34.074
294.60	31.441
294.97	33.721
295.34	34.274
295.71	33.097
296.08	32.479
296.44	32.600
296.81	32.100
297.18	31.572
297.55	31.135
297.91	29.815
298.28	31.861
298.65	31.593
299.02	31.621
299.38	32.271
299.75	29.111
300.12	30.140
300.48	29.250
300.85	29.470
301.22	29.809
301.59	28.788
301.95	30.982
302.32	31.707
302.69	29.749
303.05	29.576
303.42	28.765
303.79	28.992
304.15	28.089
304.52	27.231
304.89	29.036
305.25	28.306
305.62	27.860
305.99	28.099
306.35	27.964
306.72	28.251
307.09	27.747
307.45	30.293
307.82	26.562
308.19	29.029
308.55	27.616
308.92	27.712
309.29	27.983
309.65	26.193
310.02	25.687
310.38	28.065
310.75	27.666
311.12	27.329
311.48	27.482
311.85	27.254
312.22	27.471
312.58	26.195
312.95	27.561
313.31	25.728
313.68	26.403
314.05	28.600
314.41	26.030
314.78	25.881
315.14	26.514
315.51	27.497
315.87	26.931
316.24	26.415
316.61	25.731
316.97	25.538
317.34	25.049
317.70	26.386
318.07	26.275
318.43	26.712
318.80	25.961
319.16	27.024
319.53	25.516
319.89	28.000
320.26	27.800
320.62	26.786
320.99	25.657
321.35	25.960
321.72	26.386
322.08	27.147
322.45	26.468
322.81	26.163
323.18	26.590
323.54	26.438
323.91	26.698
324.27	25.813
324.64	26.095
325.00	24.527
325.37	26.388
325.73	27.199
326.10	26.743
326.46	25.896
326.83	26.057
327.19	24.338
327.56	25.087
327.92	26.334
328.29	27.595
328.65	26.059
329.01	26.625
329.38	25.624
329.74	26.039
330.11	26.956
330.47	26.722
330.84	27.757
331.20	26.138
331.56	26.514
331.93	24.815
332.29	24.401
332.66	26.637
333.02	25.411
333.38	26.287
333.75	26.025
334.11	25.623
334.48	25.111
334.84	26.011
335.20	26.909
335.57	23.572
335.93	23.750
336.29	25.275
336.66	24.707
337.02	24.977
337.38	24.352
337.75	24.599
338.11	25.873
338.47	25.138
338.84	24.381
339.20	23.945
339.56	25.274
339.93	24.727
340.29	23.822
340.65	24.510
341.02	25.393
341.38	25.089
341.74	24.561
342.11	26.550
342.47	24.846
342.83	24.229
343.20	24.502
343.56	23.336
343.92	23.947
344.28	25.340
344.65	24.420
345.01	23.064
345.37	23.070
345.73	24.112
346.10	24.297
346.46	24.153
346.82	23.476
347.19	24.144
347.55	23.727
347.91	24.919
348.27	24.979
348.63	23.579
349.00	22.654
349.36	22.906
349.72	23.176
350.08	23.582
350.45	22.783
350.81	22.908
351.17	23.987
351.53	23.833
351.89	23.102
352.26	23.757
352.62	24.459
352.98	22.853
353.34	23.665
353.70	22.259
354.07	22.823
354.43	22.460
354.79	23.170
355.15	22.506
355.51	23.581
355.87	22.367
356.24	24.511
356.60	21.973
356.96	21.963
357.32	23.058
357.68	23.465
358.04	23.278
358.40	24.624
358.77	23.005
359.13	22.257
359.49	22.667
359.85	21.667
360.21	22.488
360.57	23.735
360.93	24.462
361.29	23.054
361.66	21.130
362.02	23.060
362.38	23.574
362.74	22.247
363.10	21.762
363.46	22.597
363.82	22.298
364.18	21.953
364.54	23.700
364.90	22.096
365.26	21.912
365.62	23.009
365.98	23.083
366.35	21.777
366.71	22.415
367.07	21.923
367.43	22.569
367.79	22.627
368.15	22.989
368.51	22.311
368.87	21.699
369.23	22.604
369.59	22.158
369.95	21.397
370.31	23.006
370.67	21.377
371.03	22.022
371.39	22.522
371.75	21.324
372.11	21.479
372.47	22.434
372.83	22.406
373.19	21.893
373.55	21.803
373.91	23.122
374.27	22.543
374.63	21.527
374.99	22.599
375.35	21.773
375.71	21.796
376.07	23.114
376.42	21.871
376.78	22.134
377.14	23.066
377.50	22.119
377.86	21.144
378.22	22.187
378.58	21.178
378.94	22.942
379.30	21.247
379.66	21.574
380.02	22.420
380.38	21.433
380.74	22.089
381.09	21.394
381.45	22.311
381.81	23.157
382.17	22.293
382.53	21.635
382.89	23.086
383.25	22.264
383.61	22.677
383.97	21.826
384.32	21.585
384.68	21.561
385.04	21.819
385.40	21.610
385.76	22.482
386.12	22.280
386.48	22.152
386.83	23.220
387.19	23.253
387.55	22.511
387.91	22.672
388.27	21.950
388.62	22.495
388.98	22.174
389.34	22.153
389.70	22.011
390.06	23.004
390.42	23.022
390.77	22.392
391.13	22.719
391.49	22.589
391.85	22.088
392.20	22.461
392.56	23.169
392.92	22.425
393.28	21.479
393.64	21.942
393.99	22.480
394.35	21.650
394.71	22.836
395.07	22.679
395.42	22.064
395.78	23.346
396.14	22.781
396.50	23.120
396.85	22.759
397.21	22.256
397.57	22.815
397.92	23.197
398.28	21.861
398.64	22.760
399.00	22.664
399.35	22.391
399.71	22.743
400.07	22.295
400.42	22.638
400.78	22.979
401.14	22.439
401.49	22.209
401.85	21.658
402.21	21.617
402.57	22.209
402.92	22.194
403.28	22.611
403.63	22.649
403.99	22.102
404.35	22.000
404.70	23.381
405.06	22.190
405.42	22.396
405.77	22.114
406.13	22.122
406.49	22.531
406.84	22.445
407.20	22.695
407.55	23.165
407.91	22.333
408.27	22.655
408.62	22.637
408.98	22.426
409.34	22.079
409.69	22.452
410.05	22.181
410.40	22.324
410.76	22.342
411.11	22.195
411.47	22.492
411.83	22.236
412.18	22.387
412.54	22.852
412.89	22.892
413.25	22.668
413.60	23.162
413.96	22.587
414.31	22.479
414.67	22.117
415.03	22.583
415.38	22.229
415.74	21.415
416.09	23.449
416.45	22.021
416.80	22.274
417.16	22.788
417.51	22.960
417.87	22.800
418.22	22.776
418.58	22.853
418.93	22.359
419.29	21.961
419.64	22.733
420.00	22.317
420.35	22.725
420.71	22.594
421.06	21.718
421.42	22.339
421.77	22.534
422.12	22.122
422.48	21.802
422.83	22.248
423.19	22.873
423.54	22.229
423.90	22.725
424.25	21.720
424.61	21.786
424.96	22.216
425.31	22.868
425.67	22.865
426.02	22.171
426.38	23.138
426.73	22.996
427.09	21.884
427.44	21.909
427.79	21.277
428.15	22.619
428.50	22.118
428.85	23.004
429.21	22.087
429.56	21.721
429.92	21.741
430.27	21.946
430.62	22.273
430.98	22.211
431.33	21.753
431.68	22.408
432.04	21.885
432.39	21.816
432.74	20.946
433.10	22.637
433.45	23.324
433.80	22.395
434.16	21.848
434.51	22.158
434.86	22.577
435.22	22.290
435.57	22.188
435.92	21.884
436.28	23.310
436.63	22.627
436.98	22.725
437.34	22.123
437.69	23.046
438.04	22.147
438.39	22.806
438.75	22.719
439.10	23.352
439.45	22.255
439.81	23.202
440.16	22.134
440.51	22.086
440.86	22.930
441.22	21.913
441.57	23.195
441.92	23.234
442.27	22.336
442.63	22.433
442.98	22.930
443.33	22.717
443.68	21.167
444.03	22.108
444.39	22.395
444.74	22.565
445.09	22.264
445.44	22.089
445.79	22.761
446.15	22.605
446.50	22.833
446.85	22.508
447.20	22.285
447.55	22.055
447.91	22.504
448.26	22.927
448.61	23.177
448.96	22.924
449.31	22.778
449.66	22.735
450.02	22.228
450.37	22.449
450.72	22.786
451.07	22.547
451.42	21.824
451.77	22.901
452.12	22.806
452.47	23.321
452.83	22.902
453.18	23.044
453.53	23.871
453.88	22.918
454.23	22.953
454.58	23.561
454.93	23.967
455.28	23.317
455.63	22.269
455.98	23.810
456.34	23.116
456.69	23.544
457.04	22.415
457.39	22.618
457.74	23.680
458.09	22.944
458.44	23.318
458.79	22.885
459.14	23.646
459.49	23.292
459.84	22.327
460.19	23.335
460.54	22.454
460.89	22.600
461.24	23.558
461.59	24.056
461.94	23.428
462.29	23.383
462.64	23.612
462.99	23.357
463.34	24.533
463.69	23.390
464.04	23.536
464.39	23.768
464.74	22.638
465.09	23.402
465.44	22.825
465.79	22.595
466.14	23.043
466.49	23.749
466.84	22.884
467.19	22.330
467.54	23.750
467.89	23.049
468.24	23.269
468.59	23.382
468.94	23.091
469.29	22.494
469.64	24.029
469.99	23.884
470.34	23.052
470.68	24.497
471.03	23.333
471.38	23.767
471.73	23.251
472.08	24.145
472.43	23.492
472.78	22.976
473.13	23.813
473.48	23.471
473.83	23.720
474.17	23.584
474.52	24.380
474.87	24.343
475.22	23.854
475.57	22.998
475.92	22.464
476.27	23.563
476.61	23.718
476.96	22.320
477.31	23.548
477.66	23.468
478.01	23.785
478.36	23.744
478.70	23.261
479.05	23.110
479.40	23.439
479.75	22.623
480.10	22.565
480.45	22.656
480.79	22.169
481.14	23.190
481.49	22.924
481.84	22.451
482.19	23.035
482.53	23.716
482.88	23.546
483.23	23.551
483.58	22.793
483.92	23.618
484.27	22.266
484.62	21.897
484.97	22.665
485.31	23.767
485.66	23.058
486.01	21.979
486.36	21.028
486.70	20.461
487.05	21.019
487.40	21.527
487.75	21.331
488.09	21.383
488.44	21.314
488.79	21.989
489.13	22.613
489.48	22.675
489.83	23.177
490.17	22.929
490.52	22.631
490.87	23.202
491.22	22.738
491.56	22.506
491.91	23.639
492.26	22.830
492.60	22.258
492.95	22.685
493.30	22.757
493.64	22.678
493.99	22.516
494.34	23.404
494.68	23.168
495.03	23.308
495.37	22.987
495.72	23.099
496.07	23.527
496.41	22.832
496.76	22.691
497.11	22.557
497.45	23.381
497.80	22.841
498.14	23.333
498.49	22.878
498.84	24.065
499.18	22.857
499.53	22.840
499.87	23.159
500.22	23.081
500.56	23.544
500.91	23.077
501.26	23.281
501.60	23.873
501.95	22.640
502.29	23.805
502.64	23.696
502.98	22.581
503.33	22.806
503.67	22.923
504.02	23.106
504.36	22.508
504.71	22.863
505.06	23.277
505.40	22.800
505.75	22.179
506.09	23.567
506.44	23.236
506.78	23.380
507.13	22.867
507.47	23.687
507.82	23.810
508.16	23.303
508.51	24.302
508.85	23.535
509.19	23.214
509.54	22.959
509.88	23.442
510.23	24.113
510.57	24.303
510.92	23.615
511.26	22.970
511.61	23.600
511.95	22.495
512.30	23.012
512.64	23.536
512.98	23.473
513.33	24.036
513.67	22.839
514.02	22.890
514.36	23.867
514.70	23.741
515.05	23.090
515.39	23.948
515.74	24.718
516.08	24.483
516.42	24.084
516.77	25.084
517.11	24.306
517.46	24.210
517.80	24.390
518.14	22.930
518.49	23.746
518.83	24.261
519.17	24.249
519.52	24.165
519.86	24.016
520.20	23.873
520.55	25.015
520.89	24.453
521.23	25.452
521.58	25.030
521.92	25.658
522.26	23.856
522.61	24.237
522.95	23.143
523.29	24.224
523.64	25.122
523.98	23.722
524.32	24.427
524.66	24.895
525.01	24.510
525.35	23.854
525.69	24.384
526.04	24.050
526.38	24.100
526.72	24.356
527.06	25.047
527.41	23.453
527.75	24.180
528.09	25.434
528.43	26.259
528.78	24.401
529.12	23.394
529.46	25.168
529.80	25.495
530.15	24.424
530.49	24.308
530.83	24.937
531.17	24.739
531.51	24.903
531.86	24.129
532.20	26.728
532.54	25.689
532.88	25.546
533.22	25.109
533.57	24.506
533.91	25.045
534.25	25.213
534.59	24.771
534.93	24.390
535.27	24.925
535.62	25.519
535.96	24.859
536.30	25.747
536.64	25.177
536.98	25.481
537.32	24.819
537.66	24.333
538.01	24.490
538.35	25.210
538.69	25.846
539.03	25.081
539.37	24.856
539.71	23.526
540.05	24.771
540.39	25.116
540.73	23.868
541.07	25.762
541.42	24.331
541.76	25.419
542.10	24.774
542.44	24.702
542.78	26.021
543.12	23.864
543.46	25.639
543.80	24.984
544.14	24.134
544.48	25.143
544.82	24.952
545.16	24.854
545.50	24.293
545.84	25.538
546.18	24.377
546.52	25.465
546.86	24.399
547.20	25.421
547.54	25.384
547.88	25.255
548.22	25.093
548.56	24.843
548.90	23.688
549.24	24.781
549.58	25.648
549.92	25.687
550.26	26.207
550.60	25.104
550.94	24.859
551.28	24.579
551.62	25.809
551.96	24.702
552.30	26.280
552.64	24.814
552.98	26.102
553.32	25.556
553.66	25.835
554.00	26.767
554.34	24.845
554.68	25.322
555.02	25.670
555.36	24.287
555.69	24.899
556.03	25.101
556.37	25.512
556.71	24.079
557.05	25.910
557.39	25.402
557.73	24.629
558.07	26.686
558.41	25.470
558.75	24.908
559.08	25.727
559.42	25.472
559.76	26.176
560.10	24.911
560.44	24.878
560.78	24.817
561.12	25.528
561.45	25.489
561.79	25.379
562.13	25.017
562.47	25.342
562.81	26.011
563.15	24.147
563.48	25.398
563.82	25.310
564.16	24.853
564.50	24.740
564.84	25.537
565.17	24.968
565.51	25.304
565.85	25.127
566.19	25.047
566.52	25.522
566.86	24.955
567.20	24.882
567.54	25.342
567.88	24.117
568.21	24.127
568.55	24.368
568.89	24.660
569.23	24.688
569.56	23.725
569.90	24.340
570.24	23.825
570.57	23.393
570.91	23.077
571.25	23.224
571.59	23.417
571.92	22.869
572.26	23.166
572.60	23.363
572.93	22.909
573.27	23.070
573.61	23.004
573.95	23.540
574.28	22.337
574.62	23.032
574.96	22.843
575.29	22.357
575.63	22.510
575.97	22.572
576.30	22.756
576.64	22.997
576.98	22.606
577.31	23.105
577.65	22.975
577.98	22.698
578.32	22.200
578.66	22.096
578.99	22.210
579.33	22.755
579.67	21.965
580.00	22.393
580.34	22.496
580.67	22.453
581.01	22.712
581.35	22.397
581.68	23.024
582.02	22.214
582.35	22.514
582.69	22.115
583.02	21.929
583.36	22.297
583.70	22.752
584.03	22.283
584.37	22.503
584.70	22.962
585.04	22.823
585.37	22.833
585.71	22.580
586.04	22.928
586.38	22.753
586.72	23.060
587.05	22.956
587.39	22.612
587.72	23.035
588.06	22.892
588.39	22.936
588.73	22.851
589.06	23.341
589.40	23.098
589.73	23.020
590.07	23.310
590.40	23.091
590.73	23.497
591.07	23.972
591.40	22.986
591.74	23.853
592.07	23.386
592.41	23.811
592.74	23.221
593.08	23.418
593.41	23.600
593.75	22.892
594.08	22.528
594.41	22.128
594.75	23.031
595.08	22.799
595.42	23.748
595.75	22.578
596.09	23.432
596.42	23.379
596.75	23.301
597.09	24.156
597.42	22.681
597.75	23.803
598.09	22.957
598.42	23.540
598.76	23.186
599.09	23.033
599.42	23.180
599.76	23.280
600.09	22.295
600.42	22.644
600.76	22.857
601.09	22.732
601.42	23.288
601.76	22.808
602.09	22.964
602.42	23.368
602.76	22.692
603.09	23.249
603.42	23.389
603.76	22.713
604.09	23.032
604.42	23.155
604.76	23.745
605.09	23.591
605.42	23.130
605.75	23.675
606.09	22.895
606.42	23.335
606.75	23.973
607.09	23.692
607.42	23.620
607.75	22.447
608.08	22.840
608.42	23.039
608.75	22.858
609.08	22.572
609.41	23.417
609.75	22.916
610.08	22.762
610.41	23.138
610.74	23.415
611.07	23.518
611.41	22.522
611.74	23.831
612.07	23.602
612.40	23.820
612.73	23.632
613.07	24.461
613.40	23.855
613.73	22.549
614.06	23.387
614.39	23.912
614.72	23.421
615.06	23.897
615.39	23.461
615.72	23.364
616.05	22.807
616.38	23.235
616.71	23.159
617.05	23.675
617.38	23.873
617.71	23.483
618.04	24.279
618.37	23.596
618.70	24.082
619.03	24.474
619.36	23.354
619.69	24.366
620.03	23.420
620.36	24.666
620.69	24.863
621.02	24.410
621.35	24.041
621.68	23.910
622.01	24.613
622.34	24.584
622.67	23.346
623.00	23.991
623.33	23.445
623.66	25.018
623.99	24.963
624.32	24.108
624.65	24.011
624.99	23.513
625.32	23.823
625.65	23.892
625.98	24.904
626.31	25.661
626.64	24.653
626.97	24.190
627.30	24.688
627.63	25.595
627.96	25.399
628.29	24.497
628.62	25.526
628.95	26.226
629.28	26.095
629.61	26.031
629.94	25.905
630.26	24.881
630.59	26.025
630.92	25.000
631.25	24.877
631.58	25.926
631.91	24.645
632.24	24.156
632.57	26.128
632.90	24.781
633.23	25.391
633.56	25.989
633.89	26.161
634.22	25.539
634.55	27.456
634.88	24.431
635.20	26.045
635.53	26.145
635.86	25.248
636.19	27.059
636.52	26.298
636.85	27.033
637.18	25.461
637.51	27.305
637.83	24.044
638.16	26.087
638.49	26.196
638.82	27.813
639.15	27.000
639.48	27.182
639.81	26.944
640.13	27.734
640.46	25.369
640.79	27.609
641.12	24.759
641.45	25.279
641.77	27.246
642.10	26.901
642.43	24.925
642.76	26.471
643.09	27.301
643.41	25.948
643.74	28.549
644.07	26.982
644.40	27.761
644.73	27.874
645.05	27.892
645.38	27.172
645.71	26.731
646.04	28.073
646.36	28.214
646.69	25.753
647.02	27.721
647.35	28.179
647.67	27.611
648.00	28.130
648.33	29.373
648.66	26.970
648.98	29.385
649.31	27.055
649.64	26.607
649.96	28.465
650.29	27.804
650.62	27.994
650.94	27.229
651.27	29.730
651.60	26.290
651.92	27.316
652.25	27.199
652.58	26.791
652.90	28.436
653.23	26.810
653.56	27.087
653.88	29.160
654.21	28.594
654.54	27.063
654.86	26.636
655.19	25.000
655.52	19.546
655.84	19.407
656.17	25.439
656.49	33.577
656.82	32.932
657.15	23.787
657.47	17.413
657.80	13.182
658.13	13.333
658.45	19.529
658.78	18.933
659.10	20.058
659.43	20.286
659.75	21.572
660.08	24.114
660.41	25.791
660.73	27.065
661.06	27.229
661.38	28.364
661.71	29.808
662.03	30.769
662.36	23.658
662.68	28.313
663.01	28.889
663.33	31.210
663.66	29.622
663.98	28.942
664.31	28.151
664.63	29.352
664.96	26.157
665.28	28.484
665.61	27.680
665.93	27.163
666.26	27.992
666.58	29.498
666.91	30.021
667.23	30.787
667.56	26.782
667.88	31.624
668.21	30.064
668.53	27.115
668.86	29.870
669.18	29.424
669.50	27.609
669.83	30.719
670.15	27.111
670.48	25.490
670.80	28.879
671.13	27.813
671.45	28.511
671.77	31.772
672.10	26.248
672.42	27.562
672.75	25.705
673.07	26.056
673.39	26.582
673.72	28.320
674.04	26.275
674.37	27.379
674.69	27.607
675.01	25.941
675.34	30.801
675.66	29.895
675.98	27.902
676.31	27.731
676.63	29.087
676.95	28.512
677.28	31.075
677.60	28.571
677.92	29.325
678.25	28.747
678.57	28.088
678.89	31.263
679.22	27.898
679.54	26.718
679.86	29.358
680.18	27.370
680.51	28.901
680.83	27.224
681.15	30.189
681.48	28.544
681.80	27.853
682.12	27.778
682.44	24.565
682.77	29.328
683.09	28.970
683.41	30.820
683.73	26.932
684.06	29.132
684.38	27.397
684.70	28.295
685.02	27.205
685.34	27.106
685.67	25.175
685.99	23.883
686.31	25.939
686.63	24.205
686.96	27.321
687.28	26.715
687.60	26.268
687.92	27.971
688.24	27.186
688.56	27.510
688.89	28.838
689.21	30.349
689.53	29.228
689.85	30.820
690.17	29.607
690.49	29.512
690.82	28.738
691.14	29.911
691.46	26.582
691.78	27.309
692.10	29.752
692.42	28.343
692.74	26.971
693.06	28.723
693.39	31.006
693.71	31.878
694.03	29.895
694.35	30.087
694.67	28.833
694.99	30.244
695.31	26.961
695.63	27.512
695.95	30.807
696.27	30.711
696.59	28.756
696.91	32.383
697.23	26.291
697.56	27.719
697.88	26.176
698.20	27.708
698.52	29.032
698.84	27.394
699.16	26.728
699.48	27.791
699.80	30.193
700.12	33.247
700.44	31.034
700.76	32.044
701.08	28.736
701.40	32.961
701.72	34.402
702.04	35.795
702.36	32.861
702.68	33.711
703.00	30.471
703.32	27.660
703.64	32.976
703.96	29.526
704.28	30.814
704.60	29.912
704.91	32.641
705.23	35.484
705.55	34.219
705.87	34.884
706.19	30.742
706.51	33.956
706.83	35.455
707.15	28.852
707.47	28.283
707.79	33.907
708.11	28.995
708.43	28.571
708.74	26.786
709.06	32.208
709.38	27.822
709.70	33.721
710.02	32.938
710.34	26.970
710.66	32.239
710.98	35.795
711.29	33.721
711.61	35.988
711.93	30.769
712.25	36.334
712.57	33.456
712.89	32.526
713.20	33.739
713.52	34.211
713.84	31.013
714.16	35.061
714.48	32.471
714.80	37.386
715.11	34.294
715.43	35.015
715.75	31.594
716.07	33.227
716.39	34.796
716.70	35.880
717.02	34.532
717.34	36.396
717.66	39.552
717.97	38.247
718.29	31.481
718.61	33.212
718.93	35.294
719.24	35.986
719.56	32.542
719.88	33.220
720.20	41.216
720.51	36.237
720.83	36.803
721.15	28.731
721.46	36.525
721.78	32.975
722.10	35.472
722.42	33.835
722.73	39.700
723.05	33.197
723.37	36.842
723.68	35.135
724.00	36.585
724.32	37.903
724.63	36.179
724.95	35.565
725.27	38.866
725.58	36.328
725.90	37.956
726.22	33.585
726.53	31.250
726.85	36.519
727.16	34.875
727.48	34.043
727.80	34.848
728.11	37.319
728.43	35.385
728.74	34.767
729.06	38.321
729.38	36.765
729.69	38.434
730.01	31.399
730.32	36.111
730.64	32.776
730.96	32.013
731.27	34.768
731.59	36.086
731.90	32.945
732.22	34.472
732.53	30.960
732.85	33.013
733.16	35.691
733.48	33.223
733.80	33.766
734.11	33.121
734.43	33.432
734.74	31.714
735.06	33.238
735.37	34.393
735.69	29.618
736.00	35.294
736.32	36.449
736.63	30.351
736.95	35.463
737.26	31.633
737.58	31.290
737.89	33.110
738.21	32.423
738.52	33.929
738.83	33.208
739.15	33.846
739.46	36.861
739.78	35.417
740.09	34.462
740.41	37.742
740.72	34.146
741.04	35.185
741.35	33.333
741.66	44.444
741.98	34.434
742.29	42.105
742.61	40.086
742.92	37.104
743.23	35.043
743.55	38.000
743.86	36.842
744.18	47.345
744.49	44.498
744.80	40.376
745.12	36.364
745.43	40.969
745.74	41.892
746.06	40.826
746.37	38.565
746.68	39.819
747.00	39.815
747.31	44.762
747.62	40.708
747.94	41.850
748.25	31.489
748.56	42.731
748.88	41.584
749.19	46.500
749.50	40.465
749.82	34.146
750.13	37.959
750.44	36.131
750.75	35.088
751.07	30.547
751.38	33.798
751.69	35.740
752.01	33.835
752.32	33.935
752.63	35.106
752.94	40.984
753.26	40.400
753.57	35.772
753.88	41.797
754.19	37.143
754.51	40.278
754.82	33.935
755.13	40.000
755.44	36.466
755.75	34.307
756.07	34.752
756.38	28.832
756.69	34.564
757.00	32.635
757.31	35.015
757.63	29.532
757.94	34.584
758.25	27.941
758.56	31.358
758.87	31.720
759.18	31.212
759.50	32.602
759.81	33.333
760.12	29.687
760.43	35.530
760.74	32.065
761.05	35.028
761.36	31.283
761.67	32.386
761.99	31.677
762.30	32.292
762.61	39.313
762.92	41.016
763.23	39.916
763.54	41.200
763.85	36.328
764.16	36.538
764.47	39.163
764.78	36.042
765.10	34.810
765.41	34.218
765.72	32.934
766.03	33.229
766.34	34.333
766.65	37.447
766.96	41.453
767.27	42.640
767.58	48.958
767.89	45.789
768.20	51.149
768.51	42.132
768.82	42.661
769.13	36.585
769.44	38.057
769.75	39.485
770.06	36.697
770.37	37.557
770.68	41.667
770.99	41.778
771.30	36.066
771.61	44.395
771.92	33.607
772.23	44.538
772.54	45.641
772.85	44.503
773.16	43.085
773.47	46.739
773.78	45.178
774.09	45.833
774.39	45.614
774.70	48.148
775.01	53.623
775.32	52.941
775.63	45.395
775.94	49.640
776.25	64.567
776.56	56.716
776.87	48.361
777.18	56.250
777.48	66.412
777.79	51.515
778.10	57.037
778.41	59.821
778.72	54.015
779.03	49.664
779.34	35.570
779.65	49.324
779.95	49.080
780.26	52.288
780.57	54.483
780.88	53.906
781.19	53.383
781.50	45.946
781.80	49.057
782.11	38.983
782.42	42.405
782.73	41.718
783.04	45.270
783.34	47.887
783.65	61.644
783.96	61.194
784.27	53.147
784.57	53.237
784.88	50.000
785.19	60.317
785.50	51.887
785.81	57.463
786.11	61.475
786.42	56.589
786.73	54.867
787.04	50.000
787.34	61.607
787.65	65.000
787.96	65.766
788.26	52.893
788.57	55.085
788.88	67.769
789.19	54.861
789.49	59.848
789.80	48.092
790.11	71.429
790.41	67.327
790.72	72.289
791.03	66.304
791.33	65.116
791.64	67.010
791.95	72.277
792.25	74.444
792.56	72.727
792.87	84.615
793.17	77.215
793.48	79.310
793.79	67.816
794.09	70.455
794.40	60.504
794.70	62.500
795.01	51.852
795.32	51.079
795.62	40.945
795.93	58.621
796.23	55.752
796.54	67.059
796.85	60.811
797.15	88.732
797.46	77.273
797.76	78.313
798.07	69.620
798.37	83.077
798.68	77.273
798.99	67.606
799.29	75.325
799.60	79.545
799.90	79.452
800.21	95.522
800.51	84.483
800.82	103.509
801.12	88.525
801.43	77.273
801.73	60.811
802.04	106.349
802.34	80.247
802.65	92.188
802.95	106.780
803.26	90.625
803.56	54.286
803.87	89.231
804.17	92.647
804.48	118.519
804.78	77.586
805.09	80.882
805.39	84.615
805.70	98.214
806.00	101.639
806.30	92.424
806.61	78.049
806.91	60.759
807.22	89.474
807.52	70.149
807.83	78.873
808.13	93.750
808.43	96.667
808.74	78.947
809.04	79.710
809.35	86.567
809.65	88.158
809.95	111.290
810.26	93.220
810.56	87.302
810.86	145.455
811.17	133.333
811.47	110.000
811.77	96.296
812.08	110.909
812.38	134.000
812.69	133.333
812.99	134.091
813.29	110.204
813.59	114.286
813.90	126.531
814.20	112.727
814.50	69.231
814.81	111.765
815.11	122.449
815.41	80.328
815.72	140.476
816.02	105.455
816.32	92.857
816.62	115.000
816.93	131.707
817.23	123.810
817.53	143.182
817.84	139.394
818.14	119.565
818.44	124.444
818.74	123.529
819.04	140.000
819.35	162.857
819.65	141.176
819.95	146.429
820.25	125.000
820.56	146.154
820.86	138.636
821.16	139.535
821.46	130.769
821.76	124.000
822.07	171.429
822.37	125.000
822.67	148.485
822.97	96.078
823.27	214.286
823.57	124.324
823.88	132.500
824.18	193.333
824.48	154.762
824.78	160.000
825.08	170.833
825.38	154.054
825.69	124.390
825.99	191.667
826.29	168.966
826.59	155.263
826.89	142.105
827.19	179.412
827.49	174.194
827.79	150.000
828.09	113.636
828.39	131.915
828.70	114.286
829.00	151.852
829.30	167.742
829.60	135.000
829.90	333.333
830.20	142.857
830.50	156.522
830.80	213.043
831.10	200.000
831.40	156.667
831.70	208.696
832.00	188.462
832.30	207.407
832.60	318.750
832.90	200.000
833.20	321.429
833.50	200.000
833.80	203.448
834.10	187.500
834.40	223.077
834.70	338.889
835.00	290.476
835.30	160.000
835.60	284.615
835.90	158.621
836.20	307.143
836.50	175.862
836.80	184.000
837.10	172.222
837.40	238.095
837.70	247.059
838.00	248.148
838.30	200.000
838.60	271.429
838.90	173.077
839.19	295.000
839.49	371.429
839.79	310.000
840.09	275.000
840.39	233.333
840.69	239.130
840.99	272.222
841.29	500.000
841.59	325.000
841.88	262.500
842.18	165.517
842.48	271.429
842.78	173.333
843.08	195.652
843.38	178.125
843.68	900.000
843.97	223.077
844.27	186.207
844.57	295.238
844.87	393.750
845.17	214.815
845.47	1666.667
845.76	444.444
846.06	247.059
846.36	487.500
846.66	300.000
846.96	243.750
847.25	400.000
847.55	372.727
847.85	247.826
848.15	450.000
848.44	285.714
848.74	177.778
849.04	294.118
849.34	530.000
849.63	247.368
849.93	418.182
850.23	980.000
850.53	442.857
850.82	2050.000
851.12	-5100.000
851.42	3900.000
851.71	265.000
852.01	-1333.333
852.31	262.500
852.61	1433.333
852.90	176.190
853.20	200.000
853.50	329.412
853.79	290.476
854.09	200.000
854.39	287.500
854.68	170.270
854.98	141.935
855.28	163.333
855.57	179.310
855.87	181.481
856.17	226.316
856.46	313.333
856.76	258.824
857.05	186.207
857.35	237.500
857.65	360.000
857.94	217.391
858.24	242.308
858.53	265.000
858.83	263.636
859.13	293.333
859.42	0.000
859.72	522.222
860.01	490.909
860.31	240.909
860.60	268.421
860.90	213.043
861.20	600.000
861.49	491.667
861.79	-5100.000
862.08	500.000
862.38	257.143
862.67	361.538
862.97	323.529
863.26	444.444
863.56	261.111
863.85	350.000
864.15	600.000
864.44	320.000
864.74	700.000
865.03	637.500
865.33	252.632
865.62	445.455
865.92	476.923
866.21	375.000
866.51	0.000
866.80	454.545
867.10	940.000
867.39	361.538
867.69	436.364
867.98	236.842
868.27	445.455
868.57	273.684
868.86	-4500.000
869.16	356.250
869.45	2050.000
869.75	-3500.000
870.04	416.667
870.33	657.143
870.63	1150.000
870.92	2600.000
871.22	714.286
871.51	347.059
871.80	176.190
872.10	307.143
>>>>>End Processed Spectral Data<<<<<
