SpectraSuite Data File
++++++++++++++++++++++++++++++++++++
Date: Wed May 13 16:42:45 PDT 2015
User: schluterlab
Dark Spectrum Present: Yes
Reference Spectrum Present: Yes
Number of Sampled Component Spectra: 1
Spectrometers: USB2E3373
Integration Time (usec): 3000 (USB2E3373)
Spectra Averaged: 3 (USB2E3373)
Boxcar Smoothing: 0 (USB2E3373)
Correct for Electrical Dark: No (USB2E3373)
Strobe/Lamp Enabled: No (USB2E3373)
Correct for Detector Non-linearity: No (USB2E3373)
Correct for Stray Light: No (USB2E3373)
Number of Pixels in Processed Spectrum: 2048
>>>>>Begin Processed Spectral Data<<<<<
178.53	0.000
178.91	-1600.000
179.29	-1300.000
179.67	-200.000
180.04	-1400.000
180.42	2600.000
180.80	1000.000
181.18	-1000.000
181.56	600.000
181.94	0.000
182.31	-871.429
182.69	1533.333
183.07	-637.500
183.45	-588.889
183.83	454.545
184.20	-290.000
184.58	2750.000
184.96	5200.000
185.34	-840.000
185.72	-700.000
186.09	-2700.000
186.47	3050.000
186.85	2500.000
187.23	5300.000
187.61	-1900.000
187.98	1350.000
188.36	554.545
188.74	445.455
189.12	-880.000
189.49	530.000
189.87	-4500.000
190.25	-1000.000
190.63	407.143
191.00	453.846
191.38	766.667
191.76	-1150.000
192.14	1525.000
192.51	575.000
192.89	1016.667
193.27	537.500
193.65	-1150.000
194.02	530.000
194.40	920.000
194.78	540.000
195.15	508.333
195.53	690.000
195.91	-1950.000
196.29	350.000
196.66	321.053
197.04	-360.000
197.42	0.000
197.79	700.000
198.17	-4900.000
198.55	671.429
198.92	825.000
199.30	920.000
199.68	0.000
200.05	405.556
200.43	657.143
200.81	4100.000
201.18	1666.667
201.56	-1433.333
201.94	511.111
202.31	588.889
202.69	475.000
203.07	550.000
203.44	0.000
203.82	1325.000
204.19	700.000
204.57	500.000
204.95	787.500
205.32	1933.333
205.70	554.545
206.08	392.857
206.45	2300.000
206.83	381.250
207.20	950.000
207.58	820.000
207.96	322.222
208.33	675.000
208.71	-900.000
209.08	757.143
209.46	633.333
209.84	536.364
210.21	-1500.000
210.59	1275.000
210.96	-475.000
211.34	2450.000
211.71	560.000
212.09	900.000
212.46	0.000
212.84	2033.333
213.22	1475.000
213.59	-3700.000
213.97	916.667
214.34	871.429
214.72	581.818
215.09	960.000
215.47	-2050.000
215.84	-2600.000
216.22	1433.333
216.59	378.571
216.97	1375.000
217.34	518.182
217.72	-800.000
218.09	0.000
218.47	-5800.000
218.84	677.778
219.22	700.000
219.59	1633.333
219.97	-700.000
220.34	940.000
220.72	-1600.000
221.09	414.286
221.47	1250.000
221.84	-1033.333
222.22	0.000
222.59	1225.000
222.97	-2550.000
223.34	1220.000
223.72	453.846
224.09	1160.000
224.46	2450.000
224.84	-4700.000
225.21	-1000.000
225.59	-4700.000
225.96	590.000
226.34	320.000
226.71	2450.000
227.08	550.000
227.46	500.000
227.83	-1050.000
228.21	-2300.000
228.58	622.222
228.95	-2600.000
229.33	-2450.000
229.70	2100.000
230.08	771.429
230.45	-820.000
230.82	400.000
231.20	833.333
231.57	828.571
231.95	466.667
232.32	318.182
232.69	390.909
233.07	657.143
233.44	307.692
233.81	-1633.333
234.19	273.684
234.56	475.000
234.93	491.667
235.31	472.727
235.68	392.308
236.05	364.286
236.43	187.879
236.80	310.526
237.17	5400.000
237.55	242.857
237.92	235.714
238.29	247.619
238.67	200.000
239.04	210.345
239.41	147.222
239.79	145.652
240.16	142.857
240.53	129.545
240.91	109.804
241.28	114.000
241.65	136.000
242.02	108.696
242.40	101.613
242.77	103.333
243.14	81.720
243.51	95.506
243.89	84.706
244.26	80.000
244.63	86.022
245.00	77.660
245.38	78.218
245.75	67.290
246.12	66.055
246.49	73.723
246.87	81.600
247.24	71.538
247.61	65.714
247.98	66.667
248.36	57.432
248.73	53.503
249.10	61.146
249.47	59.887
249.84	61.497
250.22	55.080
250.59	58.580
250.96	50.000
251.33	49.763
251.70	55.941
252.08	52.857
252.45	51.570
252.82	48.261
253.19	51.915
253.56	47.843
253.94	51.867
254.31	46.094
254.68	53.462
255.05	49.077
255.42	46.748
255.79	49.265
256.16	46.931
256.54	43.816
256.91	50.178
257.28	42.086
257.65	44.224
258.02	49.689
258.39	43.218
258.76	41.806
259.14	47.024
259.51	41.337
259.88	41.304
260.25	44.713
260.62	41.908
260.99	44.720
261.36	48.048
261.73	43.266
262.10	42.442
262.47	43.944
262.85	42.897
263.22	43.875
263.59	46.439
263.96	39.560
264.33	41.775
264.70	41.316
265.07	42.455
265.44	42.929
265.81	40.633
266.18	41.960
266.55	40.976
266.92	39.558
267.29	42.130
267.66	40.367
268.03	37.727
268.40	38.551
268.77	40.573
269.14	39.414
269.51	41.084
269.88	39.394
270.25	41.084
270.62	40.449
270.99	37.634
271.36	38.841
271.73	38.785
272.10	39.130
272.47	40.430
272.84	40.693
273.21	40.881
273.58	37.991
273.95	39.832
274.32	35.950
274.69	40.685
275.06	38.386
275.43	38.085
275.80	38.277
276.17	38.289
276.54	39.293
276.91	37.945
277.28	38.672
277.65	37.718
278.02	38.302
278.39	38.086
278.76	36.545
279.13	38.491
279.50	39.665
279.87	37.849
280.23	37.325
280.60	37.331
280.97	36.414
281.34	37.522
281.71	37.636
282.08	38.196
282.45	34.364
282.82	36.590
283.19	35.294
283.56	37.018
283.92	38.917
284.29	35.273
284.66	36.661
285.03	35.081
285.40	34.155
285.77	35.354
286.14	34.370
286.51	35.500
286.87	36.581
287.24	34.853
287.61	35.634
287.98	34.903
288.35	34.707
288.72	33.333
289.08	33.959
289.45	35.914
289.82	34.309
290.19	32.967
290.56	33.997
290.93	31.118
291.29	34.202
291.66	31.121
292.03	34.302
292.40	30.837
292.77	32.249
293.13	32.537
293.50	32.070
293.87	31.259
294.24	29.630
294.60	30.859
294.97	30.959
295.34	31.735
295.71	30.966
296.08	31.624
296.44	29.298
296.81	28.269
297.18	31.843
297.55	28.496
297.91	29.024
298.28	30.924
298.65	30.548
299.02	30.040
299.38	30.943
299.75	28.437
300.12	28.736
300.48	30.750
300.85	29.100
301.22	30.573
301.59	29.545
301.95	30.101
302.32	28.883
302.69	29.988
303.05	29.091
303.42	28.642
303.79	29.219
304.15	28.438
304.52	28.737
304.89	27.758
305.25	29.002
305.62	28.539
305.99	28.335
306.35	28.859
306.72	28.812
307.09	28.191
307.45	29.054
307.82	28.237
308.19	29.249
308.55	30.313
308.92	28.464
309.29	26.716
309.65	28.526
310.02	28.541
310.38	28.495
310.75	27.983
311.12	29.273
311.48	28.527
311.85	29.979
312.22	30.385
312.58	27.859
312.95	29.567
313.31	27.767
313.68	29.730
314.05	31.164
314.41	29.548
314.78	28.499
315.14	29.990
315.51	30.484
315.87	32.079
316.24	29.791
316.61	28.752
316.97	29.159
317.34	29.648
317.70	30.975
318.07	31.280
318.43	31.703
318.80	30.459
319.16	31.638
319.53	29.456
319.89	31.238
320.26	31.700
320.62	31.746
320.99	31.010
321.35	31.818
321.72	33.778
322.08	32.675
322.45	33.234
322.81	33.624
323.18	32.274
323.54	32.653
323.91	31.321
324.27	32.218
324.64	32.898
325.00	32.732
325.37	33.303
325.73	32.585
326.10	32.568
326.46	33.065
326.83	34.340
327.19	34.159
327.56	34.059
327.92	34.821
328.29	34.783
328.65	36.188
329.01	33.935
329.38	34.413
329.74	34.811
330.11	34.779
330.47	33.884
330.84	35.018
331.20	34.426
331.56	36.606
331.93	35.093
332.29	34.605
332.66	35.487
333.02	34.004
333.38	35.230
333.75	34.759
334.11	35.943
334.48	34.428
334.84	34.835
335.20	36.364
335.57	33.817
335.93	33.661
336.29	35.073
336.66	36.069
337.02	33.937
337.38	36.481
337.75	34.403
338.11	34.825
338.47	34.622
338.84	35.747
339.20	34.679
339.56	35.858
339.93	34.636
340.29	34.783
340.65	35.027
341.02	36.300
341.38	34.698
341.74	35.877
342.11	35.459
342.47	35.154
342.83	35.873
343.20	35.671
343.56	34.962
343.92	34.912
344.28	35.204
344.65	35.426
345.01	35.185
345.37	35.334
345.73	35.871
346.10	35.465
346.46	35.169
346.82	33.937
347.19	35.422
347.55	34.893
347.91	35.113
348.27	35.908
348.63	35.953
349.00	35.356
349.36	34.975
349.72	34.884
350.08	35.413
350.45	35.313
350.81	34.362
351.17	36.062
351.53	35.627
351.89	34.818
352.26	36.069
352.62	36.167
352.98	35.332
353.34	35.415
353.70	35.516
354.07	36.048
354.43	35.238
354.79	33.789
355.15	35.674
355.51	36.451
355.87	37.469
356.24	36.319
356.60	35.766
356.96	36.364
357.32	36.795
357.68	36.457
358.04	35.392
358.40	36.184
358.77	35.446
359.13	35.122
359.49	37.020
359.85	35.873
360.21	36.284
360.57	37.588
360.93	37.385
361.29	36.735
361.66	37.771
362.02	36.866
362.38	37.719
362.74	37.649
363.10	37.010
363.46	35.583
363.82	38.020
364.18	37.298
364.54	38.782
364.90	37.040
365.26	38.897
365.62	37.619
365.98	37.107
366.35	36.175
366.71	38.106
367.07	37.509
367.43	39.623
367.79	38.330
368.15	39.296
368.51	37.936
368.87	38.187
369.23	39.137
369.59	38.885
369.95	39.191
370.31	39.103
370.67	37.681
371.03	39.775
371.39	39.431
371.75	39.779
372.11	39.545
372.47	39.809
372.83	40.634
373.19	38.945
373.55	40.650
373.91	41.311
374.27	38.694
374.63	41.018
374.99	41.172
375.35	40.265
375.71	40.576
376.07	40.947
376.42	41.128
376.78	41.551
377.14	41.520
377.50	41.788
377.86	40.492
378.22	40.834
378.58	40.414
378.94	41.295
379.30	42.112
379.66	42.766
380.02	42.199
380.38	41.469
380.74	42.557
381.09	42.665
381.45	43.147
381.81	44.103
382.17	43.694
382.53	43.459
382.89	43.395
383.25	43.715
383.61	44.238
383.97	44.590
384.32	44.666
384.68	44.424
385.04	44.438
385.40	43.282
385.76	45.209
386.12	45.466
386.48	46.004
386.83	45.863
387.19	46.320
387.55	45.826
387.91	45.345
388.27	45.555
388.62	45.175
388.98	45.700
389.34	45.494
389.70	46.168
390.06	46.198
390.42	46.757
390.77	47.455
391.13	48.309
391.49	46.003
391.85	46.340
392.20	46.688
392.56	46.402
392.92	46.851
393.28	45.799
393.64	47.122
393.99	46.610
394.35	47.953
394.71	47.491
395.07	46.168
395.42	48.022
395.78	46.883
396.14	47.114
396.50	47.807
396.85	48.570
397.21	47.411
397.57	47.489
397.92	47.596
398.28	46.132
398.64	46.953
399.00	46.782
399.35	46.757
399.71	47.049
400.07	47.368
400.42	46.687
400.78	48.130
401.14	47.866
401.49	47.522
401.85	47.368
402.21	46.647
402.57	48.118
402.92	48.802
403.28	47.970
403.63	47.710
403.99	47.962
404.35	47.515
404.70	47.602
405.06	46.535
405.42	47.598
405.77	47.371
406.13	46.275
406.49	47.605
406.84	46.486
407.20	46.631
407.55	47.990
407.91	47.600
408.27	47.926
408.62	46.598
408.98	48.284
409.34	47.294
409.69	46.968
410.05	47.460
410.40	47.095
410.76	46.655
411.11	47.587
411.47	46.454
411.83	46.610
412.18	47.495
412.54	47.821
412.89	47.349
413.25	47.107
413.60	47.375
413.96	45.598
414.31	47.084
414.67	45.817
415.03	47.947
415.38	46.327
415.74	47.010
416.09	48.334
416.45	47.791
416.80	47.191
417.16	47.855
417.51	48.242
417.87	46.692
418.22	46.625
418.58	46.869
418.93	48.034
419.29	46.785
419.64	48.048
420.00	45.976
420.35	46.725
420.71	47.161
421.06	46.301
421.42	46.550
421.77	46.244
422.12	45.255
422.48	45.926
422.83	47.583
423.19	45.912
423.54	46.140
423.90	46.551
424.25	46.119
424.61	46.845
424.96	47.055
425.31	45.626
425.67	45.618
426.02	45.771
426.38	47.985
426.73	46.811
427.09	46.140
427.44	45.831
427.79	46.636
428.15	45.714
428.50	47.104
428.85	47.616
429.21	46.052
429.56	46.656
429.92	46.200
430.27	45.631
430.62	44.752
430.98	45.200
431.33	44.794
431.68	46.073
432.04	45.367
432.39	45.517
432.74	47.157
433.10	46.180
433.45	45.831
433.80	46.397
434.16	45.940
434.51	45.789
434.86	46.123
435.22	46.304
435.57	46.626
435.92	47.162
436.28	47.094
436.63	46.909
436.98	44.934
437.34	45.617
437.69	46.733
438.04	46.824
438.39	46.806
438.75	46.833
439.10	47.207
439.45	46.045
439.81	47.311
440.16	45.737
440.51	46.866
440.86	47.307
441.22	45.606
441.57	45.329
441.92	46.213
442.27	45.479
442.63	45.340
442.98	46.704
443.33	46.793
443.68	45.225
444.03	44.900
444.39	44.304
444.74	45.130
445.09	45.714
445.44	44.779
445.79	44.334
446.15	45.156
446.50	45.180
446.85	45.324
447.20	44.875
447.55	46.454
447.91	45.450
448.26	45.520
448.61	44.941
448.96	45.404
449.31	46.907
449.66	45.414
450.02	44.847
450.37	44.104
450.72	45.008
451.07	44.729
451.42	44.985
451.77	45.978
452.12	45.150
452.47	45.460
452.83	45.629
453.18	44.132
453.53	46.444
453.88	45.245
454.23	44.889
454.58	45.730
454.93	45.455
455.28	44.264
455.63	44.600
455.98	46.250
456.34	45.666
456.69	45.899
457.04	45.944
457.39	44.769
457.74	44.515
458.09	43.531
458.44	44.242
458.79	43.601
459.14	44.977
459.49	44.950
459.84	44.044
460.19	44.313
460.54	43.171
460.89	43.555
461.24	44.687
461.59	43.986
461.94	42.910
462.29	44.748
462.64	44.352
462.99	44.502
463.34	44.800
463.69	44.215
464.04	43.420
464.39	42.667
464.74	44.266
465.09	43.727
465.44	43.435
465.79	42.562
466.14	42.146
466.49	43.493
466.84	43.024
467.19	43.211
467.54	43.812
467.89	43.277
468.24	44.735
468.59	43.895
468.94	43.067
469.29	43.959
469.64	44.043
469.99	43.911
470.34	43.329
470.68	43.534
471.03	42.041
471.38	45.101
471.73	43.837
472.08	43.355
472.43	43.405
472.78	43.647
473.13	42.426
473.48	42.821
473.83	42.744
474.17	42.502
474.52	43.859
474.87	43.141
475.22	43.180
475.57	41.376
475.92	42.273
476.27	42.277
476.61	41.533
476.96	41.341
477.31	41.549
477.66	42.615
478.01	40.930
478.36	41.830
478.70	41.641
479.05	41.640
479.40	40.993
479.75	41.891
480.10	41.551
480.45	40.457
480.79	40.898
481.14	41.243
481.49	41.576
481.84	40.558
482.19	41.254
482.53	40.642
482.88	40.996
483.23	40.981
483.58	41.083
483.92	40.769
484.27	39.521
484.62	40.647
484.97	39.574
485.31	39.966
485.66	39.454
486.01	37.546
486.36	36.255
486.70	34.828
487.05	36.243
487.40	37.743
487.75	38.363
488.09	38.884
488.44	38.659
488.79	39.458
489.13	40.183
489.48	39.519
489.83	39.577
490.17	40.202
490.52	39.460
490.87	40.299
491.22	39.700
491.56	38.087
491.91	39.414
492.26	39.045
492.60	38.940
492.95	38.868
493.30	39.346
493.64	38.731
493.99	39.322
494.34	39.963
494.68	39.423
495.03	38.769
495.37	38.902
495.72	40.205
496.07	39.350
496.41	38.363
496.76	38.478
497.11	38.676
497.45	39.311
497.80	38.916
498.14	38.647
498.49	38.780
498.84	38.399
499.18	39.095
499.53	38.462
499.87	38.211
500.22	38.201
500.56	39.515
500.91	38.654
501.26	38.549
501.60	39.820
501.95	38.313
502.29	38.285
502.64	38.501
502.98	37.962
503.33	37.249
503.67	37.912
504.02	38.167
504.36	37.997
504.71	38.788
505.06	38.699
505.40	38.940
505.75	36.885
506.09	38.387
506.44	39.122
506.78	38.334
507.13	38.566
507.47	38.990
507.82	37.893
508.16	38.298
508.51	38.762
508.85	37.885
509.19	38.112
509.54	37.908
509.88	38.022
510.23	38.046
510.57	38.854
510.92	38.529
511.26	37.513
511.61	39.004
511.95	36.952
512.30	37.964
512.64	38.528
512.98	38.746
513.33	37.901
513.67	37.407
514.02	37.825
514.36	38.230
514.70	38.074
515.05	38.204
515.39	38.699
515.74	37.782
516.08	38.569
516.42	38.013
516.77	39.075
517.11	37.736
517.46	38.205
517.80	38.966
518.14	38.796
518.49	38.681
518.83	38.352
519.17	37.471
519.52	38.427
519.86	38.334
520.20	37.746
520.55	38.241
520.89	40.024
521.23	38.601
521.58	38.896
521.92	38.579
522.26	37.828
522.61	38.629
522.95	38.244
523.29	37.675
523.64	39.268
523.98	39.248
524.32	38.058
524.66	38.545
525.01	37.990
525.35	38.228
525.69	37.377
526.04	38.193
526.38	38.865
526.72	37.055
527.06	37.539
527.41	36.200
527.75	38.264
528.09	37.701
528.43	38.305
528.78	37.185
529.12	37.515
529.46	37.355
529.80	38.181
530.15	37.819
530.49	37.046
530.83	38.165
531.17	38.381
531.51	38.132
531.86	37.613
532.20	38.983
532.54	38.373
532.88	37.741
533.22	37.039
533.57	37.099
533.91	35.882
534.25	36.574
534.59	37.157
534.93	36.942
535.27	35.184
535.62	35.409
535.96	36.472
536.30	35.982
536.64	35.802
536.98	36.165
537.32	37.327
537.66	37.000
538.01	36.866
538.35	37.298
538.69	37.396
539.03	36.322
539.37	36.230
539.71	34.932
540.05	37.124
540.39	36.744
540.73	35.188
541.07	36.535
541.42	37.378
541.76	37.613
542.10	36.546
542.44	35.828
542.78	36.759
543.12	35.637
543.46	35.934
543.80	36.044
544.14	34.981
544.48	35.492
544.82	35.985
545.16	35.849
545.50	35.283
545.84	35.753
546.18	35.354
546.52	37.371
546.86	36.632
547.20	36.413
547.54	35.070
547.88	35.714
548.22	35.181
548.56	35.094
548.90	34.187
549.24	34.949
549.58	36.698
549.92	35.096
550.26	35.795
550.60	34.578
550.94	35.352
551.28	34.162
551.62	36.233
551.96	34.877
552.30	36.246
552.64	35.835
552.98	36.542
553.32	34.794
553.66	36.128
554.00	35.484
554.34	34.576
554.68	35.837
555.02	35.614
555.36	34.864
555.69	34.438
556.03	35.330
556.37	34.652
556.71	34.379
557.05	34.594
557.39	33.870
557.73	34.862
558.07	36.693
558.41	34.732
558.75	36.370
559.08	36.167
559.42	35.752
559.76	34.632
560.10	34.404
560.44	35.360
560.78	33.333
561.12	34.235
561.45	33.898
561.79	33.487
562.13	32.730
562.47	34.973
562.81	34.519
563.15	33.512
563.48	33.156
563.82	34.116
564.16	35.121
564.50	34.766
564.84	33.818
565.17	32.561
565.51	33.994
565.85	34.518
566.19	33.187
566.52	34.136
566.86	32.550
567.20	33.432
567.54	32.705
567.88	32.591
568.21	33.280
568.55	31.800
568.89	32.004
569.23	31.239
569.56	30.648
569.90	30.679
570.24	30.104
570.57	29.310
570.91	29.573
571.25	29.092
571.59	28.866
571.92	28.543
572.26	29.232
572.60	29.069
572.93	29.235
573.27	29.163
573.61	28.978
573.95	29.354
574.28	28.317
574.62	28.426
574.96	28.411
575.29	28.395
575.63	27.998
575.97	28.092
576.30	28.970
576.64	28.355
576.98	28.415
577.31	28.189
577.65	28.317
577.98	27.744
578.32	27.323
578.66	27.820
578.99	28.167
579.33	27.693
579.67	28.193
580.00	28.315
580.34	28.405
580.67	28.197
581.01	28.716
581.35	27.899
581.68	27.562
582.02	26.832
582.35	27.107
582.69	27.402
583.02	27.600
583.36	28.384
583.70	28.272
584.03	28.422
584.37	28.880
584.70	28.187
585.04	27.984
585.37	27.563
585.71	27.937
586.04	27.398
586.38	28.657
586.72	28.307
587.05	27.791
587.39	27.968
587.72	28.292
588.06	27.695
588.39	28.422
588.73	28.513
589.06	28.389
589.40	28.889
589.73	29.109
590.07	28.541
590.40	28.791
590.73	29.313
591.07	29.792
591.40	29.819
591.74	30.519
592.07	28.927
592.41	28.648
592.74	29.026
593.08	28.381
593.41	27.808
593.75	26.796
594.08	27.489
594.41	28.526
594.75	28.281
595.08	28.561
595.42	28.897
595.75	28.526
596.09	28.727
596.42	29.587
596.75	28.915
597.09	29.784
597.42	28.794
597.75	29.280
598.09	28.739
598.42	29.338
598.76	28.212
599.09	28.316
599.42	27.911
599.76	27.928
600.09	27.832
600.42	27.648
600.76	27.250
601.09	28.306
601.42	27.664
601.76	28.349
602.09	28.024
602.42	28.424
602.76	28.295
603.09	28.718
603.42	29.129
603.76	28.163
604.09	27.801
604.42	28.781
604.76	28.891
605.09	28.702
605.42	28.559
605.75	28.063
606.09	27.816
606.42	28.361
606.75	27.914
607.09	28.296
607.42	28.541
607.75	27.932
608.08	28.007
608.42	28.283
608.75	27.998
609.08	28.076
609.41	28.177
609.75	28.204
610.08	28.746
610.41	28.864
610.74	28.855
611.07	28.458
611.41	28.754
611.74	29.060
612.07	28.571
612.40	29.381
612.73	28.579
613.07	29.903
613.40	28.910
613.73	29.051
614.06	28.817
614.39	28.946
614.72	28.737
615.06	28.834
615.39	28.556
615.72	28.732
616.05	28.070
616.38	29.238
616.71	30.166
617.05	31.272
617.38	29.585
617.71	29.670
618.04	29.267
618.37	30.337
618.70	29.683
619.03	29.934
619.36	29.939
619.69	30.352
620.03	30.082
620.36	29.679
620.69	30.616
621.02	31.047
621.35	30.697
621.68	30.530
622.01	29.876
622.34	30.408
622.67	30.646
623.00	29.420
623.33	30.164
623.66	31.165
623.99	31.001
624.32	29.886
624.65	29.661
624.99	29.533
625.32	29.906
625.65	30.729
625.98	30.592
626.31	30.949
626.64	31.755
626.97	31.006
627.30	30.673
627.63	30.845
627.96	32.548
628.29	31.584
628.62	32.022
628.95	33.679
629.28	31.296
629.61	32.539
629.94	31.810
630.26	32.126
630.59	32.221
630.92	31.609
631.25	32.280
631.58	31.031
631.91	31.744
632.24	31.751
632.57	31.480
632.90	33.882
633.23	33.110
633.56	34.802
633.89	33.296
634.22	34.166
634.55	36.095
634.88	33.413
635.20	33.572
635.53	33.855
635.86	32.426
636.19	33.059
636.52	32.872
636.85	33.677
637.18	32.028
637.51	33.688
637.83	30.703
638.16	34.527
638.49	33.123
638.82	33.249
639.15	33.875
639.48	32.668
639.81	35.791
640.13	34.375
640.46	34.228
640.79	33.686
641.12	32.737
641.45	34.777
641.77	34.315
642.10	34.649
642.43	33.483
642.76	33.901
643.09	36.656
643.41	35.964
643.74	37.809
644.07	34.756
644.40	37.270
644.73	36.378
645.05	36.292
645.38	35.387
645.71	36.071
646.04	36.379
646.36	36.394
646.69	35.953
647.02	36.054
647.35	34.021
647.67	36.106
648.00	38.049
648.33	35.809
648.66	33.182
648.98	35.382
649.31	33.034
649.64	32.287
649.96	34.724
650.29	35.071
650.62	35.599
650.94	37.115
651.27	36.824
651.60	37.770
651.92	37.700
652.25	35.016
652.58	35.358
652.90	36.335
653.23	33.128
653.56	36.063
653.88	36.133
654.21	34.123
654.54	35.479
654.86	35.047
655.19	29.730
655.52	23.969
655.84	20.400
656.17	26.289
656.49	35.418
656.82	36.140
657.15	27.536
657.47	20.401
657.80	16.006
658.13	16.706
658.45	25.361
658.78	25.588
659.10	26.929
659.43	28.285
659.75	29.835
660.08	32.722
660.41	34.451
660.73	35.959
661.06	35.032
661.38	38.000
661.71	36.731
662.03	40.237
662.36	36.978
662.68	37.751
663.01	37.172
663.33	36.943
663.66	36.765
663.98	39.093
664.31	34.664
664.63	35.425
664.96	33.803
665.28	37.910
665.61	36.062
665.93	34.004
666.26	36.917
666.58	36.820
666.91	36.364
667.23	39.101
667.56	37.365
667.88	36.966
668.21	39.232
668.53	36.443
668.86	37.662
669.18	35.608
669.50	37.174
669.83	38.998
670.15	40.000
670.48	38.562
670.80	37.069
671.13	39.490
671.45	35.106
671.77	38.697
672.10	32.717
672.42	35.336
672.75	33.499
673.07	32.570
673.39	33.996
673.72	34.570
674.04	35.098
674.37	35.534
674.69	34.151
675.01	33.891
675.34	40.041
675.66	37.895
675.98	34.827
676.31	36.555
676.63	38.004
676.95	36.897
677.28	35.280
677.60	35.604
677.92	38.186
678.25	32.649
678.57	34.462
678.89	35.872
679.22	33.595
679.54	33.206
679.86	37.248
680.18	35.242
680.51	34.220
680.83	33.808
681.15	34.151
681.48	36.484
681.80	33.656
682.12	35.441
682.44	33.462
682.77	36.253
683.09	37.768
683.41	38.359
683.73	38.411
684.06	34.711
684.38	34.442
684.70	37.403
685.02	37.336
685.34	34.066
685.67	31.993
685.99	31.100
686.31	32.765
686.63	33.392
686.96	32.321
687.28	33.213
687.60	30.797
687.92	32.907
688.24	33.270
688.56	34.337
688.89	35.270
689.21	35.371
689.53	36.117
689.85	36.807
690.17	31.470
690.49	35.669
690.82	34.112
691.14	36.830
691.46	36.498
691.78	34.739
692.10	35.537
692.42	36.327
692.74	36.100
693.06	32.766
693.39	33.676
693.71	35.808
694.03	37.263
694.35	32.468
694.67	35.240
694.99	40.000
695.31	37.500
695.63	35.167
695.95	37.653
696.27	35.279
696.59	38.342
696.91	39.896
697.23	33.099
697.56	36.461
697.88	31.288
698.20	35.208
698.52	33.548
698.84	35.857
699.16	33.180
699.48	38.242
699.80	36.232
700.12	41.039
700.44	39.523
700.76	38.122
701.08	38.506
701.40	38.268
701.72	39.067
702.04	43.182
702.36	36.544
702.68	35.694
703.00	35.734
703.32	35.904
703.64	37.802
703.96	40.947
704.28	38.663
704.60	41.642
704.91	40.653
705.23	37.830
705.55	41.860
705.87	41.196
706.19	40.636
706.51	36.137
706.83	39.697
707.15	38.655
707.47	36.111
707.79	36.855
708.11	33.790
708.43	34.048
708.74	35.714
709.06	35.325
709.38	41.207
709.70	37.791
710.02	39.169
710.34	35.455
710.66	38.507
710.98	40.341
711.29	38.663
711.61	42.773
711.93	41.667
712.25	41.158
712.57	40.074
712.89	38.408
713.20	38.298
713.52	40.132
713.84	39.241
714.16	40.549
714.48	38.506
714.80	44.073
715.11	38.040
715.43	38.279
715.75	34.783
716.07	44.409
716.39	40.439
716.70	41.860
717.02	42.806
717.34	42.049
717.66	45.896
717.97	45.020
718.29	44.444
718.61	42.701
718.93	41.912
719.24	40.830
719.56	38.644
719.88	37.627
720.20	45.608
720.51	40.418
720.83	44.238
721.15	41.045
721.46	41.489
721.78	46.237
722.10	44.151
722.42	40.602
722.73	43.071
723.05	44.672
723.37	42.915
723.68	44.788
724.00	44.309
724.32	43.548
724.63	44.309
724.95	42.259
725.27	45.344
725.58	39.453
725.90	44.526
726.22	43.019
726.53	40.972
726.85	41.980
727.16	40.569
727.48	37.589
727.80	44.697
728.11	39.493
728.43	43.077
728.74	43.011
729.06	43.796
729.38	45.956
729.69	40.925
730.01	39.590
730.32	38.542
730.64	42.475
730.96	34.983
731.27	40.066
731.59	41.896
731.90	34.985
732.22	40.062
732.53	37.771
732.85	39.423
733.16	37.942
733.48	38.538
733.80	41.234
734.11	37.898
734.43	39.053
734.74	37.429
735.06	33.811
735.37	38.150
735.69	36.306
736.00	43.464
736.32	41.121
736.63	36.102
736.95	41.214
737.26	35.034
737.58	38.065
737.89	39.799
738.21	39.249
738.52	41.429
738.83	39.623
739.15	38.846
739.46	41.971
739.78	38.194
740.09	40.000
740.41	39.355
740.72	37.282
741.04	43.704
741.35	42.917
741.66	45.778
741.98	44.340
742.29	44.976
742.61	47.845
742.92	41.629
743.23	42.735
743.55	44.000
743.86	43.421
744.18	48.230
744.49	44.498
744.80	51.174
745.12	45.000
745.43	42.731
745.74	48.198
746.06	42.661
746.37	43.498
746.68	45.701
747.00	52.778
747.31	48.571
747.62	44.690
747.94	43.172
748.25	44.255
748.56	51.101
748.88	46.040
749.19	57.500
749.50	45.116
749.82	43.089
750.13	46.531
750.44	42.701
750.75	42.807
751.07	41.801
751.38	38.676
751.69	41.516
752.01	45.489
752.32	40.433
752.63	40.780
752.94	40.984
753.26	46.400
753.57	41.870
753.88	42.578
754.19	39.286
754.51	43.750
754.82	38.989
755.13	44.151
755.44	39.098
755.75	39.781
756.07	39.716
756.38	38.686
756.69	39.933
757.00	34.731
757.31	37.389
757.63	35.965
757.94	35.925
758.25	29.902
758.56	34.321
758.87	33.871
759.18	38.485
759.50	33.856
759.81	36.760
760.12	33.437
760.43	36.103
760.74	36.957
761.05	39.548
761.36	34.492
761.67	36.932
761.99	36.646
762.30	42.014
762.61	40.458
762.92	45.312
763.23	36.975
763.54	46.800
763.85	40.625
764.16	42.308
764.47	42.586
764.78	39.929
765.10	33.228
765.41	36.578
765.72	40.120
766.03	38.871
766.34	37.667
766.65	46.809
766.96	43.162
767.27	50.254
767.58	49.479
767.89	51.053
768.20	48.851
768.51	44.670
768.82	42.202
769.13	40.650
769.44	41.700
769.75	42.489
770.06	42.202
770.37	49.774
770.68	41.667
770.99	43.111
771.30	41.803
771.61	47.982
771.92	43.033
772.23	45.378
772.54	45.128
772.85	52.880
773.16	46.277
773.47	52.174
773.78	51.777
774.09	47.024
774.39	52.632
774.70	56.173
775.01	62.319
775.32	61.438
775.63	61.184
775.94	54.676
776.25	64.567
776.56	61.194
776.87	59.836
777.18	64.844
777.48	61.832
777.79	55.303
778.10	65.926
778.41	59.821
778.72	51.825
779.03	55.034
779.34	49.664
779.65	45.270
779.95	54.601
780.26	60.131
780.57	55.862
780.88	73.437
781.19	57.143
781.50	63.514
781.80	55.975
782.11	46.893
782.42	48.734
782.73	45.399
783.04	60.811
783.34	60.563
783.65	61.644
783.96	60.448
784.27	58.042
784.57	54.676
784.88	55.556
785.19	69.048
785.50	72.642
785.81	63.433
786.11	63.115
786.42	69.767
786.73	65.487
787.04	65.094
787.34	61.607
787.65	74.000
787.96	74.775
788.26	63.636
788.57	75.424
788.88	72.727
789.19	56.250
789.49	70.455
789.80	67.176
790.11	71.429
790.41	71.287
790.72	83.133
791.03	77.174
791.33	77.907
791.64	67.010
791.95	71.287
792.25	68.889
792.56	81.818
792.87	93.590
793.17	93.671
793.48	89.655
793.79	79.310
794.09	68.182
794.40	56.303
794.70	55.147
795.01	56.296
795.32	64.029
795.62	58.268
795.93	70.690
796.23	69.912
796.54	78.824
796.85	86.486
797.15	83.099
797.46	86.364
797.76	91.566
798.07	100.000
798.37	93.846
798.68	93.939
798.99	74.648
799.29	76.623
799.60	81.818
799.90	90.411
800.21	104.478
800.51	100.000
800.82	108.772
801.12	109.836
801.43	104.545
801.73	83.784
802.04	104.762
802.34	86.420
802.65	106.250
802.95	118.644
803.26	115.625
803.56	65.714
803.87	96.923
804.17	101.471
804.48	124.074
804.78	115.517
805.09	83.824
805.39	111.538
805.70	103.571
806.00	100.000
806.30	78.788
806.61	85.366
806.91	75.949
807.22	90.789
807.52	80.597
807.83	85.915
808.13	90.625
808.43	98.333
808.74	81.579
809.04	92.754
809.35	102.985
809.65	89.474
809.95	104.839
810.26	113.559
810.56	111.111
810.86	168.182
811.17	133.333
811.47	110.000
811.77	111.111
812.08	116.364
812.38	132.000
812.69	172.222
812.99	131.818
813.29	132.653
813.59	119.048
813.90	136.735
814.20	103.636
814.50	84.615
814.81	113.235
815.11	124.490
815.41	111.475
815.72	154.762
816.02	109.091
816.32	145.238
816.62	105.000
816.93	119.512
817.23	169.048
817.53	150.000
817.84	181.818
818.14	139.130
818.44	120.000
818.74	167.647
819.04	150.000
819.35	148.571
819.65	161.765
819.95	189.286
820.25	255.000
820.56	161.538
820.86	122.727
821.16	160.465
821.46	148.718
821.76	146.000
822.07	145.714
822.37	157.500
822.67	160.606
822.97	107.843
823.27	221.429
823.57	145.946
823.88	185.000
824.18	200.000
824.48	164.286
824.78	204.000
825.08	204.167
825.38	145.946
825.69	141.463
825.99	191.667
826.29	158.621
826.59	157.895
826.89	150.000
827.19	176.471
827.49	190.323
827.79	131.818
828.09	134.091
828.39	134.043
828.70	132.653
829.00	166.667
829.30	161.290
829.60	155.000
829.90	293.333
830.20	203.571
830.50	213.043
830.80	243.478
831.10	163.333
831.40	200.000
831.70	221.739
832.00	215.385
832.30	181.481
832.60	306.250
832.90	203.333
833.20	450.000
833.50	196.774
833.80	213.793
834.10	203.125
834.40	265.385
834.70	255.556
835.00	304.762
835.30	165.714
835.60	300.000
835.90	206.897
836.20	328.571
836.50	186.207
836.80	200.000
837.10	213.889
837.40	233.333
837.70	323.529
838.00	170.370
838.30	223.810
838.60	276.190
838.90	207.692
839.19	285.000
839.49	371.429
839.79	340.000
840.09	285.000
840.39	266.667
840.69	265.217
840.99	327.778
841.29	510.000
841.59	383.333
841.88	375.000
842.18	196.552
842.48	247.619
842.78	213.333
843.08	273.913
843.38	193.750
843.68	800.000
843.97	242.308
844.27	203.448
844.57	300.000
844.87	362.500
845.17	211.111
845.47	1500.000
845.76	444.444
846.06	288.235
846.36	600.000
846.66	285.714
846.96	306.250
847.25	472.727
847.55	381.818
847.85	256.522
848.15	530.000
848.44	364.286
848.74	216.667
849.04	317.647
849.34	550.000
849.63	284.211
849.93	418.182
850.23	860.000
850.53	478.571
850.82	2400.000
851.12	-4300.000
851.42	3800.000
851.71	295.000
852.01	-1033.333
852.31	258.333
852.61	1766.667
852.90	252.381
853.20	256.000
853.50	300.000
853.79	261.905
854.09	237.500
854.39	343.750
854.68	189.189
854.98	183.871
855.28	173.333
855.57	206.897
855.87	251.852
856.17	247.368
856.46	300.000
856.76	282.353
857.05	196.552
857.35	225.000
857.65	300.000
857.94	256.522
858.24	257.692
858.53	295.000
858.83	245.455
859.13	366.667
859.42	0.000
859.72	633.333
860.01	463.636
860.31	240.909
860.60	268.421
860.90	265.217
861.20	544.444
861.49	508.333
861.79	-4500.000
862.08	712.500
862.38	271.429
862.67	384.615
862.97	341.176
863.26	577.778
863.56	305.556
863.85	425.000
864.15	475.000
864.44	386.667
864.74	866.667
865.03	675.000
865.33	305.263
865.62	463.636
865.92	438.462
866.21	358.333
866.51	0.000
866.80	454.545
867.10	1100.000
867.39	453.846
867.69	554.545
867.98	305.263
868.27	481.818
868.57	310.526
868.86	-4800.000
869.16	393.750
869.45	1850.000
869.75	-4700.000
870.04	450.000
870.33	614.286
870.63	1225.000
870.92	2800.000
871.22	757.143
871.51	288.235
871.80	247.619
872.10	350.000
>>>>>End Processed Spectral Data<<<<<
