SpectraSuite Data File
++++++++++++++++++++++++++++++++++++
Date: Wed May 13 16:34:23 PDT 2015
User: schluterlab
Dark Spectrum Present: Yes
Reference Spectrum Present: Yes
Number of Sampled Component Spectra: 1
Spectrometers: USB2E3373
Integration Time (usec): 3000 (USB2E3373)
Spectra Averaged: 3 (USB2E3373)
Boxcar Smoothing: 0 (USB2E3373)
Correct for Electrical Dark: No (USB2E3373)
Strobe/Lamp Enabled: No (USB2E3373)
Correct for Detector Non-linearity: No (USB2E3373)
Correct for Stray Light: No (USB2E3373)
Number of Pixels in Processed Spectrum: 2048
>>>>>Begin Processed Spectral Data<<<<<
178.53	0.000
178.91	-1200.000
179.29	-1500.000
179.67	-227.778
180.04	-975.000
180.42	2500.000
180.80	840.000
181.18	-975.000
181.56	600.000
181.94	0.000
182.31	-628.571
182.69	1433.333
183.07	-562.500
183.45	-444.444
183.83	545.455
184.20	-390.000
184.58	2150.000
184.96	5400.000
185.34	-780.000
185.72	-487.500
186.09	-2400.000
186.47	2400.000
186.85	2100.000
187.23	5200.000
187.61	-1633.333
187.98	1350.000
188.36	554.545
188.74	572.727
189.12	-620.000
189.49	610.000
189.87	-4200.000
190.25	-1000.000
190.63	364.286
191.00	400.000
191.38	733.333
191.76	-1175.000
192.14	1650.000
192.51	612.500
192.89	900.000
193.27	587.500
193.65	-1200.000
194.02	550.000
194.40	980.000
194.78	500.000
195.15	441.667
195.53	660.000
195.91	-2300.000
196.29	331.250
196.66	321.053
197.04	-230.000
197.42	0.000
197.79	620.000
198.17	-5100.000
198.55	528.571
198.92	725.000
199.30	820.000
199.68	0.000
200.05	311.111
200.43	642.857
200.81	4400.000
201.18	1366.667
201.56	-1500.000
201.94	611.111
202.31	466.667
202.69	400.000
203.07	530.000
203.44	0.000
203.82	1225.000
204.19	714.286
204.57	371.429
204.95	662.500
205.32	1600.000
205.70	490.909
206.08	392.857
206.45	2650.000
206.83	337.500
207.20	783.333
207.58	860.000
207.96	344.444
208.33	750.000
208.71	-966.667
209.08	785.714
209.46	566.667
209.84	490.909
210.21	-1400.000
210.59	1175.000
210.96	-600.000
211.34	2450.000
211.71	560.000
212.09	716.667
212.46	0.000
212.84	1866.667
213.22	1250.000
213.59	-4900.000
213.97	816.667
214.34	771.429
214.72	572.727
215.09	1120.000
215.47	-2350.000
215.84	-2650.000
216.22	1633.333
216.59	378.571
216.97	1300.000
217.34	445.455
217.72	-783.333
218.09	0.000
218.47	-4500.000
218.84	688.889
219.22	642.857
219.59	1600.000
219.97	-714.286
220.34	880.000
220.72	-1600.000
221.09	407.143
221.47	1650.000
221.84	-866.667
222.22	0.000
222.59	1200.000
222.97	-2200.000
223.34	1240.000
223.72	438.462
224.09	940.000
224.46	2300.000
224.84	-5400.000
225.21	-940.000
225.59	-3400.000
225.96	620.000
226.34	285.000
226.71	2750.000
227.08	662.500
227.46	480.000
227.83	-1125.000
228.21	-2150.000
228.58	455.556
228.95	-2250.000
229.33	-2200.000
229.70	1533.333
230.08	771.429
230.45	-800.000
230.82	383.333
231.20	700.000
231.57	814.286
231.95	483.333
232.32	240.909
232.69	372.727
233.07	657.143
233.44	330.769
233.81	-1600.000
234.19	336.842
234.56	441.667
234.93	358.333
235.31	500.000
235.68	415.385
236.05	371.429
236.43	184.848
236.80	278.947
237.17	4700.000
237.55	285.714
237.92	239.286
238.29	252.381
238.67	203.226
239.04	217.241
239.41	150.000
239.79	126.087
240.16	169.048
240.53	147.727
240.91	125.490
241.28	128.000
241.65	118.000
242.02	118.841
242.40	109.677
242.77	120.000
243.14	86.022
243.51	89.888
243.89	98.824
244.26	83.333
244.63	90.323
245.00	91.489
245.38	86.139
245.75	77.570
246.12	79.817
246.49	70.803
246.87	80.000
247.24	78.462
247.61	66.429
247.98	69.935
248.36	74.324
248.73	71.338
249.10	67.516
249.47	65.537
249.84	61.497
250.22	60.963
250.59	65.680
250.96	69.192
251.33	62.085
251.70	60.891
252.08	59.524
252.45	54.260
252.82	54.783
253.19	56.170
253.56	59.608
253.94	56.017
254.31	50.000
254.68	60.000
255.05	56.089
255.42	57.724
255.79	53.309
256.16	54.513
256.54	51.590
256.91	52.669
257.28	52.518
257.65	53.135
258.02	50.621
258.39	51.104
258.76	49.164
259.14	51.786
259.51	49.848
259.88	48.758
260.25	52.568
260.62	48.844
260.99	49.689
261.36	53.153
261.73	51.862
262.10	51.453
262.47	53.521
262.85	45.125
263.22	46.154
263.59	53.276
263.96	46.978
264.33	47.520
264.70	47.895
265.07	47.570
265.44	47.475
265.81	45.255
266.18	48.492
266.55	45.610
266.92	48.157
267.29	47.685
267.66	45.872
268.03	44.773
268.40	48.364
268.77	44.869
269.14	45.045
269.51	47.178
269.88	47.786
270.25	47.178
270.62	45.393
270.99	46.237
271.36	45.064
271.73	47.897
272.10	44.348
272.47	48.817
272.84	46.537
273.21	44.864
273.58	42.140
273.95	44.235
274.32	44.008
274.69	45.824
275.06	44.094
275.43	45.532
275.80	42.886
276.17	42.159
276.54	45.738
276.91	40.711
277.28	46.484
277.65	42.553
278.02	44.720
278.39	45.117
278.76	42.909
279.13	43.396
279.50	43.389
279.87	42.629
280.23	41.916
280.60	44.294
280.97	43.993
281.34	44.071
281.71	41.091
282.08	43.378
282.45	41.091
282.82	41.918
283.19	40.820
283.56	44.386
283.92	39.425
284.29	42.504
284.66	41.561
285.03	40.506
285.40	42.254
285.77	41.414
286.14	40.587
286.51	41.833
286.87	41.880
287.24	40.717
287.61	38.523
287.98	39.123
288.35	37.401
288.72	39.408
289.08	41.784
289.45	39.703
289.82	40.650
290.19	38.462
290.56	38.591
290.93	36.707
291.29	38.804
291.66	38.348
292.03	39.680
292.40	37.885
292.77	38.018
293.13	38.209
293.50	38.776
293.87	37.037
294.24	36.889
294.60	36.681
294.97	38.081
295.34	37.236
295.71	38.352
296.08	36.182
296.44	37.552
296.81	35.271
297.18	37.127
297.55	34.433
297.91	35.752
298.28	38.822
298.65	35.770
299.02	37.549
299.38	37.583
299.75	35.849
300.12	33.972
300.48	37.000
300.85	35.388
301.22	35.924
301.59	34.722
301.95	37.154
302.32	36.457
302.69	36.440
303.05	36.970
303.42	36.296
303.79	34.994
304.15	35.548
304.52	35.805
304.89	34.379
305.25	34.803
305.62	35.900
305.99	37.426
306.35	35.794
306.72	35.874
307.09	36.737
307.45	37.613
307.82	35.045
308.19	36.976
308.55	37.648
308.92	38.776
309.29	35.164
309.65	37.116
310.02	36.152
310.38	38.280
310.75	37.804
311.12	37.871
311.48	37.618
311.85	40.252
312.22	39.230
312.58	38.254
312.95	38.860
313.31	37.282
313.68	39.917
314.05	42.505
314.41	41.709
314.78	41.994
315.14	40.715
315.51	42.225
315.87	42.376
316.24	40.914
316.61	43.080
316.97	43.542
317.34	42.661
317.70	43.881
318.07	45.621
318.43	45.303
318.80	45.923
319.16	44.821
319.53	44.184
319.89	46.095
320.26	49.200
320.62	48.611
320.99	49.394
321.35	49.798
321.72	50.000
322.08	51.037
322.45	52.836
322.81	52.422
323.18	53.083
323.54	53.247
323.91	54.057
324.27	54.876
324.64	55.452
325.00	55.185
325.37	57.962
325.73	60.054
326.10	60.635
326.46	61.649
326.83	62.381
327.19	62.254
327.56	63.415
327.92	63.780
328.29	65.217
328.65	66.667
329.01	64.711
329.38	66.420
329.74	67.405
330.11	66.070
330.47	68.595
330.84	66.820
331.20	67.942
331.56	66.972
331.93	71.389
332.29	66.815
332.66	69.823
333.02	69.196
333.38	70.551
333.75	69.875
334.11	70.107
334.48	70.896
334.84	69.853
335.20	71.091
335.57	70.354
335.93	69.554
336.29	71.520
336.66	71.867
337.02	69.502
337.38	72.037
337.75	70.499
338.11	69.919
338.47	71.547
338.84	71.952
339.20	72.569
339.56	72.993
339.93	72.727
340.29	70.924
340.65	72.103
341.02	72.688
341.38	74.555
341.74	72.456
342.11	73.275
342.47	72.775
342.83	71.747
343.20	72.814
343.56	71.693
343.92	73.421
344.28	71.599
344.65	73.947
345.01	73.316
345.37	73.156
345.73	71.658
346.10	72.549
346.46	73.220
346.82	72.982
347.19	73.099
347.55	73.974
347.91	74.029
348.27	75.842
348.63	75.920
349.00	73.706
349.36	74.548
349.72	72.895
350.08	73.501
350.45	75.671
350.81	74.005
351.17	75.446
351.53	74.611
351.89	74.340
352.26	73.560
352.62	76.504
352.98	75.203
353.34	77.403
353.70	75.123
354.07	75.806
354.43	76.429
354.79	75.945
355.15	76.856
355.51	77.218
355.87	79.184
356.24	76.059
356.60	75.942
356.96	79.244
357.32	77.514
357.68	77.323
358.04	77.910
358.40	79.097
358.77	77.387
359.13	77.822
359.49	77.490
359.85	78.333
360.21	78.868
360.57	78.677
360.93	80.154
361.29	79.441
361.66	77.632
362.02	78.507
362.38	79.772
362.74	79.613
363.10	78.386
363.46	78.063
363.82	79.592
364.18	80.617
364.54	81.649
364.90	79.533
365.26	81.029
365.62	80.570
365.98	80.716
366.35	80.229
366.71	80.188
367.07	82.739
367.43	83.164
367.79	82.869
368.15	81.609
368.51	83.140
368.87	83.369
369.23	84.053
369.59	82.187
369.95	81.103
370.31	81.980
370.67	80.942
371.03	84.569
371.39	83.601
371.75	83.971
372.11	83.997
372.47	84.091
372.83	85.375
373.19	84.176
373.55	86.475
373.91	87.555
374.27	82.818
374.63	86.255
374.99	85.805
375.35	84.927
375.71	84.167
376.07	85.322
376.42	87.414
376.78	87.276
377.14	87.788
377.50	87.086
377.86	88.098
378.22	87.168
378.58	86.404
378.94	87.618
379.30	88.740
379.66	88.515
380.02	88.514
380.38	88.160
380.74	89.136
381.09	88.509
381.45	89.736
381.81	89.435
382.17	90.127
382.53	90.566
382.89	89.630
383.25	90.869
383.61	91.822
383.97	92.245
384.32	89.644
384.68	90.211
385.04	90.842
385.40	91.146
385.76	90.111
386.12	91.192
386.48	91.567
386.83	92.431
387.19	93.197
387.55	92.331
387.91	92.443
388.27	90.926
388.62	91.334
388.98	91.400
389.34	93.054
389.70	90.619
390.06	92.142
390.42	93.904
390.77	91.858
391.13	95.597
391.49	93.084
391.85	93.125
392.20	92.808
392.56	93.687
392.92	92.996
393.28	93.077
393.64	93.225
393.99	91.142
394.35	92.990
394.71	92.597
395.07	92.087
395.42	94.252
395.78	92.430
396.14	92.365
396.50	93.358
396.85	94.533
397.21	90.814
397.57	94.296
397.92	93.750
398.28	91.928
398.64	91.517
399.00	92.501
399.35	90.525
399.71	91.956
400.07	91.662
400.42	92.454
400.78	93.185
401.14	94.207
401.49	92.179
401.85	91.894
402.21	91.737
402.57	91.980
402.92	92.371
403.28	92.755
403.63	92.884
403.99	92.548
404.35	91.636
404.70	92.326
405.06	91.206
405.42	91.142
405.77	91.543
406.13	89.673
406.49	90.006
406.84	91.317
407.20	89.953
407.55	91.640
407.91	91.667
408.27	92.151
408.62	90.307
408.98	90.012
409.34	90.221
409.69	91.484
410.05	89.963
410.40	90.031
410.76	89.964
411.11	88.661
411.47	89.840
411.83	90.531
412.18	89.858
412.54	91.656
412.89	89.277
413.25	89.551
413.60	89.747
413.96	88.767
414.31	88.821
414.67	88.910
415.03	90.000
415.38	89.175
415.74	88.682
416.09	90.072
416.45	89.759
416.80	89.689
417.16	92.292
417.51	90.046
417.87	88.953
418.22	89.022
418.58	88.315
418.93	89.005
419.29	88.797
419.64	89.736
420.00	88.476
420.35	88.870
420.71	89.719
421.06	89.021
421.42	90.292
421.77	89.854
422.12	89.837
422.48	88.505
422.83	91.730
423.19	88.066
423.54	91.120
423.90	89.217
424.25	90.508
424.61	88.333
424.96	91.137
425.31	89.590
425.67	88.315
426.02	88.629
426.38	91.026
426.73	90.170
427.09	90.578
427.44	90.972
427.79	90.454
428.15	90.476
428.50	90.638
428.85	91.776
429.21	90.392
429.56	91.187
429.92	90.639
430.27	90.367
430.62	89.862
430.98	89.881
431.33	89.794
431.68	91.361
432.04	88.605
432.39	91.890
432.74	90.784
433.10	92.360
433.45	92.770
433.80	91.796
434.16	90.224
434.51	89.316
434.86	90.194
435.22	89.772
435.57	90.821
435.92	91.574
436.28	91.815
436.63	90.949
436.98	90.498
437.34	92.010
437.69	92.299
438.04	92.130
438.39	92.060
438.75	91.575
439.10	91.285
439.45	90.850
439.81	91.239
440.16	91.248
440.51	90.568
440.86	91.951
441.22	90.267
441.57	91.720
441.92	92.221
442.27	91.712
442.63	90.574
442.98	91.549
443.33	89.457
443.68	89.985
444.03	91.362
444.39	90.750
444.74	89.827
445.09	89.164
445.44	90.213
445.79	89.362
446.15	87.771
446.50	87.237
446.85	90.391
447.20	87.914
447.55	91.457
447.91	89.630
448.26	89.149
448.61	90.051
448.96	89.867
449.31	89.033
449.66	88.970
450.02	89.526
450.37	89.342
450.72	89.114
451.07	88.909
451.42	87.720
451.77	89.548
452.12	87.818
452.47	88.993
452.83	88.986
453.18	87.531
453.53	88.312
453.88	88.482
454.23	89.002
454.58	90.006
454.93	89.892
455.28	87.843
455.63	89.684
455.98	89.762
456.34	87.123
456.69	87.163
457.04	88.235
457.39	88.954
457.74	88.624
458.09	89.074
458.44	86.887
458.79	87.256
459.14	88.375
459.49	86.573
459.84	86.870
460.19	87.390
460.54	84.896
460.89	87.054
461.24	87.492
461.59	86.694
461.94	86.128
462.29	88.605
462.64	85.322
462.99	85.621
463.34	87.200
463.69	86.929
464.04	85.333
464.39	86.087
464.74	86.928
465.09	85.947
465.44	85.152
465.79	84.172
466.14	82.375
466.49	84.816
466.84	85.055
467.19	84.128
467.54	84.625
467.89	84.694
468.24	83.421
468.59	85.592
468.94	83.506
469.29	84.447
469.64	85.074
469.99	85.859
470.34	85.535
470.68	87.356
471.03	83.469
471.38	85.893
471.73	82.945
472.08	84.934
472.43	83.103
472.78	84.200
473.13	81.643
473.48	84.207
473.83	83.598
474.17	82.390
474.52	83.871
474.87	83.830
475.22	82.821
475.57	81.730
475.92	81.997
476.27	80.327
476.61	81.743
476.96	82.298
477.31	81.371
477.66	82.276
478.01	81.443
478.36	82.126
478.70	80.893
479.05	81.044
479.40	81.423
479.75	81.952
480.10	81.362
480.45	80.057
480.79	79.264
481.14	82.094
481.49	81.633
481.84	80.293
482.19	80.872
482.53	79.266
482.88	79.898
483.23	81.495
483.58	79.845
483.92	80.225
484.27	77.734
484.62	79.353
484.97	78.006
485.31	82.089
485.66	80.433
486.01	76.990
486.36	73.945
486.70	71.486
487.05	72.779
487.40	75.128
487.75	75.383
488.09	75.705
488.44	74.750
488.79	77.432
489.13	77.655
489.48	78.181
489.83	77.946
490.17	78.124
490.52	76.882
490.87	77.793
491.22	76.671
491.56	76.765
491.91	77.385
492.26	76.160
492.60	76.912
492.95	76.099
493.30	75.607
493.64	77.322
493.99	75.905
494.34	75.254
494.68	77.427
495.03	77.303
495.37	75.337
495.72	77.534
496.07	76.984
496.41	74.469
496.76	74.978
497.11	75.236
497.45	75.128
497.80	75.624
498.14	75.507
498.49	75.805
498.84	75.407
499.18	75.571
499.53	74.501
499.87	73.905
500.22	73.481
500.56	76.650
500.91	73.942
501.26	73.874
501.60	75.036
501.95	74.198
502.29	75.773
502.64	75.000
502.98	74.568
503.33	73.720
503.67	72.251
504.02	72.872
504.36	72.859
504.71	73.327
505.06	73.253
505.40	72.630
505.75	72.951
506.09	72.546
506.44	74.445
506.78	73.113
507.13	73.448
507.47	72.424
507.82	73.658
508.16	75.127
508.51	74.328
508.85	72.493
509.19	73.214
509.54	73.367
509.88	71.458
510.23	72.185
510.57	73.478
510.92	72.864
511.26	71.686
511.61	72.977
511.95	71.451
512.30	71.156
512.64	71.736
512.98	71.704
513.33	71.681
513.67	70.811
514.02	70.887
514.36	73.020
514.70	72.551
515.05	72.337
515.39	72.126
515.74	71.453
516.08	70.989
516.42	71.421
516.77	72.520
517.11	71.254
517.46	72.630
517.80	73.345
518.14	71.569
518.49	71.820
518.83	70.455
519.17	71.189
519.52	71.420
519.86	70.736
520.20	70.462
520.55	70.138
520.89	72.324
521.23	72.135
521.58	71.909
521.92	70.606
522.26	70.287
522.61	71.464
522.95	70.595
523.29	71.029
523.64	70.854
523.98	71.288
524.32	69.843
524.66	69.814
525.01	69.975
525.35	70.508
525.69	69.704
526.04	69.782
526.38	70.104
526.72	67.607
527.06	69.429
527.41	67.946
527.75	70.547
528.09	69.750
528.43	69.216
528.78	69.207
529.12	68.364
529.46	68.279
529.80	69.864
530.15	68.723
530.49	66.892
530.83	68.481
531.17	69.778
531.51	69.520
531.86	70.194
532.20	69.296
532.54	66.816
532.88	68.100
533.22	65.959
533.57	69.012
533.91	67.730
534.25	67.861
534.59	67.785
534.93	65.616
535.27	67.713
535.62	66.789
535.96	67.608
536.30	67.069
536.64	67.418
536.98	68.348
537.32	66.754
537.66	68.067
538.01	67.676
538.35	66.063
538.69	67.837
539.03	65.432
539.37	66.773
539.71	64.420
540.05	65.817
540.39	65.980
540.73	64.877
541.07	65.282
541.42	66.862
541.76	67.613
542.10	65.265
542.44	67.086
542.78	65.217
543.12	64.875
543.46	66.492
543.80	66.103
544.14	64.955
544.48	65.206
544.82	64.978
545.16	66.949
545.50	64.653
545.84	65.927
546.18	65.993
546.52	64.143
546.86	66.048
547.20	66.689
547.54	64.796
547.88	65.051
548.22	63.574
548.56	63.145
548.90	62.932
549.24	65.253
549.58	65.075
549.92	64.835
550.26	66.193
550.60	64.177
550.94	63.239
551.28	64.740
551.62	65.421
551.96	65.193
552.30	63.959
552.64	64.233
552.98	65.898
553.32	63.115
553.66	64.485
554.00	64.997
554.34	63.423
554.68	64.807
555.02	64.034
555.36	63.535
555.69	62.855
556.03	64.266
556.37	64.802
556.71	62.756
557.05	62.395
557.39	63.751
557.73	63.514
558.07	65.845
558.41	63.386
558.75	64.585
559.08	63.535
559.42	65.306
559.76	64.118
560.10	62.884
560.44	63.732
560.78	60.479
561.12	61.741
561.45	62.125
561.79	62.887
562.13	62.307
562.47	63.183
562.81	63.529
563.15	62.408
563.48	62.003
563.82	62.100
564.16	61.805
564.50	60.872
564.84	61.378
565.17	62.420
565.51	62.236
565.85	61.294
566.19	59.674
566.52	61.811
566.86	60.036
567.20	61.733
567.54	60.388
567.88	60.348
568.21	60.476
568.55	59.707
568.89	59.776
569.23	58.779
569.56	57.814
569.90	58.453
570.24	58.163
570.57	57.225
570.91	55.591
571.25	56.393
571.59	56.406
571.92	55.703
572.26	56.124
572.60	56.306
572.93	55.982
573.27	56.078
573.61	55.081
573.95	55.736
574.28	55.754
574.62	55.782
574.96	54.886
575.29	54.122
575.63	54.573
575.97	54.361
576.30	54.939
576.64	54.966
576.98	54.521
577.31	54.945
577.65	54.615
577.98	54.081
578.32	53.991
578.66	52.998
578.99	53.664
579.33	53.909
579.67	54.196
580.00	53.776
580.34	54.651
580.67	53.486
581.01	54.509
581.35	54.633
581.68	54.473
582.02	53.000
582.35	53.363
582.69	53.004
583.02	53.212
583.36	53.862
583.70	54.421
584.03	53.840
584.37	54.493
584.70	55.251
585.04	53.914
585.37	54.171
585.71	54.488
586.04	53.515
586.38	55.068
586.72	54.129
587.05	53.926
587.39	54.591
587.72	54.007
588.06	53.282
588.39	53.745
588.73	54.473
589.06	54.472
589.40	54.747
589.73	54.558
590.07	54.733
590.40	54.293
590.73	55.777
591.07	55.800
591.40	55.167
591.74	56.710
592.07	54.843
592.41	55.726
592.74	54.270
593.08	53.964
593.41	53.780
593.75	52.311
594.08	53.336
594.41	53.694
594.75	54.418
595.08	54.617
595.42	54.536
595.75	53.775
596.09	54.675
596.42	54.420
596.75	54.538
597.09	54.416
597.42	53.331
597.75	55.067
598.09	53.913
598.42	53.780
598.76	53.506
599.09	53.326
599.42	53.384
599.76	53.258
600.09	52.933
600.42	52.776
600.76	52.143
601.09	52.641
601.42	52.740
601.76	52.903
602.09	53.518
602.42	53.025
602.76	53.245
603.09	54.603
603.42	54.822
603.76	53.811
604.09	53.393
604.42	52.915
604.76	53.648
605.09	53.342
605.42	53.655
605.75	53.767
606.09	53.762
606.42	53.535
606.75	53.049
607.09	53.453
607.42	53.402
607.75	52.405
608.08	53.018
608.42	52.264
608.75	52.570
609.08	52.081
609.41	53.356
609.75	53.502
610.08	53.723
610.41	52.002
610.74	53.690
611.07	54.545
611.41	53.435
611.74	54.148
612.07	54.607
612.40	55.614
612.73	54.474
613.07	54.472
613.40	54.608
613.73	53.382
614.06	53.656
614.39	52.910
614.72	53.316
615.06	53.624
615.39	54.352
615.72	52.301
616.05	52.632
616.38	53.585
616.71	54.929
617.05	54.535
617.38	54.299
617.71	54.535
618.04	54.627
618.37	53.992
618.70	54.325
619.03	55.329
619.36	53.632
619.69	55.000
620.03	56.113
620.36	54.947
620.69	55.822
621.02	54.499
621.35	54.033
621.68	55.607
622.01	55.728
622.34	54.766
622.67	55.970
623.00	54.292
623.33	54.467
623.66	55.182
623.99	54.860
624.32	53.638
624.65	53.178
624.99	53.754
625.32	55.177
625.65	54.921
625.98	56.034
626.31	54.510
626.64	56.082
626.97	55.278
627.30	54.946
627.63	54.881
627.96	54.752
628.29	54.768
628.62	55.901
628.95	57.453
629.28	56.569
629.61	56.004
629.94	58.190
630.26	57.579
630.59	56.435
630.92	56.418
631.25	54.492
631.58	55.656
631.91	56.389
632.24	55.907
632.57	56.558
632.90	59.211
633.23	56.376
633.56	57.288
633.89	57.758
634.22	56.073
634.55	59.290
634.88	57.485
635.20	58.065
635.53	56.867
635.86	60.396
636.19	56.824
636.52	55.363
636.85	56.128
637.18	55.300
637.51	57.447
637.83	54.624
638.16	58.184
638.49	56.801
638.82	61.062
639.15	58.750
639.48	56.733
639.81	58.311
640.13	58.464
640.46	57.047
640.79	57.332
641.12	57.634
641.45	57.402
641.77	60.530
642.10	60.088
642.43	59.910
642.76	59.288
643.09	61.503
643.41	59.181
643.74	61.574
644.07	58.689
644.40	60.123
644.73	58.583
645.05	60.539
645.38	60.506
645.71	59.581
646.04	59.967
646.36	61.770
646.69	60.033
647.02	59.524
647.35	60.653
647.67	61.062
648.00	59.350
648.33	58.581
648.66	58.485
648.98	59.520
649.31	58.445
649.64	59.641
649.96	57.824
650.29	58.610
650.62	57.767
650.94	59.319
651.27	59.122
651.60	59.235
651.92	58.466
652.25	57.655
652.58	60.280
652.90	61.137
653.23	55.470
653.56	58.110
653.88	58.479
654.21	60.032
654.54	60.726
654.86	59.346
655.19	56.486
655.52	43.395
655.84	42.166
656.17	54.555
656.49	73.000
656.82	72.449
657.15	53.935
657.47	40.088
657.80	30.656
658.13	32.097
658.45	46.847
658.78	46.738
659.10	47.912
659.43	48.707
659.75	50.603
660.08	54.177
660.41	60.521
660.73	61.372
661.06	61.306
661.38	62.727
661.71	61.538
662.03	62.722
662.36	57.853
662.68	60.843
663.01	61.616
663.33	64.119
663.66	63.866
663.98	60.475
664.31	59.664
664.63	58.097
664.96	55.533
665.28	61.475
665.61	56.530
665.93	61.569
666.26	59.432
666.58	61.088
666.91	61.311
667.23	65.169
667.56	64.579
667.88	61.538
668.21	60.981
668.53	59.870
668.86	59.957
669.18	62.260
669.50	59.783
669.83	61.874
670.15	63.111
670.48	63.399
670.80	58.621
671.13	60.934
671.45	60.851
671.77	62.525
672.10	58.965
672.42	56.537
672.75	57.214
673.07	58.099
673.39	57.505
673.72	59.961
674.04	56.863
674.37	57.087
674.69	61.145
675.01	57.950
675.34	61.807
675.66	60.842
675.98	59.267
676.31	58.824
676.63	62.208
676.95	57.233
677.28	59.813
677.60	59.121
677.92	61.181
678.25	60.780
678.57	60.956
678.89	58.918
679.22	57.564
679.54	57.824
679.86	58.349
680.18	57.066
680.51	57.447
680.83	55.160
681.15	58.868
681.48	58.034
681.80	60.348
682.12	56.322
682.44	54.545
682.77	59.267
683.09	59.442
683.41	58.315
683.73	62.693
684.06	57.645
684.38	59.295
684.70	57.171
685.02	57.411
685.34	55.861
685.67	55.769
685.99	54.467
686.31	56.314
686.63	55.124
686.96	55.179
687.28	56.318
687.60	55.978
687.92	56.490
688.24	57.224
688.56	55.422
688.89	59.751
689.21	60.262
689.53	56.576
689.85	62.749
690.17	54.658
690.49	58.386
690.82	60.280
691.14	56.920
691.46	58.650
691.78	56.827
692.10	60.124
692.42	56.886
692.74	54.357
693.06	55.532
693.39	57.290
693.71	56.987
694.03	60.632
694.35	55.628
694.67	55.606
694.99	58.780
695.31	57.353
695.63	57.656
695.95	59.902
696.27	60.660
696.59	57.772
696.91	58.808
697.23	54.930
697.56	55.864
697.88	55.419
698.20	55.208
698.52	56.559
698.84	53.898
699.16	55.300
699.48	59.382
699.80	59.662
700.12	65.455
700.44	60.477
700.76	62.431
701.08	60.920
701.40	60.615
701.72	64.431
702.04	64.205
702.36	59.207
702.68	61.756
703.00	60.388
703.32	55.319
703.64	59.517
703.96	57.660
704.28	62.209
704.60	62.170
704.91	61.424
705.23	62.170
705.55	65.781
705.87	65.781
706.19	63.958
706.51	66.044
706.83	61.212
707.15	59.384
707.47	57.576
707.79	60.197
708.11	54.110
708.43	54.048
708.74	57.908
709.06	56.104
709.38	56.430
709.70	61.337
710.02	62.611
710.34	62.424
710.66	60.299
710.98	59.943
711.29	60.756
711.61	65.487
711.93	62.179
712.25	62.379
712.57	66.544
712.89	61.938
713.20	62.006
713.52	63.816
713.84	62.025
714.16	58.232
714.48	59.770
714.80	65.653
715.11	60.519
715.43	58.457
715.75	59.420
716.07	61.022
716.39	57.994
716.70	63.787
717.02	62.950
717.34	62.191
717.66	63.433
717.97	63.347
718.29	64.815
718.61	63.869
718.93	65.074
719.24	58.131
719.56	59.322
719.88	61.017
720.20	66.554
720.51	65.157
720.83	63.197
721.15	63.060
721.46	62.766
721.78	69.534
722.10	61.509
722.42	69.549
722.73	66.292
723.05	63.934
723.37	61.943
723.68	65.251
724.00	63.415
724.32	63.710
724.63	68.293
724.95	62.762
725.27	66.802
725.58	66.797
725.90	65.693
726.22	64.906
726.53	65.278
726.85	58.362
727.16	65.480
727.48	59.220
727.80	64.394
728.11	61.957
728.43	63.846
728.74	61.290
729.06	61.679
729.38	65.809
729.69	65.125
730.01	59.044
730.32	55.903
730.64	59.197
730.96	58.086
731.27	61.258
731.59	58.716
731.90	59.475
732.22	58.696
732.53	58.824
732.85	58.974
733.16	60.129
733.48	61.130
733.80	57.792
734.11	61.146
734.43	57.692
734.74	54.000
735.06	56.734
735.37	58.382
735.69	61.783
736.00	60.458
736.32	58.879
736.63	58.466
736.95	56.869
737.26	55.442
737.58	58.710
737.89	61.873
738.21	60.410
738.52	62.143
738.83	58.113
739.15	61.923
739.46	59.854
739.78	62.153
740.09	57.231
740.41	60.968
740.72	58.885
741.04	63.704
741.35	62.500
741.66	69.778
741.98	61.321
742.29	68.900
742.61	63.362
742.92	64.253
743.23	59.402
743.55	65.600
743.86	62.281
744.18	67.699
744.49	70.813
744.80	62.911
745.12	69.545
745.43	63.877
745.74	69.369
746.06	68.807
746.37	65.919
746.68	64.253
747.00	73.148
747.31	73.333
747.62	60.619
747.94	61.674
748.25	64.255
748.56	64.758
748.88	63.861
749.19	69.500
749.50	70.233
749.82	60.569
750.13	60.408
750.44	62.044
750.75	61.754
751.07	60.129
751.38	56.098
751.69	63.538
752.01	62.030
752.32	60.289
752.63	58.511
752.94	64.344
753.26	65.600
753.57	58.130
753.88	58.594
754.19	58.214
754.51	61.111
754.82	56.318
755.13	60.377
755.44	59.774
755.75	61.679
756.07	58.865
756.38	59.124
756.69	57.718
757.00	51.497
757.31	55.490
757.63	53.801
757.94	53.887
758.25	52.696
758.56	53.580
758.87	52.151
759.18	56.061
759.50	52.978
759.81	54.206
760.12	52.500
760.43	58.166
760.74	54.891
761.05	55.932
761.36	55.348
761.67	58.807
761.99	56.832
762.30	54.861
762.61	61.450
762.92	64.062
763.23	59.664
763.54	57.600
763.85	58.203
764.16	62.308
764.47	66.920
764.78	55.124
765.10	49.684
765.41	55.752
765.72	55.389
766.03	56.113
766.34	55.000
766.65	61.277
766.96	62.821
767.27	73.604
767.58	69.792
767.89	70.000
768.20	70.690
768.51	70.051
768.82	61.468
769.13	58.130
769.44	60.729
769.75	65.665
770.06	61.927
770.37	71.041
770.68	63.889
770.99	58.667
771.30	59.426
771.61	66.368
771.92	64.344
772.23	65.966
772.54	67.179
772.85	68.063
773.16	67.553
773.47	68.478
773.78	66.497
774.09	65.476
774.39	75.439
774.70	75.926
775.01	84.058
775.32	73.203
775.63	71.711
775.94	74.101
776.25	78.740
776.56	78.358
776.87	77.049
777.18	67.969
777.48	87.786
777.79	72.727
778.10	82.222
778.41	78.571
778.72	72.263
779.03	73.154
779.34	65.101
779.65	74.324
779.95	73.006
780.26	74.510
780.57	84.138
780.88	80.469
781.19	73.684
781.50	81.757
781.80	74.843
782.11	67.232
782.42	69.620
782.73	66.871
783.04	68.919
783.34	78.873
783.65	79.452
783.96	81.343
784.27	66.434
784.57	71.223
784.88	73.148
785.19	79.365
785.50	84.906
785.81	82.090
786.11	86.885
786.42	76.744
786.73	85.841
787.04	93.396
787.34	79.464
787.65	87.000
787.96	81.982
788.26	76.860
788.57	88.136
788.88	82.645
789.19	75.694
789.49	86.364
789.80	70.992
790.11	97.143
790.41	80.198
790.72	95.181
791.03	103.261
791.33	88.372
791.64	92.784
791.95	87.129
792.25	104.444
792.56	112.987
792.87	114.103
793.17	125.316
793.48	106.897
793.79	95.402
794.09	85.227
794.40	82.353
794.70	82.353
795.01	79.259
795.32	76.978
795.62	67.717
795.93	80.172
796.23	81.416
796.54	94.118
796.85	105.405
797.15	116.901
797.46	103.030
797.76	121.687
798.07	94.937
798.37	103.077
798.68	122.727
798.99	88.732
799.29	96.104
799.60	80.682
799.90	115.068
800.21	110.448
800.51	115.517
800.82	140.351
801.12	119.672
801.43	119.697
801.73	95.946
802.04	120.635
802.34	102.469
802.65	107.812
802.95	127.119
803.26	128.125
803.56	104.286
803.87	107.692
804.17	108.824
804.48	122.222
804.78	120.690
805.09	110.294
805.39	115.385
805.70	130.357
806.00	126.230
806.30	107.576
806.61	114.634
806.91	94.937
807.22	90.789
807.52	89.552
807.83	105.634
808.13	121.875
808.43	113.333
808.74	89.474
809.04	111.594
809.35	116.418
809.65	102.632
809.95	127.419
810.26	108.475
810.56	107.937
810.86	152.273
811.17	152.381
811.47	146.667
811.77	111.111
812.08	121.818
812.38	134.000
812.69	155.556
812.99	143.182
813.29	138.776
813.59	128.571
813.90	153.061
814.20	121.818
814.50	113.846
814.81	116.176
815.11	124.490
815.41	132.787
815.72	145.238
816.02	125.455
816.32	154.762
816.62	142.500
816.93	160.976
817.23	164.286
817.53	125.000
817.84	221.212
818.14	150.000
818.44	146.667
818.74	164.706
819.04	142.500
819.35	185.714
819.65	182.353
819.95	246.429
820.25	240.000
820.56	187.179
820.86	129.545
821.16	144.186
821.46	146.154
821.76	150.000
822.07	174.286
822.37	172.500
822.67	163.636
822.97	139.216
823.27	250.000
823.57	167.568
823.88	177.500
824.18	196.667
824.48	150.000
824.78	228.000
825.08	258.333
825.38	151.351
825.69	158.537
825.99	270.833
826.29	182.759
826.59	157.895
826.89	152.632
827.19	194.118
827.49	209.677
827.79	147.727
828.09	138.636
828.39	138.298
828.70	136.735
829.00	203.704
829.30	132.258
829.60	147.500
829.90	306.667
830.20	196.429
830.50	200.000
830.80	252.174
831.10	216.667
831.40	226.667
831.70	204.348
832.00	230.769
832.30	200.000
832.60	300.000
832.90	203.333
833.20	364.286
833.50	203.226
833.80	213.793
834.10	212.500
834.40	250.000
834.70	377.778
835.00	328.571
835.30	202.857
835.60	369.231
835.90	203.448
836.20	371.429
836.50	175.862
836.80	208.000
837.10	202.778
837.40	319.048
837.70	323.529
838.00	207.407
838.30	247.619
838.60	300.000
838.90	226.923
839.19	265.000
839.49	478.571
839.79	315.000
840.09	250.000
840.39	290.476
840.69	213.043
840.99	288.889
841.29	520.000
841.59	358.333
841.88	293.750
842.18	186.207
842.48	252.381
842.78	200.000
843.08	247.826
843.38	168.750
843.68	866.667
843.97	238.462
844.27	206.897
844.57	290.476
844.87	425.000
845.17	196.296
845.47	1633.333
845.76	544.444
846.06	282.353
846.36	450.000
846.66	428.571
846.96	325.000
847.25	463.636
847.55	381.818
847.85	269.565
848.15	450.000
848.44	385.714
848.74	266.667
849.04	341.176
849.34	600.000
849.63	273.684
849.93	500.000
850.23	940.000
850.53	428.571
850.82	2200.000
851.12	-3700.000
851.42	4800.000
851.71	280.000
852.01	-1500.000
852.31	254.167
852.61	1766.667
852.90	295.238
853.20	228.000
853.50	276.471
853.79	257.143
854.09	191.667
854.39	306.250
854.68	167.568
854.98	177.419
855.28	193.333
855.57	220.690
855.87	248.148
856.17	236.842
856.46	306.667
856.76	317.647
857.05	213.793
857.35	225.000
857.65	366.667
857.94	239.130
858.24	261.538
858.53	325.000
858.83	272.727
859.13	380.000
859.42	0.000
859.72	455.556
860.01	500.000
860.31	259.091
860.60	252.632
860.90	234.783
861.20	500.000
861.49	500.000
861.79	-4600.000
862.08	575.000
862.38	300.000
862.67	330.769
862.97	382.353
863.26	566.667
863.56	288.889
863.85	466.667
864.15	500.000
864.44	400.000
864.74	850.000
865.03	600.000
865.33	294.737
865.62	445.455
865.92	492.308
866.21	433.333
866.51	0.000
866.80	427.273
867.10	1020.000
867.39	423.077
867.69	427.273
867.98	300.000
868.27	400.000
868.57	273.684
868.86	-4400.000
869.16	318.750
869.45	2650.000
869.75	-4300.000
870.04	425.000
870.33	714.286
870.63	950.000
870.92	2200.000
871.22	771.429
871.51	341.176
871.80	200.000
872.10	421.429
>>>>>End Processed Spectral Data<<<<<
