SpectraSuite Data File
++++++++++++++++++++++++++++++++++++
Date: Wed May 13 16:24:51 PDT 2015
User: schluterlab
Dark Spectrum Present: Yes
Reference Spectrum Present: Yes
Number of Sampled Component Spectra: 1
Spectrometers: USB2E3373
Integration Time (usec): 3000 (USB2E3373)
Spectra Averaged: 3 (USB2E3373)
Boxcar Smoothing: 0 (USB2E3373)
Correct for Electrical Dark: No (USB2E3373)
Strobe/Lamp Enabled: No (USB2E3373)
Correct for Detector Non-linearity: No (USB2E3373)
Correct for Stray Light: No (USB2E3373)
Number of Pixels in Processed Spectrum: 2048
>>>>>Begin Processed Spectral Data<<<<<
178.53	0.000
178.91	-1475.000
179.29	-1225.000
179.67	-222.222
180.04	-950.000
180.42	2800.000
180.80	960.000
181.18	-925.000
181.56	600.000
181.94	0.000
182.31	-628.571
182.69	1666.667
183.07	-487.500
183.45	-500.000
183.83	445.455
184.20	-370.000
184.58	2550.000
184.96	5400.000
185.34	-860.000
185.72	-625.000
186.09	-2200.000
186.47	3000.000
186.85	2400.000
187.23	5100.000
187.61	-1766.667
187.98	1350.000
188.36	500.000
188.74	500.000
189.12	-860.000
189.49	560.000
189.87	-4300.000
190.25	-1100.000
190.63	400.000
191.00	369.231
191.38	833.333
191.76	-850.000
192.14	1275.000
192.51	600.000
192.89	916.667
193.27	525.000
193.65	-1150.000
194.02	460.000
194.40	920.000
194.78	490.000
195.15	533.333
195.53	670.000
195.91	-2200.000
196.29	331.250
196.66	273.684
197.04	-400.000
197.42	0.000
197.79	630.000
198.17	-4700.000
198.55	700.000
198.92	700.000
199.30	880.000
199.68	0.000
200.05	305.556
200.43	728.571
200.81	4400.000
201.18	1733.333
201.56	-1366.667
201.94	566.667
202.31	577.778
202.69	458.333
203.07	490.000
203.44	0.000
203.82	1225.000
204.19	842.857
204.57	364.286
204.95	587.500
205.32	1566.667
205.70	536.364
206.08	364.286
206.45	3100.000
206.83	325.000
207.20	883.333
207.58	840.000
207.96	305.556
208.33	675.000
208.71	-783.333
209.08	800.000
209.46	588.889
209.84	481.818
210.21	-1733.333
210.59	1100.000
210.96	-550.000
211.34	2150.000
211.71	600.000
212.09	683.333
212.46	0.000
212.84	1733.333
213.22	1425.000
213.59	-5900.000
213.97	666.667
214.34	657.143
214.72	545.455
215.09	940.000
215.47	-2050.000
215.84	-2600.000
216.22	1433.333
216.59	392.857
216.97	1275.000
217.34	363.636
217.72	-800.000
218.09	0.000
218.47	-4800.000
218.84	677.778
219.22	785.714
219.59	1333.333
219.97	-585.714
220.34	880.000
220.72	-1500.000
221.09	435.714
221.47	1475.000
221.84	-800.000
222.22	0.000
222.59	1175.000
222.97	-2300.000
223.34	1140.000
223.72	469.231
224.09	1080.000
224.46	2350.000
224.84	-4600.000
225.21	-1040.000
225.59	-4400.000
225.96	520.000
226.34	330.000
226.71	2750.000
227.08	550.000
227.46	590.000
227.83	-975.000
228.21	-1850.000
228.58	533.333
228.95	-2250.000
229.33	-2200.000
229.70	1633.333
230.08	671.429
230.45	-980.000
230.82	475.000
231.20	733.333
231.57	657.143
231.95	375.000
232.32	254.545
232.69	300.000
233.07	685.714
233.44	338.462
233.81	-1433.333
234.19	257.895
234.56	400.000
234.93	308.333
235.31	472.727
235.68	315.385
236.05	221.429
236.43	172.727
236.80	236.842
237.17	3800.000
237.55	209.524
237.92	167.857
238.29	242.857
238.67	158.065
239.04	182.759
239.41	138.889
239.79	91.304
240.16	119.048
240.53	104.545
240.91	84.314
241.28	80.000
241.65	60.000
242.02	85.507
242.40	54.839
242.77	71.667
243.14	56.989
243.51	56.180
243.89	54.118
244.26	41.111
244.63	51.613
245.00	43.617
245.38	37.624
245.75	42.056
246.12	32.110
246.49	50.365
246.87	40.000
247.24	43.077
247.61	35.000
247.98	30.719
248.36	27.027
248.73	25.478
249.10	30.573
249.47	31.073
249.84	27.273
250.22	31.551
250.59	20.710
250.96	21.212
251.33	28.436
251.70	32.673
252.08	23.810
252.45	19.283
252.82	22.609
253.19	24.255
253.56	23.529
253.94	20.747
254.31	19.141
254.68	20.000
255.05	19.557
255.42	24.390
255.79	18.382
256.16	20.939
256.54	16.608
256.91	18.505
257.28	13.309
257.65	17.822
258.02	14.286
258.39	15.457
258.76	17.057
259.14	14.881
259.51	13.678
259.88	11.801
260.25	14.199
260.62	14.451
260.99	12.112
261.36	16.817
261.73	12.894
262.10	9.593
262.47	15.493
262.85	13.649
263.22	12.536
263.59	14.530
263.96	11.813
264.33	14.099
264.70	11.053
265.07	13.043
265.44	14.141
265.81	10.706
266.18	13.568
266.55	13.171
266.92	9.828
267.29	11.111
267.66	12.844
268.03	12.500
268.40	14.019
268.77	11.933
269.14	10.586
269.51	11.061
269.88	11.888
270.25	12.641
270.62	11.685
270.99	12.688
271.36	11.373
271.73	8.411
272.10	11.087
272.47	11.398
272.84	10.390
273.21	11.740
273.58	9.825
273.95	7.757
274.32	10.124
274.69	9.208
275.06	9.055
275.43	10.638
275.80	10.621
276.17	9.572
276.54	10.811
276.91	9.091
277.28	8.984
277.65	10.638
278.02	8.282
278.39	10.937
278.76	8.545
279.13	11.509
279.50	9.125
279.87	10.757
280.23	8.184
280.60	8.897
280.97	7.024
281.34	9.381
281.71	10.182
282.08	9.981
282.45	8.182
282.82	9.414
283.19	6.239
283.56	8.070
283.92	7.953
284.29	10.053
284.66	9.256
285.03	7.233
285.40	7.923
285.77	8.923
286.14	8.290
286.51	7.833
286.87	9.915
287.24	9.609
287.61	8.347
287.98	8.929
288.35	6.973
288.72	7.632
289.08	8.294
289.45	8.237
289.82	7.480
290.19	8.477
290.56	9.342
290.93	5.891
291.29	7.209
291.66	8.997
292.03	9.593
292.40	8.957
292.77	6.509
293.13	8.955
293.50	7.726
293.87	7.259
294.24	5.481
294.60	6.114
294.97	6.541
295.34	6.911
295.71	6.818
296.08	5.271
296.44	6.740
296.81	7.266
297.18	7.724
297.55	5.145
297.91	5.013
298.28	7.229
298.65	7.572
299.02	8.169
299.38	5.976
299.75	4.852
300.12	4.981
300.48	6.500
300.85	6.905
301.22	6.242
301.59	5.556
301.95	7.053
302.32	5.520
302.69	6.093
303.05	5.455
303.42	4.568
303.79	6.002
304.15	4.312
304.52	4.519
304.89	6.039
305.25	6.148
305.62	7.135
305.99	6.139
306.35	6.264
306.72	5.157
307.09	5.660
307.45	6.982
307.82	4.464
308.19	5.740
308.55	5.070
308.92	5.693
309.29	5.069
309.65	5.620
310.02	5.180
310.38	5.269
310.75	5.491
311.12	5.220
311.48	5.329
311.85	4.822
312.22	5.515
312.58	4.678
312.95	6.125
313.31	5.243
313.68	5.509
314.05	7.495
314.41	5.729
314.78	4.632
315.14	4.866
315.51	5.767
315.87	6.535
316.24	5.263
316.61	5.653
316.97	4.990
317.34	4.012
317.70	5.927
318.07	5.679
318.43	5.479
318.80	5.623
319.16	6.121
319.53	6.285
319.89	6.000
320.26	7.100
320.62	5.456
320.99	5.758
321.35	6.263
321.72	6.160
322.08	6.910
322.45	6.965
322.81	6.589
323.18	6.936
323.54	7.236
323.91	7.736
324.27	7.648
324.64	5.871
325.00	6.763
325.37	7.006
325.73	7.720
326.10	7.237
326.46	6.900
326.83	8.197
327.19	8.284
327.56	7.927
327.92	6.912
328.29	8.696
328.65	8.011
329.01	7.581
329.38	8.141
329.74	8.495
330.11	7.446
330.47	7.805
330.84	9.559
331.20	8.652
331.56	9.541
331.93	7.778
332.29	8.784
332.66	8.938
333.02	8.227
333.38	8.672
333.75	9.982
334.11	10.320
334.48	8.784
334.84	8.915
335.20	9.091
335.57	8.885
335.93	7.589
336.29	9.249
336.66	9.017
337.02	7.149
337.38	8.889
337.75	7.754
338.11	8.863
338.47	8.840
338.84	9.716
339.20	9.083
339.56	9.215
339.93	8.545
340.29	7.428
340.65	8.734
341.02	9.686
341.38	8.897
341.74	9.649
342.11	8.472
342.47	8.987
342.83	8.904
343.20	8.918
343.56	8.425
343.92	9.035
344.28	9.439
344.65	8.856
345.01	8.923
345.37	7.290
345.73	8.714
346.10	9.037
346.46	9.237
346.82	9.390
347.19	8.438
347.55	8.703
347.91	8.900
348.27	9.532
348.63	9.615
349.00	9.304
349.36	8.046
349.72	9.062
350.08	8.266
350.45	8.462
350.81	8.773
351.17	8.995
351.53	8.518
351.89	8.746
352.26	9.392
352.62	9.142
352.98	7.942
353.34	8.217
353.70	6.874
354.07	9.032
354.43	8.968
354.79	7.804
355.15	8.061
355.51	9.832
355.87	8.653
356.24	9.039
356.60	8.019
356.96	9.171
357.32	8.585
357.68	8.110
358.04	8.709
358.40	8.868
358.77	9.546
359.13	8.998
359.49	9.961
359.85	7.619
360.21	7.656
360.57	9.183
360.93	8.923
361.29	9.070
361.66	8.514
362.02	9.552
362.38	9.658
362.74	8.333
363.10	8.586
363.46	8.877
363.82	8.919
364.18	8.884
364.54	9.955
364.90	9.348
365.26	8.971
365.62	9.423
365.98	9.204
366.35	8.596
366.71	10.051
367.07	8.813
367.43	9.579
367.79	9.636
368.15	9.770
368.51	8.648
368.87	9.850
369.23	9.876
369.59	10.427
369.95	8.897
370.31	9.687
370.67	9.783
371.03	10.037
371.39	9.840
371.75	9.485
372.11	9.815
372.47	9.311
372.83	10.159
373.19	9.465
373.55	9.165
373.91	10.088
374.27	10.034
374.63	9.309
374.99	10.240
375.35	9.560
375.71	10.350
376.07	10.974
376.42	9.835
376.78	10.404
377.14	9.362
377.50	10.596
377.86	9.309
378.22	10.556
378.58	9.649
378.94	9.994
379.30	9.288
379.66	10.343
380.02	10.811
380.38	10.200
380.74	10.804
381.09	10.758
381.45	10.695
381.81	10.872
382.17	10.573
382.53	10.566
382.89	11.235
383.25	10.444
383.61	11.214
383.97	10.819
384.32	11.229
384.68	10.843
385.04	11.432
385.40	11.207
385.76	11.916
386.12	10.946
386.48	11.328
386.83	12.187
387.19	11.441
387.55	11.750
387.91	10.943
388.27	11.220
388.62	12.293
388.98	11.671
389.34	12.328
389.70	12.630
390.06	12.674
390.42	11.933
390.77	12.468
391.13	11.295
391.49	12.563
391.85	11.712
392.20	10.789
392.56	12.121
392.92	11.242
393.28	10.651
393.64	12.650
393.99	11.668
394.35	12.407
394.71	12.359
395.07	12.212
395.42	12.176
395.78	12.913
396.14	12.601
396.50	12.970
396.85	12.905
397.21	12.330
397.57	12.461
397.92	12.921
398.28	12.108
398.64	12.724
399.00	12.759
399.35	11.619
399.71	12.500
400.07	13.424
400.42	13.129
400.78	13.148
401.14	12.378
401.49	12.358
401.85	12.946
402.21	12.934
402.57	12.832
402.92	12.863
403.28	13.054
403.63	12.252
403.99	12.930
404.35	13.030
404.70	12.470
405.06	12.988
405.42	12.664
405.77	12.857
406.13	13.093
406.49	12.833
406.84	13.172
407.20	12.884
407.55	12.891
407.91	13.400
408.27	12.763
408.62	12.402
408.98	12.132
409.34	12.977
409.69	13.806
410.05	13.073
410.40	13.884
410.76	13.620
411.11	13.329
411.47	13.163
411.83	13.561
412.18	12.925
412.54	12.765
412.89	13.373
413.25	13.400
413.60	13.156
413.96	12.872
414.31	12.940
414.67	14.195
415.03	13.444
415.38	14.304
415.74	12.990
416.09	13.455
416.45	13.521
416.80	12.426
417.16	14.477
417.51	13.537
417.87	13.809
418.22	13.565
418.58	14.848
418.93	13.575
419.29	14.131
419.64	13.413
420.00	14.146
420.35	14.493
420.71	14.047
421.06	13.902
421.42	13.392
421.77	13.789
422.12	13.251
422.48	13.276
422.83	13.628
423.19	13.923
423.54	13.233
423.90	14.667
424.25	13.456
424.61	14.583
424.96	14.111
425.31	13.843
425.67	13.596
426.02	13.657
426.38	14.103
426.73	13.926
427.09	13.678
427.44	14.031
427.79	14.146
428.15	14.405
428.50	14.102
428.85	14.601
429.21	13.363
429.56	13.167
429.92	14.293
430.27	13.952
430.62	13.210
430.98	13.389
431.33	14.588
431.68	13.717
432.04	14.217
432.39	14.106
432.74	14.662
433.10	14.714
433.45	14.810
433.80	14.135
434.16	13.996
434.51	13.737
434.86	14.652
435.22	14.730
435.57	13.982
435.92	14.160
436.28	14.828
436.63	15.232
436.98	14.310
437.34	14.967
437.69	15.578
438.04	14.615
438.39	15.045
438.75	15.166
439.10	14.637
439.45	15.171
439.81	14.743
440.16	14.399
440.51	15.407
440.86	14.939
441.22	14.461
441.57	14.862
441.92	14.995
442.27	14.639
442.63	14.271
442.98	14.873
443.33	14.674
443.68	14.404
444.03	14.348
444.39	14.314
444.74	14.935
445.09	15.310
445.44	14.543
445.79	15.141
446.15	15.617
446.50	15.078
446.85	14.440
447.20	14.788
447.55	14.852
447.91	14.837
448.26	15.136
448.61	14.924
448.96	15.061
449.31	15.579
449.66	15.363
450.02	14.875
450.37	15.420
450.72	14.608
451.07	15.052
451.42	14.468
451.77	15.150
452.12	15.242
452.47	15.796
452.83	15.326
453.18	14.976
453.53	14.966
453.88	15.771
454.23	15.481
454.58	15.809
454.93	16.211
455.28	15.648
455.63	16.262
455.98	15.595
456.34	15.515
456.69	16.155
457.04	16.223
457.39	14.319
457.74	15.612
458.09	15.756
458.44	15.165
458.79	14.479
459.14	15.463
459.49	15.178
459.84	15.568
460.19	15.734
460.54	15.104
460.89	16.292
461.24	15.118
461.59	16.386
461.94	16.338
462.29	15.905
462.64	15.699
462.99	15.290
463.34	16.400
463.69	16.573
464.04	16.290
464.39	16.058
464.74	15.686
465.09	15.802
465.44	14.792
465.79	15.940
466.14	15.380
466.49	15.628
466.84	15.820
467.19	15.510
467.54	16.312
467.89	15.426
468.24	15.590
468.59	15.690
468.94	14.966
469.29	16.388
469.64	17.537
469.99	16.103
470.34	16.116
470.68	15.805
471.03	16.667
471.38	16.261
471.73	16.189
472.08	16.842
472.43	16.080
472.78	15.997
473.13	16.688
473.48	16.667
473.83	16.585
474.17	15.930
474.52	16.625
474.87	15.528
475.22	15.032
475.57	15.529
475.92	15.613
476.27	16.291
476.61	15.830
476.96	14.953
477.31	15.280
477.66	16.357
478.01	14.584
478.36	15.970
478.70	14.849
479.05	15.655
479.40	15.404
479.75	15.201
480.10	15.159
480.45	14.707
480.79	14.907
481.14	15.362
481.49	15.804
481.84	15.455
482.19	15.357
482.53	15.275
482.88	15.589
483.23	15.607
483.58	15.287
483.92	15.511
484.27	14.858
484.62	15.216
484.97	14.781
485.31	14.486
485.66	13.545
486.01	12.620
486.36	11.859
486.70	12.097
487.05	12.945
487.40	13.279
487.75	13.773
488.09	14.043
488.44	14.410
488.79	15.190
489.13	15.508
489.48	14.396
489.83	14.804
490.17	14.950
490.52	15.146
490.87	15.378
491.22	15.189
491.56	14.806
491.91	15.123
492.26	15.021
492.60	15.346
492.95	14.733
493.30	14.953
493.64	15.026
493.99	14.763
494.34	15.772
494.68	15.705
495.03	16.118
495.37	15.030
495.72	15.692
496.07	15.684
496.41	14.867
496.76	14.908
497.11	15.579
497.45	15.277
497.80	15.835
498.14	15.314
498.49	15.463
498.84	16.059
499.18	15.333
499.53	14.957
499.87	15.191
500.22	16.109
500.56	16.019
500.91	15.433
501.26	15.410
501.60	16.327
501.95	15.399
502.29	16.073
502.64	15.549
502.98	15.708
503.33	14.991
503.67	15.545
504.02	15.622
504.36	16.191
504.71	15.779
505.06	15.663
505.40	15.654
505.75	15.670
506.09	16.375
506.44	16.330
506.78	15.977
507.13	16.608
507.47	16.263
507.82	16.312
508.16	15.451
508.51	16.641
508.85	16.385
509.19	16.122
509.54	16.378
509.88	16.744
510.23	16.915
510.57	17.079
510.92	16.882
511.26	17.215
511.61	16.701
511.95	16.649
512.30	16.861
512.64	16.550
512.98	16.667
513.33	17.238
513.67	17.289
514.02	16.126
514.36	17.368
514.70	17.377
515.05	17.345
515.39	18.059
515.74	17.399
516.08	17.608
516.42	18.257
516.77	19.064
517.11	17.259
517.46	17.889
517.80	18.351
518.14	16.676
518.49	17.445
518.83	18.011
519.17	17.494
519.52	17.883
519.86	18.540
520.20	18.266
520.55	18.971
520.89	18.917
521.23	19.240
521.58	18.187
521.92	17.697
522.26	17.633
522.61	18.629
522.95	18.171
523.29	18.077
523.64	19.024
523.98	19.409
524.32	18.697
524.66	18.340
525.01	18.811
525.35	19.145
525.69	18.288
526.04	18.442
526.38	18.670
526.72	18.650
527.06	17.577
527.41	16.832
527.75	19.228
528.09	19.011
528.43	19.439
528.78	18.931
529.12	18.606
529.46	18.494
529.80	18.564
530.15	19.252
530.49	18.092
530.83	19.304
531.17	18.930
531.51	19.585
531.86	19.613
532.20	20.339
532.54	19.218
532.88	19.127
533.22	18.551
533.57	18.519
533.91	18.122
534.25	18.287
534.59	19.036
534.93	19.215
535.27	18.407
535.62	18.376
535.96	18.142
536.30	19.008
536.64	19.704
536.98	18.779
537.32	19.618
537.66	19.200
538.01	19.816
538.35	19.263
538.69	19.974
539.03	18.129
539.37	18.530
539.71	18.017
540.05	18.105
540.39	18.605
540.73	18.758
541.07	19.079
541.42	19.700
541.76	19.935
542.10	19.082
542.44	19.338
542.78	19.368
543.12	18.682
543.46	19.607
543.80	18.803
544.14	18.549
544.48	19.365
544.82	19.051
545.16	19.519
545.50	18.573
545.84	19.355
546.18	20.135
546.52	19.959
546.86	19.038
547.20	19.488
547.54	19.506
547.88	19.962
548.22	17.995
548.56	18.302
548.90	18.886
549.24	18.384
549.58	19.304
549.92	19.437
550.26	19.815
550.60	18.741
550.94	19.577
551.28	19.386
551.62	19.770
551.96	18.526
552.30	19.727
552.64	19.067
552.98	19.797
553.32	19.083
553.66	19.018
554.00	19.492
554.34	18.288
554.68	20.100
555.02	19.182
555.36	20.181
555.69	17.862
556.03	19.919
556.37	20.532
556.71	18.759
557.05	19.678
557.39	19.734
557.73	19.760
558.07	19.507
558.41	19.899
558.75	20.059
559.08	20.358
559.42	19.577
559.76	20.074
560.10	19.986
560.44	19.008
560.78	19.361
561.12	19.327
561.45	19.231
561.79	19.183
562.13	19.517
562.47	19.331
562.81	19.247
563.15	19.465
563.48	19.629
563.82	19.113
564.16	19.097
564.50	18.880
564.84	19.785
565.17	18.790
565.51	19.169
565.85	18.845
566.19	18.284
566.52	18.176
566.86	17.661
567.20	19.222
567.54	18.037
567.88	17.273
568.21	17.989
568.55	17.442
568.89	16.780
569.23	17.112
569.56	16.599
569.90	15.774
570.24	15.752
570.57	15.879
570.91	14.932
571.25	15.256
571.59	15.287
571.92	14.919
572.26	14.789
572.60	15.405
572.93	15.052
573.27	15.203
573.61	15.438
573.95	15.090
574.28	14.497
574.62	14.747
574.96	14.170
575.29	14.282
575.63	14.990
575.97	14.892
576.30	15.162
576.64	14.834
576.98	14.511
577.31	13.817
577.65	14.376
577.98	14.335
578.32	13.860
578.66	14.277
578.99	14.175
579.33	14.791
579.67	14.254
580.00	14.433
580.34	14.950
580.67	14.630
581.01	14.617
581.35	14.216
581.68	14.171
582.02	13.679
582.35	13.653
582.69	14.118
583.02	14.124
583.36	14.688
583.70	15.335
584.03	15.282
584.37	14.914
584.70	15.099
585.04	14.873
585.37	14.725
585.71	14.803
586.04	14.835
586.38	14.969
586.72	15.382
587.05	14.833
587.39	14.512
587.72	15.022
588.06	15.181
588.39	15.309
588.73	15.078
589.06	15.488
589.40	15.354
589.73	15.628
590.07	15.587
590.40	15.564
590.73	16.315
591.07	16.891
591.40	16.617
591.74	17.056
592.07	17.190
592.41	16.370
592.74	15.431
593.08	15.356
593.41	15.407
593.75	15.334
594.08	15.387
594.41	15.871
594.75	15.527
595.08	16.142
595.42	15.727
595.75	15.848
596.09	16.373
596.42	16.503
596.75	16.463
597.09	16.883
597.42	15.809
597.75	16.990
598.09	17.130
598.42	16.323
598.76	16.133
599.09	15.621
599.42	15.757
599.76	15.813
600.09	15.373
600.42	15.559
600.76	15.000
601.09	15.191
601.42	16.096
601.76	15.712
602.09	16.087
602.42	16.441
602.76	16.687
603.09	16.365
603.42	16.400
603.76	15.739
604.09	15.704
604.42	16.062
604.76	16.449
605.09	16.732
605.42	16.546
605.75	15.604
606.09	15.779
606.42	16.142
606.75	16.342
607.09	17.246
607.42	15.918
607.75	15.781
608.08	15.762
608.42	17.167
608.75	16.546
609.08	16.790
609.41	16.802
609.75	16.913
610.08	16.824
610.41	15.782
610.74	16.272
611.07	17.194
611.41	16.781
611.74	17.345
612.07	16.563
612.40	17.419
612.73	17.105
613.07	17.888
613.40	17.325
613.73	16.466
614.06	17.366
614.39	16.833
614.72	16.789
615.06	17.700
615.39	17.144
615.72	16.922
616.05	17.331
616.38	16.620
616.71	18.052
617.05	17.845
617.38	17.679
617.71	18.258
618.04	18.029
618.37	16.913
618.70	17.610
619.03	18.421
619.36	19.009
619.69	18.592
620.03	19.437
620.36	19.184
620.69	19.521
621.02	19.248
621.35	19.342
621.68	19.003
622.01	19.195
622.34	18.986
622.67	19.087
623.00	18.122
623.33	18.585
623.66	18.013
623.99	19.367
624.32	18.830
624.65	18.503
624.99	18.697
625.32	18.899
625.65	19.234
625.98	18.832
626.31	19.440
626.64	19.184
626.97	19.285
627.30	19.119
627.63	19.360
627.96	19.428
628.29	19.335
628.62	21.409
628.95	21.038
629.28	20.255
629.61	20.990
629.94	20.952
630.26	20.400
630.59	20.686
630.92	21.456
631.25	21.224
631.58	19.920
631.91	21.298
632.24	21.835
632.57	21.301
632.90	22.368
633.23	22.819
633.56	22.938
633.89	22.197
634.22	23.383
634.55	24.615
634.88	21.557
635.20	21.744
635.53	23.012
635.86	23.886
636.19	22.000
636.52	23.414
636.85	21.764
637.18	23.041
637.51	22.813
637.83	20.715
638.16	22.890
638.49	23.804
638.82	23.515
639.15	23.375
639.48	22.818
639.81	23.995
640.13	24.870
640.46	24.161
640.79	24.174
641.12	23.246
641.45	23.464
641.77	25.479
642.10	23.830
642.43	23.574
642.76	25.387
643.09	25.307
643.41	25.190
643.74	25.772
644.07	24.695
644.40	27.914
644.73	25.669
645.05	25.990
645.38	24.329
645.71	24.477
646.04	25.083
646.36	26.377
646.69	26.923
647.02	27.891
647.35	22.680
647.67	26.372
648.00	26.829
648.33	25.578
648.66	24.091
648.98	24.438
649.31	24.066
649.64	23.169
649.96	25.186
650.29	24.487
650.62	23.625
650.94	26.094
651.27	26.858
651.60	26.123
651.92	25.399
652.25	24.593
652.58	23.832
652.90	24.329
653.23	23.267
653.56	22.835
653.88	25.198
654.21	23.223
654.54	24.422
654.86	22.741
655.19	21.892
655.52	14.525
655.84	10.948
656.17	12.754
656.49	17.565
656.82	18.282
657.15	14.340
657.47	10.803
657.80	8.627
658.13	9.064
658.45	14.324
658.78	14.781
659.10	16.068
659.43	16.712
659.75	19.160
660.08	19.747
660.41	23.464
660.73	25.159
661.06	25.955
661.38	27.273
661.71	28.846
662.03	26.430
662.36	23.062
662.68	27.510
663.01	26.061
663.33	27.389
663.66	26.681
663.98	28.078
664.31	25.630
664.63	24.899
664.96	23.742
665.28	28.484
665.61	24.561
665.93	24.950
666.26	28.398
666.58	27.406
666.91	27.696
667.23	29.888
667.56	29.806
667.88	28.419
668.21	29.638
668.53	27.983
668.86	27.922
669.18	31.343
669.50	29.783
669.83	29.847
670.15	27.333
670.48	25.926
670.80	26.940
671.13	26.752
671.45	26.383
671.77	25.458
672.10	24.214
672.42	24.912
672.75	23.051
673.07	21.479
673.39	23.870
673.72	25.977
674.04	26.275
674.37	26.214
674.69	26.176
675.01	23.640
675.34	28.337
675.66	28.211
675.98	26.069
676.31	27.101
676.63	26.964
676.95	25.577
677.28	24.766
677.60	28.132
677.92	30.802
678.25	28.337
678.57	25.299
678.89	27.455
679.22	23.969
679.54	22.710
679.86	24.954
680.18	23.614
680.51	23.582
680.83	26.335
681.15	24.717
681.48	25.520
681.80	24.371
682.12	24.330
682.44	23.985
682.77	23.625
683.09	25.966
683.41	25.499
683.73	26.711
684.06	27.066
684.38	23.875
684.70	25.000
685.02	23.452
685.34	23.626
685.67	21.329
685.99	21.821
686.31	23.891
686.63	21.731
686.96	22.143
687.28	22.563
687.60	22.645
687.92	25.046
688.24	23.954
688.56	25.301
688.89	25.311
689.21	26.638
689.53	27.140
689.85	27.273
690.17	24.017
690.49	27.601
690.82	27.570
691.14	24.554
691.46	22.785
691.78	24.900
692.10	24.380
692.42	25.349
692.74	23.651
693.06	24.043
693.39	27.105
693.71	24.454
694.03	26.316
694.35	24.459
694.67	26.316
694.99	26.098
695.31	25.245
695.63	26.316
695.95	26.406
696.27	26.396
696.59	26.943
696.91	28.756
697.23	25.352
697.56	27.292
697.88	21.063
698.20	24.375
698.52	23.441
698.84	24.499
699.16	26.037
699.48	25.178
699.80	26.570
700.12	27.792
700.44	28.382
700.76	27.624
701.08	30.747
701.40	29.330
701.72	32.653
702.04	30.682
702.36	26.346
702.68	28.329
703.00	25.485
703.32	24.468
703.64	28.418
703.96	30.641
704.28	29.360
704.60	29.032
704.91	28.487
705.23	29.326
705.55	28.904
705.87	36.213
706.19	30.389
706.51	31.464
706.83	30.909
707.15	29.972
707.47	24.747
707.79	27.518
708.11	26.712
708.43	24.762
708.74	25.510
709.06	27.273
709.38	25.984
709.70	26.453
710.02	27.893
710.34	26.364
710.66	28.657
710.98	30.966
711.29	30.523
711.61	29.499
711.93	29.808
712.25	29.582
712.57	32.353
712.89	30.796
713.20	31.307
713.52	32.566
713.84	28.797
714.16	25.915
714.48	24.138
714.80	32.827
715.11	27.378
715.43	26.113
715.75	28.406
716.07	27.157
716.39	28.840
716.70	32.890
717.02	30.216
717.34	32.155
717.66	34.328
717.97	37.849
718.29	33.333
718.61	26.642
718.93	33.088
719.24	30.104
719.56	26.780
719.88	29.831
720.20	32.432
720.51	33.101
720.83	34.201
721.15	25.373
721.46	30.496
721.78	30.108
722.10	31.698
722.42	33.835
722.73	29.213
723.05	31.557
723.37	32.389
723.68	33.977
724.00	30.081
724.32	28.226
724.63	32.520
724.95	34.728
725.27	32.794
725.58	30.859
725.90	32.482
726.22	29.057
726.53	30.208
726.85	31.058
727.16	32.028
727.48	30.851
727.80	30.682
728.11	30.435
728.43	33.846
728.74	29.391
729.06	31.752
729.38	29.044
729.69	27.758
730.01	28.328
730.32	31.944
730.64	26.087
730.96	29.043
731.27	29.470
731.59	26.911
731.90	27.114
732.22	29.193
732.53	23.839
732.85	26.603
733.16	27.010
733.48	30.897
733.80	25.000
734.11	26.433
734.43	27.219
734.74	26.000
735.06	22.923
735.37	30.058
735.69	26.115
736.00	30.065
736.32	28.037
736.63	26.198
736.95	28.754
737.26	25.510
737.58	27.097
737.89	29.431
738.21	30.717
738.52	28.571
738.83	27.170
739.15	31.154
739.46	33.212
739.78	27.083
740.09	28.615
740.41	28.710
740.72	25.784
741.04	29.630
741.35	27.500
741.66	35.111
741.98	33.491
742.29	35.407
742.61	34.914
742.92	29.864
743.23	31.197
743.55	36.400
743.86	32.018
744.18	39.823
744.49	41.627
744.80	32.864
745.12	35.000
745.43	34.802
745.74	38.739
746.06	38.991
746.37	33.184
746.68	31.674
747.00	33.796
747.31	35.714
747.62	29.646
747.94	29.956
748.25	34.043
748.56	33.040
748.88	36.139
749.19	36.000
749.50	33.953
749.82	28.862
750.13	29.796
750.44	34.672
750.75	30.526
751.07	34.405
751.38	28.920
751.69	29.603
752.01	29.699
752.32	28.881
752.63	26.241
752.94	27.869
753.26	34.800
753.57	26.423
753.88	30.469
754.19	29.286
754.51	31.250
754.82	24.188
755.13	30.189
755.44	28.571
755.75	27.737
756.07	28.723
756.38	27.007
756.69	29.866
757.00	26.647
757.31	23.739
757.63	26.608
757.94	26.005
758.25	22.304
758.56	22.716
758.87	26.075
759.18	26.667
759.50	25.078
759.81	25.234
760.12	25.937
760.43	25.501
760.74	20.652
761.05	22.316
761.36	22.727
761.67	25.284
761.99	24.224
762.30	27.431
762.61	28.626
762.92	31.641
763.23	31.092
763.54	32.800
763.85	31.250
764.16	31.538
764.47	36.122
764.78	29.329
765.10	23.734
765.41	24.189
765.72	23.353
766.03	28.213
766.34	26.333
766.65	33.617
766.96	32.906
767.27	36.041
767.58	38.021
767.89	35.263
768.20	43.678
768.51	34.010
768.82	31.193
769.13	29.675
769.44	29.960
769.75	31.330
770.06	27.523
770.37	30.769
770.68	37.500
770.99	28.444
771.30	27.869
771.61	30.942
771.92	27.869
772.23	35.294
772.54	34.872
772.85	40.314
773.16	38.830
773.47	41.304
773.78	43.655
774.09	36.905
774.39	39.766
774.70	42.593
775.01	42.029
775.32	46.405
775.63	39.474
775.94	41.007
776.25	53.543
776.56	50.000
776.87	51.639
777.18	46.875
777.48	49.618
777.79	47.727
778.10	55.556
778.41	59.821
778.72	39.416
779.03	43.624
779.34	39.597
779.65	41.892
779.95	39.264
780.26	39.869
780.57	42.759
780.88	47.656
781.19	47.368
781.50	47.297
781.80	37.736
782.11	37.288
782.42	37.342
782.73	36.196
783.04	36.486
783.34	41.549
783.65	45.890
783.96	41.045
784.27	44.755
784.57	38.129
784.88	42.593
785.19	52.381
785.50	47.170
785.81	51.493
786.11	53.279
786.42	61.240
786.73	56.637
787.04	51.887
787.34	55.357
787.65	61.000
787.96	50.450
788.26	49.587
788.57	55.085
788.88	52.066
789.19	44.444
789.49	56.818
789.80	53.435
790.11	62.857
790.41	66.337
790.72	54.217
791.03	67.391
791.33	67.442
791.64	58.763
791.95	64.356
792.25	64.444
792.56	81.818
792.87	75.641
793.17	79.747
793.48	60.920
793.79	66.667
794.09	68.182
794.40	53.782
794.70	53.676
795.01	40.741
795.32	38.849
795.62	48.819
795.93	54.310
796.23	51.327
796.54	62.353
796.85	72.973
797.15	95.775
797.46	86.364
797.76	73.494
798.07	70.886
798.37	80.000
798.68	69.697
798.99	60.563
799.29	76.623
799.60	65.909
799.90	80.822
800.21	85.075
800.51	87.931
800.82	80.702
801.12	103.279
801.43	93.939
801.73	67.568
802.04	79.365
802.34	75.309
802.65	87.500
802.95	105.085
803.26	82.813
803.56	68.571
803.87	73.846
804.17	83.824
804.48	127.778
804.78	79.310
805.09	83.824
805.39	80.769
805.70	100.000
806.00	88.525
806.30	81.818
806.61	71.951
806.91	63.291
807.22	75.000
807.52	71.642
807.83	71.831
808.13	84.375
808.43	88.333
808.74	63.158
809.04	98.551
809.35	77.612
809.65	81.579
809.95	100.000
810.26	86.441
810.56	82.540
810.86	122.727
811.17	128.571
811.47	101.667
811.77	100.000
812.08	94.545
812.38	112.000
812.69	122.222
812.99	152.273
813.29	120.408
813.59	107.143
813.90	128.571
814.20	100.000
814.50	78.462
814.81	73.529
815.11	108.163
815.41	98.361
815.72	138.095
816.02	100.000
816.32	128.571
816.62	127.500
816.93	143.902
817.23	130.952
817.53	95.455
817.84	163.636
818.14	121.739
818.44	111.111
818.74	167.647
819.04	125.000
819.35	145.714
819.65	179.412
819.95	142.857
820.25	235.000
820.56	151.282
820.86	113.636
821.16	132.558
821.46	115.385
821.76	112.000
822.07	122.857
822.37	142.500
822.67	139.394
822.97	96.078
823.27	196.429
823.57	143.243
823.88	140.000
824.18	170.000
824.48	154.762
824.78	176.000
825.08	187.500
825.38	156.757
825.69	126.829
825.99	220.833
826.29	144.828
826.59	155.263
826.89	126.316
827.19	132.353
827.49	154.839
827.79	131.818
828.09	129.545
828.39	117.021
828.70	126.531
829.00	137.037
829.30	132.258
829.60	127.500
829.90	286.667
830.20	171.429
830.50	156.522
830.80	178.261
831.10	196.667
831.40	166.667
831.70	182.609
832.00	188.462
832.30	170.370
832.60	287.500
832.90	186.667
833.20	342.857
833.50	151.613
833.80	148.276
834.10	187.500
834.40	180.769
834.70	322.222
835.00	252.381
835.30	154.286
835.60	323.077
835.90	196.552
836.20	300.000
836.50	196.552
836.80	228.000
837.10	177.778
837.40	214.286
837.70	329.412
838.00	196.296
838.30	195.238
838.60	242.857
838.90	203.846
839.19	215.000
839.49	328.571
839.79	315.000
840.09	255.000
840.39	247.619
840.69	239.130
840.99	294.444
841.29	410.000
841.59	308.333
841.88	375.000
842.18	200.000
842.48	266.667
842.78	190.000
843.08	213.043
843.38	181.250
843.68	916.667
843.97	223.077
844.27	200.000
844.57	238.095
844.87	306.250
845.17	200.000
845.47	1566.667
845.76	388.889
846.06	305.882
846.36	550.000
846.66	357.143
846.96	306.250
847.25	272.727
847.55	436.364
847.85	239.130
848.15	450.000
848.44	371.429
848.74	261.111
849.04	352.941
849.34	450.000
849.63	263.158
849.93	409.091
850.23	920.000
850.53	371.429
850.82	2050.000
851.12	-4400.000
851.42	4600.000
851.71	295.000
852.01	-1133.333
852.31	250.000
852.61	1500.000
852.90	252.381
853.20	236.000
853.50	276.471
853.79	257.143
854.09	250.000
854.39	262.500
854.68	175.676
854.98	170.968
855.28	160.000
855.57	213.793
855.87	196.296
856.17	226.316
856.46	226.667
856.76	323.529
857.05	179.310
857.35	212.500
857.65	333.333
857.94	239.130
858.24	219.231
858.53	260.000
858.83	245.455
859.13	320.000
859.42	0.000
859.72	511.111
860.01	345.455
860.31	168.182
860.60	289.474
860.90	200.000
861.20	488.889
861.49	466.667
861.79	-3900.000
862.08	675.000
862.38	271.429
862.67	323.077
862.97	388.235
863.26	522.222
863.56	266.667
863.85	400.000
864.15	600.000
864.44	333.333
864.74	883.333
865.03	675.000
865.33	247.368
865.62	427.273
865.92	353.846
866.21	366.667
866.51	0.000
866.80	400.000
867.10	1100.000
867.39	376.923
867.69	400.000
867.98	268.421
868.27	518.182
868.57	263.158
868.86	-4200.000
869.16	337.500
869.45	2300.000
869.75	-4100.000
870.04	391.667
870.33	628.571
870.63	975.000
870.92	2550.000
871.22	642.857
871.51	305.882
871.80	214.286
872.10	392.857
>>>>>End Processed Spectral Data<<<<<
