SpectraSuite Data File
++++++++++++++++++++++++++++++++++++
Date: Wed May 13 16:41:06 PDT 2015
User: schluterlab
Dark Spectrum Present: Yes
Reference Spectrum Present: Yes
Number of Sampled Component Spectra: 1
Spectrometers: USB2E3373
Integration Time (usec): 3000 (USB2E3373)
Spectra Averaged: 3 (USB2E3373)
Boxcar Smoothing: 0 (USB2E3373)
Correct for Electrical Dark: No (USB2E3373)
Strobe/Lamp Enabled: No (USB2E3373)
Correct for Detector Non-linearity: No (USB2E3373)
Correct for Stray Light: No (USB2E3373)
Number of Pixels in Processed Spectrum: 2048
>>>>>Begin Processed Spectral Data<<<<<
178.53	0.000
178.91	-1550.000
179.29	-1575.000
179.67	-216.667
180.04	-1350.000
180.42	2850.000
180.80	960.000
181.18	-1275.000
181.56	757.143
181.94	0.000
182.31	-771.429
182.69	1800.000
183.07	-562.500
183.45	-555.556
183.83	463.636
184.20	-490.000
184.58	2400.000
184.96	5300.000
185.34	-880.000
185.72	-550.000
186.09	-1850.000
186.47	2400.000
186.85	2750.000
187.23	4900.000
187.61	-1900.000
187.98	1375.000
188.36	536.364
188.74	536.364
189.12	-940.000
189.49	560.000
189.87	-5200.000
190.25	-1375.000
190.63	392.857
191.00	384.615
191.38	800.000
191.76	-1075.000
192.14	1300.000
192.51	487.500
192.89	1050.000
193.27	775.000
193.65	-1250.000
194.02	510.000
194.40	940.000
194.78	600.000
195.15	466.667
195.53	530.000
195.91	-2250.000
196.29	331.250
196.66	368.421
197.04	-390.000
197.42	0.000
197.79	650.000
198.17	-5000.000
198.55	771.429
198.92	675.000
199.30	880.000
199.68	0.000
200.05	372.222
200.43	742.857
200.81	4100.000
201.18	1666.667
201.56	-1333.333
201.94	655.556
202.31	633.333
202.69	466.667
203.07	630.000
203.44	0.000
203.82	1125.000
204.19	871.429
204.57	535.714
204.95	600.000
205.32	1266.667
205.70	472.727
206.08	357.143
206.45	2650.000
206.83	337.500
207.20	1033.333
207.58	960.000
207.96	338.889
208.33	600.000
208.71	-816.667
209.08	814.286
209.46	666.667
209.84	545.455
210.21	-1266.667
210.59	1375.000
210.96	-500.000
211.34	2650.000
211.71	630.000
212.09	816.667
212.46	0.000
212.84	1800.000
213.22	1400.000
213.59	-5000.000
213.97	1033.333
214.34	957.143
214.72	554.545
215.09	840.000
215.47	-2400.000
215.84	-2700.000
216.22	1366.667
216.59	400.000
216.97	1350.000
217.34	427.273
217.72	-816.667
218.09	0.000
218.47	-5300.000
218.84	677.778
219.22	771.429
219.59	1600.000
219.97	-700.000
220.34	760.000
220.72	-1533.333
221.09	407.143
221.47	1250.000
221.84	-850.000
222.22	0.000
222.59	1375.000
222.97	-2600.000
223.34	1220.000
223.72	392.308
224.09	1200.000
224.46	2100.000
224.84	-5300.000
225.21	-1040.000
225.59	-4400.000
225.96	550.000
226.34	320.000
226.71	2250.000
227.08	662.500
227.46	500.000
227.83	-1025.000
228.21	-2000.000
228.58	633.333
228.95	-2250.000
229.33	-1950.000
229.70	1533.333
230.08	800.000
230.45	-940.000
230.82	425.000
231.20	816.667
231.57	557.143
231.95	508.333
232.32	300.000
232.69	427.273
233.07	757.143
233.44	369.231
233.81	-1800.000
234.19	368.421
234.56	375.000
234.93	341.667
235.31	427.273
235.68	369.231
236.05	385.714
236.43	184.848
236.80	294.737
237.17	5500.000
237.55	219.048
237.92	225.000
238.29	290.476
238.67	187.097
239.04	210.345
239.41	169.444
239.79	119.565
240.16	152.381
240.53	145.455
240.91	117.647
241.28	142.000
241.65	134.000
242.02	121.739
242.40	100.000
242.77	108.333
243.14	100.000
243.51	104.494
243.89	107.059
244.26	83.333
244.63	93.548
245.00	81.915
245.38	93.069
245.75	83.178
246.12	85.321
246.49	76.642
246.87	82.400
247.24	81.538
247.61	71.429
247.98	68.627
248.36	68.243
248.73	75.796
249.10	78.344
249.47	68.362
249.84	64.171
250.22	62.567
250.59	68.639
250.96	56.566
251.33	64.455
251.70	63.861
252.08	59.524
252.45	57.848
252.82	58.261
253.19	56.170
253.56	57.255
253.94	56.846
254.31	53.516
254.68	54.615
255.05	55.720
255.42	54.065
255.79	58.824
256.16	55.596
256.54	51.590
256.91	55.160
257.28	50.719
257.65	50.165
258.02	50.311
258.39	49.842
258.76	50.836
259.14	48.214
259.51	50.760
259.88	48.758
260.25	52.266
260.62	51.156
260.99	51.553
261.36	57.958
261.73	46.132
262.10	50.581
262.47	52.113
262.85	48.747
263.22	47.009
263.59	49.573
263.96	48.901
264.33	43.342
264.70	49.474
265.07	49.361
265.44	51.010
265.81	45.012
266.18	46.734
266.55	49.268
266.92	50.860
267.29	44.907
267.66	44.725
268.03	45.909
268.40	48.364
268.77	46.062
269.14	45.270
269.51	47.630
269.88	48.485
270.25	46.050
270.62	42.697
270.99	47.312
271.36	46.996
271.73	45.561
272.10	43.696
272.47	47.097
272.84	46.537
273.21	44.235
273.58	43.013
273.95	40.881
274.32	42.769
274.69	45.824
275.06	41.535
275.43	45.106
275.80	42.084
276.17	42.974
276.54	45.946
276.91	44.862
277.28	41.406
277.65	42.166
278.02	43.271
278.39	46.484
278.76	43.455
279.13	44.340
279.50	42.086
279.87	41.633
280.23	43.114
280.60	42.553
280.97	40.665
281.34	43.009
281.71	38.909
282.08	45.106
282.45	41.091
282.82	41.030
283.19	39.572
283.56	40.702
283.92	40.609
284.29	39.859
284.66	39.383
285.03	39.241
285.40	40.317
285.77	39.226
286.14	37.824
286.51	39.500
286.87	39.658
287.24	40.717
287.61	37.560
287.98	38.149
288.35	39.620
288.72	36.760
289.08	37.089
289.45	39.374
289.82	37.236
290.19	38.148
290.56	35.835
290.93	35.498
291.29	37.423
291.66	35.251
292.03	35.756
292.40	36.417
292.77	34.024
293.13	34.627
293.50	34.840
293.87	32.741
294.24	34.963
294.60	33.624
294.97	35.465
295.34	34.979
295.71	33.381
296.08	30.342
296.44	31.637
296.81	30.515
297.18	33.604
297.55	31.135
297.91	32.454
298.28	32.262
298.65	31.854
299.02	32.279
299.38	30.677
299.75	28.706
300.12	30.779
300.48	30.125
300.85	29.593
301.22	29.554
301.59	29.293
301.95	29.723
302.32	30.295
302.69	29.988
303.05	28.848
303.42	28.889
303.79	28.992
304.15	27.622
304.52	27.231
304.89	27.758
305.25	30.046
305.62	29.445
305.99	29.044
306.35	29.083
306.72	29.372
307.09	28.302
307.45	27.140
307.82	28.348
308.19	28.477
308.55	29.234
308.92	26.316
309.29	27.455
309.65	25.769
310.02	27.061
310.38	27.742
310.75	25.554
311.12	25.896
311.48	27.900
311.85	28.092
312.22	27.055
312.58	25.884
312.95	28.089
313.31	25.146
313.68	26.091
314.05	28.008
314.41	26.533
314.78	27.694
315.14	26.812
315.51	26.674
315.87	28.020
316.24	27.408
316.61	26.511
316.97	25.049
317.34	26.712
317.70	26.577
318.07	26.179
318.43	27.495
318.80	27.179
319.16	26.460
319.53	25.422
319.89	27.429
320.26	27.000
320.62	26.885
320.99	28.788
321.35	27.778
321.72	28.542
322.08	26.654
322.45	27.662
322.81	27.035
323.18	28.227
323.54	28.015
323.91	27.264
324.27	26.577
324.64	28.332
325.00	25.068
325.37	28.753
325.73	27.917
326.10	27.449
326.46	28.136
326.83	28.818
327.19	27.498
327.56	26.916
327.92	27.822
328.29	27.684
328.65	28.085
329.01	27.888
329.38	25.994
329.74	27.608
330.11	27.144
330.47	28.650
330.84	28.401
331.20	27.687
331.56	27.890
331.93	28.611
332.29	27.773
332.66	27.257
333.02	28.611
333.38	28.365
333.75	28.520
334.11	27.313
334.48	26.886
334.84	28.401
335.20	27.182
335.57	27.199
335.93	26.696
336.29	27.656
336.66	28.494
337.02	26.516
337.38	27.037
337.75	26.738
338.11	27.663
338.47	27.164
338.84	27.589
339.20	27.523
339.56	26.916
339.93	27.636
340.29	26.630
340.65	26.114
341.02	28.447
341.38	26.957
341.74	25.614
342.11	26.114
342.47	27.048
342.83	27.397
343.20	26.061
343.56	26.959
343.92	27.368
344.28	26.531
344.65	26.483
345.01	25.337
345.37	25.643
345.73	26.734
346.10	26.428
346.46	27.966
346.82	25.453
347.19	27.151
347.55	26.437
347.91	26.699
348.27	27.855
348.63	26.756
349.00	25.162
349.36	26.601
349.72	27.185
350.08	26.337
350.45	26.607
350.81	26.239
351.17	25.689
351.53	26.699
351.89	25.165
352.26	26.756
352.62	26.864
352.98	24.635
353.34	25.719
353.70	25.286
354.07	26.452
354.43	23.968
354.79	25.101
355.15	26.257
355.51	26.619
355.87	26.939
356.24	25.896
356.60	24.940
356.96	25.905
357.32	26.247
357.68	26.929
358.04	26.128
358.40	25.812
358.77	25.509
359.13	24.388
359.49	24.471
359.85	25.000
360.21	25.439
360.57	25.681
360.93	26.154
361.29	25.624
361.66	24.381
362.02	25.149
362.38	25.095
362.74	24.926
363.10	24.796
363.46	23.551
363.82	25.170
364.18	24.890
364.54	24.963
364.90	25.283
365.26	25.441
365.62	24.836
365.98	23.886
366.35	23.138
366.71	24.729
367.07	23.525
367.43	24.383
367.79	26.124
368.15	25.503
368.51	23.256
368.87	24.839
369.23	25.018
369.59	25.272
369.95	25.221
370.31	24.430
370.67	24.420
371.03	25.843
371.39	25.292
371.75	24.265
372.11	24.822
372.47	25.733
372.83	25.072
373.19	25.939
373.55	24.686
373.91	24.963
374.27	24.467
374.63	25.455
374.99	24.788
375.35	24.773
375.71	24.674
376.07	25.857
376.42	24.484
376.78	25.050
377.14	26.323
377.50	25.960
377.86	25.731
378.22	25.537
378.58	24.248
378.94	25.204
379.30	25.445
379.66	26.079
380.02	25.184
380.38	25.197
380.74	26.291
381.09	25.367
381.45	26.613
381.81	25.553
382.17	26.752
382.53	26.667
382.89	25.926
383.25	25.578
383.61	26.704
383.97	26.266
384.32	26.762
384.68	26.952
385.04	26.613
385.40	26.378
385.76	26.843
386.12	27.915
386.48	26.369
386.83	27.325
387.19	28.262
387.55	27.706
387.91	26.965
388.27	27.284
388.62	28.027
388.98	26.966
389.34	27.722
389.70	26.119
390.06	27.567
390.42	28.210
390.77	27.672
391.13	28.015
391.49	27.728
391.85	27.116
392.20	27.192
392.56	27.588
392.92	27.546
393.28	26.982
393.64	27.278
393.99	27.123
394.35	27.543
394.71	27.164
395.07	28.100
395.42	28.616
395.78	27.290
396.14	27.002
396.50	28.195
396.85	28.290
397.21	27.127
397.57	27.402
397.92	27.644
398.28	26.850
398.64	28.913
399.00	27.980
399.35	27.468
399.71	27.951
400.07	28.504
400.42	27.730
400.78	28.528
401.14	27.988
401.49	28.060
401.85	27.949
402.21	27.305
402.57	27.205
402.92	27.301
403.28	28.795
403.63	27.661
403.99	28.344
404.35	27.818
404.70	27.278
405.06	26.733
405.42	27.885
405.77	28.343
406.13	27.257
406.49	27.912
406.84	27.466
407.20	27.246
407.55	27.696
407.91	27.867
408.27	28.526
408.62	27.333
408.98	28.554
409.34	27.060
409.69	27.613
410.05	28.439
410.40	27.401
410.76	27.300
411.11	27.744
411.47	28.371
411.83	28.833
412.18	27.706
412.54	27.460
412.89	28.193
413.25	28.335
413.60	28.289
413.96	28.172
414.31	27.886
414.67	28.707
415.03	26.689
415.38	29.124
415.74	27.974
416.09	28.870
416.45	28.246
416.80	27.892
417.16	28.753
417.51	28.534
417.87	27.874
418.22	28.517
418.58	28.470
418.93	27.948
419.29	27.817
419.64	28.149
420.00	28.537
420.35	28.406
420.71	28.093
421.06	27.387
421.42	27.544
421.77	27.859
422.12	27.569
422.48	26.821
422.83	28.713
423.19	28.122
423.54	27.568
423.90	27.536
424.25	28.141
424.61	28.036
424.96	26.997
425.31	26.966
425.67	27.360
426.02	27.771
426.38	27.961
426.73	27.970
427.09	26.991
427.44	27.545
427.79	27.660
428.15	27.381
428.50	28.087
428.85	27.712
429.21	27.278
429.56	26.439
429.92	27.630
430.27	27.110
430.62	26.472
430.98	27.867
431.33	27.216
431.68	27.120
432.04	26.305
432.39	26.556
432.74	27.110
433.10	27.051
433.45	27.988
433.80	26.663
434.16	27.030
434.51	27.211
434.86	27.081
435.22	26.737
435.57	27.599
435.92	27.267
436.28	27.995
436.63	27.870
436.98	27.533
437.34	27.370
437.69	28.180
438.04	26.588
438.39	26.985
438.75	28.414
439.10	27.486
439.45	27.804
439.81	27.251
440.16	26.765
440.51	27.241
440.86	27.678
441.22	26.641
441.57	27.495
441.92	26.970
442.27	26.857
442.63	26.909
442.98	28.169
443.33	27.446
443.68	27.310
444.03	27.330
444.39	27.020
444.74	26.732
445.09	27.062
445.44	26.463
445.79	26.670
446.15	26.310
446.50	27.302
446.85	27.133
447.20	26.874
447.55	26.689
447.91	27.744
448.26	26.711
448.61	26.795
448.96	27.243
449.31	27.390
449.66	26.843
450.02	26.240
450.37	27.211
450.72	26.565
451.07	26.325
451.42	26.383
451.77	26.718
452.12	26.617
452.47	26.928
452.83	27.506
453.18	27.445
453.53	26.902
453.88	26.226
454.23	26.778
454.58	27.983
454.93	28.163
455.28	27.930
455.63	26.881
455.98	27.500
456.34	26.508
456.69	28.741
457.04	26.625
457.39	26.593
457.74	26.988
458.09	26.337
458.44	26.739
458.79	25.813
459.14	26.862
459.49	27.262
459.84	26.316
460.19	26.576
460.54	27.083
460.89	26.385
461.24	27.930
461.59	27.658
461.94	27.312
462.29	27.122
462.64	26.739
462.99	26.415
463.34	27.400
463.69	26.704
464.04	26.145
464.39	27.014
464.74	26.441
465.09	26.055
465.44	26.648
465.79	26.007
466.14	26.601
466.49	25.473
466.84	25.861
467.19	26.614
467.54	26.750
467.89	26.531
468.24	26.178
468.59	26.557
468.94	25.962
469.29	26.542
469.64	27.778
469.99	27.334
470.34	25.892
470.68	27.083
471.03	26.803
471.38	27.867
471.73	26.449
472.08	27.961
472.43	26.759
472.78	26.728
473.13	27.535
473.48	26.404
473.83	26.646
474.17	26.136
474.52	27.171
474.87	26.386
475.22	26.291
475.57	25.416
475.92	24.854
476.27	25.536
476.61	26.200
476.96	25.509
477.31	25.641
477.66	26.477
478.01	25.719
478.36	25.754
478.70	24.714
479.05	26.145
479.40	25.742
479.75	25.470
480.10	26.044
480.45	25.226
480.79	25.323
481.14	25.294
481.49	25.866
481.84	25.926
482.19	25.625
482.53	25.046
482.88	26.152
483.23	24.533
483.58	25.614
483.92	25.492
484.27	24.575
484.62	24.914
484.97	24.557
485.31	26.404
485.66	25.860
486.01	24.005
486.36	22.929
486.70	22.255
487.05	22.779
487.40	22.829
487.75	22.837
488.09	23.203
488.44	23.182
488.79	24.412
489.13	23.797
489.48	24.144
489.83	23.867
490.17	25.208
490.52	23.871
490.87	24.514
491.22	25.102
491.56	24.556
491.91	24.477
492.26	24.299
492.60	24.608
492.95	23.901
493.30	24.346
493.64	24.172
493.99	24.977
494.34	24.699
494.68	24.954
495.03	25.000
495.37	23.685
495.72	24.708
496.07	24.501
496.41	23.938
496.76	24.494
497.11	23.908
497.45	24.220
497.80	23.800
498.14	24.106
498.49	24.000
498.84	23.586
499.18	23.429
499.53	24.501
499.87	24.371
500.22	24.494
500.56	24.369
500.91	23.846
501.26	23.708
501.60	24.822
501.95	23.236
502.29	24.461
502.64	24.581
502.98	23.796
503.33	23.629
503.67	23.944
504.02	23.994
504.36	23.678
504.71	23.937
505.06	24.193
505.40	23.481
505.75	23.095
506.09	23.712
506.44	24.223
506.78	24.452
507.13	24.483
507.47	24.192
507.82	25.025
508.16	23.404
508.51	24.455
508.85	24.032
509.19	24.439
509.54	24.337
509.88	24.060
510.23	24.267
510.57	25.284
510.92	23.615
511.26	23.792
511.61	24.170
511.95	23.956
512.30	24.125
512.64	24.234
512.98	24.277
513.33	24.572
513.67	24.226
514.02	23.972
514.36	24.140
514.70	25.180
515.05	24.205
515.39	24.734
515.74	24.155
516.08	24.595
516.42	24.861
516.77	25.028
517.11	24.084
517.46	24.944
517.80	23.751
518.14	24.320
518.49	25.263
518.83	23.920
519.17	23.788
519.52	24.392
519.86	23.902
520.20	24.335
520.55	24.776
520.89	24.513
521.23	25.030
521.58	24.310
521.92	24.311
522.26	23.246
522.61	24.174
522.95	23.204
523.29	24.650
523.64	24.939
523.98	25.570
524.32	24.186
524.66	24.414
525.01	24.020
525.35	23.916
525.69	23.892
526.04	24.050
526.38	23.734
526.72	23.742
527.06	25.235
527.41	23.205
527.75	24.823
528.09	23.764
528.43	24.920
528.78	24.831
529.12	24.727
529.46	24.862
529.80	24.505
530.15	23.614
530.49	23.138
530.83	25.063
531.17	25.457
531.51	25.227
531.86	24.194
532.20	25.359
532.54	24.407
532.88	24.968
533.22	24.547
533.57	24.568
533.91	23.420
534.25	24.484
534.59	24.710
534.93	23.974
535.27	23.838
535.62	24.420
535.96	24.733
536.30	23.268
536.64	23.696
536.98	24.552
537.32	24.161
537.66	25.200
538.01	24.753
538.35	24.370
538.69	25.016
539.03	24.756
539.37	23.131
539.71	22.683
540.05	24.118
540.39	23.787
540.73	23.286
541.07	25.438
541.42	24.462
541.76	24.452
542.10	24.062
542.44	23.841
542.78	24.704
543.12	24.056
543.46	24.656
543.80	24.528
544.14	23.299
544.48	24.317
544.82	23.669
545.16	23.943
545.50	22.943
545.84	24.328
546.18	24.377
546.52	24.157
546.86	24.124
547.20	25.556
547.54	23.647
547.88	24.171
548.22	23.724
548.56	23.459
548.90	22.727
549.24	23.165
549.58	23.602
549.92	23.764
550.26	23.793
550.60	23.444
550.94	23.873
551.28	22.897
551.62	24.083
551.96	23.860
552.30	24.232
552.64	23.597
552.98	23.797
553.32	24.208
553.66	25.290
554.00	23.885
554.34	23.395
554.68	24.750
555.02	23.836
555.36	22.825
555.69	23.478
556.03	23.957
556.37	23.806
556.71	23.533
557.05	23.950
557.39	23.233
557.73	23.783
558.07	24.293
558.41	23.155
558.75	23.880
559.08	24.310
559.42	23.810
559.76	24.191
560.10	22.555
560.44	23.620
560.78	23.154
561.12	23.549
561.45	23.468
561.79	23.401
562.13	23.742
562.47	24.180
562.81	23.501
563.15	23.880
563.48	23.939
563.82	23.744
564.16	23.610
564.50	23.698
564.84	23.262
565.17	23.616
565.51	24.026
565.85	22.843
566.19	23.607
566.52	23.813
566.86	22.845
567.20	23.526
567.54	23.231
567.88	22.271
568.21	23.915
568.55	23.104
568.89	22.811
569.23	22.683
569.56	22.834
569.90	22.038
570.24	22.103
570.57	22.305
570.91	21.267
571.25	21.773
571.59	21.885
571.92	21.601
572.26	21.577
572.60	21.081
572.93	20.870
573.27	21.059
573.61	21.217
573.95	21.602
574.28	21.307
574.62	21.137
574.96	20.741
575.29	20.611
575.63	20.884
575.97	21.062
576.30	20.951
576.64	21.102
576.98	20.491
577.31	20.702
577.65	21.086
577.98	21.170
578.32	20.552
578.66	20.210
578.99	20.794
579.33	20.431
579.67	20.092
580.00	20.762
580.34	21.215
580.67	20.799
581.01	21.453
581.35	21.252
581.68	21.313
582.02	20.623
582.35	20.886
582.69	20.826
583.02	20.444
583.36	20.406
583.70	20.280
584.03	20.951
584.37	20.975
584.70	21.160
585.04	20.964
585.37	21.202
585.71	21.053
586.04	20.585
586.38	20.507
586.72	21.486
587.05	20.728
587.39	21.319
587.72	20.897
588.06	20.864
588.39	20.192
588.73	21.238
589.06	21.284
589.40	21.145
589.73	21.084
590.07	21.566
590.40	21.520
590.73	22.092
591.07	21.937
591.40	21.594
591.74	22.165
592.07	21.597
592.41	22.199
592.74	21.873
593.08	21.452
593.41	21.575
593.75	21.112
594.08	20.315
594.41	21.386
594.75	21.848
595.08	21.367
595.42	21.751
595.75	21.368
596.09	21.780
596.42	21.572
596.75	21.570
597.09	22.035
597.42	21.164
597.75	21.604
598.09	21.391
598.42	21.220
598.76	21.970
599.09	21.247
599.42	21.033
599.76	21.523
600.09	21.239
600.42	20.380
600.76	21.250
601.09	21.093
601.42	21.119
601.76	21.176
602.09	20.593
602.42	21.298
602.76	21.564
603.09	21.282
603.42	21.671
603.76	21.494
604.09	21.287
604.42	21.688
604.76	22.227
605.09	21.188
605.42	20.693
605.75	21.192
606.09	21.757
606.42	21.332
606.75	21.443
607.09	21.055
607.42	21.566
607.75	21.055
608.08	21.363
608.42	21.156
608.75	20.830
609.08	21.277
609.41	21.418
609.75	21.391
610.08	21.913
610.41	21.555
610.74	21.192
611.07	21.739
611.41	21.443
611.74	22.172
612.07	22.050
612.40	22.246
612.73	21.895
613.07	22.091
613.40	22.591
613.73	21.447
614.06	21.505
614.39	21.814
614.72	21.368
615.06	21.796
615.39	21.019
615.72	22.137
616.05	21.903
616.38	21.568
616.71	21.734
617.05	22.792
617.38	21.888
617.71	21.321
618.04	21.935
618.37	21.526
618.70	22.651
619.03	22.434
619.36	22.267
619.69	22.887
620.03	23.146
620.36	22.393
620.69	21.918
621.02	21.829
621.35	21.065
621.68	21.495
622.01	23.297
622.34	22.239
622.67	22.357
623.00	22.744
623.33	21.587
623.66	22.516
623.99	21.870
624.32	22.468
624.65	22.952
624.99	21.530
625.32	21.361
625.65	23.065
625.98	22.829
626.31	22.240
626.64	23.020
626.97	22.278
627.30	22.361
627.63	23.298
627.96	22.624
628.29	22.310
628.62	24.062
628.95	23.491
629.28	22.354
629.61	24.656
629.94	23.333
630.26	23.546
630.59	23.832
630.92	23.467
631.25	23.100
631.58	22.923
631.91	23.124
632.24	23.945
632.57	23.295
632.90	23.794
633.23	23.378
633.56	24.746
633.89	24.009
634.22	24.518
634.55	26.627
634.88	22.874
635.20	25.209
635.53	24.819
635.86	24.876
636.19	25.059
636.52	24.567
636.85	25.086
637.18	23.387
637.51	23.759
637.83	22.565
638.16	25.064
638.49	24.181
638.82	25.032
639.15	24.000
639.48	24.813
639.81	25.603
640.13	26.172
640.46	24.564
640.79	25.363
641.12	22.558
641.45	25.279
641.77	26.068
642.10	25.877
642.43	26.126
642.76	25.387
643.09	26.687
643.41	25.038
643.74	27.006
644.07	24.390
644.40	29.294
644.73	25.984
645.05	28.368
645.38	24.645
645.71	25.926
646.04	26.578
646.36	28.381
646.69	27.592
647.02	25.850
647.35	25.086
647.67	25.310
648.00	26.341
648.33	24.092
648.66	27.424
648.98	27.136
649.31	24.365
649.64	25.411
649.96	23.845
650.29	25.750
650.62	26.052
650.94	26.742
651.27	28.885
651.60	26.789
651.92	26.038
652.25	24.593
652.58	27.882
652.90	26.066
653.23	25.578
653.56	24.409
653.88	26.149
654.21	27.962
654.54	27.723
654.86	26.012
655.19	25.000
655.52	19.904
655.84	19.691
656.17	25.040
656.49	32.694
656.82	31.455
657.15	22.659
657.47	16.293
657.80	12.300
658.13	12.535
658.45	17.781
658.78	18.010
659.10	18.340
659.43	19.163
659.75	19.786
660.08	22.722
660.41	24.209
660.73	27.446
661.06	24.045
661.38	27.273
661.71	27.500
662.03	25.838
662.36	25.646
662.68	29.317
663.01	25.859
663.33	27.813
663.66	27.311
663.98	29.158
664.31	27.731
664.63	27.935
664.96	29.175
665.28	29.918
665.61	27.485
665.93	26.559
666.26	27.181
666.58	28.870
666.91	29.810
667.23	28.090
667.56	29.374
667.88	28.419
668.21	28.145
668.53	26.464
668.86	26.190
669.18	29.211
669.50	27.391
669.83	31.373
670.15	30.222
670.48	27.669
670.80	28.233
671.13	29.299
671.45	27.660
671.77	29.124
672.10	26.617
672.42	28.622
672.75	26.202
673.07	26.761
673.39	23.327
673.72	25.586
674.04	29.216
674.37	24.078
674.69	25.562
675.01	28.243
675.34	28.131
675.66	28.842
675.98	28.717
676.31	27.521
676.63	30.786
676.95	28.302
677.28	27.804
677.60	30.989
677.92	30.802
678.25	28.542
678.57	27.888
678.89	28.257
679.22	27.701
679.54	26.908
679.86	28.440
680.18	26.297
680.51	26.773
680.83	28.648
681.15	26.981
681.48	27.977
681.80	27.466
682.12	28.352
682.44	25.145
682.77	30.346
683.09	28.326
683.41	28.825
683.73	30.905
684.06	27.893
684.38	26.614
684.70	26.938
685.02	27.017
685.34	27.473
685.67	24.825
685.99	25.086
686.31	27.133
686.63	24.028
686.96	27.500
687.28	27.437
687.60	25.362
687.92	29.433
688.24	24.335
688.56	27.912
688.89	29.668
689.21	28.384
689.53	28.392
689.85	30.377
690.17	26.915
690.49	32.059
690.82	31.075
691.14	27.009
691.46	26.793
691.78	27.912
692.10	30.165
692.42	29.341
692.74	25.726
693.06	28.723
693.39	28.747
693.71	29.039
694.03	28.211
694.35	27.922
694.67	28.604
694.99	30.000
695.31	30.637
695.63	27.990
695.95	27.873
696.27	31.218
696.59	28.756
696.91	29.275
697.23	26.761
697.56	29.851
697.88	25.767
698.20	26.042
698.52	28.602
698.84	28.285
699.16	28.341
699.48	30.166
699.80	30.193
700.12	33.506
700.44	34.483
700.76	31.215
701.08	29.023
701.40	32.123
701.72	32.653
702.04	31.818
702.36	31.161
702.68	29.745
703.00	32.964
703.32	31.649
703.64	31.635
703.96	31.198
704.28	31.395
704.60	31.965
704.91	31.454
705.23	31.085
705.55	35.880
705.87	34.884
706.19	30.742
706.51	35.202
706.83	35.455
707.15	34.174
707.47	31.566
707.79	30.221
708.11	31.735
708.43	30.714
708.74	27.551
709.06	30.649
709.38	30.184
709.70	30.814
710.02	35.608
710.34	30.303
710.66	31.940
710.98	34.375
711.29	33.721
711.61	34.218
711.93	33.333
712.25	33.119
712.57	37.500
712.89	32.872
713.20	30.699
713.52	32.237
713.84	35.127
714.16	32.012
714.48	33.333
714.80	34.347
715.11	33.718
715.43	32.344
715.75	30.145
716.07	32.907
716.39	32.288
716.70	35.880
717.02	32.374
717.34	38.163
717.66	35.448
717.97	37.849
718.29	35.926
718.61	32.117
718.93	36.765
719.24	35.294
719.56	33.220
719.88	36.271
720.20	38.851
720.51	41.812
720.83	37.546
721.15	39.552
721.46	36.525
721.78	42.294
722.10	35.472
722.42	35.338
722.73	33.708
723.05	37.295
723.37	34.818
723.68	32.819
724.00	35.772
724.32	36.694
724.63	36.585
724.95	40.586
725.27	41.700
725.58	32.031
725.90	38.686
726.22	36.604
726.53	36.111
726.85	32.082
727.16	35.943
727.48	39.362
727.80	35.227
728.11	34.783
728.43	34.615
728.74	35.842
729.06	38.686
729.38	42.647
729.69	36.299
730.01	35.154
730.32	31.597
730.64	36.120
730.96	33.993
731.27	35.762
731.59	34.862
731.90	37.026
732.22	32.609
732.53	32.508
732.85	34.936
733.16	33.119
733.48	33.887
733.80	33.766
734.11	35.987
734.43	34.024
734.74	31.143
735.06	32.092
735.37	37.861
735.69	32.484
736.00	32.680
736.32	35.826
736.63	33.866
736.95	35.144
737.26	30.272
737.58	34.194
737.89	36.789
738.21	37.201
738.52	32.857
738.83	34.340
739.15	37.308
739.46	36.496
739.78	39.236
740.09	36.615
740.41	35.161
740.72	33.798
741.04	37.037
741.35	34.167
741.66	48.000
741.98	38.679
742.29	46.411
742.61	45.259
742.92	38.009
743.23	39.744
743.55	40.400
743.86	38.596
744.18	42.920
744.49	44.498
744.80	37.559
745.12	44.545
745.43	42.291
745.74	45.946
746.06	41.284
746.37	40.807
746.68	39.819
747.00	41.667
747.31	42.381
747.62	39.381
747.94	39.207
748.25	42.128
748.56	43.172
748.88	36.634
749.19	47.000
749.50	46.512
749.82	35.772
750.13	35.510
750.44	37.956
750.75	38.246
751.07	37.621
751.38	39.373
751.69	39.711
752.01	35.338
752.32	38.628
752.63	37.943
752.94	38.115
753.26	43.600
753.57	35.366
753.88	36.328
754.19	36.786
754.51	39.931
754.82	36.462
755.13	39.245
755.44	36.466
755.75	33.942
756.07	35.816
756.38	33.942
756.69	38.591
757.00	30.539
757.31	35.608
757.63	29.825
757.94	32.708
758.25	29.167
758.56	31.852
758.87	30.376
759.18	35.758
759.50	34.796
759.81	33.956
760.12	29.062
760.43	35.530
760.74	31.793
761.05	33.616
761.36	31.818
761.67	33.523
761.99	33.230
762.30	32.986
762.61	32.061
762.92	38.672
763.23	41.176
763.54	38.800
763.85	35.937
764.16	38.077
764.47	38.403
764.78	35.336
765.10	33.544
765.41	35.103
765.72	36.527
766.03	34.169
766.34	36.333
766.65	42.553
766.96	38.462
767.27	49.239
767.58	47.917
767.89	48.947
768.20	48.276
768.51	43.147
768.82	44.954
769.13	40.650
769.44	39.271
769.75	43.777
770.06	38.532
770.37	40.724
770.68	48.611
770.99	37.778
771.30	36.885
771.61	40.807
771.92	42.213
772.23	41.176
772.54	47.179
772.85	44.503
773.16	51.064
773.47	46.196
773.78	50.761
774.09	41.667
774.39	48.538
774.70	45.679
775.01	52.899
775.32	52.288
775.63	57.895
775.94	49.640
776.25	66.929
776.56	55.970
776.87	67.213
777.18	60.938
777.48	65.649
777.79	55.303
778.10	53.333
778.41	50.000
778.72	54.745
779.03	55.034
779.34	50.336
779.65	48.649
779.95	52.761
780.26	52.941
780.57	60.690
780.88	72.656
781.19	56.391
781.50	48.649
781.80	47.799
782.11	45.763
782.42	53.797
782.73	50.307
783.04	54.730
783.34	57.746
783.65	55.479
783.96	61.940
784.27	55.245
784.57	52.518
784.88	50.926
785.19	69.841
785.50	69.811
785.81	68.657
786.11	55.738
786.42	60.465
786.73	61.947
787.04	71.698
787.34	66.964
787.65	67.000
787.96	63.063
788.26	59.504
788.57	72.881
788.88	75.207
789.19	56.944
789.49	60.606
789.80	54.962
790.11	72.381
790.41	77.228
790.72	78.313
791.03	73.913
791.33	59.302
791.64	65.979
791.95	68.317
792.25	82.222
792.56	89.610
792.87	91.026
793.17	92.405
793.48	63.218
793.79	70.115
794.09	81.818
794.40	68.067
794.70	60.294
795.01	57.037
795.32	56.835
795.62	55.906
795.93	64.655
796.23	59.292
796.54	71.765
796.85	71.622
797.15	88.732
797.46	83.333
797.76	83.133
798.07	89.873
798.37	93.846
798.68	115.152
798.99	76.056
799.29	72.727
799.60	81.818
799.90	89.041
800.21	105.970
800.51	105.172
800.82	100.000
801.12	98.361
801.43	95.455
801.73	93.243
802.04	95.238
802.34	95.062
802.65	103.125
802.95	113.559
803.26	95.312
803.56	81.429
803.87	89.231
804.17	102.941
804.48	116.667
804.78	96.552
805.09	98.529
805.39	111.538
805.70	116.071
806.00	124.590
806.30	84.848
806.61	93.902
806.91	78.481
807.22	96.053
807.52	70.149
807.83	97.183
808.13	104.688
808.43	105.000
808.74	71.053
809.04	100.000
809.35	98.507
809.65	85.526
809.95	114.516
810.26	94.915
810.56	106.349
810.86	125.000
811.17	130.952
811.47	128.333
811.77	125.926
812.08	96.364
812.38	112.000
812.69	163.889
812.99	143.182
813.29	132.653
813.59	109.524
813.90	120.408
814.20	109.091
814.50	93.846
814.81	95.588
815.11	128.571
815.41	95.082
815.72	133.333
816.02	123.636
816.32	154.762
816.62	142.500
816.93	131.707
817.23	152.381
817.53	131.818
817.84	181.818
818.14	150.000
818.44	106.667
818.74	158.824
819.04	140.000
819.35	142.857
819.65	176.471
819.95	200.000
820.25	230.000
820.56	158.974
820.86	138.636
821.16	162.791
821.46	138.462
821.76	170.000
822.07	182.857
822.37	132.500
822.67	178.788
822.97	109.804
823.27	196.429
823.57	148.649
823.88	195.000
824.18	200.000
824.48	140.476
824.78	228.000
825.08	204.167
825.38	154.054
825.69	148.780
825.99	241.667
826.29	172.414
826.59	168.421
826.89	160.526
827.19	167.647
827.49	180.645
827.79	150.000
828.09	122.727
828.39	134.043
828.70	146.939
829.00	200.000
829.30	183.871
829.60	135.000
829.90	340.000
830.20	235.714
830.50	208.696
830.80	217.391
831.10	196.667
831.40	180.000
831.70	186.957
832.00	226.923
832.30	200.000
832.60	318.750
832.90	210.000
833.20	400.000
833.50	209.677
833.80	162.069
834.10	171.875
834.40	207.692
834.70	288.889
835.00	304.762
835.30	160.000
835.60	330.769
835.90	210.345
836.20	357.143
836.50	172.414
836.80	212.000
837.10	188.889
837.40	242.857
837.70	282.353
838.00	237.037
838.30	266.667
838.60	280.952
838.90	219.231
839.19	275.000
839.49	385.714
839.79	295.000
840.09	255.000
840.39	295.238
840.69	295.652
840.99	300.000
841.29	480.000
841.59	341.667
841.88	350.000
842.18	179.310
842.48	228.571
842.78	180.000
843.08	234.783
843.38	193.750
843.68	866.667
843.97	250.000
844.27	213.793
844.57	309.524
844.87	331.250
845.17	266.667
845.47	1433.333
845.76	455.556
846.06	311.765
846.36	512.500
846.66	392.857
846.96	275.000
847.25	418.182
847.55	436.364
847.85	260.870
848.15	460.000
848.44	350.000
848.74	283.333
849.04	382.353
849.34	480.000
849.63	284.211
849.93	463.636
850.23	1060.000
850.53	335.714
850.82	2650.000
851.12	-4600.000
851.42	4200.000
851.71	280.000
852.01	-866.667
852.31	254.167
852.61	1433.333
852.90	247.619
853.20	252.000
853.50	341.176
853.79	276.190
854.09	241.667
854.39	343.750
854.68	151.351
854.98	206.452
855.28	213.333
855.57	248.276
855.87	211.111
856.17	310.526
856.46	280.000
856.76	294.118
857.05	231.034
857.35	229.167
857.65	306.667
857.94	243.478
858.24	215.385
858.53	305.000
858.83	327.273
859.13	346.667
859.42	0.000
859.72	566.667
860.01	545.455
860.31	245.455
860.60	289.474
860.90	226.087
861.20	466.667
861.49	500.000
861.79	-5000.000
862.08	712.500
862.38	280.952
862.67	392.308
862.97	364.706
863.26	577.778
863.56	238.889
863.85	508.333
864.15	537.500
864.44	333.333
864.74	866.667
865.03	662.500
865.33	284.211
865.62	463.636
865.92	415.385
866.21	416.667
866.51	0.000
866.80	436.364
867.10	1300.000
867.39	461.538
867.69	445.455
867.98	284.211
868.27	554.545
868.57	315.789
868.86	-4100.000
869.16	343.750
869.45	2100.000
869.75	-4100.000
870.04	450.000
870.33	785.714
870.63	1250.000
870.92	2250.000
871.22	728.571
871.51	335.294
871.80	280.952
872.10	350.000
>>>>>End Processed Spectral Data<<<<<
