SpectraSuite Data File
++++++++++++++++++++++++++++++++++++
Date: Fri May 15 17:32:49 PDT 2015
User: schluterlab
Dark Spectrum Present: Yes
Reference Spectrum Present: Yes
Number of Sampled Component Spectra: 1
Spectrometers: USB2E3373
Integration Time (usec): 3000 (USB2E3373)
Spectra Averaged: 3 (USB2E3373)
Boxcar Smoothing: 0 (USB2E3373)
Correct for Electrical Dark: No (USB2E3373)
Strobe/Lamp Enabled: No (USB2E3373)
Correct for Detector Non-linearity: No (USB2E3373)
Correct for Stray Light: No (USB2E3373)
Number of Pixels in Processed Spectrum: 2048
>>>>>Begin Processed Spectral Data<<<<<
178.53	0.000
178.91	0.000
179.29	162.500
179.67	-350.000
180.04	-100.000
180.42	250.000
180.80	-300.000
181.18	-200.000
181.56	350.000
181.94	400.000
182.31	-600.000
182.69	-140.000
183.07	-133.333
183.45	-160.000
183.83	-50.000
184.20	-36.364
184.58	22.222
184.96	-175.000
185.34	133.333
185.72	150.000
186.09	130.769
186.47	-1300.000
186.85	116.667
187.23	122.222
187.61	800.000
187.98	-233.333
188.36	122.222
188.74	0.000
189.12	35.294
189.49	55.556
189.87	0.000
190.25	57.143
190.63	250.000
191.00	-166.667
191.38	63.158
191.76	250.000
192.14	-0.000
192.51	50.000
192.89	44.444
193.27	-42.857
193.65	33.333
194.02	27.273
194.40	90.000
194.78	-150.000
195.15	-33.333
195.53	-37.500
195.91	175.000
196.29	0.000
196.66	-0.000
197.04	85.714
197.42	-66.667
197.79	-500.000
198.17	-84.615
198.55	1300.000
198.92	33.333
199.30	-600.000
199.68	-140.000
200.05	-100.000
200.43	0.000
200.81	-66.667
201.18	100.000
201.56	800.000
201.94	100.000
202.31	-100.000
202.69	-40.000
203.07	25.000
203.44	100.000
203.82	0.000
204.19	78.571
204.57	-133.333
204.95	100.000
205.32	210.000
205.70	100.000
206.08	-125.000
206.45	66.667
206.83	85.714
207.20	-157.143
207.58	400.000
207.96	-133.333
208.33	-20.000
208.71	100.000
209.08	-100.000
209.46	-100.000
209.84	80.000
210.21	-1100.000
210.59	-57.143
210.96	83.333
211.34	0.000
211.71	100.000
212.09	-42.857
212.46	-800.000
212.84	0.000
213.22	170.000
213.59	150.000
213.97	76.923
214.34	63.636
214.72	0.000
215.09	150.000
215.47	46.154
215.84	9.091
216.22	-33.333
216.59	62.500
216.97	550.000
217.34	125.000
217.72	-100.000
218.09	175.000
218.47	200.000
218.84	400.000
219.22	-111.111
219.59	-140.000
219.97	-133.333
220.34	-25.000
220.72	0.000
221.09	-100.000
221.47	0.000
221.84	-450.000
222.22	-400.000
222.59	36.364
222.97	91.667
223.34	-166.667
223.72	-14.286
224.09	61.905
224.46	14.286
224.84	266.667
225.21	-40.000
225.59	33.333
225.96	-750.000
226.34	-0.000
226.71	-100.000
227.08	116.667
227.46	100.000
227.83	-200.000
228.21	77.778
228.58	72.727
228.95	50.000
229.33	10.000
229.70	6.250
230.08	75.000
230.45	-85.714
230.82	100.000
231.20	-26.667
231.57	14.286
231.95	-14.286
232.32	-100.000
232.69	28.571
233.07	366.667
233.44	40.000
233.81	-50.000
234.19	-11.111
234.56	0.000
234.93	-150.000
235.31	75.000
235.68	-100.000
236.05	0.000
236.43	40.000
236.80	0.000
237.17	46.875
237.55	40.000
237.92	40.741
238.29	19.444
238.67	43.333
239.04	23.529
239.41	14.634
239.79	13.333
240.16	48.780
240.53	18.421
240.91	21.739
241.28	25.397
241.65	41.071
242.02	42.466
242.40	26.667
242.77	37.288
243.14	22.727
243.51	16.250
243.89	22.989
244.26	20.690
244.63	29.762
245.00	29.897
245.38	19.588
245.75	17.978
246.12	25.862
246.49	31.405
246.87	24.038
247.24	23.529
247.61	20.175
247.98	21.138
248.36	20.625
248.73	26.316
249.10	24.026
249.47	24.684
249.84	26.797
250.22	23.529
250.59	29.412
250.96	28.638
251.33	25.581
251.70	25.882
252.08	25.888
252.45	28.713
252.82	29.146
253.19	30.876
253.56	24.299
253.94	30.180
254.31	28.261
254.68	25.877
255.05	24.016
255.42	32.314
255.79	27.413
256.16	27.237
256.54	29.104
256.91	28.517
257.28	26.766
257.65	25.843
258.02	23.050
258.39	31.650
258.76	28.938
259.14	29.236
259.51	26.861
259.88	27.491
260.25	25.817
260.62	29.167
260.99	29.153
261.36	27.740
261.73	23.101
262.10	29.483
262.47	25.767
262.85	26.959
263.22	28.308
263.59	25.857
263.96	28.571
264.33	26.667
264.70	27.381
265.07	31.250
265.44	30.028
265.81	23.729
266.18	27.049
266.55	27.763
266.92	31.088
267.29	29.243
267.66	29.668
268.03	26.963
268.40	27.676
268.77	27.273
269.14	27.098
269.51	28.278
269.88	26.434
270.25	25.765
270.62	24.390
270.99	28.389
271.36	25.917
271.73	26.995
272.10	26.034
272.47	26.714
272.84	27.228
273.21	30.394
273.58	25.542
273.95	26.316
274.32	25.635
274.69	24.887
275.06	29.241
275.43	26.077
275.80	26.932
276.17	26.207
276.54	23.769
276.91	26.974
277.28	25.764
277.65	25.207
278.02	26.596
278.39	27.133
278.76	28.302
279.13	20.954
279.50	26.471
279.87	27.862
280.23	25.376
280.60	26.121
280.97	29.091
281.34	22.115
281.71	27.310
282.08	23.926
282.45	22.896
282.82	23.552
283.19	27.273
283.56	24.085
283.92	26.186
284.29	21.923
284.66	23.256
285.03	25.933
285.40	25.520
285.77	25.308
286.14	24.910
286.51	25.461
286.87	23.949
287.24	26.888
287.61	23.104
287.98	24.386
288.35	22.184
288.72	23.292
289.08	22.222
289.45	23.726
289.82	22.378
290.19	22.355
290.56	22.470
290.93	21.380
291.29	21.726
291.66	23.780
292.03	21.212
292.40	20.968
292.77	19.298
293.13	19.805
293.50	20.030
293.87	21.527
294.24	21.175
294.60	21.759
294.97	20.238
295.34	19.018
295.71	19.523
296.08	19.133
296.44	20.341
296.81	20.000
297.18	18.406
297.55	20.867
297.91	17.534
298.28	18.074
298.65	18.318
299.02	17.925
299.38	19.289
299.75	17.931
300.12	17.408
300.48	17.523
300.85	19.265
301.22	17.013
301.59	16.579
301.95	19.241
302.32	18.029
302.69	18.532
303.05	17.327
303.42	18.804
303.79	18.692
304.15	18.519
304.52	15.458
304.89	17.427
305.25	18.402
305.62	16.219
305.99	16.959
306.35	16.879
306.72	16.085
307.09	17.560
307.45	16.992
307.82	16.667
308.19	16.725
308.55	15.049
308.92	17.647
309.29	17.654
309.65	14.639
310.02	16.502
310.38	15.038
310.75	15.519
311.12	15.931
311.48	16.013
311.85	14.346
312.22	16.139
312.58	15.924
312.95	16.115
313.31	15.735
313.68	16.859
314.05	14.082
314.41	15.876
314.78	14.742
315.14	15.827
315.51	15.424
315.87	16.598
316.24	16.481
316.61	16.240
316.97	15.873
317.34	15.234
317.70	15.870
318.07	15.769
318.43	15.784
318.80	15.057
319.16	15.918
319.53	16.809
319.89	15.945
320.26	15.081
320.62	16.148
320.99	13.466
321.35	15.416
321.72	16.096
322.08	15.710
322.45	16.244
322.81	16.306
323.18	15.309
323.54	16.602
323.91	15.871
324.27	15.039
324.64	15.449
325.00	15.785
325.37	17.355
325.73	14.687
326.10	16.258
326.46	16.502
326.83	16.273
327.19	16.303
327.56	17.289
327.92	16.285
328.29	15.625
328.65	16.509
329.01	16.544
329.38	16.037
329.74	14.542
330.11	17.238
330.47	16.234
330.84	14.423
331.20	16.065
331.56	15.370
331.93	17.260
332.29	16.132
332.66	15.023
333.02	15.985
333.38	15.490
333.75	15.201
334.11	14.772
334.48	16.591
334.84	16.758
335.20	15.645
335.57	15.141
335.93	15.899
336.29	15.470
336.66	14.078
337.02	15.335
337.38	15.185
337.75	15.364
338.11	15.690
338.47	16.697
338.84	14.972
339.20	15.814
339.56	14.312
339.93	14.951
340.29	16.972
340.65	15.860
341.02	15.780
341.38	15.398
341.74	15.106
342.11	15.251
342.47	14.591
342.83	15.484
343.20	14.895
343.56	16.000
343.92	14.969
344.28	16.225
344.65	16.062
345.01	15.298
345.37	14.886
345.73	15.314
346.10	16.135
346.46	15.896
346.82	14.566
347.19	14.048
347.55	14.954
347.91	15.210
348.27	13.824
348.63	15.417
349.00	14.684
349.36	14.713
349.72	15.837
350.08	14.344
350.45	14.605
350.81	15.449
351.17	14.007
351.53	15.673
351.89	14.864
352.26	15.200
352.62	15.161
352.98	14.618
353.34	14.976
353.70	14.968
354.07	15.323
354.43	14.492
354.79	14.451
355.15	15.159
355.51	14.953
355.87	14.159
356.24	13.703
356.60	14.228
356.96	13.968
357.32	13.898
357.68	15.012
358.04	14.863
358.40	13.666
358.77	15.152
359.13	14.011
359.49	14.022
359.85	14.197
360.21	14.274
360.57	15.226
360.93	14.750
361.29	12.613
361.66	15.282
362.02	14.848
362.38	14.775
362.74	14.156
363.10	14.748
363.46	13.862
363.82	15.026
364.18	14.096
364.54	13.897
364.90	13.047
365.26	14.338
365.62	14.526
365.98	14.296
366.35	14.348
366.71	14.265
367.07	14.006
367.43	14.091
367.79	13.710
368.15	14.501
368.51	14.494
368.87	13.281
369.23	14.224
369.59	13.921
369.95	14.443
370.31	14.234
370.67	14.627
371.03	12.771
371.39	14.077
371.75	14.286
372.11	14.836
372.47	14.275
372.83	14.194
373.19	13.766
373.55	13.574
373.91	14.111
374.27	13.820
374.63	14.573
374.99	13.262
375.35	14.067
375.71	13.636
376.07	13.272
376.42	13.537
376.78	14.094
377.14	13.812
377.50	13.878
377.86	13.454
378.22	13.848
378.58	13.718
378.94	12.917
379.30	13.288
379.66	13.918
380.02	13.366
380.38	13.573
380.74	14.423
381.09	13.681
381.45	12.966
381.81	13.634
382.17	13.769
382.53	13.741
382.89	14.187
383.25	13.317
383.61	13.841
383.97	13.651
384.32	13.571
384.68	13.622
385.04	12.745
385.40	13.068
385.76	14.214
386.12	13.583
386.48	14.176
386.83	13.507
387.19	13.919
387.55	14.366
387.91	14.364
388.27	13.553
388.62	14.349
388.98	13.505
389.34	14.741
389.70	13.735
390.06	13.531
390.42	13.536
390.77	13.800
391.13	12.989
391.49	13.583
391.85	13.840
392.20	14.313
392.56	13.795
392.92	14.151
393.28	13.325
393.64	13.574
393.99	14.232
394.35	13.725
394.71	14.815
395.07	13.074
395.42	13.054
395.78	13.681
396.14	14.880
396.50	13.887
396.85	13.973
397.21	14.035
397.57	13.542
397.92	14.020
398.28	14.195
398.64	13.012
399.00	14.108
399.35	13.375
399.71	14.015
400.07	14.148
400.42	14.382
400.78	13.472
401.14	13.430
401.49	13.639
401.85	13.589
402.21	13.795
402.57	14.500
402.92	13.990
403.28	13.910
403.63	13.934
403.99	14.668
404.35	14.553
404.70	14.345
405.06	14.395
405.42	14.232
405.77	13.248
406.13	13.329
406.49	14.091
406.84	14.670
407.20	14.509
407.55	13.393
407.91	13.436
408.27	13.448
408.62	14.831
408.98	13.247
409.34	14.126
409.69	14.406
410.05	13.116
410.40	12.407
410.76	15.259
411.11	13.375
411.47	14.333
411.83	13.999
412.18	13.964
412.54	13.983
412.89	14.163
413.25	13.899
413.60	13.665
413.96	13.926
414.31	14.146
414.67	13.598
415.03	14.248
415.38	13.381
415.74	13.811
416.09	14.566
416.45	13.910
416.80	14.673
417.16	13.605
417.51	13.924
417.87	13.625
418.22	13.795
418.58	13.043
418.93	14.608
419.29	12.612
419.64	13.221
420.00	14.987
420.35	13.910
420.71	14.581
421.06	13.628
421.42	14.123
421.77	14.740
422.12	13.394
422.48	14.239
422.83	14.095
423.19	14.278
423.54	13.286
423.90	14.134
424.25	13.949
424.61	13.953
424.96	14.518
425.31	15.194
425.67	13.908
426.02	14.782
426.38	13.525
426.73	14.588
427.09	14.494
427.44	13.706
427.79	14.437
428.15	14.806
428.50	13.022
428.85	13.514
429.21	14.488
429.56	14.340
429.92	14.278
430.27	14.937
430.62	13.800
430.98	13.163
431.33	14.826
431.68	13.658
432.04	14.254
432.39	14.318
432.74	13.710
433.10	14.655
433.45	13.501
433.80	14.452
434.16	13.629
434.51	14.032
434.86	14.111
435.22	14.246
435.57	14.598
435.92	14.192
436.28	14.252
436.63	14.261
436.98	14.021
437.34	13.188
437.69	14.490
438.04	13.618
438.39	13.867
438.75	13.479
439.10	14.431
439.45	14.729
439.81	14.067
440.16	14.608
440.51	14.567
440.86	15.106
441.22	14.197
441.57	14.294
441.92	14.533
442.27	14.800
442.63	15.418
442.98	13.728
443.33	14.302
443.68	14.271
444.03	14.655
444.39	14.412
444.74	14.214
445.09	14.477
445.44	13.504
445.79	15.936
446.15	14.593
446.50	14.365
446.85	14.506
447.20	14.546
447.55	14.900
447.91	14.608
448.26	14.855
448.61	14.508
448.96	14.056
449.31	14.220
449.66	14.692
450.02	14.261
450.37	13.989
450.72	14.777
451.07	14.241
451.42	14.607
451.77	14.647
452.12	14.474
452.47	13.973
452.83	14.841
453.18	14.674
453.53	15.171
453.88	14.511
454.23	14.259
454.58	15.239
454.93	14.691
455.28	13.778
455.63	14.445
455.98	15.033
456.34	14.049
456.69	15.184
457.04	14.619
457.39	14.945
457.74	14.933
458.09	14.185
458.44	13.634
458.79	13.501
459.14	14.989
459.49	15.164
459.84	14.664
460.19	14.806
460.54	15.403
460.89	15.000
461.24	14.348
461.59	14.786
461.94	14.654
462.29	15.862
462.64	15.150
462.99	15.166
463.34	13.978
463.69	13.835
464.04	16.404
464.39	14.312
464.74	13.988
465.09	14.410
465.44	14.599
465.79	14.229
466.14	14.538
466.49	13.974
466.84	13.742
467.19	14.018
467.54	14.687
467.89	14.277
468.24	13.929
468.59	15.556
468.94	14.349
469.29	14.689
469.64	14.354
469.99	14.856
470.34	13.720
470.68	13.721
471.03	14.154
471.38	14.194
471.73	14.706
472.08	14.450
472.43	14.362
472.78	13.228
473.13	14.354
473.48	14.528
473.83	14.695
474.17	14.249
474.52	15.316
474.87	14.727
475.22	14.643
475.57	14.342
475.92	14.920
476.27	15.250
476.61	14.931
476.96	13.553
477.31	14.981
477.66	14.438
478.01	14.318
478.36	14.052
478.70	14.954
479.05	14.615
479.40	15.156
479.75	14.651
480.10	15.207
480.45	14.550
480.79	14.854
481.14	14.703
481.49	14.187
481.84	14.672
482.19	14.500
482.53	14.436
482.88	14.224
483.23	14.060
483.58	14.387
483.92	14.134
484.27	15.087
484.62	14.299
484.97	14.386
485.31	14.270
485.66	13.971
486.01	13.966
486.36	13.587
486.70	14.036
487.05	14.273
487.40	14.142
487.75	14.676
488.09	14.400
488.44	14.546
488.79	14.830
489.13	14.864
489.48	14.280
489.83	14.395
490.17	14.472
490.52	14.319
490.87	14.623
491.22	14.374
491.56	14.374
491.91	14.818
492.26	14.536
492.60	14.827
492.95	14.855
493.30	14.021
493.64	14.096
493.99	15.072
494.34	14.612
494.68	13.857
495.03	14.063
495.37	14.622
495.72	14.690
496.07	14.732
496.41	14.434
496.76	13.542
497.11	14.020
497.45	14.558
497.80	14.783
498.14	14.357
498.49	14.119
498.84	14.571
499.18	14.859
499.53	15.129
499.87	14.105
500.22	14.194
500.56	14.322
500.91	14.859
501.26	13.742
501.60	14.019
501.95	14.993
502.29	14.722
502.64	14.575
502.98	14.455
503.33	14.217
503.67	14.313
504.02	14.321
504.36	14.250
504.71	14.899
505.06	14.595
505.40	14.569
505.75	14.278
506.09	14.952
506.44	14.887
506.78	15.000
507.13	15.202
507.47	13.838
507.82	13.675
508.16	14.263
508.51	14.586
508.85	14.390
509.19	13.571
509.54	14.584
509.88	14.509
510.23	14.201
510.57	15.339
510.92	13.859
511.26	14.184
511.61	14.246
511.95	14.137
512.30	14.191
512.64	16.082
512.98	14.935
513.33	14.773
513.67	13.872
514.02	15.217
514.36	14.571
514.70	15.618
515.05	14.806
515.39	14.699
515.74	14.551
516.08	14.345
516.42	14.841
516.77	15.038
517.11	15.074
517.46	14.961
517.80	14.958
518.14	14.636
518.49	15.385
518.83	14.945
519.17	14.433
519.52	14.683
519.86	13.986
520.20	14.459
520.55	14.447
520.89	15.370
521.23	14.376
521.58	14.826
521.92	14.295
522.26	15.094
522.61	14.610
522.95	15.497
523.29	14.612
523.64	14.740
523.98	14.452
524.32	14.433
524.66	15.429
525.01	15.649
525.35	15.100
525.69	14.747
526.04	15.212
526.38	15.564
526.72	14.127
527.06	14.851
527.41	15.303
527.75	14.477
528.09	13.688
528.43	16.003
528.78	14.653
529.12	14.387
529.46	14.425
529.80	14.883
530.15	15.578
530.49	14.882
530.83	13.885
531.17	14.775
531.51	15.458
531.86	14.684
532.20	15.031
532.54	14.636
532.88	15.195
533.22	14.315
533.57	14.810
533.91	14.164
534.25	14.909
534.59	15.138
534.93	14.286
535.27	14.467
535.62	14.906
535.96	15.851
536.30	15.172
536.64	15.713
536.98	14.216
537.32	15.718
537.66	15.217
538.01	15.874
538.35	14.840
538.69	15.313
539.03	14.969
539.37	15.478
539.71	14.110
540.05	15.139
540.39	14.958
540.73	15.132
541.07	15.677
541.42	16.129
541.76	15.141
542.10	15.210
542.44	15.080
542.78	13.627
543.12	14.835
543.46	14.743
543.80	14.434
544.14	13.284
544.48	15.390
544.82	15.448
545.16	15.164
545.50	14.286
545.84	15.297
546.18	15.887
546.52	15.789
546.86	15.313
547.20	14.807
547.54	14.346
547.88	14.742
548.22	15.056
548.56	14.446
548.90	15.836
549.24	15.014
549.58	14.104
549.92	14.653
550.26	14.945
550.60	15.985
550.94	14.638
551.28	14.683
551.62	16.538
551.96	15.263
552.30	14.401
552.64	14.386
552.98	14.909
553.32	14.622
553.66	14.514
554.00	14.088
554.34	14.771
554.68	15.413
555.02	15.551
555.36	14.361
555.69	14.359
556.03	14.989
556.37	14.733
556.71	14.874
557.05	14.914
557.39	14.275
557.73	15.067
558.07	14.932
558.41	14.395
558.75	15.199
559.08	14.578
559.42	13.889
559.76	15.212
560.10	13.991
560.44	13.999
560.78	15.175
561.12	14.739
561.45	15.390
561.79	15.336
562.13	15.827
562.47	14.676
562.81	15.202
563.15	16.008
563.48	15.205
563.82	15.168
564.16	15.738
564.50	14.595
564.84	15.127
565.17	14.621
565.51	15.574
565.85	15.295
566.19	14.191
566.52	15.013
566.86	14.974
567.20	14.819
567.54	14.355
567.88	14.470
568.21	15.441
568.55	14.185
568.89	14.630
569.23	14.588
569.56	14.448
569.90	14.901
570.24	14.477
570.57	14.509
570.91	14.395
571.25	13.548
571.59	14.263
571.92	14.370
572.26	13.949
572.60	14.357
572.93	14.340
573.27	14.201
573.61	14.260
573.95	13.900
574.28	14.010
574.62	13.603
574.96	13.762
575.29	13.781
575.63	13.864
575.97	13.744
576.30	13.691
576.64	13.642
576.98	13.848
577.31	13.566
577.65	14.083
577.98	13.652
578.32	13.889
578.66	13.540
578.99	13.875
579.33	13.490
579.67	13.803
580.00	14.203
580.34	13.881
580.67	13.749
581.01	14.073
581.35	13.717
581.68	13.836
582.02	13.195
582.35	13.612
582.69	14.102
583.02	13.651
583.36	13.745
583.70	14.382
584.03	14.373
584.37	14.370
584.70	14.148
585.04	13.912
585.37	13.980
585.71	13.577
586.04	13.944
586.38	13.657
586.72	14.290
587.05	13.894
587.39	14.062
587.72	14.571
588.06	13.950
588.39	14.269
588.73	14.133
589.06	14.188
589.40	14.449
589.73	14.567
590.07	14.841
590.40	14.899
590.73	15.239
591.07	14.122
591.40	14.114
591.74	15.023
592.07	14.750
592.41	14.488
592.74	14.337
593.08	14.356
593.41	14.069
593.75	13.641
594.08	13.869
594.41	14.410
594.75	13.435
595.08	14.226
595.42	13.949
595.75	14.044
596.09	14.621
596.42	13.973
596.75	14.920
597.09	14.715
597.42	14.905
597.75	14.155
598.09	14.396
598.42	13.989
598.76	13.985
599.09	13.742
599.42	13.755
599.76	14.146
600.09	13.612
600.42	13.836
600.76	13.856
601.09	13.817
601.42	14.023
601.76	13.458
602.09	14.191
602.42	14.153
602.76	14.728
603.09	14.618
603.42	14.298
603.76	13.669
604.09	13.852
604.42	14.594
604.76	14.998
605.09	14.671
605.42	14.041
605.75	13.923
606.09	14.480
606.42	14.429
606.75	13.810
607.09	14.813
607.42	14.178
607.75	13.810
608.08	14.465
608.42	13.705
608.75	14.458
609.08	14.051
609.41	14.721
609.75	14.718
610.08	14.578
610.41	13.188
610.74	14.091
611.07	14.005
611.41	14.011
611.74	14.712
612.07	14.186
612.40	14.059
612.73	14.633
613.07	14.061
613.40	15.208
613.73	14.214
614.06	15.025
614.39	14.495
614.72	14.118
615.06	14.804
615.39	14.138
615.72	14.478
616.05	14.134
616.38	14.359
616.71	14.251
617.05	14.453
617.38	14.582
617.71	14.277
618.04	14.413
618.37	14.943
618.70	15.050
619.03	15.417
619.36	14.544
619.69	15.011
620.03	16.070
620.36	15.308
620.69	13.847
621.02	14.679
621.35	15.353
621.68	14.966
622.01	14.333
622.34	15.483
622.67	14.669
623.00	14.855
623.33	14.558
623.66	14.286
623.99	15.734
624.32	15.665
624.65	13.985
624.99	14.597
625.32	14.177
625.65	15.789
625.98	15.149
626.31	14.464
626.64	14.645
626.97	15.794
627.30	15.236
627.63	16.118
627.96	15.094
628.29	14.431
628.62	15.733
628.95	15.331
629.28	15.323
629.61	14.257
629.94	15.640
630.26	15.316
630.59	15.297
630.92	16.000
631.25	15.590
631.58	15.308
631.91	14.583
632.24	15.711
632.57	17.386
632.90	15.896
633.23	15.059
633.56	14.484
633.89	16.769
634.22	15.309
634.55	14.485
634.88	15.453
635.20	14.615
635.53	15.067
635.86	14.174
636.19	15.783
636.52	14.796
636.85	15.136
637.18	14.969
637.51	14.591
637.83	15.375
638.16	16.644
638.49	14.441
638.82	17.237
639.15	14.790
639.48	15.406
639.81	16.318
640.13	17.316
640.46	15.160
640.79	15.611
641.12	15.657
641.45	15.315
641.77	17.926
642.10	17.536
642.43	14.630
642.76	17.162
643.09	16.478
643.41	15.696
643.74	14.333
644.07	14.778
644.40	17.905
644.73	17.163
645.05	17.282
645.38	16.931
645.71	14.716
646.04	17.235
646.36	16.135
646.69	17.986
647.02	15.690
647.35	15.858
647.67	16.088
648.00	18.097
648.33	19.113
648.66	15.763
648.98	14.238
649.31	12.893
649.64	13.501
649.96	13.290
650.29	14.991
650.62	16.068
650.94	14.815
651.27	14.525
651.60	16.396
651.92	15.210
652.25	14.387
652.58	16.000
652.90	16.981
653.23	16.639
653.56	13.367
653.88	15.292
654.21	13.660
654.54	15.450
654.86	16.638
655.19	14.327
655.52	14.628
655.84	12.810
656.17	14.051
656.49	19.594
656.82	20.596
657.15	16.103
657.47	12.265
657.80	9.015
658.13	8.893
658.45	14.362
658.78	14.700
659.10	14.899
659.43	14.973
659.75	15.738
660.08	15.931
660.41	16.139
660.73	17.265
661.06	17.504
661.38	14.481
661.71	14.990
662.03	17.167
662.36	18.242
662.68	15.265
663.01	17.031
663.33	12.761
663.66	14.186
663.98	14.419
664.31	15.139
664.63	14.286
664.96	12.826
665.28	15.011
665.61	16.883
665.93	15.000
666.26	17.787
666.58	13.647
666.91	16.941
667.23	19.340
667.56	15.640
667.88	14.868
668.21	15.036
668.53	17.258
668.86	18.868
669.18	16.509
669.50	15.738
669.83	15.116
670.15	16.783
670.48	16.746
670.80	15.899
671.13	16.331
671.45	13.927
671.77	18.670
672.10	16.436
672.42	12.547
672.75	15.986
673.07	18.962
673.39	18.165
673.72	14.398
674.04	14.375
674.37	15.466
674.69	16.702
675.01	17.111
675.34	16.441
675.66	15.278
675.98	16.630
676.31	16.972
676.63	14.014
676.95	14.773
677.28	15.765
677.60	17.349
677.92	16.055
678.25	14.442
678.57	13.853
678.89	17.227
679.22	13.870
679.54	16.265
679.86	14.314
680.18	16.699
680.51	14.962
680.83	12.525
681.15	16.200
681.48	17.213
681.80	16.529
682.12	15.927
682.44	12.552
682.77	18.543
683.09	16.247
683.41	13.636
683.73	16.359
684.06	16.814
684.38	12.903
684.70	14.815
685.02	17.012
685.34	13.043
685.67	14.634
685.99	16.275
686.31	16.814
686.63	17.254
686.96	14.449
687.28	15.758
687.60	15.019
687.92	15.152
688.24	14.919
688.56	16.594
688.89	17.634
689.21	18.000
689.53	13.689
689.85	15.814
690.17	16.741
690.49	14.421
690.82	13.107
691.14	11.429
691.46	15.654
691.78	12.613
692.10	16.344
692.42	13.853
692.74	18.376
693.06	14.865
693.39	14.480
693.71	13.575
694.03	15.935
694.35	14.252
694.67	14.141
694.99	15.144
695.31	18.016
695.63	17.750
695.95	14.141
696.27	14.767
696.59	14.722
696.91	13.445
697.23	13.111
697.56	16.584
697.88	15.484
698.20	18.907
698.52	12.941
698.84	15.072
699.16	12.500
699.48	14.286
699.80	15.385
700.12	13.208
700.44	16.527
700.76	16.570
701.08	13.030
701.40	16.566
701.72	19.753
702.04	11.221
702.36	17.726
702.68	15.916
703.00	14.242
703.32	13.196
703.64	12.147
703.96	15.072
704.28	15.951
704.60	14.921
704.91	13.249
705.23	15.947
705.55	16.961
705.87	17.329
706.19	16.667
706.51	13.746
706.83	16.077
707.15	16.822
707.47	15.686
707.79	11.979
708.11	18.250
708.43	14.500
708.74	16.537
709.06	16.620
709.38	13.456
709.70	13.905
710.02	17.516
710.34	16.409
710.66	13.141
710.98	14.238
711.29	18.033
711.61	11.525
711.93	13.681
712.25	17.869
712.57	14.652
712.89	14.925
713.20	12.457
713.52	16.725
713.84	15.017
714.16	14.433
714.48	15.806
714.80	16.987
715.11	20.365
715.43	14.420
715.75	11.667
716.07	15.282
716.39	14.094
716.70	15.129
717.02	11.450
717.34	16.599
717.66	12.832
717.97	15.217
718.29	21.339
718.61	17.323
718.93	10.078
719.24	13.688
719.56	11.245
719.88	17.526
720.20	15.909
720.51	17.625
720.83	15.444
721.15	15.546
721.46	14.919
721.78	9.486
722.10	14.498
722.42	9.959
722.73	15.510
723.05	21.633
723.37	22.881
723.68	18.018
724.00	17.521
724.32	14.222
724.63	4.545
724.95	19.651
725.27	15.668
725.58	17.373
725.90	13.492
726.22	14.286
726.53	17.966
726.85	14.981
727.16	19.623
727.48	10.526
727.80	19.028
728.11	13.983
728.43	14.510
728.74	14.919
729.06	15.600
729.38	19.925
729.69	10.757
730.01	10.000
730.32	16.418
730.64	16.961
730.96	15.094
731.27	15.667
731.59	14.915
731.90	14.968
732.22	18.612
732.53	14.286
732.85	18.085
733.16	15.825
733.48	10.072
733.80	18.116
734.11	15.593
734.43	11.684
734.74	12.727
735.06	14.658
735.37	18.429
735.69	16.162
736.00	13.240
736.32	14.094
736.63	15.845
736.95	16.382
737.26	18.149
737.58	13.423
737.89	13.919
738.21	16.541
738.52	15.638
738.83	15.721
739.15	12.664
739.46	12.598
739.78	11.722
740.09	14.706
740.41	17.391
740.72	12.992
741.04	14.575
741.35	8.511
741.66	13.270
741.98	14.286
742.29	14.851
742.61	13.613
742.92	10.427
743.23	6.019
743.55	16.290
743.86	13.876
744.18	16.746
744.49	13.830
744.80	7.065
745.12	19.251
745.43	13.171
745.74	17.188
746.06	20.000
746.37	10.471
746.68	14.692
747.00	10.638
747.31	22.886
747.62	13.592
747.94	17.225
748.25	12.376
748.56	18.579
748.88	15.183
749.19	18.085
749.50	16.749
749.82	10.377
750.13	12.844
750.44	17.293
750.75	14.925
751.07	19.343
751.38	16.092
751.69	7.843
752.01	16.667
752.32	16.733
752.63	16.996
752.94	14.655
753.26	20.502
753.57	12.670
753.88	16.814
754.19	14.167
754.51	14.876
754.82	12.146
755.13	16.667
755.44	16.532
755.75	19.141
756.07	11.284
756.38	13.585
756.69	9.195
757.00	13.333
757.31	12.418
757.63	11.890
757.94	15.833
758.25	14.247
758.56	10.638
758.87	11.048
759.18	13.396
759.50	13.455
759.81	13.043
760.12	15.806
760.43	13.939
760.74	16.667
761.05	13.846
761.36	13.068
761.67	16.970
761.99	15.646
762.30	13.818
762.61	18.577
762.92	11.312
763.23	17.568
763.54	13.551
763.85	16.525
764.16	15.353
764.47	12.097
764.78	12.088
765.10	14.815
765.41	13.565
765.72	14.603
766.03	13.534
766.34	11.679
766.65	19.920
766.96	13.636
767.27	13.298
767.58	17.816
767.89	13.475
768.20	11.364
768.51	12.637
768.82	19.704
769.13	10.138
769.44	14.592
769.75	12.329
770.06	22.414
770.37	14.423
770.68	12.690
770.99	15.837
771.30	14.706
771.61	13.122
771.92	15.086
772.23	17.241
772.54	15.591
772.85	9.877
773.16	14.607
773.47	19.608
773.78	20.261
774.09	13.174
774.39	12.667
774.70	8.280
775.01	20.000
775.32	12.143
775.63	0.826
775.94	16.794
776.25	13.386
776.56	11.667
776.87	15.385
777.18	11.111
777.48	16.379
777.79	10.435
778.10	7.619
778.41	12.613
778.72	14.286
779.03	12.782
779.34	19.858
779.65	20.548
779.95	18.493
780.26	12.414
780.57	4.878
780.88	11.024
781.19	16.379
781.50	20.155
781.80	17.751
782.11	6.918
782.42	14.615
782.73	10.791
783.04	15.556
783.34	13.194
783.65	8.547
783.96	11.475
784.27	19.310
784.57	17.886
784.88	17.969
785.19	22.000
785.50	23.000
785.81	24.138
786.11	10.345
786.42	5.825
786.73	21.818
787.04	12.245
787.34	13.393
787.65	13.333
787.96	13.274
788.26	8.182
788.57	11.966
788.88	17.969
789.19	18.254
789.49	14.783
789.80	16.327
790.11	13.131
790.41	23.636
790.72	11.957
791.03	17.045
791.33	25.000
791.64	22.500
791.95	18.605
792.25	21.277
792.56	25.843
792.87	9.589
793.17	17.391
793.48	6.667
793.79	6.250
794.09	7.500
794.40	13.208
794.70	15.534
795.01	5.691
795.32	18.803
795.62	11.429
795.93	10.784
796.23	25.472
796.54	20.833
796.85	27.941
797.15	14.085
797.46	30.556
797.76	24.242
798.07	11.628
798.37	5.263
798.68	7.576
798.99	11.111
799.29	27.143
799.60	10.145
799.90	16.000
800.21	14.754
800.51	18.462
800.82	6.780
801.12	24.638
801.43	19.672
801.73	33.333
802.04	30.000
802.34	14.925
802.65	15.385
802.95	-8.929
803.26	0.000
803.56	13.725
803.87	-8.696
804.17	26.667
804.48	12.698
804.78	7.407
805.09	19.565
805.39	11.111
805.70	20.370
806.00	-7.018
806.30	25.352
806.61	20.000
806.91	-1.389
807.22	18.421
807.52	10.667
807.83	-9.091
808.13	11.111
808.43	17.647
808.74	11.940
809.04	8.475
809.35	11.538
809.65	15.625
809.95	-24.324
810.26	2.273
810.56	12.329
810.86	21.429
811.17	-2.000
811.47	24.490
811.77	18.421
812.08	11.364
812.38	22.642
812.69	17.500
812.99	6.061
813.29	13.158
813.59	17.143
813.90	15.909
814.20	5.128
814.50	17.308
814.81	35.849
815.11	6.383
815.41	15.254
815.72	7.143
816.02	25.490
816.32	10.417
816.62	14.634
816.93	8.108
817.23	8.571
817.53	18.750
817.84	10.870
818.14	13.462
818.44	5.263
818.74	13.043
819.04	17.500
819.35	29.730
819.65	-14.706
819.95	2.778
820.25	23.810
820.56	35.000
820.86	17.241
821.16	37.500
821.46	17.021
821.76	42.500
822.07	-9.302
822.37	-10.811
822.67	-21.875
822.97	23.810
823.27	25.000
823.57	20.000
823.88	-37.037
824.18	7.143
824.48	17.647
824.78	6.452
825.08	-26.087
825.38	-6.061
825.69	-12.500
825.99	5.263
826.29	13.889
826.59	13.333
826.89	19.048
827.19	17.391
827.49	12.500
827.79	25.714
828.09	17.857
828.39	33.333
828.70	54.054
829.00	35.714
829.30	-9.524
829.60	6.667
829.90	3.125
830.20	-13.158
830.50	0.000
830.80	13.043
831.10	40.909
831.40	30.303
831.70	25.806
832.00	33.333
832.30	4.762
832.60	-16.667
832.90	10.345
833.20	-20.000
833.50	33.333
833.80	14.815
834.10	3.846
834.40	-3.125
834.70	-77.778
835.00	-52.632
835.30	23.077
835.60	86.667
835.90	16.129
836.20	27.273
836.50	32.143
836.80	-19.231
837.10	-3.571
837.40	-433.333
837.70	27.273
838.00	-54.545
838.30	17.391
838.60	53.846
838.90	13.636
839.19	14.286
839.49	36.667
839.79	46.154
840.09	-100.000
840.39	10.714
840.69	7.143
840.99	3.846
841.29	0.000
841.59	-50.000
841.88	-9.091
842.18	20.000
842.48	56.250
842.78	-26.667
843.08	33.333
843.38	-40.000
843.68	30.435
843.97	73.333
844.27	-46.667
844.57	5.000
844.87	27.778
845.17	0.000
845.47	66.667
845.76	-9.524
846.06	58.824
846.36	20.000
846.66	-50.000
846.96	66.667
847.25	12.500
847.55	28.571
847.85	50.000
848.15	-4.545
848.44	-433.333
848.74	-5.000
849.04	48.148
849.34	27.273
849.63	-183.333
849.93	-180.000
850.23	50.000
850.53	60.000
850.82	-15.385
851.12	-77.778
851.42	26.667
851.71	42.308
852.01	-78.571
852.31	0.000
852.61	-90.909
852.90	-5.000
853.20	73.684
853.50	8.333
853.79	47.826
854.09	33.333
854.39	5.263
854.68	25.000
854.98	38.710
855.28	61.538
855.57	10.000
855.87	72.222
856.17	25.926
856.46	-7.143
856.76	46.667
857.05	111.111
857.35	4.000
857.65	33.333
857.94	-15.385
858.24	27.586
858.53	0.000
858.83	40.741
859.13	31.818
859.42	-39.130
859.72	-25.000
860.01	-300.000
860.31	28.000
860.60	9.524
860.90	-266.667
861.20	-60.000
861.49	-400.000
861.79	-33.333
862.08	30.000
862.38	106.667
862.67	-160.000
862.97	-150.000
863.26	25.000
863.56	11.111
863.85	-700.000
864.15	0.000
864.44	20.000
864.74	78.571
865.03	100.000
865.33	-320.000
865.62	33.333
865.92	41.667
866.21	-183.333
866.51	50.000
866.80	-45.455
867.10	-200.000
867.39	33.333
867.69	0.000
867.98	15.385
868.27	-366.667
868.57	-73.333
868.86	33.333
869.16	-7.692
869.45	73.333
869.75	-600.000
870.04	0.000
870.33	57.143
870.63	9.524
870.92	333.333
871.22	-100.000
871.51	-600.000
871.80	88.889
872.10	633.333
>>>>>End Processed Spectral Data<<<<<
