SpectraSuite Data File
++++++++++++++++++++++++++++++++++++
Date: Fri May 15 20:10:29 PDT 2015
User: schluterlab
Dark Spectrum Present: Yes
Reference Spectrum Present: Yes
Number of Sampled Component Spectra: 1
Spectrometers: USB2E3373
Integration Time (usec): 3000 (USB2E3373)
Spectra Averaged: 3 (USB2E3373)
Boxcar Smoothing: 0 (USB2E3373)
Correct for Electrical Dark: No (USB2E3373)
Strobe/Lamp Enabled: No (USB2E3373)
Correct for Detector Non-linearity: No (USB2E3373)
Correct for Stray Light: No (USB2E3373)
Number of Pixels in Processed Spectrum: 2048
>>>>>Begin Processed Spectral Data<<<<<
178.53	0.000
178.91	0.000
179.29	25.000
179.67	-300.000
180.04	-114.286
180.42	150.000
180.80	-100.000
181.18	-33.333
181.56	250.000
181.94	200.000
182.31	-800.000
182.69	100.000
183.07	-333.333
183.45	-80.000
183.83	-0.000
184.20	-54.545
184.58	55.556
184.96	-175.000
185.34	-66.667
185.72	250.000
186.09	15.385
186.47	-900.000
186.85	100.000
187.23	88.889
187.61	600.000
187.98	-133.333
188.36	22.222
188.74	333.333
189.12	-23.529
189.49	50.000
189.87	0.000
190.25	100.000
190.63	50.000
191.00	0.000
191.38	31.579
191.76	400.000
192.14	50.000
192.51	250.000
192.89	-11.111
193.27	-128.571
193.65	200.000
194.02	118.182
194.40	-10.000
194.78	-62.500
195.15	116.667
195.53	-62.500
195.91	75.000
196.29	75.000
196.66	53.846
197.04	185.714
197.42	-55.556
197.79	-133.333
198.17	-107.692
198.55	1600.000
198.92	-166.667
199.30	-300.000
199.68	-160.000
200.05	200.000
200.43	0.000
200.81	300.000
201.18	-166.667
201.56	600.000
201.94	-400.000
202.31	-200.000
202.69	-20.000
203.07	450.000
203.44	800.000
203.82	0.000
204.19	57.143
204.57	-33.333
204.95	100.000
205.32	110.000
205.70	0.000
206.08	150.000
206.45	277.778
206.83	42.857
207.20	-57.143
207.58	300.000
207.96	-333.333
208.33	-140.000
208.71	-50.000
209.08	-116.667
209.46	-400.000
209.84	0.000
210.21	-600.000
210.59	71.429
210.96	-50.000
211.34	50.000
211.71	86.667
212.09	-100.000
212.46	-700.000
212.84	0.000
213.22	100.000
213.59	250.000
213.97	100.000
214.34	36.364
214.72	-50.000
215.09	75.000
215.47	-15.385
215.84	18.182
216.22	400.000
216.59	-87.500
216.97	300.000
217.34	-25.000
217.72	-200.000
218.09	150.000
218.47	150.000
218.84	-300.000
219.22	-33.333
219.59	120.000
219.97	33.333
220.34	75.000
220.72	-14.286
221.09	125.000
221.47	450.000
221.84	-850.000
222.22	-600.000
222.59	72.727
222.97	-75.000
223.34	-133.333
223.72	7.143
224.09	57.143
224.46	42.857
224.84	166.667
225.21	10.000
225.59	26.667
225.96	300.000
226.34	125.000
226.71	-28.571
227.08	50.000
227.46	-62.500
227.83	100.000
228.21	-77.778
228.58	18.182
228.95	-25.000
229.33	60.000
229.70	50.000
230.08	12.500
230.45	-42.857
230.82	-28.571
231.20	40.000
231.57	28.571
231.95	28.571
232.32	-30.000
232.69	64.286
233.07	266.667
233.44	320.000
233.81	50.000
234.19	88.889
234.56	47.059
234.93	150.000
235.31	525.000
235.68	-160.000
236.05	-30.769
236.43	-10.000
236.80	58.824
237.17	43.750
237.55	45.000
237.92	40.741
238.29	30.556
238.67	73.333
239.04	58.824
239.41	12.195
239.79	33.333
240.16	60.976
240.53	47.368
240.91	30.435
241.28	47.619
241.65	58.929
242.02	68.493
242.40	51.667
242.77	49.153
243.14	50.000
243.51	63.750
243.89	60.920
244.26	43.678
244.63	64.286
245.00	48.454
245.38	56.701
245.75	50.562
246.12	51.724
246.49	51.240
246.87	52.885
247.24	47.059
247.61	61.404
247.98	66.667
248.36	46.875
248.73	56.579
249.10	53.896
249.47	62.025
249.84	54.902
250.22	51.765
250.59	62.092
250.96	54.930
251.33	54.651
251.70	58.235
252.08	57.360
252.45	51.980
252.82	55.276
253.19	56.682
253.56	55.607
253.94	58.559
254.31	55.217
254.68	63.158
255.05	56.299
255.42	54.585
255.79	54.826
256.16	56.031
256.54	59.328
256.91	54.753
257.28	52.416
257.65	55.056
258.02	56.383
258.39	53.199
258.76	56.044
259.14	50.498
259.51	53.398
259.88	56.014
260.25	55.229
260.62	57.986
260.99	54.237
261.36	54.110
261.73	52.848
262.10	52.280
262.47	55.521
262.85	57.367
263.22	53.846
263.59	54.829
263.96	57.143
264.33	53.939
264.70	58.929
265.07	51.786
265.44	55.241
265.81	55.367
266.18	58.197
266.55	55.270
266.92	53.109
267.29	52.480
267.66	54.987
268.03	54.450
268.40	54.308
268.77	60.428
269.14	52.518
269.51	56.555
269.88	52.120
270.25	53.571
270.62	51.220
270.99	53.453
271.36	54.523
271.73	56.808
272.10	55.718
272.47	56.265
272.84	51.980
273.21	51.972
273.58	54.458
273.95	53.318
274.32	51.963
274.69	50.905
275.06	54.911
275.43	53.288
275.80	49.448
276.17	53.103
276.54	47.966
276.91	52.851
277.28	50.437
277.65	50.413
278.02	51.064
278.39	52.298
278.76	51.363
279.13	50.000
279.50	51.471
279.87	51.836
280.23	49.677
280.60	50.292
280.97	49.495
281.34	48.654
281.71	51.540
282.08	52.556
282.45	50.489
282.82	48.456
283.19	51.644
283.56	49.711
283.92	52.372
284.29	48.462
284.66	49.225
285.03	49.509
285.40	48.771
285.77	48.155
286.14	48.014
286.51	51.845
286.87	47.715
287.24	49.355
287.61	50.088
287.98	46.491
288.35	46.794
288.72	47.110
289.08	44.792
289.45	46.573
289.82	45.979
290.19	46.075
290.56	45.283
290.93	44.613
291.29	43.606
291.66	43.465
292.03	43.700
292.40	44.194
292.77	41.627
293.13	40.422
293.50	39.150
293.87	41.069
294.24	42.813
294.60	41.282
294.97	41.667
295.34	41.718
295.71	40.089
296.08	39.163
296.44	38.834
296.81	36.806
297.18	39.565
297.55	38.753
297.91	39.178
298.28	39.182
298.65	36.228
299.02	36.658
299.38	37.756
299.75	37.517
300.12	37.958
300.48	37.418
300.85	37.262
301.22	36.883
301.59	38.026
301.95	37.089
302.32	38.003
302.69	35.448
303.05	37.252
303.42	36.364
303.79	34.813
304.15	35.842
304.52	35.910
304.89	35.673
305.25	36.441
305.62	33.956
305.99	33.684
306.35	34.451
306.72	33.858
307.09	35.576
307.45	35.821
307.82	34.375
308.19	36.469
308.55	35.005
308.92	35.948
309.29	36.760
309.65	34.769
310.02	34.653
310.38	34.248
310.75	36.393
311.12	34.015
311.48	34.358
311.85	35.393
312.22	34.494
312.58	35.456
312.95	33.511
313.31	35.818
313.68	34.555
314.05	35.816
314.41	35.258
314.78	35.052
315.14	36.074
315.51	36.542
315.87	35.451
316.24	36.400
316.61	34.646
316.97	34.226
317.34	35.645
317.70	35.373
318.07	35.192
318.43	36.667
318.80	34.943
319.16	37.598
319.53	36.182
319.89	35.531
320.26	36.235
320.62	36.610
320.99	35.177
321.35	36.280
321.72	35.826
322.08	34.542
322.45	37.360
322.81	37.525
323.18	37.782
323.54	35.714
323.91	38.072
324.27	38.086
324.64	37.172
325.00	37.135
325.37	39.578
325.73	38.531
326.10	38.874
326.46	39.372
326.83	39.545
327.19	39.669
327.56	40.487
327.92	43.134
328.29	40.357
328.65	42.075
329.01	42.004
329.38	41.843
329.74	43.532
330.11	43.652
330.47	41.744
330.84	43.750
331.20	44.392
331.56	41.852
331.93	43.836
332.29	44.638
332.66	43.620
333.02	42.937
333.38	43.446
333.75	45.055
334.11	44.315
334.48	43.427
334.84	44.597
335.20	44.282
335.57	44.515
335.93	44.986
336.29	44.659
336.66	45.050
337.02	43.866
337.38	43.426
337.75	45.091
338.11	45.537
338.47	44.799
338.84	45.102
339.20	45.521
339.56	46.055
339.93	44.763
340.29	44.679
340.65	46.416
341.02	44.681
341.38	44.602
341.74	45.848
342.11	44.281
342.47	45.996
342.83	46.713
343.20	44.164
343.56	45.739
343.92	45.527
344.28	46.541
344.65	44.214
345.01	44.944
345.37	45.837
345.73	45.607
346.10	47.541
346.46	45.753
346.82	44.926
347.19	44.555
347.55	45.865
347.91	45.955
348.27	44.705
348.63	46.508
349.00	46.267
349.36	45.553
349.72	46.103
350.08	45.984
350.45	46.449
350.81	45.432
351.17	45.847
351.53	46.939
351.89	47.564
352.26	45.840
352.62	46.855
352.98	45.060
353.34	46.055
353.70	46.359
354.07	45.806
354.43	46.437
354.79	47.481
355.15	47.857
355.51	48.655
355.87	45.793
356.24	46.330
356.60	46.807
356.96	46.905
357.32	46.725
357.68	45.113
358.04	47.011
358.40	46.141
358.77	47.767
359.13	47.638
359.49	46.610
359.85	46.568
360.21	47.528
360.57	46.442
360.93	46.747
361.29	46.903
361.66	47.727
362.02	47.045
362.38	47.906
362.74	48.145
363.10	47.705
363.46	46.924
363.82	48.310
364.18	47.159
364.54	47.574
364.90	47.097
365.26	47.598
365.62	49.270
365.98	48.900
366.35	48.143
366.71	49.372
367.07	47.968
367.43	49.101
367.79	48.693
368.15	48.313
368.51	50.328
368.87	47.810
369.23	49.386
369.59	49.344
369.95	49.340
370.31	51.084
370.67	49.104
371.03	48.245
371.39	50.036
371.75	49.011
372.11	49.215
372.47	50.370
372.83	50.674
373.19	49.215
373.55	49.097
373.91	49.316
374.27	50.532
374.63	50.610
374.99	49.645
375.35	50.766
375.71	50.140
376.07	50.983
376.42	51.361
376.78	51.879
377.14	49.289
377.50	50.000
377.86	50.937
378.22	50.032
378.58	51.346
378.94	51.481
379.30	51.341
379.66	52.790
380.02	51.625
380.38	51.309
380.74	51.346
381.09	51.779
381.45	51.560
381.81	51.943
382.17	52.411
382.53	52.092
382.89	53.861
383.25	53.205
383.61	53.049
383.97	52.571
384.32	51.782
384.68	53.003
385.04	52.757
385.40	53.080
385.76	55.535
386.12	54.592
386.48	55.236
386.83	54.027
387.19	54.151
387.55	54.956
387.91	54.462
388.27	53.663
388.62	55.947
388.98	54.635
389.34	55.715
389.70	55.252
390.06	52.989
390.42	54.858
390.77	56.704
391.13	53.783
391.49	56.468
391.85	56.075
392.20	55.179
392.56	56.453
392.92	55.255
393.28	56.132
393.64	56.396
393.99	57.116
394.35	56.420
394.71	56.833
395.07	55.625
395.42	56.406
395.78	57.720
396.14	55.990
396.50	56.627
396.85	56.407
397.21	56.454
397.57	55.611
397.92	56.441
398.28	57.011
398.64	56.084
399.00	56.264
399.35	55.530
399.71	56.002
400.07	56.409
400.42	56.181
400.78	57.563
401.14	56.443
401.49	57.772
401.85	55.515
402.21	56.506
402.57	56.562
402.92	56.148
403.28	57.644
403.63	57.818
403.99	56.505
404.35	58.588
404.70	55.536
405.06	56.228
405.42	56.308
405.77	56.188
406.13	55.704
406.49	56.720
406.84	58.130
407.20	57.797
407.55	56.343
407.91	55.749
408.27	56.979
408.62	56.985
408.98	56.069
409.34	56.506
409.69	56.266
410.05	56.096
410.40	57.284
410.76	55.609
411.11	57.125
411.47	56.082
411.83	54.112
412.18	57.658
412.54	55.743
412.89	55.973
413.25	56.859
413.60	56.522
413.96	56.012
414.31	55.366
414.67	56.062
415.03	56.258
415.38	56.332
415.74	56.352
416.09	57.348
416.45	56.718
416.80	55.321
417.16	56.768
417.51	56.629
417.87	56.389
418.22	56.930
418.58	57.659
418.93	56.803
419.29	55.506
419.64	56.384
420.00	58.501
420.35	56.478
420.71	57.898
421.06	56.599
421.42	56.851
421.77	57.630
422.12	57.378
422.48	57.445
422.83	55.800
423.19	56.998
423.54	57.084
423.90	55.948
424.25	57.118
424.61	57.589
424.96	56.562
425.31	58.521
425.67	56.925
426.02	57.420
426.38	58.046
426.73	57.567
427.09	57.468
427.44	56.824
427.79	57.101
428.15	56.432
428.50	56.935
428.85	55.958
429.21	57.329
429.56	58.329
429.92	56.549
430.27	56.241
430.62	57.344
430.98	57.484
431.33	58.149
431.68	55.730
432.04	57.127
432.39	55.904
432.74	55.382
433.10	56.207
433.45	57.228
433.80	57.632
434.16	56.676
434.51	56.505
434.86	56.098
435.22	56.590
435.57	57.767
435.92	57.246
436.28	55.754
436.63	57.444
436.98	56.663
437.34	56.745
437.69	57.543
438.04	56.353
438.39	56.078
438.75	57.377
439.10	56.537
439.45	56.360
439.81	55.963
440.16	56.888
440.51	57.672
440.86	58.429
441.22	55.882
441.57	57.064
441.92	57.188
442.27	57.483
442.63	57.173
442.98	57.381
443.33	55.648
443.68	56.923
444.03	56.483
444.39	56.960
444.74	58.305
445.09	57.906
445.44	58.120
445.79	58.484
446.15	56.938
446.50	56.184
446.85	57.226
447.20	56.204
447.55	57.254
447.91	56.458
448.26	56.346
448.61	57.283
448.96	57.430
449.31	56.705
449.66	55.575
450.02	56.303
450.37	56.313
450.72	56.300
451.07	56.835
451.42	55.181
451.77	56.118
452.12	54.785
452.47	56.214
452.83	55.241
453.18	55.598
453.53	56.827
453.88	56.406
454.23	55.009
454.58	56.108
454.93	55.606
455.28	54.667
455.63	55.425
455.98	56.344
456.34	56.130
456.69	55.273
457.04	55.514
457.39	54.982
457.74	56.288
458.09	55.268
458.44	54.827
458.79	54.566
459.14	55.320
459.49	56.060
459.84	55.838
460.19	55.704
460.54	56.357
460.89	55.284
461.24	55.839
461.59	54.988
461.94	54.151
462.29	55.187
462.64	56.013
462.99	54.164
463.34	53.547
463.69	54.183
464.04	55.266
464.39	55.124
464.74	55.399
465.09	55.833
465.44	55.107
465.79	54.422
466.14	55.758
466.49	55.147
466.84	55.919
467.19	54.756
467.54	53.001
467.89	52.937
468.24	53.406
468.59	54.476
468.94	52.698
469.29	54.623
469.64	54.272
469.99	56.132
470.34	52.628
470.68	53.318
471.03	52.937
471.38	53.281
471.73	53.852
472.08	53.121
472.43	54.027
472.78	52.776
473.13	54.218
473.48	53.355
473.83	53.487
474.17	54.793
474.52	53.797
474.87	54.182
475.22	54.240
475.57	52.682
475.92	53.538
476.27	52.969
476.61	54.572
476.96	52.091
477.31	53.164
477.66	52.416
478.01	52.611
478.36	52.832
478.70	54.214
479.05	54.011
479.40	53.047
479.75	52.503
480.10	52.432
480.45	52.850
480.79	54.733
481.14	54.559
481.49	52.266
481.84	53.909
482.19	53.227
482.53	53.477
482.88	52.506
483.23	52.207
483.58	53.396
483.92	51.694
484.27	51.276
484.62	52.801
484.97	52.239
485.31	53.215
485.66	54.541
486.01	56.688
486.36	56.735
486.70	56.577
487.05	55.394
487.40	54.809
487.75	53.268
488.09	53.121
488.44	52.476
488.79	51.662
489.13	51.963
489.48	51.047
489.83	51.614
490.17	51.955
490.52	51.686
490.87	50.393
491.22	51.528
491.56	51.423
491.91	50.526
492.26	51.434
492.60	51.583
492.95	52.287
493.30	51.197
493.64	52.308
493.99	50.725
494.34	51.262
494.68	50.381
495.03	50.073
495.37	50.491
495.72	50.984
496.07	50.732
496.41	50.660
496.76	50.898
497.11	50.070
497.45	51.122
497.80	51.917
498.14	50.174
498.49	50.584
498.84	50.000
499.18	50.753
499.53	50.496
499.87	50.292
500.22	50.346
500.56	49.622
500.91	51.155
501.26	50.173
501.60	51.008
501.95	50.218
502.29	51.525
502.64	50.676
502.98	51.554
503.33	50.192
503.67	50.699
504.02	50.880
504.36	51.460
504.71	49.596
505.06	49.270
505.40	49.746
505.75	51.237
506.09	50.025
506.44	51.078
506.78	51.582
507.13	50.517
507.47	48.721
507.82	50.267
508.16	49.815
508.51	50.367
508.85	49.608
509.19	49.494
509.54	49.169
509.88	49.137
510.23	49.489
510.57	49.973
510.92	47.868
511.26	49.591
511.61	49.230
511.95	49.863
512.30	48.559
512.64	49.026
512.98	48.568
513.33	47.957
513.67	48.209
514.02	49.314
514.36	48.914
514.70	50.117
515.05	49.589
515.39	49.646
515.74	49.461
516.08	49.253
516.42	49.647
516.77	49.444
517.11	48.724
517.46	49.192
517.80	49.404
518.14	48.928
518.49	48.858
518.83	49.575
519.17	48.272
519.52	47.188
519.86	47.899
520.20	49.210
520.55	47.405
520.89	47.302
521.23	48.448
521.58	48.454
521.92	48.718
522.26	47.430
522.61	47.078
522.95	49.536
523.29	48.094
523.64	47.522
523.98	48.088
524.32	47.229
524.66	48.528
525.01	48.117
525.35	47.116
525.69	48.687
526.04	47.354
526.38	48.768
526.72	47.024
527.06	47.536
527.41	49.538
527.75	48.324
528.09	47.375
528.43	49.494
528.78	48.713
529.12	48.258
529.46	48.668
529.80	48.005
530.15	48.185
530.49	47.677
530.83	48.016
531.17	47.750
531.51	48.632
531.86	47.655
532.20	48.156
532.54	48.128
532.88	48.597
533.22	47.917
533.57	48.231
533.91	49.282
534.25	50.260
534.59	48.942
534.93	48.584
535.27	47.335
535.62	48.477
535.96	47.750
536.30	48.087
536.64	48.312
536.98	47.944
537.32	49.075
537.66	48.177
538.01	48.252
538.35	48.266
538.69	48.069
539.03	47.984
539.37	49.260
539.71	48.943
540.05	48.405
540.39	48.823
540.73	48.954
541.07	48.688
541.42	47.312
541.76	48.520
542.10	48.314
542.44	48.367
542.78	47.213
543.12	47.390
543.46	49.026
543.80	47.814
544.14	47.597
544.48	49.434
544.82	49.146
545.16	50.342
545.50	48.465
545.84	48.938
546.18	48.511
546.52	48.306
546.86	48.382
547.20	48.784
547.54	47.350
547.88	46.467
548.22	48.126
548.56	47.559
548.90	50.404
549.24	46.901
549.58	47.109
549.92	46.962
550.26	46.813
550.60	47.212
550.94	47.946
551.28	46.986
551.62	48.308
551.96	47.895
552.30	47.880
552.64	47.743
552.98	47.046
553.32	47.361
553.66	46.734
554.00	48.686
554.34	46.824
554.68	46.313
555.02	47.098
555.36	46.821
555.69	47.473
556.03	47.038
556.37	47.046
556.71	47.004
557.05	47.651
557.39	46.691
557.73	47.376
558.07	46.682
558.41	46.784
558.75	45.908
559.08	46.020
559.42	46.429
559.76	48.279
560.10	45.795
560.44	46.761
560.78	46.434
561.12	48.590
561.45	48.559
561.79	47.969
562.13	46.984
562.47	47.338
562.81	46.326
563.15	47.391
563.48	46.535
563.82	47.769
564.16	46.936
564.50	46.959
564.84	47.992
565.17	46.814
565.51	48.156
565.85	48.217
566.19	46.950
566.52	48.928
566.86	48.586
567.20	47.945
567.54	50.122
567.88	50.615
568.21	51.527
568.55	50.707
568.89	50.103
569.23	50.794
569.56	50.832
569.90	52.862
570.24	51.917
570.57	51.964
570.91	52.597
571.25	51.957
571.59	52.445
571.92	51.319
572.26	51.721
572.60	51.163
572.93	50.988
573.27	50.564
573.61	52.387
573.95	52.758
574.28	52.198
574.62	51.767
574.96	51.957
575.29	52.145
575.63	50.894
575.97	51.098
576.30	51.588
576.64	51.788
576.98	52.175
577.31	52.494
577.65	52.615
577.98	53.445
578.32	52.868
578.66	51.752
578.99	51.614
579.33	50.637
579.67	50.971
580.00	51.468
580.34	51.791
580.67	51.583
581.01	51.897
581.35	52.196
581.68	52.962
582.02	52.890
582.35	52.925
582.69	53.019
583.02	52.232
583.36	51.833
583.70	51.558
584.03	51.821
584.37	52.033
584.70	50.632
585.04	50.907
585.37	51.376
585.71	52.135
586.04	51.261
586.38	51.000
586.72	51.277
587.05	52.080
587.39	51.747
587.72	52.870
588.06	51.647
588.39	51.324
588.73	51.129
589.06	51.207
589.40	49.983
589.73	50.821
590.07	50.869
590.40	50.580
590.73	50.906
591.07	49.576
591.40	49.599
591.74	50.090
592.07	50.371
592.41	50.663
592.74	50.219
593.08	50.157
593.41	50.544
593.75	50.474
594.08	49.296
594.41	50.000
594.75	50.038
595.08	50.132
595.42	51.049
595.75	51.145
596.09	50.039
596.42	49.483
596.75	49.689
597.09	48.747
597.42	49.864
597.75	50.389
598.09	47.986
598.42	48.511
598.76	48.949
599.09	49.599
599.42	48.768
599.76	49.699
600.09	48.906
600.42	48.446
600.76	49.220
601.09	49.351
601.42	48.923
601.76	49.940
602.09	49.505
602.42	50.295
602.76	49.024
603.09	49.377
603.42	51.338
603.76	49.153
604.09	49.332
604.42	48.816
604.76	49.488
605.09	49.132
605.42	47.810
605.75	49.168
606.09	48.960
606.42	47.998
606.75	49.048
607.09	48.264
607.42	48.117
607.75	48.268
608.08	47.844
608.42	48.013
608.75	49.157
609.08	48.381
609.41	48.782
609.75	48.891
610.08	48.128
610.41	48.116
610.74	48.464
611.07	48.475
611.41	48.313
611.74	48.561
612.07	47.645
612.40	48.578
612.73	47.345
613.07	47.188
613.40	48.359
613.73	47.062
614.06	46.800
614.39	47.377
614.72	46.667
615.06	47.654
615.39	47.544
615.72	46.286
616.05	48.212
616.38	45.926
616.71	47.401
617.05	47.560
617.38	47.329
617.71	47.044
618.04	48.317
618.37	46.847
618.70	46.931
619.03	46.389
619.36	44.863
619.69	47.081
620.03	47.772
620.36	46.495
620.69	45.253
621.02	46.024
621.35	46.058
621.68	46.259
622.01	46.000
622.34	45.730
622.67	44.874
623.00	45.865
623.33	45.960
623.66	44.428
623.99	45.764
624.32	46.312
624.65	45.489
624.99	45.071
625.32	45.262
625.65	46.033
625.98	44.803
626.31	43.059
626.64	44.367
626.97	43.630
627.30	44.571
627.63	43.588
627.96	44.205
628.29	41.443
628.62	43.854
628.95	43.587
629.28	44.153
629.61	42.971
629.94	43.304
630.26	42.787
630.59	44.433
630.92	42.462
631.25	41.641
631.58	42.401
631.91	41.118
632.24	42.775
632.57	43.295
632.90	41.163
633.23	41.647
633.56	42.695
633.89	40.691
634.22	42.469
634.55	40.407
634.88	40.741
635.20	39.487
635.53	42.800
635.86	40.312
636.19	42.303
636.52	40.561
636.85	41.191
637.18	40.629
637.51	40.755
637.83	40.473
638.16	42.428
638.49	40.463
638.82	40.526
639.15	40.977
639.48	40.990
639.81	41.144
640.13	41.270
640.46	38.630
640.79	36.524
641.12	36.928
641.45	39.339
641.77	39.259
642.10	41.390
642.43	40.193
642.76	38.119
643.09	39.742
643.41	37.055
643.74	37.562
644.07	39.901
644.40	38.176
644.73	39.755
645.05	36.242
645.38	39.330
645.71	37.766
646.04	40.395
646.36	39.894
646.69	37.590
647.02	39.130
647.35	38.246
647.67	38.574
648.00	38.060
648.33	37.031
648.66	41.017
648.98	38.191
649.31	40.496
649.64	38.462
649.96	37.925
650.29	41.397
650.62	38.632
650.94	39.259
651.27	38.547
651.60	38.378
651.92	38.636
652.25	37.833
652.58	39.000
652.90	40.137
653.23	37.983
653.56	37.056
653.88	39.347
654.21	35.201
654.54	38.200
654.86	38.879
655.19	40.205
655.52	47.833
655.84	51.440
656.17	58.043
656.49	78.402
656.82	79.881
657.15	60.254
657.47	44.076
657.80	32.430
658.13	31.696
658.45	48.140
658.78	46.145
659.10	44.921
659.43	44.557
659.75	43.315
660.08	41.862
660.41	41.777
660.73	40.331
661.06	40.728
661.38	38.748
661.71	33.265
662.03	39.270
662.36	37.582
662.68	38.938
663.01	36.900
663.33	34.107
663.66	34.651
663.98	37.442
664.31	35.181
664.63	34.101
664.96	30.652
665.28	35.320
665.61	36.147
665.93	39.130
666.26	36.226
666.58	33.781
666.91	33.882
667.23	36.557
667.56	37.678
667.88	34.772
668.21	37.709
668.53	37.825
668.86	35.142
669.18	35.377
669.50	34.140
669.83	33.488
670.15	32.867
670.48	37.081
670.80	35.253
671.13	31.320
671.45	32.648
671.77	35.622
672.10	37.822
672.42	37.266
672.75	39.432
673.07	38.283
673.39	40.367
673.72	36.489
674.04	38.333
674.37	37.924
674.69	36.617
675.01	38.889
675.34	35.135
675.66	36.806
675.98	38.137
676.31	36.697
676.63	35.867
676.95	37.273
677.28	37.176
677.60	36.386
677.92	34.633
678.25	38.074
678.57	38.095
678.89	38.445
679.22	39.374
679.54	35.542
679.86	36.581
680.18	39.417
680.51	36.932
680.83	38.966
681.15	38.000
681.48	38.525
681.80	37.397
682.12	36.895
682.44	37.238
682.77	37.748
683.09	34.554
683.41	37.273
683.73	36.406
684.06	36.726
684.38	35.269
684.70	38.344
685.02	36.722
685.34	39.130
685.67	37.711
685.99	39.964
686.31	40.000
686.63	38.033
686.96	36.882
687.28	35.758
687.60	39.163
687.92	39.596
688.24	37.903
688.56	39.520
688.89	37.946
689.21	35.778
689.53	35.035
689.85	36.047
690.17	38.616
690.49	38.771
690.82	35.437
691.14	35.476
691.46	39.019
691.78	39.640
692.10	40.430
692.42	36.364
692.74	36.538
693.06	38.739
693.39	35.294
693.71	36.199
694.03	36.028
694.35	35.981
694.67	37.374
694.99	31.854
695.31	34.987
695.63	36.750
695.95	35.354
696.27	31.865
696.59	36.667
696.91	31.653
697.23	34.190
697.56	39.851
697.88	38.710
698.20	38.952
698.52	36.000
698.84	36.364
699.16	38.000
699.48	37.093
699.80	37.717
700.12	38.275
700.44	39.496
700.76	31.977
701.08	34.848
701.40	35.241
701.72	39.198
702.04	37.624
702.36	37.793
702.68	32.733
703.00	37.576
703.32	35.191
703.64	33.898
703.96	37.391
704.28	37.730
704.60	36.508
704.91	34.069
705.23	37.542
705.55	36.042
705.87	36.823
706.19	32.963
706.51	33.333
706.83	35.048
707.15	34.891
707.47	36.415
707.79	34.896
708.11	37.000
708.43	38.000
708.74	37.209
709.06	37.465
709.38	37.920
709.70	37.278
710.02	35.032
710.34	35.913
710.66	30.769
710.98	34.106
711.29	40.000
711.61	35.932
711.93	35.179
712.25	37.113
712.57	33.333
712.89	33.955
713.20	31.142
713.52	36.585
713.84	34.812
714.16	34.364
714.48	38.065
714.80	38.141
715.11	37.082
715.43	31.975
715.75	34.667
716.07	34.551
716.39	34.228
716.70	33.210
717.02	34.351
717.34	38.866
717.66	34.956
717.97	29.130
718.29	35.565
718.61	36.220
718.93	34.496
719.24	34.981
719.56	36.546
719.88	34.021
720.20	35.606
720.51	31.034
720.83	37.838
721.15	32.773
721.46	32.661
721.78	32.806
722.10	37.546
722.42	30.290
722.73	34.286
723.05	42.449
723.37	36.017
723.68	40.541
724.00	36.325
724.32	35.556
724.63	31.818
724.95	36.681
725.27	38.710
725.58	35.593
725.90	36.508
726.22	31.660
726.53	35.932
726.85	35.955
727.16	41.509
727.48	30.364
727.80	37.247
728.11	32.627
728.43	35.294
728.74	30.645
729.06	35.200
729.38	37.970
729.69	35.060
730.01	36.923
730.32	37.687
730.64	38.516
730.96	38.113
731.27	35.667
731.59	40.339
731.90	38.854
732.22	40.694
732.53	37.874
732.85	39.007
733.16	42.424
733.48	32.374
733.80	39.855
734.11	36.610
734.43	39.175
734.74	40.606
735.06	37.459
735.37	36.858
735.69	36.364
736.00	39.373
736.32	39.262
736.63	41.549
736.95	38.567
737.26	34.520
737.58	36.577
737.89	36.996
738.21	37.970
738.52	38.272
738.83	35.808
739.15	35.808
739.46	37.402
739.78	36.264
740.09	40.196
740.41	36.594
740.72	36.220
741.04	36.032
741.35	34.468
741.66	35.071
741.98	36.735
742.29	33.168
742.61	36.649
742.92	31.754
743.23	29.630
743.55	33.484
743.86	33.014
744.18	32.057
744.49	32.447
744.80	36.957
745.12	33.690
745.43	33.171
745.74	38.542
746.06	34.146
746.37	30.366
746.68	33.649
747.00	37.234
747.31	38.308
747.62	33.495
747.94	36.842
748.25	35.149
748.56	34.426
748.88	37.173
749.19	35.106
749.50	39.901
749.82	31.604
750.13	32.569
750.44	36.842
750.75	39.552
751.07	42.336
751.38	37.165
751.69	35.294
752.01	40.310
752.32	35.060
752.63	37.154
752.94	33.190
753.26	37.657
753.57	39.819
753.88	36.283
754.19	35.833
754.51	37.603
754.82	31.984
755.13	37.917
755.44	39.919
755.75	38.672
756.07	38.132
756.38	38.491
756.69	34.100
757.00	37.667
757.31	39.869
757.63	36.280
757.94	37.222
758.25	35.890
758.56	39.628
758.87	33.428
759.18	31.464
759.50	41.818
759.81	35.786
760.12	42.258
760.43	36.667
760.74	37.346
761.05	36.615
761.36	40.625
761.67	36.970
761.99	43.197
762.30	33.091
762.61	33.202
762.92	38.462
763.23	34.685
763.54	36.449
763.85	37.712
764.16	38.589
764.47	34.274
764.78	35.531
765.10	41.077
765.41	36.278
765.72	34.921
766.03	37.218
766.34	39.781
766.65	39.044
766.96	35.354
767.27	36.170
767.58	35.057
767.89	29.787
768.20	28.409
768.51	30.769
768.82	34.483
769.13	36.866
769.44	37.768
769.75	31.507
770.06	37.069
770.37	32.212
770.68	40.609
770.99	34.842
771.30	42.647
771.61	38.914
771.92	35.776
772.23	43.842
772.54	40.323
772.85	35.802
773.16	32.022
773.47	39.869
773.78	39.216
774.09	32.934
774.39	36.000
774.70	33.121
775.01	44.828
775.32	36.429
775.63	29.752
775.94	35.115
776.25	35.433
776.56	34.167
776.87	33.654
777.18	31.624
777.48	25.862
777.79	33.913
778.10	20.000
778.41	36.036
778.72	39.683
779.03	33.835
779.34	35.461
779.65	41.781
779.95	32.877
780.26	44.138
780.57	30.894
780.88	31.496
781.19	31.034
781.50	33.333
781.80	32.544
782.11	32.704
782.42	42.308
782.73	35.971
783.04	25.926
783.34	29.861
783.65	29.915
783.96	27.049
784.27	37.241
784.57	34.959
784.88	25.000
785.19	24.000
785.50	39.000
785.81	32.759
786.11	31.034
786.42	35.922
786.73	38.182
787.04	27.551
787.34	33.036
787.65	34.286
787.96	37.168
788.26	30.000
788.57	40.171
788.88	37.500
789.19	33.333
789.49	33.913
789.80	28.571
790.11	40.404
790.41	26.364
790.72	38.043
791.03	40.909
791.33	51.250
791.64	36.250
791.95	33.721
792.25	35.106
792.56	24.719
792.87	34.247
793.17	42.029
793.48	17.333
793.79	35.000
794.09	37.500
794.40	31.132
794.70	33.010
795.01	30.894
795.32	28.205
795.62	35.238
795.93	36.275
796.23	34.906
796.54	35.417
796.85	23.529
797.15	32.394
797.46	22.222
797.76	40.909
798.07	18.605
798.37	18.421
798.68	24.242
798.99	29.630
799.29	30.000
799.60	33.333
799.90	29.333
800.21	40.984
800.51	40.000
800.82	27.119
801.12	42.029
801.43	29.508
801.73	36.508
802.04	36.000
802.34	25.373
802.65	28.846
802.95	17.857
803.26	15.385
803.56	39.216
803.87	21.739
804.17	25.333
804.48	33.333
804.78	31.481
805.09	28.261
805.39	15.556
805.70	31.481
806.00	-3.509
806.30	33.803
806.61	31.429
806.91	29.167
807.22	46.053
807.52	41.333
807.83	29.091
808.13	22.222
808.43	47.059
808.74	31.343
809.04	13.559
809.35	30.769
809.65	43.750
809.95	-8.108
810.26	25.000
810.56	27.397
810.86	30.952
811.17	46.000
811.47	14.286
811.77	13.158
812.08	38.636
812.38	28.302
812.69	25.000
812.99	24.242
813.29	39.474
813.59	25.714
813.90	29.545
814.20	25.641
814.50	23.077
814.81	35.849
815.11	34.043
815.41	47.458
815.72	26.190
816.02	11.765
816.32	41.667
816.62	12.195
816.93	10.811
817.23	14.286
817.53	22.917
817.84	34.783
818.14	28.846
818.44	15.789
818.74	34.783
819.04	-2.500
819.35	21.622
819.65	8.824
819.95	30.556
820.25	23.810
820.56	40.000
820.86	6.897
821.16	40.000
821.46	34.043
821.76	42.500
822.07	39.535
822.37	2.703
822.67	18.750
822.97	19.048
823.27	21.429
823.57	28.000
823.88	22.222
824.18	21.429
824.48	8.824
824.78	6.452
825.08	47.826
825.38	33.333
825.69	-20.833
825.99	28.947
826.29	33.333
826.59	6.667
826.89	19.048
827.19	21.739
827.49	17.500
827.79	42.857
828.09	39.286
828.39	48.485
828.70	54.054
829.00	0.000
829.30	4.762
829.60	43.333
829.90	46.875
830.20	26.316
830.50	18.519
830.80	0.000
831.10	-9.091
831.40	48.485
831.70	25.806
832.00	57.143
832.30	28.571
832.60	41.667
832.90	41.379
833.20	-35.000
833.50	12.121
833.80	14.815
834.10	30.769
834.40	46.875
834.70	33.333
835.00	63.158
835.30	111.538
835.60	80.000
835.90	35.484
836.20	50.000
836.50	57.143
836.80	-7.692
837.10	28.571
837.40	0.000
837.70	18.182
838.00	-27.273
838.30	21.739
838.60	-30.769
838.90	-22.727
839.19	17.857
839.49	33.333
839.79	23.077
840.09	16.667
840.39	71.429
840.69	17.857
840.99	3.846
841.29	-31.579
841.59	-50.000
841.88	-81.818
842.18	50.000
842.48	50.000
842.78	-20.000
843.08	25.926
843.38	-110.000
843.68	52.174
843.97	33.333
844.27	-6.667
844.57	20.000
844.87	-5.556
845.17	14.286
845.47	13.333
845.76	0.000
846.06	47.059
846.36	20.000
846.66	64.286
846.96	-46.667
847.25	-87.500
847.55	78.571
847.85	112.500
848.15	9.091
848.44	0.000
848.74	45.000
849.04	51.852
849.34	27.273
849.63	-116.667
849.93	-160.000
850.23	55.556
850.53	20.000
850.82	-15.385
851.12	-33.333
851.42	60.000
851.71	7.692
852.01	71.429
852.31	-175.000
852.61	-27.273
852.90	35.000
853.20	42.105
853.50	-50.000
853.79	-8.696
854.09	37.500
854.39	-15.789
854.68	16.667
854.98	70.968
855.28	76.923
855.57	15.000
855.87	27.778
856.17	33.333
856.46	-28.571
856.76	-20.000
857.05	-66.667
857.35	24.000
857.65	33.333
857.94	15.385
858.24	65.517
858.53	0.000
858.83	62.963
859.13	22.727
859.42	8.696
859.72	-25.000
860.01	0.000
860.31	16.000
860.60	47.619
860.90	-100.000
861.20	-33.333
861.49	-50.000
861.79	-66.667
862.08	25.000
862.38	133.333
862.67	-120.000
862.97	83.333
863.26	8.333
863.56	111.111
863.85	-266.667
864.15	66.667
864.44	10.000
864.74	71.429
865.03	-0.000
865.33	-140.000
865.62	66.667
865.92	-16.667
866.21	-83.333
866.51	18.750
866.80	63.636
867.10	-150.000
867.39	83.333
867.69	0.000
867.98	76.923
868.27	-266.667
868.57	6.667
868.86	55.556
869.16	-23.077
869.45	80.000
869.75	-900.000
870.04	0.000
870.33	-85.714
870.63	47.619
870.92	266.667
871.22	100.000
871.51	600.000
871.80	11.111
872.10	533.333
>>>>>End Processed Spectral Data<<<<<
