SpectraSuite Data File
++++++++++++++++++++++++++++++++++++
Date: Fri May 15 17:12:47 PDT 2015
User: schluterlab
Dark Spectrum Present: Yes
Reference Spectrum Present: Yes
Number of Sampled Component Spectra: 1
Spectrometers: USB2E3373
Integration Time (usec): 3000 (USB2E3373)
Spectra Averaged: 3 (USB2E3373)
Boxcar Smoothing: 0 (USB2E3373)
Correct for Electrical Dark: No (USB2E3373)
Strobe/Lamp Enabled: No (USB2E3373)
Correct for Detector Non-linearity: No (USB2E3373)
Correct for Stray Light: No (USB2E3373)
Number of Pixels in Processed Spectrum: 2048
>>>>>Begin Processed Spectral Data<<<<<
178.53	0.000
178.91	0.000
179.29	125.000
179.67	0.000
180.04	-114.286
180.42	250.000
180.80	400.000
181.18	66.667
181.56	350.000
181.94	-250.000
182.31	-300.000
182.69	40.000
183.07	-166.667
183.45	180.000
183.83	83.333
184.20	27.273
184.58	55.556
184.96	275.000
185.34	-366.667
185.72	50.000
186.09	-0.000
186.47	0.000
186.85	-16.667
187.23	77.778
187.61	-700.000
187.98	-33.333
188.36	33.333
188.74	266.667
189.12	47.059
189.49	100.000
189.87	0.000
190.25	57.143
190.63	300.000
191.00	-100.000
191.38	52.632
191.76	200.000
192.14	-125.000
192.51	200.000
192.89	77.778
193.27	-28.571
193.65	133.333
194.02	136.364
194.40	20.000
194.78	-50.000
195.15	-41.667
195.53	37.500
195.91	175.000
196.29	125.000
196.66	76.923
197.04	85.714
197.42	-66.667
197.79	-200.000
198.17	-76.923
198.55	100.000
198.92	-466.667
199.30	800.000
199.68	0.000
200.05	400.000
200.43	0.000
200.81	0.000
201.18	-33.333
201.56	-100.000
201.94	150.000
202.31	-0.000
202.69	-80.000
203.07	25.000
203.44	800.000
203.82	0.000
204.19	7.143
204.57	-66.667
204.95	-0.000
205.32	130.000
205.70	85.714
206.08	275.000
206.45	188.889
206.83	128.571
207.20	-42.857
207.58	-400.000
207.96	-333.333
208.33	-110.000
208.71	75.000
209.08	-83.333
209.46	300.000
209.84	20.000
210.21	-700.000
210.59	242.857
210.96	-66.667
211.34	125.000
211.71	66.667
212.09	28.571
212.46	-600.000
212.84	0.000
213.22	120.000
213.59	300.000
213.97	92.308
214.34	54.545
214.72	66.667
215.09	225.000
215.47	30.769
215.84	-18.182
216.22	-133.333
216.59	37.500
216.97	600.000
217.34	125.000
217.72	0.000
218.09	87.500
218.47	87.500
218.84	-600.000
219.22	-11.111
219.59	-20.000
219.97	100.000
220.34	50.000
220.72	14.286
221.09	-75.000
221.47	400.000
221.84	100.000
222.22	-100.000
222.59	109.091
222.97	66.667
223.34	200.000
223.72	21.429
224.09	28.571
224.46	57.143
224.84	200.000
225.21	50.000
225.59	46.667
225.96	-150.000
226.34	275.000
226.71	171.429
227.08	-16.667
227.46	187.500
227.83	-500.000
228.21	44.444
228.58	81.818
228.95	87.500
229.33	80.000
229.70	37.500
230.08	12.500
230.45	14.286
230.82	71.429
231.20	0.000
231.57	7.143
231.95	0.000
232.32	20.000
232.69	71.429
233.07	333.333
233.44	80.000
233.81	20.000
234.19	-11.111
234.56	58.824
234.93	700.000
235.31	-50.000
235.68	-220.000
236.05	7.692
236.43	15.000
236.80	-5.882
237.17	28.125
237.55	10.000
237.92	29.630
238.29	41.667
238.67	33.333
239.04	-5.882
239.41	-14.634
239.79	-3.333
240.16	36.585
240.53	-5.263
240.91	6.522
241.28	9.524
241.65	8.929
242.02	26.027
242.40	26.667
242.77	15.254
243.14	10.606
243.51	3.750
243.89	28.736
244.26	9.195
244.63	11.905
245.00	11.340
245.38	5.155
245.75	-2.247
246.12	1.724
246.49	9.091
246.87	10.577
247.24	5.882
247.61	-1.754
247.98	4.065
248.36	1.250
248.73	8.553
249.10	7.792
249.47	6.962
249.84	9.150
250.22	7.647
250.59	7.190
250.96	11.268
251.33	5.233
251.70	5.294
252.08	6.599
252.45	6.931
252.82	7.538
253.19	7.834
253.56	5.140
253.94	13.063
254.31	10.000
254.68	11.842
255.05	7.087
255.42	7.424
255.79	7.336
256.16	11.284
256.54	10.821
256.91	6.464
257.28	7.807
257.65	7.491
258.02	8.156
258.39	10.438
258.76	8.425
259.14	10.963
259.51	8.091
259.88	6.873
260.25	11.765
260.62	8.681
260.99	8.136
261.36	4.795
261.73	8.861
262.10	9.726
262.47	11.043
262.85	7.210
263.22	7.077
263.59	12.150
263.96	9.627
264.33	7.273
264.70	8.631
265.07	7.440
265.44	10.482
265.81	7.062
266.18	9.016
266.55	10.283
266.92	11.917
267.29	7.050
267.66	8.951
268.03	7.592
268.40	6.005
268.77	13.636
269.14	9.353
269.51	7.455
269.88	5.486
270.25	6.378
270.62	4.390
270.99	6.394
271.36	9.780
271.73	6.808
272.10	6.569
272.47	9.220
272.84	6.683
273.21	9.745
273.58	8.675
273.95	9.611
274.32	7.390
274.69	5.430
275.06	8.482
275.43	7.710
275.80	8.168
276.17	7.586
276.54	7.923
276.91	7.237
277.28	7.642
277.65	10.331
278.02	7.021
278.39	8.534
278.76	8.595
279.13	4.357
279.50	8.193
279.87	7.343
280.23	5.591
280.60	11.501
280.97	4.848
281.34	6.346
281.71	9.035
282.08	5.521
282.45	5.871
282.82	7.722
283.19	8.897
283.56	8.092
283.92	6.641
284.29	8.269
284.66	6.202
285.03	7.073
285.40	7.561
285.77	8.084
286.14	6.859
286.51	8.118
286.87	6.947
287.24	6.814
287.61	7.407
287.98	9.123
288.35	7.452
288.72	7.706
289.08	4.514
289.45	7.381
289.82	7.867
290.19	7.167
290.56	6.003
290.93	6.061
291.29	4.468
291.66	6.614
292.03	6.699
292.40	6.290
292.77	6.858
293.13	2.922
293.50	5.766
293.87	6.718
294.24	5.719
294.60	5.365
294.97	6.101
295.34	4.908
295.71	7.004
296.08	6.726
296.44	4.694
296.81	7.361
297.18	5.797
297.55	7.588
297.91	6.849
298.28	5.145
298.65	5.834
299.02	4.717
299.38	3.557
299.75	5.793
300.12	3.534
300.48	5.007
300.85	4.943
301.22	5.325
301.59	6.053
301.95	6.076
302.32	6.485
302.69	6.095
303.05	5.941
303.42	5.479
303.79	5.958
304.15	6.332
304.52	3.567
304.89	4.444
305.25	3.995
305.62	4.084
305.99	5.614
306.35	3.815
306.72	4.837
307.09	5.359
307.45	4.248
307.82	4.282
308.19	5.691
308.55	5.453
308.92	6.863
309.29	4.134
309.65	4.090
310.02	5.281
310.38	5.488
310.75	5.574
311.12	4.090
311.48	4.242
311.85	3.874
312.22	2.110
312.58	4.034
312.95	4.162
313.31	2.692
313.68	3.665
314.05	4.796
314.41	5.567
314.78	4.433
315.14	5.755
315.51	5.487
315.87	4.303
316.24	5.662
316.61	4.724
316.97	5.853
317.34	5.273
317.70	5.354
318.07	4.135
318.43	4.412
318.80	3.977
319.16	5.273
319.53	5.603
319.89	4.134
320.26	4.960
320.62	4.915
320.99	4.384
321.35	4.933
321.72	6.334
322.08	4.935
322.45	4.569
322.81	3.831
323.18	5.594
323.54	4.633
323.91	4.771
324.27	4.785
324.64	5.056
325.00	5.383
325.37	5.877
325.73	5.258
326.10	5.268
326.46	5.291
326.83	5.862
327.19	5.754
327.56	6.082
327.92	5.282
328.29	5.357
328.65	6.038
329.01	6.710
329.38	6.544
329.74	5.288
330.11	6.117
330.47	6.308
330.84	7.115
331.20	7.510
331.56	7.130
331.93	7.671
332.29	9.166
332.66	8.054
333.02	9.480
333.38	8.433
333.75	9.615
334.11	9.937
334.48	10.154
334.84	10.806
335.20	9.698
335.57	11.061
335.93	11.292
336.29	11.050
336.66	10.808
337.02	11.431
337.38	11.944
337.75	12.545
338.11	13.886
338.47	12.591
338.84	12.477
339.20	13.620
339.56	13.945
339.93	14.503
340.29	14.404
340.65	15.233
341.02	14.184
341.38	13.982
341.74	14.488
342.11	14.905
342.47	14.680
342.83	14.014
343.20	15.592
343.56	14.348
343.92	15.058
344.28	15.713
344.65	14.680
345.01	15.903
345.37	16.400
345.73	16.987
346.10	16.566
346.46	16.737
346.82	15.794
347.19	16.293
347.55	16.541
347.91	16.828
348.27	16.249
348.63	17.036
349.00	17.227
349.36	16.126
349.72	16.584
350.08	17.377
350.45	17.478
350.81	15.947
351.17	17.182
351.53	16.000
351.89	16.433
352.26	17.040
352.62	17.903
352.98	17.671
353.34	17.311
353.70	18.123
354.07	17.742
354.43	17.294
354.79	18.580
355.15	18.730
355.51	18.829
355.87	18.528
356.24	17.374
356.60	18.755
356.96	19.444
357.32	18.211
357.68	18.999
358.04	17.528
358.40	18.971
358.77	19.059
359.13	18.895
359.49	17.257
359.85	18.721
360.21	18.501
360.57	19.204
360.93	18.759
361.29	19.260
361.66	19.671
362.02	19.924
362.38	18.888
362.74	19.833
363.10	19.865
363.46	19.792
363.82	20.661
364.18	21.107
364.54	18.897
364.90	19.785
365.26	18.923
365.62	20.803
365.98	20.161
366.35	21.704
366.71	19.956
367.07	20.319
367.43	20.776
367.79	20.353
368.15	20.603
368.51	20.976
368.87	19.885
369.23	19.567
369.59	20.918
369.95	21.848
370.31	20.592
370.67	21.269
371.03	20.090
371.39	21.736
371.75	21.392
372.11	21.184
372.47	22.263
372.83	21.150
373.19	22.254
373.55	22.744
373.91	21.670
374.27	21.332
374.63	23.044
374.99	21.915
375.35	23.050
375.71	23.566
376.07	22.893
376.42	22.517
376.78	23.020
377.14	22.072
377.50	23.108
377.86	22.557
378.22	23.293
378.58	23.141
378.94	22.936
379.30	23.581
379.66	24.702
380.02	23.973
380.38	23.189
380.74	23.878
381.09	23.681
381.45	24.098
381.81	23.874
382.17	24.302
382.53	24.735
382.89	24.545
383.25	24.580
383.61	24.817
383.97	24.254
384.32	24.453
384.68	24.892
385.04	24.449
385.40	23.958
385.76	24.843
386.12	25.614
386.48	25.798
386.83	26.252
387.19	25.946
387.55	25.721
387.91	25.550
388.27	25.092
388.62	26.369
388.98	24.800
389.34	26.046
389.70	26.600
390.06	25.173
390.42	26.101
390.77	25.899
391.13	25.599
391.49	26.779
391.85	26.836
392.20	26.868
392.56	26.192
392.92	26.248
393.28	26.474
393.64	26.967
393.99	27.085
394.35	27.008
394.71	26.756
395.07	26.901
395.42	26.047
395.78	26.580
396.14	26.293
396.50	26.950
396.85	26.980
397.21	27.068
397.57	27.712
397.92	26.902
398.28	27.241
398.64	26.566
399.00	26.806
399.35	25.847
399.71	26.192
400.07	27.509
400.42	26.928
400.78	27.924
401.14	27.284
401.49	27.576
401.85	27.361
402.21	26.325
402.57	27.062
402.92	26.600
403.28	27.632
403.63	26.986
403.99	26.786
404.35	27.608
404.70	27.083
405.06	26.439
405.42	26.414
405.77	26.089
406.13	26.310
406.49	26.761
406.84	26.467
407.20	27.333
407.55	26.980
407.91	25.936
408.27	27.087
408.62	26.277
408.98	26.371
409.34	26.952
409.69	27.261
410.05	27.340
410.40	26.605
410.76	27.563
411.11	27.187
411.47	27.219
411.83	26.365
412.18	26.963
412.54	26.280
412.89	26.416
413.25	27.918
413.60	27.143
413.96	26.810
414.31	27.256
414.67	27.582
415.03	26.964
415.38	27.350
415.74	27.427
416.09	27.564
416.45	28.022
416.80	27.429
417.16	27.693
417.51	27.515
417.87	27.966
418.22	28.368
418.58	27.625
418.93	29.530
419.29	27.145
419.64	27.868
420.00	28.904
420.35	28.000
420.71	28.433
421.06	28.054
421.42	28.726
421.77	29.133
422.12	28.093
422.48	29.237
422.83	29.292
423.19	29.345
423.54	29.101
423.90	30.035
424.25	30.310
424.61	30.110
424.96	29.443
425.31	31.254
425.67	29.988
426.02	30.978
426.38	31.121
426.73	31.356
427.09	31.076
427.44	30.588
427.79	30.819
428.15	31.129
428.50	31.254
428.85	30.774
429.21	31.126
429.56	31.375
429.92	31.433
430.27	30.977
430.62	30.737
430.98	31.688
431.33	32.072
431.68	31.816
432.04	33.035
432.39	31.546
432.74	32.952
433.10	32.989
433.45	32.318
433.80	33.198
434.16	32.742
434.51	32.634
434.86	33.333
435.22	33.034
435.57	34.560
435.92	33.593
436.28	34.049
436.63	33.600
436.98	33.430
437.34	34.301
437.69	34.764
438.04	34.986
438.39	34.575
438.75	34.001
439.10	34.465
439.45	34.936
439.81	35.168
440.16	35.867
440.51	34.866
440.86	36.435
441.22	35.407
441.57	35.430
441.92	36.254
442.27	36.807
442.63	36.403
442.98	36.244
443.33	36.338
443.68	36.021
444.03	36.662
444.39	36.252
444.74	37.012
445.09	36.414
445.44	37.151
445.79	38.009
446.15	36.289
446.50	35.996
446.85	37.194
447.20	36.809
447.55	36.775
447.91	37.958
448.26	37.393
448.61	38.284
448.96	38.095
449.31	38.035
449.66	36.527
450.02	38.505
450.37	38.530
450.72	38.202
451.07	37.722
451.42	37.453
451.77	37.131
452.12	37.380
452.47	37.154
452.83	38.751
453.18	38.077
453.53	38.748
453.88	37.948
454.23	37.677
454.58	40.554
454.93	39.111
455.28	37.143
455.63	38.996
455.98	39.327
456.34	39.080
456.69	39.072
457.04	40.265
457.39	39.307
457.74	39.964
458.09	38.199
458.44	39.555
458.79	39.552
459.14	38.616
459.49	39.642
459.84	38.917
460.19	40.170
460.54	39.670
460.89	40.000
461.24	39.627
461.59	39.905
461.94	39.811
462.29	40.109
462.64	40.598
462.99	40.014
463.34	39.777
463.69	40.154
464.04	40.012
464.39	41.055
464.74	40.920
465.09	40.362
465.44	40.046
465.79	39.626
466.14	39.567
466.49	40.311
466.84	40.690
467.19	39.800
467.54	40.038
467.89	40.051
468.24	39.903
468.59	42.349
468.94	40.571
469.29	41.049
469.64	41.012
469.99	43.308
470.34	41.365
470.68	41.238
471.03	42.038
471.38	40.799
471.73	42.017
472.08	40.977
472.43	41.409
472.78	40.439
473.13	41.905
473.48	41.889
473.83	41.034
474.17	43.199
474.52	41.161
474.87	42.242
475.22	41.245
475.57	40.373
475.92	42.074
476.27	41.735
476.61	42.824
476.96	39.487
477.31	41.374
477.66	42.191
478.01	41.550
478.36	41.667
478.70	41.925
479.05	41.813
479.40	42.713
479.75	40.928
480.10	41.270
480.45	42.000
480.79	42.044
481.14	42.367
481.49	42.069
481.84	41.844
482.19	41.768
482.53	41.727
482.88	42.243
483.23	40.547
483.58	42.123
483.92	40.997
484.27	42.024
484.62	41.730
484.97	41.045
485.31	40.932
485.66	38.769
486.01	38.676
486.36	38.257
486.70	38.739
487.05	39.245
487.40	39.685
487.75	40.000
488.09	40.266
488.44	40.990
488.79	41.390
489.13	42.508
489.48	42.454
489.83	41.883
490.17	42.247
490.52	41.570
490.87	41.601
491.22	42.789
491.56	43.121
491.91	42.543
492.26	42.100
492.60	42.418
492.95	43.778
493.30	41.817
493.64	44.794
493.99	43.188
494.34	42.621
494.68	43.190
495.03	42.628
495.37	43.621
495.72	44.170
496.07	44.390
496.41	43.632
496.76	42.930
497.11	42.944
497.45	42.864
497.80	43.845
498.14	43.567
498.49	43.779
498.84	43.762
499.18	42.972
499.53	43.204
499.87	42.947
500.22	43.521
500.56	44.175
500.91	44.578
501.26	43.697
501.60	44.122
501.95	44.153
502.29	43.826
502.64	44.112
502.98	44.302
503.33	43.276
503.67	44.145
504.02	44.037
504.36	45.077
504.71	44.646
505.06	44.137
505.40	43.756
505.75	45.464
506.09	44.349
506.44	45.123
506.78	45.408
507.13	45.243
507.47	43.864
507.82	45.673
508.16	44.427
508.51	45.331
508.85	45.317
509.19	44.598
509.54	45.255
509.88	45.200
510.23	45.616
510.57	45.377
510.92	44.083
511.26	45.827
511.61	46.590
511.95	46.356
512.30	45.732
512.64	46.021
512.98	45.705
513.33	46.726
513.67	46.106
514.02	46.796
514.36	47.657
514.70	47.552
515.05	48.766
515.39	46.930
515.74	48.563
516.08	48.595
516.42	48.351
516.77	48.215
517.11	48.546
517.46	47.277
517.80	47.497
518.14	47.704
518.49	48.618
518.83	48.542
519.17	47.483
519.52	47.839
519.86	47.539
520.20	48.238
520.55	47.780
520.89	49.247
521.23	47.878
521.58	49.148
521.92	49.423
522.26	49.187
522.61	49.156
522.95	49.801
523.29	48.793
523.64	49.047
523.98	49.514
524.32	47.487
524.66	48.976
525.01	49.870
525.35	49.125
525.69	49.764
526.04	49.471
526.38	50.389
526.72	50.033
527.06	49.546
527.41	49.868
527.75	49.866
528.09	50.233
528.43	50.777
528.78	50.891
529.12	48.581
529.46	49.578
529.80	49.018
530.15	49.835
530.49	50.909
530.83	49.658
531.17	48.892
531.51	50.479
531.86	48.946
532.20	49.617
532.54	50.919
532.88	51.266
533.22	49.194
533.57	49.476
533.91	49.217
534.25	50.130
534.59	49.455
534.93	48.899
535.27	48.541
535.62	48.542
535.96	49.446
536.30	49.736
536.64	49.759
536.98	49.826
537.32	51.991
537.66	50.771
538.01	51.119
538.35	50.485
538.69	50.133
539.03	49.282
539.37	49.327
539.71	48.671
540.05	50.034
540.39	50.831
540.73	49.372
541.07	49.793
541.42	50.538
541.76	50.929
542.10	49.759
542.44	50.452
542.78	47.970
543.12	50.069
543.46	50.626
543.80	49.271
544.14	48.064
544.48	48.434
544.82	49.077
545.16	51.161
545.50	50.467
545.84	50.496
546.18	50.071
546.52	50.036
546.86	50.683
547.20	52.146
547.54	50.318
547.88	49.796
548.22	49.310
548.56	48.879
548.90	49.596
549.24	49.931
549.58	50.423
549.92	49.678
550.26	50.989
550.60	51.301
550.94	50.709
551.28	51.005
551.62	52.231
551.96	50.902
552.30	50.585
552.64	49.365
552.98	51.688
553.32	50.571
553.66	50.363
554.00	50.511
554.34	51.477
554.68	50.664
555.02	51.935
555.36	51.010
555.69	49.451
556.03	50.607
556.37	51.317
556.71	50.181
557.05	51.305
557.39	50.112
557.73	50.975
558.07	52.640
558.41	52.833
558.75	53.235
559.08	53.428
559.42	52.698
559.76	53.082
560.10	52.446
560.44	51.675
560.78	50.350
561.12	50.917
561.45	52.214
561.79	51.751
562.13	52.590
562.47	51.439
562.81	50.793
563.15	50.564
563.48	52.263
563.82	51.132
564.16	50.696
564.50	50.203
564.84	50.602
565.17	51.241
565.51	52.459
565.85	51.372
566.19	51.127
566.52	51.005
566.86	50.064
567.20	50.187
567.54	51.460
567.88	50.439
568.21	49.095
568.55	49.674
568.89	48.973
569.23	48.965
569.56	47.636
569.90	47.950
570.24	45.776
570.57	46.909
570.91	46.602
571.25	46.005
571.59	45.500
571.92	44.207
572.26	44.837
572.60	44.899
572.93	44.650
573.27	45.611
573.61	45.197
573.95	44.566
574.28	44.147
574.62	43.809
574.96	43.954
575.29	43.766
575.63	43.664
575.97	43.779
576.30	45.263
576.64	44.159
576.98	44.865
577.31	44.581
577.65	43.716
577.98	43.618
578.32	43.274
578.66	42.704
578.99	43.238
579.33	43.717
579.67	42.947
580.00	44.759
580.34	44.179
580.67	43.843
581.01	44.284
581.35	44.014
581.68	43.495
582.02	43.513
582.35	43.491
582.69	43.806
583.02	43.751
583.36	44.807
583.70	45.171
584.03	45.872
584.37	46.104
584.70	45.742
585.04	44.067
585.37	44.398
585.71	45.100
586.04	44.503
586.38	45.212
586.72	45.165
587.05	45.841
587.39	45.932
587.72	46.200
588.06	46.056
588.39	45.486
588.73	46.764
589.06	46.217
589.40	46.630
589.73	47.317
590.07	48.187
590.40	47.639
590.73	49.135
591.07	48.855
591.40	48.264
591.74	48.778
592.07	48.330
592.41	48.454
592.74	47.431
593.08	45.267
593.41	46.722
593.75	46.254
594.08	46.035
594.41	46.543
594.75	47.252
595.08	47.030
595.42	46.816
595.75	47.803
596.09	48.475
596.42	48.160
596.75	48.801
597.09	48.246
597.42	48.238
597.75	49.473
598.09	47.669
598.42	48.014
598.76	46.933
599.09	47.075
599.42	46.078
599.76	47.216
600.09	47.097
600.42	46.171
600.76	46.285
601.09	47.290
601.42	47.434
601.76	48.233
602.09	48.350
602.42	49.410
602.76	47.708
603.09	48.505
603.42	49.707
603.76	48.468
604.09	48.076
604.42	47.970
604.76	48.999
605.09	48.903
605.42	49.029
605.75	48.555
606.09	48.153
606.42	48.040
606.75	48.398
607.09	47.341
607.42	47.408
607.75	49.201
608.08	47.799
608.42	48.150
608.75	49.783
609.08	50.174
609.41	50.609
609.75	50.151
610.08	49.925
610.41	47.971
610.74	49.049
611.07	50.956
611.41	50.441
611.74	51.866
612.07	50.375
612.40	50.930
612.73	51.751
613.07	51.125
613.40	50.492
613.73	51.035
614.06	50.640
614.39	52.566
614.72	51.261
615.06	51.732
615.39	49.345
615.72	49.354
616.05	50.447
616.38	50.028
616.71	52.355
617.05	50.710
617.38	54.431
617.71	51.950
618.04	53.206
618.37	52.900
618.70	53.927
619.03	55.208
619.36	53.907
619.69	54.738
620.03	55.807
620.36	53.720
620.69	54.961
621.02	54.893
621.35	55.021
621.68	58.163
622.01	56.500
622.34	55.866
622.67	55.284
623.00	54.364
623.33	53.887
623.66	54.001
623.99	56.354
624.32	55.437
624.65	53.985
624.99	55.004
625.32	55.269
625.65	56.402
625.98	57.293
626.31	56.359
626.64	56.586
626.97	57.068
627.30	58.231
627.63	57.366
627.96	60.557
628.29	59.944
628.62	61.357
628.95	58.717
629.28	59.879
629.61	58.923
629.94	60.117
630.26	58.300
630.59	61.915
630.92	58.872
631.25	58.667
631.58	60.903
631.91	59.539
632.24	61.812
632.57	61.364
632.90	65.006
633.23	63.529
633.56	64.610
633.89	63.379
634.22	64.815
634.55	64.803
634.88	63.346
635.20	63.333
635.53	64.800
635.86	62.289
636.19	65.847
636.52	62.245
636.85	63.772
637.18	63.899
637.51	61.509
637.83	63.338
638.16	65.894
638.49	61.035
638.82	63.026
639.15	64.586
639.48	65.062
639.81	64.017
640.13	64.791
640.46	65.015
640.79	62.887
641.12	67.799
641.45	65.315
641.77	66.519
642.10	69.984
642.43	66.720
642.76	68.482
643.09	65.590
643.41	65.858
643.74	70.181
644.07	66.831
644.40	68.750
644.73	69.002
645.05	66.443
645.38	68.783
645.71	66.667
646.04	69.479
646.36	68.262
646.69	70.504
647.02	69.376
647.35	71.455
647.67	70.018
648.00	71.455
648.33	69.454
648.66	66.271
648.98	64.154
649.31	65.455
649.64	65.306
649.96	64.992
650.29	65.417
650.62	67.009
650.94	69.815
651.27	68.156
651.60	68.288
651.92	65.909
652.25	67.496
652.58	66.833
652.90	67.581
653.23	66.218
653.56	65.313
653.88	66.151
654.21	64.448
654.54	66.384
654.86	67.402
655.19	62.427
655.52	56.889
655.84	45.743
656.17	49.774
656.49	66.252
656.82	70.085
657.15	54.324
657.47	41.283
657.80	31.058
658.13	30.967
658.45	48.478
658.78	50.139
659.10	51.235
659.43	52.984
659.75	54.761
660.08	57.586
660.41	61.287
660.73	62.845
661.06	69.844
661.38	70.646
661.71	65.914
662.03	72.961
662.36	70.769
662.68	73.894
663.01	71.834
663.33	71.926
663.66	72.326
663.98	70.233
664.31	68.230
664.63	70.276
664.96	68.913
665.28	72.406
665.61	71.429
665.93	71.522
666.26	72.668
666.58	71.365
666.91	70.353
667.23	73.585
667.56	76.540
667.88	73.141
668.21	70.406
668.53	77.778
668.86	72.642
669.18	71.698
669.50	71.671
669.83	73.256
670.15	70.396
670.48	71.292
670.80	73.963
671.13	69.128
671.45	70.320
671.77	71.674
672.10	66.337
672.42	62.921
672.75	66.430
673.07	66.369
673.39	64.220
673.72	65.286
674.04	67.917
674.37	71.610
674.69	68.308
675.01	73.556
675.34	69.144
675.66	72.917
675.98	71.840
676.31	70.642
676.63	71.021
676.95	71.136
677.28	74.353
677.60	72.048
677.92	71.789
678.25	70.241
678.57	69.697
678.89	69.748
679.22	72.931
679.54	62.851
679.86	64.016
680.18	67.379
680.51	65.341
680.83	67.793
681.15	70.200
681.48	70.287
681.80	70.248
682.12	67.540
682.44	68.619
682.77	67.329
683.09	71.396
683.41	70.682
683.73	72.350
684.06	71.460
684.38	69.247
684.70	69.499
685.02	66.390
685.34	66.996
685.67	63.415
685.99	64.557
686.31	64.248
686.63	66.234
686.96	65.779
687.28	64.444
687.60	64.068
687.92	71.111
688.24	67.137
688.56	70.087
688.89	68.304
689.21	67.111
689.53	70.766
689.85	64.651
690.17	67.411
690.49	69.976
690.82	69.660
691.14	69.286
691.46	69.626
691.78	67.568
692.10	65.591
692.42	67.965
692.74	66.880
693.06	69.369
693.39	67.421
693.71	66.063
694.03	68.822
694.35	67.290
694.67	70.202
694.99	73.107
695.31	70.496
695.63	70.000
695.95	68.434
696.27	66.062
696.59	72.222
696.91	69.188
697.23	69.666
697.56	67.574
697.88	65.806
698.20	65.604
698.52	66.588
698.84	65.789
699.16	68.500
699.48	71.178
699.80	65.509
700.12	67.655
700.44	72.549
700.76	66.279
701.08	70.303
701.40	73.494
701.72	74.074
702.04	75.248
702.36	78.930
702.68	71.772
703.00	75.152
703.32	65.689
703.64	62.994
703.96	74.203
704.28	70.552
704.60	78.095
704.91	68.454
705.23	73.754
705.55	78.799
705.87	79.061
706.19	79.259
706.51	71.478
706.83	75.563
707.15	69.159
707.47	66.106
707.79	68.229
708.11	69.250
708.43	64.750
708.74	64.341
709.06	70.704
709.38	73.700
709.70	66.272
710.02	73.248
710.34	69.969
710.66	67.308
710.98	71.523
711.29	74.754
711.61	72.203
711.93	74.267
712.25	73.540
712.57	72.894
712.89	75.373
713.20	68.166
713.52	66.551
713.84	72.355
714.16	71.478
714.48	75.484
714.80	70.513
715.11	66.869
715.43	62.069
715.75	69.000
716.07	69.767
716.39	68.456
716.70	69.373
717.02	75.573
717.34	70.445
717.66	81.416
717.97	75.652
718.29	74.477
718.61	70.472
718.93	72.093
719.24	72.243
719.56	75.904
719.88	69.072
720.20	68.939
720.51	70.115
720.83	76.448
721.15	76.891
721.46	69.355
721.78	72.727
722.10	65.799
722.42	74.274
722.73	70.204
723.05	77.959
723.37	78.814
723.68	80.180
724.00	76.068
724.32	73.778
724.63	76.364
724.95	68.996
725.27	77.419
725.58	78.390
725.90	67.063
726.22	71.429
726.53	68.475
726.85	68.914
727.16	71.698
727.48	66.802
727.80	69.636
728.11	72.034
728.43	65.882
728.74	66.129
729.06	65.600
729.38	68.797
729.69	69.323
730.01	65.000
730.32	73.507
730.64	64.311
730.96	68.302
731.27	68.000
731.59	69.153
731.90	64.331
732.22	66.562
732.53	65.781
732.85	66.312
733.16	67.677
733.48	64.748
733.80	71.014
734.11	62.712
734.43	66.667
734.74	65.758
735.06	59.609
735.37	63.746
735.69	65.993
736.00	66.551
736.32	64.430
736.63	70.070
736.95	67.235
737.26	59.786
737.58	63.087
737.89	66.300
738.21	62.782
738.52	70.782
738.83	73.362
739.15	68.559
739.46	68.110
739.78	67.766
740.09	62.092
740.41	66.304
740.72	68.504
741.04	70.850
741.35	68.936
741.66	66.825
741.98	75.510
742.29	73.762
742.61	78.010
742.92	67.299
743.23	68.056
743.55	65.611
743.86	70.813
744.18	68.421
744.49	67.553
744.80	74.457
745.12	80.749
745.43	74.146
745.74	67.708
746.06	76.585
746.37	76.440
746.68	70.142
747.00	75.000
747.31	79.104
747.62	61.165
747.94	72.249
748.25	69.307
748.56	79.781
748.88	69.110
749.19	79.787
749.50	72.414
749.82	66.981
750.13	72.936
750.44	68.045
750.75	68.284
751.07	69.708
751.38	68.199
751.69	65.098
752.01	70.930
752.32	72.908
752.63	70.751
752.94	68.966
753.26	73.640
753.57	71.041
753.88	76.106
754.19	66.667
754.51	64.050
754.82	62.348
755.13	73.333
755.44	69.758
755.75	70.703
756.07	65.759
756.38	64.906
756.69	61.686
757.00	61.000
757.31	65.686
757.63	60.671
757.94	61.944
758.25	59.178
758.56	61.170
758.87	55.524
759.18	59.190
759.50	65.455
759.81	65.552
760.12	64.194
760.43	60.606
760.74	63.272
761.05	64.615
761.36	58.807
761.67	63.333
761.99	67.007
762.30	59.636
762.61	63.636
762.92	66.063
763.23	69.820
763.54	62.617
763.85	67.797
764.16	65.145
764.47	64.919
764.78	59.707
765.10	60.943
765.41	59.306
765.72	64.127
766.03	60.526
766.34	62.774
766.65	66.534
766.96	72.727
767.27	73.404
767.58	68.391
767.89	78.014
768.20	64.773
768.51	69.231
768.82	67.980
769.13	60.829
769.44	66.524
769.75	63.927
770.06	58.621
770.37	64.904
770.68	61.929
770.99	63.348
771.30	67.647
771.61	65.611
771.92	62.500
772.23	66.010
772.54	58.065
772.85	69.136
773.16	67.978
773.47	79.085
773.78	73.856
774.09	65.269
774.39	74.000
774.70	69.427
775.01	84.138
775.32	69.286
775.63	69.421
775.94	68.702
776.25	70.866
776.56	65.833
776.87	74.038
777.18	72.650
777.48	75.000
777.79	74.783
778.10	64.762
778.41	72.072
778.72	69.048
779.03	69.925
779.34	72.340
779.65	77.397
779.95	65.068
780.26	64.138
780.57	64.228
780.88	59.843
781.19	76.724
781.50	76.744
781.80	71.006
782.11	62.893
782.42	79.231
782.73	69.065
783.04	67.407
783.34	66.667
783.65	66.667
783.96	69.672
784.27	61.379
784.57	76.423
784.88	64.844
785.19	84.000
785.50	85.000
785.81	75.000
786.11	72.414
786.42	69.903
786.73	76.364
787.04	75.510
787.34	58.036
787.65	73.333
787.96	62.832
788.26	71.818
788.57	67.521
788.88	67.969
789.19	63.492
789.49	65.217
789.80	72.449
790.11	70.707
790.41	58.182
790.72	67.391
791.03	76.136
791.33	68.750
791.64	81.250
791.95	75.581
792.25	69.149
792.56	65.169
792.87	78.082
793.17	75.362
793.48	60.000
793.79	60.000
794.09	66.250
794.40	61.321
794.70	79.612
795.01	52.033
795.32	58.120
795.62	71.429
795.93	62.745
796.23	66.038
796.54	68.750
796.85	85.294
797.15	74.648
797.46	86.111
797.76	84.848
798.07	56.977
798.37	75.000
798.68	77.273
798.99	67.901
799.29	55.714
799.60	71.014
799.90	69.333
800.21	77.049
800.51	58.462
800.82	84.746
801.12	62.319
801.43	68.852
801.73	80.952
802.04	82.000
802.34	70.149
802.65	82.692
802.95	76.786
803.26	96.154
803.56	82.353
803.87	84.783
804.17	64.000
804.48	79.365
804.78	83.333
805.09	73.913
805.39	77.778
805.70	77.778
806.00	59.649
806.30	52.113
806.61	77.143
806.91	55.556
807.22	80.263
807.52	65.333
807.83	81.818
808.13	75.000
808.43	64.706
808.74	53.731
809.04	67.797
809.35	71.154
809.65	70.312
809.95	64.865
810.26	63.636
810.56	67.123
810.86	66.667
811.17	74.000
811.47	87.755
811.77	81.579
812.08	79.545
812.38	79.245
812.69	62.500
812.99	87.879
813.29	76.316
813.59	77.143
813.90	86.364
814.20	89.744
814.50	92.308
814.81	79.245
815.11	76.596
815.41	55.932
815.72	69.048
816.02	80.392
816.32	81.250
816.62	65.854
816.93	81.081
817.23	65.714
817.53	77.083
817.84	58.696
818.14	69.231
818.44	52.632
818.74	93.478
819.04	55.000
819.35	86.486
819.65	58.824
819.95	52.778
820.25	50.000
820.56	100.000
820.86	55.172
821.16	107.500
821.46	51.064
821.76	92.500
822.07	81.395
822.37	37.838
822.67	78.125
822.97	78.571
823.27	85.714
823.57	96.000
823.88	62.963
824.18	121.429
824.48	82.353
824.78	77.419
825.08	73.913
825.38	84.848
825.69	50.000
825.99	78.947
826.29	58.333
826.59	193.333
826.89	57.143
827.19	56.522
827.49	67.500
827.79	88.571
828.09	71.429
828.39	115.152
828.70	94.595
829.00	42.857
829.30	109.524
829.60	63.333
829.90	90.625
830.20	65.789
830.50	55.556
830.80	91.304
831.10	59.091
831.40	103.030
831.70	96.774
832.00	114.286
832.30	61.905
832.60	150.000
832.90	55.172
833.20	55.000
833.50	72.727
833.80	62.963
834.10	100.000
834.40	87.500
834.70	166.667
835.00	100.000
835.30	130.769
835.60	173.333
835.90	83.871
836.20	127.273
836.50	100.000
836.80	65.385
837.10	39.286
837.40	400.000
837.70	59.091
838.00	36.364
838.30	69.565
838.60	30.769
838.90	145.455
839.19	71.429
839.49	73.333
839.79	123.077
840.09	58.333
840.39	103.571
840.69	35.714
840.99	34.615
841.29	52.632
841.59	40.000
841.88	109.091
842.18	150.000
842.48	100.000
842.78	93.333
843.08	74.074
843.38	110.000
843.68	82.609
843.97	53.333
844.27	26.667
844.57	70.000
844.87	72.222
845.17	76.190
845.47	93.333
845.76	57.143
846.06	82.353
846.36	160.000
846.66	121.429
846.96	113.333
847.25	100.000
847.55	157.143
847.85	150.000
848.15	54.545
848.44	100.000
848.74	90.000
849.04	81.481
849.34	81.818
849.63	16.667
849.93	140.000
850.23	66.667
850.53	210.000
850.82	100.000
851.12	122.222
851.42	146.667
851.71	34.615
852.01	100.000
852.31	-50.000
852.61	54.545
852.90	65.000
853.20	100.000
853.50	58.333
853.79	65.217
854.09	104.167
854.39	52.632
854.68	87.500
854.98	74.194
855.28	80.769
855.57	100.000
855.87	144.444
856.17	59.259
856.46	85.714
856.76	80.000
857.05	266.667
857.35	76.000
857.65	88.889
857.94	15.385
858.24	51.724
858.53	127.778
858.83	85.185
859.13	45.455
859.42	39.130
859.72	150.000
860.01	233.333
860.31	92.000
860.60	104.762
860.90	-100.000
861.20	53.333
861.49	350.000
861.79	93.333
862.08	50.000
862.38	193.333
862.67	-40.000
862.97	50.000
863.26	91.667
863.56	88.889
863.85	166.667
864.15	61.111
864.44	80.000
864.74	128.571
865.03	100.000
865.33	100.000
865.62	366.667
865.92	0.000
866.21	-150.000
866.51	106.250
866.80	136.364
867.10	550.000
867.39	166.667
867.69	0.000
867.98	123.077
868.27	-33.333
868.57	53.333
868.86	61.111
869.16	38.462
869.45	120.000
869.75	-200.000
870.04	0.000
870.33	42.857
870.63	57.143
870.92	66.667
871.22	-240.000
871.51	-800.000
871.80	111.111
872.10	133.333
>>>>>End Processed Spectral Data<<<<<
