SpectraSuite Data File
++++++++++++++++++++++++++++++++++++
Date: Fri May 15 17:17:26 PDT 2015
User: schluterlab
Dark Spectrum Present: Yes
Reference Spectrum Present: Yes
Number of Sampled Component Spectra: 1
Spectrometers: USB2E3373
Integration Time (usec): 3000 (USB2E3373)
Spectra Averaged: 3 (USB2E3373)
Boxcar Smoothing: 0 (USB2E3373)
Correct for Electrical Dark: No (USB2E3373)
Strobe/Lamp Enabled: No (USB2E3373)
Correct for Detector Non-linearity: No (USB2E3373)
Correct for Stray Light: No (USB2E3373)
Number of Pixels in Processed Spectrum: 2048
>>>>>Begin Processed Spectral Data<<<<<
178.53	0.000
178.91	0.000
179.29	100.000
179.67	-250.000
180.04	-128.571
180.42	375.000
180.80	0.000
181.18	-366.667
181.56	150.000
181.94	100.000
182.31	500.000
182.69	220.000
183.07	-166.667
183.45	-60.000
183.83	116.667
184.20	72.727
184.58	33.333
184.96	-250.000
185.34	-533.333
185.72	150.000
186.09	53.846
186.47	-100.000
186.85	-116.667
187.23	-22.222
187.61	-800.000
187.98	266.667
188.36	66.667
188.74	166.667
189.12	76.471
189.49	38.889
189.87	0.000
190.25	121.429
190.63	300.000
191.00	366.667
191.38	57.895
191.76	300.000
192.14	-125.000
192.51	700.000
192.89	66.667
193.27	42.857
193.65	-16.667
194.02	90.909
194.40	60.000
194.78	37.500
195.15	91.667
195.53	100.000
195.91	50.000
196.29	-125.000
196.66	-0.000
197.04	100.000
197.42	22.222
197.79	-166.667
198.17	-38.462
198.55	1400.000
198.92	-100.000
199.30	600.000
199.68	20.000
200.05	-300.000
200.43	0.000
200.81	100.000
201.18	266.667
201.56	300.000
201.94	300.000
202.31	-33.333
202.69	0.000
203.07	-325.000
203.44	1000.000
203.82	0.000
204.19	57.143
204.57	-133.333
204.95	25.000
205.32	150.000
205.70	157.143
206.08	50.000
206.45	222.222
206.83	121.429
207.20	57.143
207.58	-300.000
207.96	266.667
208.33	50.000
208.71	100.000
209.08	50.000
209.46	500.000
209.84	120.000
210.21	-200.000
210.59	271.429
210.96	150.000
211.34	75.000
211.71	80.000
212.09	-14.286
212.46	-100.000
212.84	0.000
213.22	40.000
213.59	-100.000
213.97	130.769
214.34	100.000
214.72	16.667
215.09	100.000
215.47	46.154
215.84	9.091
216.22	-33.333
216.59	125.000
216.97	600.000
217.34	125.000
217.72	-20.000
218.09	137.500
218.47	-37.500
218.84	0.000
219.22	44.444
219.59	20.000
219.97	-66.667
220.34	-25.000
220.72	42.857
221.09	-50.000
221.47	250.000
221.84	-350.000
222.22	-400.000
222.59	72.727
222.97	100.000
223.34	133.333
223.72	57.143
224.09	33.333
224.46	28.571
224.84	166.667
225.21	190.000
225.59	93.333
225.96	600.000
226.34	125.000
226.71	57.143
227.08	66.667
227.46	50.000
227.83	-50.000
228.21	55.556
228.58	54.545
228.95	37.500
229.33	-0.000
229.70	68.750
230.08	50.000
230.45	85.714
230.82	85.714
231.20	46.667
231.57	121.429
231.95	128.571
232.32	60.000
232.69	57.143
233.07	466.667
233.44	120.000
233.81	80.000
234.19	22.222
234.56	29.412
234.93	50.000
235.31	375.000
235.68	-220.000
236.05	15.385
236.43	5.000
236.80	11.765
237.17	81.250
237.55	35.000
237.92	40.741
238.29	72.222
238.67	53.333
239.04	61.765
239.41	26.829
239.79	30.000
240.16	58.537
240.53	44.737
240.91	52.174
241.28	39.683
241.65	51.786
242.02	53.425
242.40	63.333
242.77	40.678
243.14	46.970
243.51	50.000
243.89	64.368
244.26	34.483
244.63	52.381
245.00	43.299
245.38	52.577
245.75	38.202
246.12	39.655
246.49	47.934
246.87	46.154
247.24	42.017
247.61	37.719
247.98	37.398
248.36	38.750
248.73	46.711
249.10	36.364
249.47	38.608
249.84	43.791
250.22	43.529
250.59	42.484
250.96	37.559
251.33	44.186
251.70	43.529
252.08	43.147
252.45	40.594
252.82	41.206
253.19	43.779
253.56	36.449
253.94	42.342
254.31	40.435
254.68	46.491
255.05	40.157
255.42	45.415
255.79	41.699
256.16	39.300
256.54	40.672
256.91	46.388
257.28	40.892
257.65	38.951
258.02	37.943
258.39	41.414
258.76	39.560
259.14	44.186
259.51	39.159
259.88	42.268
260.25	40.523
260.62	43.056
260.99	40.678
261.36	43.493
261.73	38.924
262.10	42.553
262.47	40.184
262.85	44.201
263.22	41.231
263.59	41.121
263.96	44.099
264.33	39.394
264.70	38.690
265.07	41.071
265.44	43.909
265.81	42.655
266.18	41.803
266.55	40.103
266.92	41.451
267.29	42.037
267.66	37.852
268.03	40.576
268.40	38.381
268.77	39.305
269.14	40.048
269.51	40.360
269.88	40.399
270.25	36.735
270.62	38.780
270.99	40.153
271.36	34.963
271.73	39.437
272.10	42.336
272.47	41.844
272.84	37.376
273.21	39.443
273.58	40.000
273.95	40.961
274.32	38.568
274.69	36.425
275.06	42.188
275.43	35.374
275.80	40.839
276.17	41.839
276.54	37.901
276.91	37.281
277.28	38.646
277.65	38.017
278.02	36.170
278.39	36.543
278.76	39.623
279.13	36.307
279.50	40.126
279.87	38.445
280.23	36.774
280.60	38.207
280.97	36.768
281.34	35.192
281.71	40.041
282.08	37.014
282.45	36.986
282.82	37.259
283.19	41.006
283.56	36.416
283.92	37.951
284.29	35.769
284.66	38.566
285.03	34.774
285.40	38.563
285.77	36.028
286.14	35.740
286.51	37.085
286.87	36.746
287.24	38.858
287.61	36.332
287.98	37.719
288.35	36.915
288.72	38.704
289.08	35.243
289.45	34.974
289.82	32.867
290.19	34.812
290.56	34.305
290.93	32.828
291.29	31.279
291.66	31.811
292.03	30.941
292.40	33.387
292.77	32.376
293.13	29.545
293.50	30.349
293.87	32.366
294.24	29.521
294.60	30.104
294.97	31.696
295.34	29.448
295.71	29.657
296.08	29.746
296.44	27.596
296.81	28.333
297.18	29.130
297.55	28.862
297.91	26.986
298.28	29.420
298.65	26.323
299.02	27.628
299.38	26.402
299.75	27.862
300.12	27.880
300.48	27.668
300.85	27.250
301.22	27.143
301.59	26.579
301.95	28.734
302.32	27.756
302.69	25.124
303.05	26.609
303.42	25.156
303.79	25.818
304.15	25.926
304.52	23.781
304.89	25.731
305.25	24.818
305.62	23.687
305.99	25.614
306.35	25.202
306.72	25.197
307.09	25.656
307.45	25.603
307.82	25.347
308.19	26.597
308.55	24.537
308.92	25.272
309.29	23.352
309.65	24.865
310.02	25.853
310.38	24.149
310.75	25.464
311.12	25.296
311.48	23.754
311.85	24.503
312.22	23.312
312.58	23.779
312.95	23.693
313.31	23.499
313.68	23.351
314.05	23.469
314.41	25.258
314.78	25.155
315.14	24.049
315.51	24.120
315.87	23.770
316.24	26.087
316.61	25.492
316.97	24.504
317.34	24.316
317.70	22.945
318.07	25.000
318.43	23.725
318.80	23.958
319.16	24.316
319.53	25.451
319.89	25.197
320.26	25.101
320.62	26.179
320.99	24.217
321.35	24.974
321.72	27.934
322.08	25.680
322.45	27.513
322.81	26.326
323.18	26.889
323.54	27.220
323.91	27.264
324.27	27.832
324.64	27.809
325.00	27.920
325.37	29.844
325.73	27.833
326.10	29.246
326.46	30.583
326.83	29.746
327.19	29.991
327.56	29.713
327.92	32.835
328.29	30.804
328.65	32.830
329.01	31.893
329.38	32.166
329.74	32.672
330.11	32.623
330.47	32.004
330.84	32.019
331.20	35.266
331.56	33.333
331.93	34.977
332.29	33.364
332.66	33.937
333.02	34.758
333.38	34.555
333.75	34.890
334.11	34.378
334.48	34.814
334.84	35.989
335.20	35.773
335.57	33.998
335.93	34.688
336.29	34.715
336.66	34.696
337.02	34.758
337.38	35.648
337.75	36.273
338.11	36.159
338.47	36.588
338.84	36.322
339.20	36.015
339.56	37.706
339.93	36.974
340.29	36.147
340.65	37.993
341.02	36.259
341.38	36.018
341.74	35.071
342.11	34.489
342.47	38.078
342.83	36.938
343.20	35.279
343.56	36.696
343.92	36.758
344.28	37.660
344.65	35.751
345.01	36.301
345.37	35.744
345.73	36.067
346.10	36.756
346.46	37.847
346.82	35.597
347.19	36.575
347.55	37.260
347.91	36.246
348.27	35.408
348.63	37.649
349.00	35.521
349.36	35.910
349.72	37.645
350.08	36.803
350.45	36.153
350.81	36.130
351.17	36.645
351.53	36.163
351.89	35.673
352.26	36.640
352.62	36.855
352.98	37.028
353.34	37.037
353.70	37.702
354.07	36.371
354.43	36.189
354.79	35.838
355.15	37.302
355.51	36.788
355.87	37.945
356.24	36.134
356.60	37.429
356.96	38.175
357.32	37.780
357.68	36.200
358.04	36.834
358.40	37.219
358.77	37.640
359.13	37.310
359.49	35.516
359.85	38.768
360.21	37.560
360.57	37.567
360.93	36.687
361.29	34.819
361.66	38.950
362.02	39.015
362.38	37.700
362.74	38.153
363.10	39.052
363.46	37.658
363.82	37.791
364.18	38.450
364.54	37.647
364.90	38.638
365.26	38.574
365.62	40.803
365.98	38.416
366.35	39.913
366.71	39.911
367.07	39.623
367.43	38.533
367.79	38.940
368.15	38.981
368.51	38.966
368.87	39.124
369.23	37.834
369.59	38.120
369.95	40.836
370.31	40.390
370.67	39.104
371.03	39.507
371.39	39.825
371.75	38.608
372.11	40.157
372.47	39.349
372.83	39.957
373.19	40.300
373.55	40.578
373.91	40.029
374.27	40.255
374.63	41.350
374.99	40.567
375.35	41.086
375.71	41.329
376.07	41.433
376.42	42.313
376.78	41.946
377.14	40.487
377.50	41.899
377.86	41.098
378.22	41.289
378.58	41.410
378.94	40.454
379.30	40.299
379.66	41.254
380.02	41.570
380.38	41.023
380.74	41.412
381.09	41.534
381.45	41.713
381.81	43.307
382.17	41.815
382.53	42.099
382.89	42.310
383.25	42.999
383.61	43.049
383.97	42.222
384.32	42.089
384.68	42.539
385.04	42.953
385.40	42.564
385.76	43.774
386.12	43.208
386.48	44.253
386.83	42.803
387.19	42.918
387.55	43.852
387.91	43.460
388.27	43.040
388.62	44.116
388.98	43.339
389.34	43.285
389.70	43.319
390.06	42.480
390.42	43.135
390.77	43.492
391.13	42.623
391.49	43.596
391.85	43.860
392.20	42.750
392.56	44.183
392.92	43.688
393.28	44.281
393.64	42.883
393.99	45.204
394.35	43.833
394.71	44.572
395.07	43.055
395.42	43.291
395.78	44.039
396.14	44.136
396.50	45.656
396.85	44.108
397.21	43.421
397.57	43.323
397.92	43.499
398.28	43.046
398.64	42.952
399.00	42.720
399.35	42.946
399.71	42.102
400.07	43.712
400.42	43.758
400.78	43.601
401.14	42.892
401.49	43.895
401.85	41.682
402.21	42.711
402.57	43.125
402.92	42.911
403.28	42.231
403.63	43.506
403.99	42.092
404.35	43.036
404.70	43.214
405.06	42.479
405.42	42.573
405.77	41.429
406.13	42.258
406.49	41.978
406.84	43.276
407.20	42.806
407.55	43.400
407.91	42.848
408.27	41.491
408.62	41.846
408.98	41.528
409.34	43.804
409.69	41.925
410.05	41.626
410.40	42.901
410.76	42.159
411.11	42.875
411.47	42.604
411.83	41.368
412.18	42.471
412.54	42.322
412.89	42.118
413.25	43.381
413.60	40.994
413.96	41.718
414.31	42.744
414.67	41.309
415.03	41.545
415.38	42.298
415.74	42.476
416.09	43.109
416.45	42.944
416.80	42.300
417.16	44.130
417.51	42.372
417.87	42.308
418.22	42.098
418.58	43.478
418.93	43.072
419.29	41.101
419.64	43.163
420.00	42.632
420.35	42.328
420.71	42.406
421.06	41.559
421.42	42.909
421.77	42.370
422.12	42.452
422.48	42.501
422.83	41.531
423.19	43.284
423.54	42.563
423.90	41.991
424.25	42.882
424.61	43.574
424.96	43.031
425.31	43.616
425.67	43.838
426.02	44.170
426.38	44.897
426.73	42.857
427.09	44.177
427.44	43.235
427.79	44.313
428.15	43.265
428.50	44.640
428.85	43.489
429.21	43.011
429.56	44.367
429.92	42.835
430.27	43.459
430.62	42.917
430.98	42.516
431.33	43.060
431.68	43.276
432.04	44.494
432.39	43.012
432.74	43.476
433.10	44.943
433.45	43.668
433.80	44.399
434.16	44.044
434.51	44.892
434.86	46.109
435.22	44.756
435.57	44.292
435.92	44.910
436.28	44.305
436.63	43.697
436.98	44.032
437.34	44.586
437.69	45.796
438.04	44.672
438.39	44.349
438.75	44.991
439.10	44.652
439.45	45.831
439.81	45.872
440.16	46.971
440.51	46.149
440.86	46.526
441.22	45.249
441.57	46.468
441.92	46.432
442.27	46.175
442.63	46.360
442.98	45.721
443.33	44.964
443.68	44.668
444.03	47.044
444.39	45.548
444.74	47.380
445.09	47.216
445.44	47.066
445.79	47.860
446.15	46.476
446.50	45.757
446.85	46.812
447.20	45.985
447.55	47.098
447.91	47.716
448.26	46.557
448.61	48.014
448.96	47.103
449.31	46.763
449.66	46.458
450.02	47.176
450.37	47.362
450.72	47.709
451.07	47.278
451.42	47.129
451.77	46.172
452.12	45.993
452.47	46.426
452.83	47.055
453.18	47.122
453.53	46.966
453.88	47.237
454.23	47.203
454.58	47.733
454.93	48.003
455.28	46.857
455.63	47.799
455.98	47.444
456.34	47.637
456.69	48.030
457.04	49.023
457.39	47.874
457.74	47.703
458.09	47.440
458.44	46.870
458.79	46.275
459.14	48.513
459.49	48.358
459.84	47.152
460.19	48.968
460.54	48.655
460.89	47.386
461.24	47.267
461.59	48.931
461.94	47.987
462.29	48.432
462.64	47.176
462.99	46.987
463.34	49.374
463.69	48.198
464.04	49.637
464.39	48.029
464.74	47.178
465.09	48.472
465.44	48.529
465.79	46.939
466.14	48.290
466.49	48.016
466.84	47.829
467.19	48.623
467.54	47.254
467.89	48.452
468.24	48.540
468.59	50.095
468.94	49.079
469.29	48.066
469.64	48.052
469.99	50.456
470.34	48.942
470.68	49.441
471.03	50.318
471.38	49.429
471.73	50.070
472.08	48.236
472.43	50.604
472.78	48.184
473.13	49.932
473.48	49.316
473.83	49.066
474.17	49.158
474.52	49.458
474.87	49.515
475.22	49.054
475.57	49.068
475.92	49.753
476.27	49.884
476.61	50.694
476.96	49.582
477.31	50.352
477.66	49.775
478.01	51.095
478.36	49.455
478.70	51.223
479.05	50.385
479.40	50.026
479.75	49.322
480.10	48.950
480.45	50.000
480.79	51.208
481.14	51.025
481.49	49.261
481.84	50.386
482.19	49.345
482.53	50.552
482.88	49.690
483.23	50.240
483.58	49.811
483.92	49.080
484.27	49.863
484.62	50.022
484.97	49.585
485.31	49.639
485.66	48.146
486.01	48.399
486.36	47.805
486.70	47.568
487.05	48.224
487.40	48.837
487.75	49.577
488.09	49.629
488.44	50.653
488.79	51.251
489.13	51.603
489.48	50.492
489.83	50.000
490.17	50.022
490.52	51.363
490.87	49.468
491.22	50.907
491.56	51.044
491.91	50.621
492.26	51.483
492.60	49.760
492.95	51.549
493.30	49.243
493.64	51.228
493.99	51.208
494.34	50.534
494.68	51.000
495.03	50.608
495.37	51.570
495.72	51.439
496.07	51.610
496.41	50.660
496.76	51.497
497.11	50.442
497.45	51.551
497.80	51.766
498.14	51.465
498.49	50.127
498.84	51.597
499.18	51.155
499.53	51.984
499.87	50.778
500.22	51.385
500.56	52.900
500.91	51.104
501.26	51.607
501.60	51.599
501.95	52.402
502.29	52.300
502.64	51.834
502.98	52.886
503.33	50.720
503.67	52.482
504.02	52.346
504.36	52.400
504.71	52.778
505.06	51.988
505.40	53.198
505.75	54.124
506.09	52.813
506.44	55.133
506.78	53.724
507.13	53.826
507.47	53.890
507.82	53.205
508.16	54.094
508.51	53.987
508.85	54.265
509.19	54.604
509.54	54.477
509.88	54.639
510.23	54.061
510.57	54.837
510.92	53.891
511.26	55.319
511.61	55.556
511.95	54.904
512.30	55.876
512.64	56.316
512.98	55.587
513.33	56.072
513.67	55.941
514.02	58.295
514.36	57.371
514.70	58.974
515.05	58.754
515.39	57.851
515.74	58.743
516.08	59.115
516.42	59.246
516.77	58.338
517.11	59.110
517.46	58.947
517.80	60.310
518.14	59.339
518.49	60.216
518.83	60.510
519.17	59.491
519.52	59.384
519.86	60.024
520.20	59.721
520.55	59.912
520.89	62.233
521.23	61.178
521.58	61.956
521.92	61.987
522.26	60.833
522.61	62.013
522.95	64.702
523.29	61.881
523.64	63.278
523.98	64.614
524.32	62.951
524.66	63.764
525.01	64.286
525.35	63.772
525.69	64.646
526.04	63.492
526.38	65.305
526.72	63.440
527.06	64.008
527.41	64.182
527.75	64.410
528.09	65.515
528.43	65.226
528.78	65.677
529.12	64.387
529.46	67.122
529.80	63.141
530.15	66.667
530.49	64.781
530.83	65.663
531.17	66.286
531.51	68.194
531.86	66.349
532.20	67.154
532.54	66.712
532.88	67.214
533.22	65.255
533.57	65.465
533.91	66.319
534.25	67.057
534.59	66.838
534.93	65.261
535.27	65.863
535.62	67.207
535.96	67.580
536.30	66.821
536.64	69.538
536.98	67.178
537.32	68.634
537.66	68.233
538.01	68.811
538.35	66.574
538.69	67.643
539.03	65.414
539.37	66.083
539.71	68.712
540.05	66.259
540.39	68.629
540.73	69.526
541.07	68.232
541.42	67.809
541.76	68.823
542.10	67.791
542.44	69.910
542.78	67.515
543.12	68.887
543.46	68.220
543.80	70.784
544.14	67.156
544.48	67.755
544.82	67.874
545.16	70.150
545.50	68.091
545.84	68.909
546.18	71.206
546.52	69.575
546.86	69.446
547.20	70.029
547.54	67.986
547.88	69.905
548.22	68.113
548.56	67.678
548.90	68.666
549.24	68.113
549.58	68.124
549.92	70.050
550.26	70.256
550.60	70.781
550.94	70.500
551.28	72.102
551.62	70.154
551.96	69.549
552.30	70.614
552.64	69.111
552.98	69.620
553.32	69.116
553.66	69.594
554.00	71.387
554.34	71.344
554.68	68.879
555.02	70.387
555.36	70.681
555.69	71.575
556.03	70.236
556.37	69.039
556.71	71.480
557.05	71.812
557.39	70.260
557.73	71.664
558.07	71.493
558.41	73.507
558.75	73.578
559.08	72.656
559.42	73.254
559.76	72.618
560.10	70.872
560.44	71.780
560.78	70.629
561.12	71.862
561.45	73.366
561.79	71.709
562.13	72.179
562.47	71.655
562.81	72.190
563.15	71.439
563.48	70.934
563.82	71.448
564.16	70.543
564.50	70.811
564.84	69.946
565.17	69.752
565.51	73.497
565.85	73.731
566.19	70.690
566.52	71.113
566.86	71.272
567.20	70.859
567.54	70.864
567.88	71.178
568.21	69.683
568.55	69.511
568.89	69.764
569.23	69.331
569.56	68.082
569.90	68.088
570.24	66.840
570.57	67.927
570.91	67.201
571.25	67.050
571.59	65.805
571.92	64.444
572.26	65.127
572.60	65.674
572.93	65.704
573.27	65.110
573.61	66.199
573.95	65.593
574.28	65.201
574.62	64.226
574.96	63.949
575.29	64.059
575.63	63.514
575.97	64.543
576.30	65.308
576.64	63.894
576.98	65.534
577.31	65.618
577.65	64.633
577.98	63.926
578.32	63.712
578.66	63.400
578.99	63.968
579.33	63.902
579.67	63.008
580.00	64.785
580.34	65.174
580.67	65.084
581.01	64.697
581.35	64.492
581.68	64.554
582.02	64.122
582.35	64.141
582.69	64.823
583.02	63.683
583.36	65.342
583.70	67.160
584.03	66.889
584.37	67.928
584.70	66.181
585.04	64.819
585.37	65.528
585.71	65.712
586.04	65.103
586.38	65.671
586.72	66.456
587.05	68.198
587.39	66.676
587.72	67.031
588.06	67.036
588.39	67.217
588.73	67.613
589.06	68.852
589.40	67.853
589.73	68.164
590.07	69.071
590.40	69.853
590.73	70.634
591.07	70.017
591.40	69.813
591.74	70.090
592.07	70.826
592.41	70.141
592.74	69.494
593.08	67.307
593.41	67.545
593.75	66.503
594.08	67.010
594.41	68.850
594.75	68.588
595.08	69.012
595.42	69.010
595.75	69.508
596.09	69.547
596.42	70.112
596.75	69.671
597.09	69.522
597.42	69.151
597.75	71.049
598.09	68.764
598.42	69.765
598.76	68.468
599.09	68.510
599.42	66.957
599.76	67.419
600.09	68.627
600.42	67.324
600.76	67.459
601.09	69.198
601.42	67.998
601.76	69.115
602.09	69.637
602.42	69.882
602.76	69.610
603.09	69.477
603.42	69.607
603.76	70.242
604.09	68.894
604.42	69.459
604.76	70.227
605.09	70.887
605.42	70.339
605.75	69.921
606.09	68.960
606.42	70.017
606.75	67.879
607.09	69.978
607.42	68.764
607.75	70.515
608.08	68.284
608.42	68.799
608.75	70.506
609.08	70.553
609.41	71.320
609.75	70.968
610.08	72.341
610.41	70.145
610.74	70.453
611.07	72.558
611.41	71.406
611.74	73.348
612.07	71.306
612.40	72.265
612.73	72.429
613.07	71.035
613.40	71.882
613.73	71.964
614.06	71.341
614.39	72.532
614.72	72.101
615.06	71.508
615.39	69.978
615.72	70.990
616.05	73.408
616.38	70.655
616.71	72.538
617.05	73.317
617.38	73.162
617.71	74.151
618.04	73.397
618.37	74.023
618.70	73.993
619.03	75.069
619.36	75.181
619.69	76.952
620.03	75.603
620.36	76.323
620.69	74.019
621.02	74.312
621.35	77.593
621.68	78.486
622.01	78.167
622.34	75.579
622.67	76.341
623.00	74.273
623.33	75.305
623.66	74.271
623.99	75.340
624.32	76.274
624.65	74.511
624.99	76.448
625.32	73.616
625.65	78.162
625.98	77.196
626.31	76.559
626.64	78.943
626.97	76.963
627.30	77.320
627.63	76.776
627.96	78.167
628.29	77.058
628.62	79.351
628.95	78.758
629.28	81.855
629.61	78.465
629.94	78.495
630.26	78.261
630.59	82.102
630.92	79.487
631.25	79.897
631.58	80.507
631.91	80.811
632.24	80.275
632.57	81.477
632.90	81.732
633.23	79.176
633.56	84.005
633.89	82.984
634.22	84.198
634.55	83.736
634.88	83.142
635.20	81.410
635.53	84.400
635.86	82.185
636.19	83.441
636.52	81.888
636.85	81.762
637.18	79.623
637.51	81.761
637.83	82.786
638.16	87.176
638.49	82.561
638.82	83.289
639.15	85.482
639.48	83.631
639.81	83.543
640.13	85.426
640.46	85.423
640.79	85.125
641.12	83.752
641.45	85.586
641.77	83.111
642.10	89.889
642.43	88.103
642.76	86.634
643.09	84.168
643.41	86.893
643.74	83.526
644.07	85.878
644.40	86.993
644.73	89.142
645.05	86.913
645.38	88.889
645.71	87.057
646.04	90.305
646.36	88.652
646.69	87.770
647.02	91.493
647.35	89.552
647.67	88.117
648.00	87.687
648.33	87.884
648.66	86.441
648.98	85.595
649.31	86.116
649.64	82.732
649.96	84.927
650.29	87.905
650.62	87.350
650.94	89.259
651.27	89.013
651.60	86.847
651.92	86.014
652.25	88.455
652.58	83.333
652.90	88.851
653.23	84.874
653.56	80.880
653.88	82.302
654.21	84.238
654.54	83.192
654.86	86.418
655.19	82.018
655.52	74.613
655.84	64.172
656.17	71.106
656.49	95.788
656.82	99.336
657.15	78.606
657.47	58.837
657.80	44.657
658.13	44.360
658.45	70.420
658.78	71.087
659.10	72.363
659.43	73.309
659.75	77.553
660.08	79.241
660.41	84.270
660.73	82.459
661.06	86.482
661.38	87.476
661.71	85.421
662.03	90.987
662.36	86.154
662.68	88.496
663.01	91.921
663.33	90.255
663.66	89.535
663.98	88.372
664.31	86.780
664.63	89.401
664.96	88.043
665.28	89.404
665.61	89.394
665.93	86.087
666.26	90.672
666.58	90.604
666.91	92.941
667.23	91.509
667.56	90.521
667.88	88.249
668.21	91.885
668.53	91.726
668.86	91.509
669.18	85.613
669.50	87.651
669.83	86.977
670.15	91.608
670.48	87.560
670.80	89.631
671.13	86.577
671.45	87.443
671.77	89.485
672.10	85.545
672.42	82.584
672.75	82.060
673.07	81.574
673.39	83.670
673.72	83.235
674.04	84.583
674.37	87.288
674.69	88.009
675.01	87.778
675.34	86.486
675.66	87.037
675.98	88.248
676.31	85.780
676.63	91.211
676.95	85.682
677.28	86.353
677.60	89.398
677.92	86.009
678.25	88.621
678.57	84.848
678.89	85.294
679.22	88.143
679.54	83.133
679.86	81.710
680.18	84.660
680.51	81.061
680.83	82.903
681.15	85.000
681.48	85.041
681.80	84.917
682.12	83.871
682.44	84.728
682.77	88.300
683.09	87.414
683.41	85.000
683.73	86.866
684.06	80.973
684.38	84.086
684.70	89.107
685.02	84.647
685.34	79.051
685.67	82.176
685.99	80.108
686.31	82.655
686.63	79.777
686.96	79.658
687.28	85.657
687.60	79.278
687.92	86.869
688.24	81.250
688.56	84.716
688.89	84.598
689.21	86.667
689.53	83.063
689.85	83.488
690.17	83.036
690.49	83.688
690.82	85.922
691.14	86.429
691.46	85.514
691.78	84.459
692.10	80.860
692.42	84.632
692.74	82.906
693.06	82.432
693.39	80.090
693.71	81.222
694.03	84.527
694.35	83.178
694.67	84.596
694.99	84.856
695.31	89.034
695.63	83.250
695.95	84.848
696.27	88.083
696.59	87.222
696.91	83.473
697.23	82.519
697.56	85.891
697.88	81.290
698.20	80.182
698.52	82.353
698.84	82.775
699.16	86.750
699.48	84.211
699.80	82.382
700.12	85.445
700.44	86.835
700.76	84.012
701.08	82.121
701.40	85.241
701.72	88.889
702.04	91.749
702.36	90.301
702.68	87.087
703.00	84.242
703.32	81.818
703.64	80.226
703.96	85.797
704.28	86.196
704.60	83.492
704.91	82.019
705.23	85.714
705.55	96.820
705.87	90.614
706.19	91.852
706.51	91.409
706.83	85.852
707.15	86.293
707.47	81.232
707.79	75.521
708.11	80.500
708.43	80.250
708.74	80.103
709.06	86.197
709.38	90.520
709.70	87.574
710.02	81.847
710.34	86.687
710.66	78.205
710.98	84.437
711.29	83.934
711.61	91.525
711.93	81.433
712.25	90.034
712.57	89.377
712.89	84.701
713.20	86.505
713.52	80.836
713.84	83.618
714.16	82.818
714.48	82.903
714.80	81.410
715.11	81.763
715.43	81.818
715.75	82.667
716.07	79.402
716.39	83.557
716.70	83.395
717.02	83.969
717.34	89.069
717.66	92.035
717.97	91.304
718.29	89.540
718.61	84.646
718.93	84.884
719.24	84.411
719.56	88.353
719.88	77.320
720.20	82.576
720.51	81.226
720.83	85.714
721.15	85.294
721.46	84.677
721.78	81.423
722.10	85.502
722.42	91.286
722.73	83.265
723.05	85.306
723.37	91.102
723.68	86.486
724.00	87.607
724.32	92.000
724.63	90.000
724.95	83.843
725.27	88.479
725.58	80.085
725.90	82.937
726.22	81.467
726.53	77.627
726.85	83.521
727.16	85.283
727.48	79.352
727.80	84.211
728.11	83.898
728.43	84.706
728.74	78.629
729.06	79.200
729.38	83.835
729.69	82.072
730.01	79.231
730.32	84.701
730.64	83.746
730.96	83.396
731.27	75.333
731.59	84.068
731.90	77.070
732.22	79.495
732.53	80.399
732.85	79.433
733.16	81.145
733.48	78.777
733.80	84.783
734.11	77.288
734.43	85.223
734.74	75.758
735.06	78.827
735.37	77.946
735.69	84.848
736.00	73.868
736.32	76.174
736.63	82.746
736.95	76.109
737.26	80.071
737.58	76.174
737.89	75.824
738.21	77.820
738.52	89.300
738.83	83.406
739.15	82.096
739.46	80.315
739.78	78.022
740.09	74.183
740.41	79.710
740.72	75.197
741.04	80.162
741.35	76.596
741.66	78.673
741.98	83.673
742.29	83.663
742.61	92.147
742.92	76.777
743.23	78.704
743.55	79.186
743.86	83.732
744.18	78.947
744.49	81.915
744.80	90.761
745.12	87.701
745.43	80.000
745.74	92.188
746.06	80.488
746.37	85.340
746.68	88.152
747.00	90.957
747.31	84.577
747.62	77.184
747.94	81.818
748.25	88.119
748.56	88.525
748.88	87.435
749.19	88.298
749.50	79.310
749.82	77.358
750.13	84.862
750.44	76.692
750.75	76.119
751.07	87.226
751.38	80.460
751.69	74.118
752.01	80.233
752.32	80.876
752.63	76.285
752.94	82.759
753.26	84.519
753.57	79.638
753.88	79.204
754.19	80.417
754.51	77.686
754.82	80.162
755.13	87.500
755.44	84.274
755.75	82.422
756.07	80.156
756.38	75.849
756.69	79.693
757.00	71.333
757.31	79.085
757.63	70.427
757.94	70.278
758.25	72.055
758.56	72.074
758.87	71.105
759.18	68.536
759.50	76.000
759.81	79.933
760.12	78.387
760.43	71.212
760.74	79.012
761.05	73.538
761.36	72.443
761.67	76.364
761.99	79.252
762.30	71.273
762.61	78.261
762.92	78.281
763.23	76.126
763.54	77.570
763.85	79.661
764.16	74.689
764.47	76.210
764.78	72.527
765.10	74.411
765.41	74.132
765.72	71.429
766.03	78.195
766.34	72.993
766.65	76.892
766.96	83.333
767.27	80.319
767.58	83.333
767.89	80.851
768.20	76.705
768.51	84.066
768.82	80.296
769.13	70.968
769.44	69.528
769.75	76.256
770.06	76.293
770.37	74.038
770.68	77.665
770.99	68.778
771.30	83.824
771.61	76.471
771.92	73.707
772.23	79.310
772.54	86.022
772.85	87.037
773.16	80.337
773.47	90.850
773.78	89.542
774.09	77.844
774.39	82.667
774.70	81.529
775.01	88.966
775.32	83.571
775.63	80.165
775.94	83.206
776.25	81.890
776.56	79.167
776.87	80.769
777.18	83.761
777.48	77.586
777.79	76.522
778.10	76.190
778.41	77.477
778.72	80.952
779.03	78.947
779.34	76.596
779.65	77.397
779.95	81.507
780.26	83.448
780.57	78.862
780.88	83.465
781.19	85.345
781.50	86.047
781.80	72.189
782.11	74.214
782.42	87.692
782.73	80.576
783.04	78.519
783.34	75.000
783.65	79.487
783.96	86.066
784.27	75.172
784.57	77.236
784.88	81.250
785.19	91.000
785.50	96.000
785.81	77.586
786.11	81.034
786.42	81.553
786.73	80.909
787.04	87.755
787.34	78.571
787.65	79.048
787.96	76.106
788.26	79.091
788.57	71.795
788.88	72.656
789.19	72.222
789.49	84.348
789.80	87.755
790.11	75.758
790.41	70.000
790.72	86.957
791.03	81.818
791.33	101.250
791.64	68.750
791.95	77.907
792.25	82.979
792.56	74.157
792.87	90.411
793.17	95.652
793.48	84.000
793.79	77.500
794.09	95.000
794.40	77.358
794.70	74.757
795.01	65.041
795.32	67.521
795.62	73.333
795.93	71.569
796.23	75.472
796.54	81.250
796.85	107.353
797.15	83.099
797.46	80.556
797.76	90.909
798.07	68.605
798.37	51.316
798.68	69.697
798.99	65.432
799.29	70.000
799.60	91.304
799.90	86.667
800.21	75.410
800.51	70.769
800.82	88.136
801.12	78.261
801.43	91.803
801.73	76.190
802.04	106.000
802.34	82.090
802.65	55.769
802.95	78.571
803.26	96.154
803.56	98.039
803.87	78.261
804.17	61.333
804.48	85.714
804.78	90.741
805.09	102.174
805.39	75.556
805.70	88.889
806.00	70.175
806.30	61.972
806.61	94.286
806.91	80.556
807.22	86.842
807.52	89.333
807.83	90.909
808.13	75.000
808.43	73.529
808.74	68.657
809.04	91.525
809.35	94.231
809.65	75.000
809.95	81.081
810.26	84.091
810.56	63.014
810.86	76.190
811.17	106.000
811.47	102.041
811.77	73.684
812.08	63.636
812.38	75.472
812.69	70.000
812.99	109.091
813.29	86.842
813.59	77.143
813.90	86.364
814.20	92.308
814.50	73.077
814.81	81.132
815.11	85.106
815.41	72.881
815.72	95.238
816.02	62.745
816.32	87.500
816.62	60.976
816.93	75.676
817.23	77.143
817.53	77.083
817.84	65.217
818.14	67.308
818.44	57.895
818.74	80.435
819.04	37.500
819.35	105.405
819.65	70.588
819.95	55.556
820.25	71.429
820.56	97.500
820.86	55.172
821.16	97.500
821.46	61.702
821.76	85.000
822.07	58.140
822.37	48.649
822.67	65.625
822.97	90.476
823.27	53.571
823.57	84.000
823.88	107.407
824.18	100.000
824.48	58.824
824.78	77.419
825.08	130.435
825.38	90.909
825.69	75.000
825.99	60.526
826.29	80.556
826.59	166.667
826.89	95.238
827.19	71.739
827.49	60.000
827.79	111.429
828.09	107.143
828.39	109.091
828.70	94.595
829.00	78.571
829.30	52.381
829.60	90.000
829.90	81.250
830.20	47.368
830.50	77.778
830.80	100.000
831.10	86.364
831.40	84.848
831.70	100.000
832.00	114.286
832.30	38.095
832.60	133.333
832.90	75.862
833.20	80.000
833.50	54.545
833.80	70.370
834.10	96.154
834.40	112.500
834.70	200.000
835.00	57.895
835.30	100.000
835.60	180.000
835.90	119.355
836.20	122.727
836.50	100.000
836.80	57.692
837.10	92.857
837.40	266.667
837.70	118.182
838.00	145.455
838.30	104.348
838.60	123.077
838.90	118.182
839.19	75.000
839.49	96.667
839.79	100.000
840.09	158.333
840.39	92.857
840.69	67.857
840.99	53.846
841.29	47.368
841.59	20.000
841.88	118.182
842.18	180.000
842.48	112.500
842.78	86.667
843.08	107.407
843.38	140.000
843.68	56.522
843.97	113.333
844.27	53.333
844.57	105.000
844.87	88.889
845.17	66.667
845.47	106.667
845.76	42.857
846.06	105.882
846.36	130.000
846.66	64.286
846.96	86.667
847.25	-37.500
847.55	114.286
847.85	87.500
848.15	36.364
848.44	100.000
848.74	65.000
849.04	107.407
849.34	154.545
849.63	150.000
849.93	100.000
850.23	127.778
850.53	120.000
850.82	115.385
851.12	55.556
851.42	93.333
851.71	69.231
852.01	92.857
852.31	350.000
852.61	109.091
852.90	50.000
853.20	73.684
853.50	141.667
853.79	60.870
854.09	108.333
854.39	126.316
854.68	50.000
854.98	48.387
855.28	65.385
855.57	50.000
855.87	61.111
856.17	88.889
856.46	64.286
856.76	66.667
857.05	144.444
857.35	64.000
857.65	94.444
857.94	46.154
858.24	96.552
858.53	22.222
858.83	40.741
859.13	45.455
859.42	47.826
859.72	400.000
860.01	-166.667
860.31	32.000
860.60	66.667
860.90	133.333
861.20	6.667
861.49	200.000
861.79	100.000
862.08	25.000
862.38	160.000
862.67	60.000
862.97	166.667
863.26	108.333
863.56	83.333
863.85	-233.333
864.15	144.444
864.44	70.000
864.74	135.714
865.03	100.000
865.33	80.000
865.62	166.667
865.92	33.333
866.21	-33.333
866.51	106.250
866.80	90.909
867.10	400.000
867.39	100.000
867.69	0.000
867.98	107.692
868.27	200.000
868.57	40.000
868.86	144.444
869.16	-30.769
869.45	120.000
869.75	-100.000
870.04	0.000
870.33	-57.143
870.63	42.857
870.92	100.000
871.22	-40.000
871.51	200.000
871.80	155.556
872.10	-100.000
>>>>>End Processed Spectral Data<<<<<
