SpectraSuite Data File
++++++++++++++++++++++++++++++++++++
Date: Fri May 15 17:06:07 PDT 2015
User: schluterlab
Dark Spectrum Present: Yes
Reference Spectrum Present: Yes
Number of Sampled Component Spectra: 1
Spectrometers: USB2E3373
Integration Time (usec): 3000 (USB2E3373)
Spectra Averaged: 3 (USB2E3373)
Boxcar Smoothing: 0 (USB2E3373)
Correct for Electrical Dark: No (USB2E3373)
Strobe/Lamp Enabled: No (USB2E3373)
Correct for Detector Non-linearity: No (USB2E3373)
Correct for Stray Light: No (USB2E3373)
Number of Pixels in Processed Spectrum: 2048
>>>>>Begin Processed Spectral Data<<<<<
178.53	0.000
178.91	0.000
179.29	75.000
179.67	-250.000
180.04	-214.286
180.42	350.000
180.80	800.000
181.18	-166.667
181.56	-250.000
181.94	650.000
182.31	-200.000
182.69	160.000
183.07	133.333
183.45	60.000
183.83	-100.000
184.20	36.364
184.58	-0.000
184.96	-400.000
185.34	100.000
185.72	450.000
186.09	-0.000
186.47	-500.000
186.85	50.000
187.23	22.222
187.61	100.000
187.98	266.667
188.36	188.889
188.74	200.000
189.12	52.941
189.49	5.556
189.87	0.000
190.25	114.286
190.63	900.000
191.00	300.000
191.38	36.842
191.76	250.000
192.14	-150.000
192.51	350.000
192.89	66.667
193.27	128.571
193.65	-100.000
194.02	45.455
194.40	90.000
194.78	100.000
195.15	50.000
195.53	50.000
195.91	-100.000
196.29	250.000
196.66	15.385
197.04	-28.571
197.42	33.333
197.79	-200.000
198.17	-7.692
198.55	800.000
198.92	33.333
199.30	400.000
199.68	120.000
200.05	-66.667
200.43	0.000
200.81	266.667
201.18	400.000
201.56	-300.000
201.94	150.000
202.31	-966.667
202.69	-160.000
203.07	-0.000
203.44	1700.000
203.82	0.000
204.19	71.429
204.57	-166.667
204.95	100.000
205.32	180.000
205.70	242.857
206.08	200.000
206.45	322.222
206.83	92.857
207.20	157.143
207.58	-400.000
207.96	-133.333
208.33	100.000
208.71	400.000
209.08	233.333
209.46	300.000
209.84	180.000
210.21	200.000
210.59	242.857
210.96	133.333
211.34	275.000
211.71	133.333
212.09	-14.286
212.46	-300.000
212.84	0.000
213.22	230.000
213.59	400.000
213.97	130.769
214.34	145.455
214.72	0.000
215.09	250.000
215.47	61.538
215.84	36.364
216.22	300.000
216.59	187.500
216.97	900.000
217.34	-150.000
217.72	-40.000
218.09	275.000
218.47	-25.000
218.84	300.000
219.22	55.556
219.59	40.000
219.97	-200.000
220.34	-25.000
220.72	157.143
221.09	225.000
221.47	400.000
221.84	0.000
222.22	-400.000
222.59	-18.182
222.97	191.667
223.34	300.000
223.72	57.143
224.09	42.857
224.46	78.571
224.84	100.000
225.21	80.000
225.59	53.333
225.96	300.000
226.34	50.000
226.71	100.000
227.08	66.667
227.46	0.000
227.83	450.000
228.21	111.111
228.58	90.909
228.95	125.000
229.33	20.000
229.70	100.000
230.08	62.500
230.45	57.143
230.82	200.000
231.20	60.000
231.57	200.000
231.95	257.143
232.32	80.000
232.69	121.429
233.07	333.333
233.44	280.000
233.81	100.000
234.19	166.667
234.56	70.588
234.93	-650.000
235.31	350.000
235.68	140.000
236.05	38.462
236.43	75.000
236.80	94.118
237.17	68.750
237.55	155.000
237.92	44.444
238.29	94.444
238.67	113.333
239.04	82.353
239.41	80.488
239.79	103.333
240.16	102.439
240.53	94.737
240.91	89.130
241.28	79.365
241.65	94.643
242.02	68.493
242.40	101.667
242.77	89.831
243.14	87.879
243.51	78.750
243.89	95.402
244.26	72.414
244.63	84.524
245.00	77.320
245.38	94.845
245.75	87.640
246.12	68.966
246.49	76.033
246.87	81.731
247.24	82.353
247.61	83.333
247.98	89.431
248.36	75.000
248.73	80.921
249.10	77.273
249.47	80.380
249.84	82.353
250.22	78.824
250.59	81.046
250.96	73.709
251.33	83.721
251.70	79.412
252.08	78.680
252.45	82.673
252.82	77.387
253.19	80.184
253.56	80.841
253.94	72.973
254.31	74.783
254.68	80.263
255.05	73.228
255.42	76.856
255.79	70.656
256.16	70.817
256.54	75.746
256.91	77.567
257.28	72.862
257.65	77.528
258.02	74.113
258.39	76.768
258.76	80.952
259.14	78.405
259.51	72.816
259.88	78.694
260.25	72.876
260.62	80.556
260.99	78.644
261.36	75.342
261.73	73.418
262.10	76.596
262.47	76.074
262.85	73.041
263.22	71.385
263.59	74.455
263.96	81.988
264.33	81.212
264.70	76.190
265.07	77.679
265.44	80.737
265.81	76.836
266.18	77.596
266.55	73.265
266.92	74.870
267.29	77.546
267.66	75.703
268.03	74.607
268.40	76.762
268.77	81.016
269.14	72.422
269.51	75.321
269.88	74.564
270.25	75.255
270.62	69.756
270.99	71.355
271.36	69.193
271.73	72.300
272.10	76.399
272.47	74.468
272.84	76.485
273.21	73.086
273.58	73.012
273.95	70.252
274.32	73.441
274.69	71.946
275.06	74.330
275.43	71.429
275.80	73.510
276.17	71.724
276.54	69.379
276.91	77.412
277.28	70.087
277.65	70.041
278.02	69.149
278.39	69.584
278.76	68.553
279.13	68.880
279.50	71.218
279.87	71.490
280.23	68.172
280.60	68.811
280.97	71.111
281.34	66.923
281.71	70.637
282.08	68.712
282.45	67.319
282.82	67.954
283.19	68.279
283.56	68.786
283.92	68.311
284.29	65.577
284.66	68.217
285.03	65.619
285.40	66.730
285.77	67.663
286.14	62.996
286.51	68.450
286.87	65.448
287.24	68.324
287.61	64.550
287.98	65.789
288.35	63.432
288.72	63.573
289.08	62.847
289.45	62.742
289.82	62.063
290.19	61.775
290.56	59.520
290.93	60.943
291.29	57.165
291.66	58.583
292.03	59.968
292.40	55.484
292.77	56.938
293.13	56.169
293.50	56.601
293.87	57.252
294.24	54.714
294.60	54.844
294.97	54.613
295.34	54.908
295.71	53.651
296.08	54.111
296.44	50.782
296.81	51.250
297.18	51.739
297.55	51.762
297.91	52.055
298.28	50.132
298.65	49.525
299.02	49.326
299.38	48.837
299.75	50.069
300.12	47.906
300.48	49.275
300.85	46.261
301.22	48.052
301.59	49.342
301.95	47.215
302.32	49.027
302.69	49.129
303.05	46.163
303.42	46.575
303.79	46.729
304.15	45.400
304.52	45.065
304.89	43.392
305.25	45.157
305.62	45.741
305.99	44.678
306.35	44.393
306.72	43.870
307.09	45.382
307.45	45.235
307.82	44.907
308.19	45.528
308.55	44.166
308.92	45.752
309.29	44.358
309.65	42.411
310.02	43.234
310.38	44.457
310.75	44.918
311.12	44.133
311.48	44.221
311.85	42.513
312.22	41.456
312.58	43.100
312.95	42.263
313.31	44.306
313.68	43.141
314.05	42.857
314.41	44.845
314.78	43.814
315.14	42.857
315.51	42.236
315.87	42.930
316.24	44.287
316.61	44.587
316.97	45.337
317.34	43.262
317.70	43.308
318.07	43.750
318.43	46.078
318.80	44.792
319.16	44.922
319.53	44.919
319.89	46.260
320.26	46.053
320.62	47.442
320.99	47.077
321.35	48.818
321.72	47.456
322.08	48.137
322.45	49.746
322.81	49.705
323.18	49.166
323.54	49.807
323.91	51.607
324.27	51.660
324.64	53.558
325.00	53.011
325.37	55.556
325.73	54.125
326.10	56.857
326.46	56.951
326.83	57.218
327.19	57.716
327.56	58.384
327.92	60.299
328.29	59.554
328.65	62.358
329.01	60.386
329.38	63.871
329.74	63.551
330.11	62.373
330.47	63.822
330.84	65.577
331.20	68.346
331.56	64.167
331.93	67.489
332.29	68.103
332.66	66.697
333.02	68.123
333.38	67.919
333.75	67.857
334.11	66.338
334.48	71.714
334.84	69.048
335.20	70.814
335.57	69.356
335.93	70.190
336.29	70.350
336.66	69.391
337.02	69.610
337.38	70.000
337.75	72.273
338.11	72.588
338.47	72.536
338.84	72.643
339.20	71.115
339.56	72.569
339.93	72.158
340.29	73.945
340.65	72.222
341.02	71.543
341.38	71.681
341.74	71.731
342.11	70.797
342.47	72.420
342.83	72.924
343.20	71.341
343.56	71.739
343.92	72.896
344.28	71.136
344.65	71.416
345.01	72.602
345.37	70.648
345.73	70.962
346.10	74.202
346.46	72.161
346.82	71.113
347.19	70.989
347.55	72.180
347.91	71.359
348.27	69.846
348.63	73.254
349.00	70.714
349.36	72.485
349.72	73.964
350.08	70.902
350.45	71.269
350.81	71.844
351.17	71.091
351.53	71.020
351.89	70.273
352.26	71.920
352.62	72.016
352.98	70.522
353.34	70.853
353.70	70.388
354.07	71.694
354.43	70.216
354.79	73.080
355.15	71.429
355.51	72.073
355.87	72.735
356.24	71.941
356.60	69.281
356.96	72.381
357.32	70.687
357.68	69.977
358.04	72.859
358.40	72.910
358.77	72.488
359.13	71.898
359.49	70.878
359.85	72.231
360.21	71.930
360.57	71.385
360.93	71.483
361.29	70.997
361.66	72.335
362.02	72.348
362.38	73.115
362.74	74.716
363.10	74.944
363.46	72.424
363.82	73.028
364.18	71.956
364.54	71.471
364.90	72.832
365.26	72.926
365.62	74.453
365.98	73.094
366.35	73.853
366.71	75.166
367.07	73.730
367.43	75.126
367.79	73.286
368.15	74.085
368.51	74.363
368.87	74.587
369.23	73.357
369.59	75.146
369.95	75.953
370.31	74.855
370.67	75.000
371.03	73.488
371.39	73.815
371.75	74.286
372.11	74.608
372.47	76.627
372.83	74.805
373.19	74.679
373.55	73.935
373.91	75.162
374.27	76.258
374.63	77.100
374.99	75.745
375.35	76.950
375.71	77.762
376.07	75.562
376.42	76.735
376.78	76.242
377.14	77.116
377.50	77.490
377.86	78.179
378.22	76.388
378.58	76.923
378.94	77.757
379.30	77.792
379.66	78.997
380.02	77.928
380.38	76.263
380.74	76.960
381.09	79.202
381.45	78.287
381.81	79.087
382.17	78.871
382.53	79.013
382.89	80.352
383.25	79.527
383.61	79.207
383.97	78.603
384.32	78.236
384.68	79.752
385.04	79.044
385.40	79.465
385.76	82.453
386.12	82.083
386.48	81.673
386.83	80.659
387.19	80.159
387.55	81.305
387.91	82.090
388.27	81.441
388.62	81.435
388.98	81.522
389.34	80.512
389.70	81.106
390.06	79.924
390.42	80.246
390.77	80.903
391.13	81.463
391.49	82.212
391.85	81.676
392.20	82.109
392.56	83.344
392.92	81.973
393.28	81.663
393.64	82.282
393.99	82.382
394.35	81.720
394.71	81.226
395.07	80.955
395.42	80.814
395.78	82.671
396.14	82.282
396.50	83.513
396.85	82.872
397.21	81.579
397.57	81.944
397.92	80.827
398.28	83.276
398.64	80.181
399.00	81.321
399.35	80.756
399.71	80.930
400.07	82.285
400.42	80.294
400.78	81.813
401.14	80.278
401.49	79.869
401.85	80.804
402.21	79.096
402.57	81.438
402.92	79.674
403.28	82.206
403.63	83.417
403.99	82.015
404.35	80.700
404.70	79.167
405.06	80.141
405.42	78.247
405.77	79.372
406.13	81.141
406.49	79.751
406.84	80.929
407.20	79.711
407.55	78.558
407.91	78.409
408.27	80.242
408.62	80.123
408.98	78.743
409.34	80.855
409.69	79.005
410.05	77.094
410.40	79.877
410.76	79.192
411.11	79.000
411.47	80.145
411.83	79.849
412.18	80.759
412.54	79.213
412.89	78.264
413.25	78.520
413.60	78.944
413.96	76.687
414.31	79.939
414.67	78.448
415.03	78.429
415.38	79.373
415.74	78.241
416.09	80.078
416.45	79.001
416.80	80.106
417.16	80.939
417.51	78.681
417.87	78.357
418.22	80.829
418.58	79.866
418.93	80.439
419.29	79.962
419.64	80.363
420.00	82.242
420.35	80.119
420.71	80.498
421.06	79.619
421.42	81.310
421.77	80.173
422.12	81.612
422.48	80.022
422.83	81.497
423.19	81.377
423.54	81.305
423.90	81.508
424.25	80.425
424.61	82.375
424.96	81.591
425.31	83.073
425.67	82.277
426.02	82.509
426.38	84.220
426.73	83.293
427.09	83.797
427.44	82.882
427.79	82.499
428.15	81.311
428.50	83.343
428.85	82.187
429.21	83.362
429.56	85.822
429.92	83.821
430.27	82.406
430.62	84.004
430.98	84.820
431.33	84.858
431.68	84.197
432.04	84.964
432.39	82.373
432.74	82.321
433.10	85.575
433.45	84.707
433.80	87.464
434.16	85.263
434.51	86.720
434.86	86.411
435.22	84.801
435.57	87.461
435.92	86.946
436.28	86.285
436.63	87.222
436.98	86.153
437.34	86.570
437.69	87.835
438.04	87.123
438.39	88.821
438.75	89.678
439.10	87.493
439.45	88.801
439.81	87.890
440.16	89.549
440.51	89.134
440.86	90.514
441.22	88.122
441.57	89.735
441.92	90.136
442.27	91.630
442.63	90.471
442.98	90.063
443.33	89.427
443.68	91.141
444.03	90.859
444.39	90.556
444.74	93.423
445.09	91.425
445.44	92.251
445.79	92.316
446.15	90.198
446.50	92.291
446.85	94.527
447.20	92.231
447.55	93.583
447.91	91.709
448.26	92.373
448.61	92.689
448.96	94.894
449.31	92.890
449.66	92.799
450.02	93.440
450.37	94.606
450.72	92.383
451.07	94.304
451.42	91.760
451.77	93.430
452.12	92.045
452.47	92.659
452.83	93.581
453.18	92.410
453.53	93.300
453.88	94.171
454.23	92.256
454.58	96.411
454.93	94.072
455.28	91.810
455.63	94.792
455.98	94.047
456.34	94.444
456.69	95.616
457.04	94.896
457.39	94.168
457.74	94.377
458.09	92.760
458.44	94.558
458.79	94.006
459.14	92.735
459.49	97.134
459.84	93.683
460.19	96.238
460.54	95.538
460.89	94.432
461.24	93.851
461.59	93.943
461.94	93.145
462.29	93.064
462.64	96.080
462.99	94.381
463.34	93.324
463.69	95.367
464.04	94.613
464.39	94.906
464.74	94.356
465.09	94.386
465.44	95.788
465.79	94.841
466.14	94.869
466.49	93.905
466.84	94.349
467.19	94.055
467.54	92.912
467.89	94.188
468.24	93.856
468.59	95.302
468.94	92.698
469.29	93.836
469.64	94.190
469.99	94.324
470.34	93.311
470.68	94.482
471.03	94.126
471.38	93.438
471.73	94.258
472.08	93.012
472.43	94.899
472.78	91.912
473.13	94.422
473.48	93.160
473.83	92.902
474.17	95.142
474.52	92.406
474.87	93.636
475.22	94.692
475.57	93.168
475.92	93.472
476.27	93.888
476.61	94.502
476.96	93.084
477.31	93.023
477.66	91.854
478.01	94.722
478.36	93.355
478.70	94.562
479.05	92.967
479.40	91.892
479.75	91.502
480.10	93.190
480.45	94.200
480.79	95.267
481.14	96.107
481.49	94.138
481.84	94.208
482.19	93.966
482.53	94.101
482.88	92.267
483.23	91.939
483.58	92.170
483.92	92.304
484.27	91.613
484.62	92.694
484.97	93.740
485.31	95.051
485.66	95.218
486.01	97.132
486.36	97.897
486.70	95.748
487.05	95.778
487.40	94.648
487.75	94.507
488.09	93.511
488.44	92.400
488.79	91.819
489.13	92.027
489.48	93.288
489.83	90.852
490.17	92.360
490.52	91.224
490.87	89.727
491.22	92.980
491.56	89.279
491.91	90.966
492.26	92.659
492.60	90.211
492.95	92.327
493.30	89.643
493.64	92.583
493.99	90.338
494.34	90.631
494.68	91.619
495.03	90.316
495.37	91.168
495.72	91.772
496.07	92.195
496.41	90.472
496.76	91.755
497.11	91.244
497.45	92.076
497.80	91.473
498.14	90.412
498.49	91.569
498.84	90.768
499.18	92.420
499.53	90.228
499.87	92.218
500.22	93.126
500.56	91.931
500.91	91.315
501.26	90.262
501.60	90.753
501.95	91.460
502.29	92.107
502.64	92.181
502.98	92.057
503.33	90.682
503.67	91.229
504.02	92.473
504.36	91.687
504.71	90.657
505.06	89.381
505.40	90.558
505.75	91.856
506.09	89.002
506.44	92.967
506.78	91.020
507.13	90.486
507.47	89.243
507.82	90.331
508.16	90.333
508.51	92.445
508.85	90.999
509.19	92.283
509.54	90.134
509.88	90.669
510.23	92.792
510.57	90.112
510.92	88.859
511.26	92.144
511.61	90.649
511.95	89.973
512.30	90.854
512.64	89.371
512.98	89.893
513.33	89.312
513.67	89.483
514.02	91.419
514.36	90.457
514.70	91.492
515.05	91.716
515.39	89.433
515.74	91.437
516.08	90.317
516.42	91.519
516.77	89.643
517.11	91.395
517.46	91.562
517.80	89.094
518.14	89.039
518.49	89.002
518.83	90.401
519.17	89.569
519.52	89.165
519.86	89.256
520.20	91.130
520.55	88.680
520.89	89.774
521.23	88.030
521.58	90.410
521.92	89.231
522.26	90.046
522.61	88.506
522.95	91.192
523.29	88.183
523.64	89.835
523.98	90.992
524.32	89.111
524.66	89.629
525.01	89.805
525.35	89.047
525.69	90.438
526.04	87.698
526.38	89.948
526.72	87.443
527.06	89.040
527.41	87.995
527.75	89.343
528.09	87.973
528.43	89.467
528.78	90.429
529.12	91.161
529.46	89.474
529.80	88.347
530.15	90.891
530.49	90.572
530.83	89.808
531.17	89.523
531.51	89.603
531.86	88.375
532.20	89.770
532.54	90.402
532.88	89.459
533.22	89.180
533.57	89.318
533.91	90.274
534.25	91.862
534.59	89.480
534.93	89.301
535.27	89.404
535.62	88.983
535.96	88.715
536.30	90.237
536.64	91.247
536.98	87.596
537.32	91.679
537.66	90.673
538.01	90.280
538.35	89.390
538.69	88.748
539.03	90.362
539.37	89.838
539.71	88.821
540.05	87.305
540.39	89.543
540.73	89.819
541.07	91.022
541.42	88.575
541.76	90.778
542.10	89.952
542.44	89.437
542.78	87.681
543.12	91.209
543.46	92.281
543.80	89.452
544.14	86.315
544.48	89.074
544.82	91.046
545.16	92.077
545.50	89.853
545.84	91.431
546.18	91.206
546.52	88.969
546.86	89.145
547.20	91.559
547.54	87.703
547.88	90.421
548.22	89.744
548.56	89.248
548.90	92.049
549.24	88.981
549.58	89.774
549.92	87.563
550.26	88.645
550.60	91.227
550.94	88.947
551.28	90.572
551.62	90.692
551.96	90.226
552.30	91.228
552.64	89.351
552.98	89.381
553.32	90.514
553.66	89.985
554.00	92.701
554.34	91.728
554.68	88.938
555.02	90.476
555.36	91.324
555.69	90.623
556.03	89.936
556.37	89.680
556.71	90.108
557.05	91.275
557.39	88.773
557.73	91.604
558.07	90.950
558.41	91.041
558.75	91.115
559.08	88.889
559.42	90.635
559.76	92.554
560.10	90.061
560.44	90.692
560.78	90.559
561.12	91.396
561.45	94.308
561.79	91.667
562.13	93.116
562.47	91.295
562.81	91.427
563.15	91.678
563.48	91.160
563.82	92.588
564.16	93.733
564.50	91.284
564.84	91.031
565.17	93.092
565.51	96.995
565.85	94.856
566.19	92.507
566.52	95.107
566.86	93.316
567.20	94.521
567.54	96.472
567.88	96.075
568.21	97.172
568.55	96.304
568.89	97.433
569.23	98.122
569.56	99.299
569.90	99.919
570.24	98.325
570.57	100.182
570.91	100.837
571.25	98.849
571.59	98.692
571.92	97.452
572.26	99.517
572.60	98.946
572.93	98.306
573.27	98.213
573.61	99.045
573.95	99.590
574.28	98.994
574.62	99.466
574.96	98.604
575.29	98.990
575.63	97.616
575.97	98.319
576.30	98.735
576.64	98.464
576.98	99.588
577.31	101.401
577.65	100.573
577.98	101.183
578.32	100.271
578.66	98.603
578.99	98.620
579.33	98.076
579.67	97.376
580.00	99.342
580.34	100.075
580.67	98.615
581.01	100.336
581.35	100.237
581.68	101.870
582.02	102.110
582.35	101.058
582.69	102.006
583.02	100.299
583.36	100.331
583.70	100.883
584.03	101.529
584.37	102.626
584.70	100.192
585.04	99.974
585.37	100.934
585.71	101.382
586.04	101.412
586.38	100.427
586.72	102.611
587.05	101.098
587.39	102.740
587.72	103.609
588.06	101.827
588.39	101.737
588.73	101.740
589.06	101.663
589.40	101.763
589.73	101.570
590.07	101.511
590.40	101.664
590.73	104.201
591.07	101.315
591.40	100.935
591.74	101.448
592.07	100.974
592.41	101.325
592.74	100.677
593.08	101.013
593.41	103.855
593.75	104.024
594.08	101.167
594.41	101.310
594.75	103.092
595.08	101.476
595.42	103.644
595.75	104.168
596.09	102.033
596.42	101.695
596.75	101.288
597.09	100.957
597.42	101.671
597.75	103.848
598.09	100.000
598.42	101.805
598.76	101.973
599.09	101.603
599.42	102.274
599.76	100.978
600.09	101.584
600.42	101.592
600.76	102.192
601.09	103.206
601.42	100.940
601.76	102.382
602.09	102.393
602.42	103.412
602.76	103.438
603.09	103.613
603.42	105.477
603.76	103.952
604.09	104.496
604.42	103.892
604.76	103.382
605.09	102.422
605.42	101.896
605.75	103.284
606.09	103.609
606.42	101.209
606.75	102.035
607.09	101.802
607.42	102.570
607.75	102.442
608.08	101.033
608.42	99.452
608.75	102.506
609.08	104.634
609.41	103.046
609.75	102.319
610.08	103.545
610.41	102.174
610.74	102.974
611.07	103.307
611.41	103.840
611.74	104.211
612.07	101.552
612.40	101.696
612.73	104.181
613.07	99.550
613.40	100.383
613.73	103.022
614.06	101.614
614.39	103.271
614.72	102.297
615.06	102.291
615.39	100.328
615.72	100.753
616.05	102.458
616.38	101.311
616.71	102.202
617.05	101.359
617.38	101.320
617.71	103.774
618.04	103.683
618.37	102.081
618.70	102.706
619.03	100.556
619.36	100.434
619.69	103.487
620.03	104.091
620.36	101.645
620.69	101.499
621.02	98.624
621.35	100.332
621.68	101.020
622.01	100.667
622.34	101.437
622.67	99.132
623.00	99.770
623.33	101.372
623.66	100.075
623.99	100.227
624.32	102.662
624.65	102.707
624.99	101.129
625.32	100.531
625.65	102.671
625.98	102.095
626.31	100.083
626.64	100.607
626.97	100.960
627.30	98.774
627.63	99.047
627.96	100.090
628.29	97.502
628.62	100.197
628.95	98.297
629.28	101.109
629.61	99.501
629.94	98.827
630.26	97.826
630.59	101.353
630.92	97.436
631.25	97.744
631.58	100.441
631.91	98.136
632.24	98.509
632.57	98.068
632.90	97.746
633.23	98.588
633.56	100.756
633.89	98.397
634.22	98.395
634.55	100.254
634.88	98.723
635.20	95.128
635.53	100.667
635.86	98.570
636.19	98.965
636.52	100.383
636.85	98.635
637.18	98.994
637.51	96.855
637.83	97.898
638.16	101.637
638.49	95.640
638.82	97.500
639.15	100.950
639.48	99.175
639.81	96.095
640.13	99.134
640.46	97.959
640.79	99.411
641.12	96.455
641.45	96.396
641.77	93.185
642.10	100.158
642.43	95.177
642.76	98.350
643.09	96.769
643.41	94.013
643.74	95.552
644.07	96.880
644.40	95.101
644.73	95.622
645.05	90.940
645.38	97.002
645.71	97.518
646.04	100.539
646.36	96.099
646.69	97.842
647.02	96.030
647.35	96.269
647.67	95.795
648.00	98.507
648.33	98.464
648.66	100.169
648.98	99.330
649.31	100.165
649.64	98.901
649.96	98.541
650.29	100.170
650.62	97.607
650.94	99.815
651.27	98.696
651.60	97.838
651.92	96.853
652.25	97.513
652.58	98.500
652.90	100.686
653.23	95.966
653.56	97.800
653.88	99.313
654.21	97.198
654.54	99.321
654.86	102.037
655.19	100.146
655.52	110.681
655.84	114.550
656.17	100.000
656.49	100.000
656.82	100.000
657.15	100.000
657.47	100.000
657.80	100.000
658.13	123.067
658.45	109.310
658.78	108.453
659.10	105.976
659.43	103.761
659.75	105.476
660.08	103.379
660.41	102.554
660.73	97.928
661.06	100.173
661.38	98.434
661.71	92.813
662.03	96.352
662.36	99.560
662.68	96.018
663.01	96.507
663.33	93.968
663.66	98.372
663.98	95.349
664.31	93.177
664.63	93.548
664.96	95.217
665.28	93.819
665.61	97.403
665.93	99.565
666.26	97.831
666.58	95.749
666.91	101.176
667.23	97.170
667.56	96.445
667.88	95.683
668.21	95.465
668.53	99.054
668.86	98.585
669.18	94.811
669.50	93.220
669.83	95.581
670.15	94.172
670.48	95.933
670.80	99.539
671.13	91.946
671.45	92.922
671.77	97.425
672.10	97.030
672.42	97.566
672.75	97.691
673.07	101.789
673.39	104.771
673.72	97.633
674.04	100.000
674.37	101.059
674.69	96.788
675.01	102.000
675.34	96.171
675.66	100.000
675.98	96.231
676.31	95.642
676.63	100.238
676.95	97.955
677.28	98.824
677.60	98.554
677.92	98.853
678.25	101.094
678.57	101.082
678.89	103.151
679.22	106.264
679.54	99.197
679.86	98.012
680.18	102.913
680.51	100.947
680.83	101.789
681.15	100.800
681.48	103.893
681.80	106.198
682.12	98.992
682.44	103.347
682.77	104.415
683.09	102.288
683.41	96.136
683.73	101.152
684.06	99.779
684.38	101.075
684.70	107.190
685.02	102.282
685.34	101.383
685.67	103.377
685.99	102.893
686.31	103.894
686.63	105.380
686.96	99.810
687.28	104.040
687.60	100.570
687.92	105.455
688.24	105.242
688.56	106.987
688.89	104.464
689.21	97.111
689.53	102.784
689.85	105.814
690.17	98.884
690.49	103.073
690.82	103.155
691.14	102.381
691.46	104.673
691.78	106.532
692.10	106.237
692.42	107.792
692.74	101.282
693.06	100.450
693.39	102.715
693.71	105.204
694.03	100.462
694.35	106.542
694.67	102.020
694.99	96.867
695.31	102.350
695.63	97.250
695.95	102.525
696.27	104.404
696.59	102.222
696.91	96.919
697.23	101.028
697.56	105.941
697.88	105.591
698.20	107.517
698.52	109.412
698.84	99.282
699.16	107.250
699.48	105.263
699.80	99.007
700.12	106.739
700.44	102.241
700.76	97.384
701.08	100.000
701.40	100.301
701.72	104.938
702.04	103.630
702.36	109.030
702.68	104.805
703.00	104.545
703.32	107.038
703.64	96.893
703.96	98.841
704.28	100.307
704.60	105.714
704.91	100.000
705.23	100.332
705.55	103.534
705.87	98.556
706.19	100.000
706.51	99.656
706.83	100.322
707.15	100.000
707.47	105.602
707.79	103.385
708.11	104.500
708.43	107.250
708.74	104.134
709.06	108.169
709.38	107.034
709.70	103.550
710.02	106.369
710.34	102.167
710.66	103.205
710.98	106.954
711.29	105.246
711.61	104.407
711.93	101.303
712.25	110.997
712.57	108.059
712.89	102.985
713.20	100.000
713.52	98.955
713.84	104.096
714.16	107.560
714.48	107.742
714.80	108.654
715.11	103.647
715.43	100.940
715.75	110.333
716.07	99.003
716.39	103.020
716.70	108.118
717.02	102.290
717.34	97.976
717.66	111.504
717.97	102.609
718.29	104.184
718.61	99.213
718.93	107.364
719.24	106.844
719.56	107.631
719.88	100.344
720.20	100.758
720.51	103.831
720.83	102.703
721.15	115.966
721.46	106.452
721.78	106.324
722.10	99.628
722.42	100.830
722.73	103.265
723.05	106.531
723.37	109.322
723.68	106.306
724.00	102.564
724.32	104.889
724.63	104.091
724.95	103.930
725.27	106.912
725.58	105.508
725.90	105.556
726.22	103.861
726.53	100.339
726.85	109.738
727.16	110.566
727.48	105.263
727.80	103.239
728.11	107.627
728.43	100.000
728.74	101.210
729.06	108.000
729.38	106.391
729.69	104.382
730.01	109.615
730.32	110.075
730.64	106.714
730.96	111.321
731.27	103.667
731.59	112.542
731.90	109.236
732.22	108.202
732.53	113.621
732.85	108.865
733.16	107.744
733.48	107.194
733.80	105.797
734.11	107.797
734.43	118.213
734.74	111.212
735.06	120.521
735.37	110.574
735.69	114.141
736.00	110.801
736.32	100.000
736.63	109.155
736.95	107.850
737.26	113.167
737.58	102.685
737.89	114.286
738.21	111.278
738.52	117.284
738.83	109.170
739.15	106.987
739.46	113.386
739.78	106.593
740.09	98.039
740.41	113.043
740.72	110.236
741.04	106.883
741.35	105.106
741.66	108.057
741.98	102.551
742.29	109.406
742.61	105.759
742.92	107.583
743.23	103.704
743.55	110.860
743.86	109.091
744.18	105.263
744.49	108.511
744.80	107.609
745.12	108.556
745.43	98.537
745.74	111.979
746.06	101.951
746.37	106.283
746.68	107.583
747.00	104.255
747.31	113.433
747.62	99.029
747.94	116.746
748.25	114.851
748.56	116.393
748.88	110.995
749.19	114.362
749.50	104.926
749.82	106.604
750.13	116.055
750.44	111.654
750.75	117.164
751.07	111.314
751.38	111.494
751.69	105.882
752.01	108.915
752.32	114.741
752.63	108.300
752.94	107.328
753.26	111.297
753.57	114.027
753.88	111.062
754.19	104.583
754.51	111.157
754.82	115.385
755.13	112.917
755.44	106.855
755.75	112.891
756.07	116.732
756.38	106.038
756.69	109.579
757.00	110.667
757.31	111.438
757.63	107.927
757.94	108.333
758.25	107.671
758.56	111.436
758.87	107.932
759.18	105.296
759.50	113.091
759.81	108.361
760.12	110.000
760.43	107.576
760.74	116.667
761.05	111.692
761.36	109.943
761.67	114.242
761.99	114.966
762.30	104.727
762.61	102.372
762.92	110.407
763.23	113.063
763.54	107.944
763.85	109.322
764.16	108.299
764.47	112.903
764.78	105.861
765.10	111.111
765.41	108.833
765.72	112.698
766.03	123.308
766.34	109.124
766.65	105.976
766.96	118.182
767.27	110.638
767.58	100.575
767.89	113.475
768.20	98.864
768.51	106.044
768.82	110.345
769.13	109.677
769.44	111.159
769.75	114.155
770.06	103.017
770.37	105.769
770.68	110.152
770.99	104.525
771.30	124.510
771.61	122.172
771.92	109.052
772.23	116.256
772.54	109.677
772.85	116.667
773.16	103.933
773.47	119.608
773.78	123.529
774.09	105.389
774.39	112.667
774.70	105.096
775.01	106.897
775.32	110.000
775.63	114.876
775.94	104.580
776.25	113.386
776.56	105.833
776.87	111.538
777.18	112.821
777.48	92.241
777.79	103.478
778.10	116.190
778.41	110.811
778.72	112.698
779.03	103.008
779.34	111.348
779.65	102.740
779.95	101.370
780.26	106.207
780.57	108.943
780.88	100.787
781.19	111.207
781.50	128.682
781.80	104.142
782.11	104.403
782.42	130.769
782.73	111.511
783.04	109.630
783.34	102.778
783.65	111.966
783.96	109.836
784.27	106.897
784.57	113.008
784.88	99.219
785.19	108.000
785.50	122.000
785.81	110.345
786.11	104.310
786.42	114.563
786.73	109.091
787.04	118.367
787.34	94.643
787.65	104.762
787.96	107.965
788.26	127.273
788.57	108.547
788.88	110.156
789.19	101.587
789.49	110.435
789.80	132.653
790.11	120.202
790.41	81.818
790.72	96.739
791.03	107.955
791.33	117.500
791.64	107.500
791.95	106.977
792.25	97.872
792.56	104.494
792.87	105.479
793.17	110.145
793.48	101.333
793.79	93.750
794.09	123.750
794.40	102.830
794.70	107.767
795.01	101.626
795.32	106.838
795.62	111.429
795.93	115.686
796.23	100.000
796.54	90.625
796.85	138.235
797.15	97.183
797.46	97.222
797.76	106.061
798.07	98.837
798.37	93.421
798.68	101.515
798.99	95.062
799.29	97.143
799.60	94.203
799.90	102.667
800.21	109.836
800.51	116.923
800.82	105.085
801.12	107.246
801.43	106.557
801.73	115.873
802.04	112.000
802.34	95.522
802.65	119.231
802.95	85.714
803.26	84.615
803.56	121.569
803.87	97.826
804.17	98.667
804.48	106.349
804.78	96.296
805.09	113.043
805.39	131.111
805.70	111.111
806.00	98.246
806.30	87.324
806.61	111.429
806.91	97.222
807.22	122.368
807.52	110.667
807.83	116.364
808.13	101.389
808.43	92.647
808.74	88.060
809.04	103.390
809.35	125.000
809.65	110.938
809.95	118.919
810.26	127.273
810.56	69.863
810.86	123.810
811.17	106.000
811.47	102.041
811.77	107.895
812.08	79.545
812.38	86.792
812.69	95.000
812.99	78.788
813.29	110.526
813.59	114.286
813.90	95.455
814.20	117.949
814.50	98.077
814.81	139.623
815.11	114.894
815.41	100.000
815.72	128.571
816.02	107.843
816.32	81.250
816.62	124.390
816.93	113.514
817.23	88.571
817.53	85.417
817.84	78.261
818.14	88.462
818.44	92.105
818.74	115.217
819.04	50.000
819.35	116.216
819.65	100.000
819.95	94.444
820.25	66.667
820.56	135.000
820.86	96.552
821.16	117.500
821.46	104.255
821.76	135.000
822.07	95.349
822.37	135.135
822.67	96.875
822.97	121.429
823.27	107.143
823.57	104.000
823.88	92.593
824.18	132.143
824.48	102.941
824.78	103.226
825.08	160.870
825.38	78.788
825.69	54.167
825.99	94.737
826.29	113.889
826.59	166.667
826.89	119.048
827.19	100.000
827.49	75.000
827.79	108.571
828.09	146.429
828.39	142.424
828.70	118.919
829.00	142.857
829.30	138.095
829.60	103.333
829.90	131.250
830.20	89.474
830.50	88.889
830.80	82.609
831.10	100.000
831.40	100.000
831.70	87.097
832.00	85.714
832.30	71.429
832.60	183.333
832.90	79.310
833.20	85.000
833.50	69.697
833.80	100.000
834.10	50.000
834.40	106.250
834.70	177.778
835.00	142.105
835.30	138.462
835.60	233.333
835.90	93.548
836.20	90.909
836.50	103.571
836.80	96.154
837.10	67.857
837.40	266.667
837.70	77.273
838.00	109.091
838.30	56.522
838.60	84.615
838.90	131.818
839.19	78.571
839.49	73.333
839.79	123.077
840.09	141.667
840.39	64.286
840.69	82.143
840.99	80.769
841.29	47.368
841.59	70.000
841.88	109.091
842.18	190.000
842.48	37.500
842.78	73.333
843.08	103.704
843.38	60.000
843.68	91.304
843.97	93.333
844.27	40.000
844.57	115.000
844.87	116.667
845.17	80.952
845.47	206.667
845.76	85.714
846.06	141.176
846.36	130.000
846.66	100.000
846.96	173.333
847.25	175.000
847.55	100.000
847.85	225.000
848.15	81.818
848.44	133.333
848.74	55.000
849.04	70.370
849.34	154.545
849.63	133.333
849.93	-20.000
850.23	83.333
850.53	200.000
850.82	107.692
851.12	200.000
851.42	140.000
851.71	50.000
852.01	100.000
852.31	100.000
852.61	54.545
852.90	65.000
853.20	115.789
853.50	141.667
853.79	113.043
854.09	120.833
854.39	157.895
854.68	129.167
854.98	87.097
855.28	130.769
855.57	130.000
855.87	150.000
856.17	114.815
856.46	157.143
856.76	93.333
857.05	255.556
857.35	76.000
857.65	116.667
857.94	215.385
858.24	79.310
858.53	94.444
858.83	111.111
859.13	104.545
859.42	86.957
859.72	300.000
860.01	100.000
860.31	80.000
860.60	95.238
860.90	233.333
861.20	66.667
861.49	50.000
861.79	93.333
862.08	15.000
862.38	180.000
862.67	100.000
862.97	150.000
863.26	150.000
863.56	94.444
863.85	-66.667
864.15	77.778
864.44	90.000
864.74	171.429
865.03	-225.000
865.33	60.000
865.62	183.333
865.92	100.000
866.21	50.000
866.51	75.000
866.80	72.727
867.10	300.000
867.39	141.667
867.69	0.000
867.98	76.923
868.27	433.333
868.57	66.667
868.86	122.222
869.16	46.154
869.45	133.333
869.75	900.000
870.04	0.000
870.33	28.571
870.63	71.429
870.92	-333.333
871.22	-140.000
871.51	500.000
871.80	211.111
872.10	-300.000
>>>>>End Processed Spectral Data<<<<<
