SpectraSuite Data File
++++++++++++++++++++++++++++++++++++
Date: Fri May 15 17:23:52 PDT 2015
User: schluterlab
Dark Spectrum Present: Yes
Reference Spectrum Present: Yes
Number of Sampled Component Spectra: 1
Spectrometers: USB2E3373
Integration Time (usec): 3000 (USB2E3373)
Spectra Averaged: 3 (USB2E3373)
Boxcar Smoothing: 0 (USB2E3373)
Correct for Electrical Dark: No (USB2E3373)
Strobe/Lamp Enabled: No (USB2E3373)
Correct for Detector Non-linearity: No (USB2E3373)
Correct for Stray Light: No (USB2E3373)
Number of Pixels in Processed Spectrum: 2048
>>>>>Begin Processed Spectral Data<<<<<
178.53	0.000
178.91	0.000
179.29	0.000
179.67	-600.000
180.04	28.571
180.42	0.000
180.80	-100.000
181.18	-33.333
181.56	250.000
181.94	550.000
182.31	-100.000
182.69	-60.000
183.07	466.667
183.45	0.000
183.83	-16.667
184.20	9.091
184.58	100.000
184.96	-25.000
185.34	-433.333
185.72	200.000
186.09	38.462
186.47	-700.000
186.85	33.333
187.23	122.222
187.61	-200.000
187.98	0.000
188.36	77.778
188.74	-266.667
189.12	94.118
189.49	66.667
189.87	0.000
190.25	21.429
190.63	200.000
191.00	0.000
191.38	15.789
191.76	300.000
192.14	-100.000
192.51	250.000
192.89	22.222
193.27	42.857
193.65	116.667
194.02	136.364
194.40	30.000
194.78	-75.000
195.15	58.333
195.53	-87.500
195.91	225.000
196.29	-250.000
196.66	123.077
197.04	57.143
197.42	55.556
197.79	-366.667
198.17	7.692
198.55	500.000
198.92	100.000
199.30	900.000
199.68	20.000
200.05	33.333
200.43	0.000
200.81	33.333
201.18	100.000
201.56	-0.000
201.94	-400.000
202.31	-266.667
202.69	-280.000
203.07	75.000
203.44	500.000
203.82	0.000
204.19	135.714
204.57	-266.667
204.95	100.000
205.32	100.000
205.70	28.571
206.08	225.000
206.45	155.556
206.83	114.286
207.20	-85.714
207.58	-600.000
207.96	-133.333
208.33	-80.000
208.71	25.000
209.08	-50.000
209.46	0.000
209.84	0.000
210.21	-300.000
210.59	100.000
210.96	0.000
211.34	225.000
211.71	33.333
212.09	-28.571
212.46	-900.000
212.84	0.000
213.22	90.000
213.59	-150.000
213.97	46.154
214.34	100.000
214.72	133.333
215.09	300.000
215.47	15.385
215.84	27.273
216.22	100.000
216.59	150.000
216.97	250.000
217.34	150.000
217.72	60.000
218.09	62.500
218.47	37.500
218.84	300.000
219.22	-55.556
219.59	100.000
219.97	333.333
220.34	-75.000
220.72	14.286
221.09	125.000
221.47	600.000
221.84	-50.000
222.22	-300.000
222.59	90.909
222.97	50.000
223.34	-66.667
223.72	14.286
224.09	57.143
224.46	35.714
224.84	200.000
225.21	160.000
225.59	100.000
225.96	350.000
226.34	50.000
226.71	-42.857
227.08	-33.333
227.46	37.500
227.83	-150.000
228.21	44.444
228.58	118.182
228.95	37.500
229.33	150.000
229.70	12.500
230.08	-62.500
230.45	-71.429
230.82	28.571
231.20	-60.000
231.57	42.857
231.95	57.143
232.32	-40.000
232.69	21.429
233.07	0.000
233.44	0.000
233.81	-60.000
234.19	55.556
234.56	-29.412
234.93	350.000
235.31	100.000
235.68	-160.000
236.05	-38.462
236.43	20.000
236.80	23.529
237.17	34.375
237.55	10.000
237.92	-11.111
238.29	-8.333
238.67	13.333
239.04	11.765
239.41	-9.756
239.79	-3.333
240.16	43.902
240.53	-2.632
240.91	-13.043
241.28	-3.175
241.65	12.500
242.02	12.329
242.40	-3.333
242.77	1.695
243.14	7.576
243.51	-7.500
243.89	18.391
244.26	2.299
244.63	-10.714
245.00	0.000
245.38	6.186
245.75	-10.112
246.12	-0.862
246.49	10.744
246.87	11.538
247.24	1.681
247.61	-7.018
247.98	4.065
248.36	1.250
248.73	5.263
249.10	-1.948
249.47	-0.633
249.84	1.307
250.22	3.529
250.59	-1.961
250.96	14.554
251.33	-2.326
251.70	-2.353
252.08	0.000
252.45	-0.990
252.82	0.503
253.19	7.834
253.56	-0.935
253.94	6.306
254.31	4.348
254.68	0.000
255.05	1.181
255.42	-1.747
255.79	3.475
256.16	3.113
256.54	4.104
256.91	3.422
257.28	2.230
257.65	-1.498
258.02	-0.709
258.39	6.397
258.76	2.564
259.14	4.651
259.51	1.618
259.88	-0.344
260.25	-0.980
260.62	2.431
260.99	-0.678
261.36	-0.685
261.73	0.316
262.10	-0.608
262.47	-0.613
262.85	0.313
263.22	1.538
263.59	0.312
263.96	0.932
264.33	0.606
264.70	-0.298
265.07	1.190
265.44	2.550
265.81	0.000
266.18	2.732
266.55	3.342
266.92	2.591
267.29	1.567
267.66	3.325
268.03	1.832
268.40	0.783
268.77	6.150
269.14	2.398
269.51	1.542
269.88	0.249
270.25	-0.765
270.62	1.951
270.99	-2.302
271.36	0.000
271.73	2.582
272.10	1.217
272.47	0.000
272.84	1.238
273.21	4.640
273.58	2.892
273.95	0.229
274.32	-1.848
274.69	0.000
275.06	1.116
275.43	0.227
275.80	0.000
276.17	-0.460
276.54	1.499
276.91	0.439
277.28	0.218
277.65	0.620
278.02	2.979
278.39	0.219
278.76	0.629
279.13	-1.867
279.50	2.101
279.87	3.024
280.23	-1.075
280.60	5.068
280.97	0.606
281.34	-1.346
281.71	3.696
282.08	2.045
282.45	0.000
282.82	-0.386
283.19	0.000
283.56	0.578
283.92	-0.949
284.29	0.192
284.66	-0.581
285.03	0.589
285.40	-0.189
285.77	0.000
286.14	0.722
286.51	2.583
286.87	0.914
287.24	-0.368
287.61	-0.882
287.98	2.807
288.35	1.386
288.72	1.226
289.08	0.521
289.45	1.757
289.82	2.448
290.19	-0.853
290.56	0.515
290.93	0.673
291.29	1.541
291.66	0.472
292.03	0.638
292.40	0.000
292.77	1.595
293.13	-1.136
293.50	-0.759
293.87	2.290
294.24	0.618
294.60	1.788
294.97	1.786
295.34	0.767
295.71	1.043
296.08	2.093
296.44	-0.427
296.81	2.778
297.18	1.159
297.55	1.084
297.91	1.781
298.28	3.430
298.65	0.543
299.02	0.135
299.38	-0.547
299.75	1.241
300.12	-0.131
300.48	-0.264
300.85	2.028
301.22	1.948
301.59	-0.263
301.95	1.266
302.32	1.297
302.69	0.124
303.05	0.371
303.42	2.117
303.79	2.687
304.15	0.836
304.52	1.546
304.89	0.702
305.25	-0.242
305.62	0.933
305.99	0.234
306.35	-0.231
306.72	-0.337
307.09	0.570
307.45	-0.344
307.82	0.926
308.19	3.252
308.55	1.636
308.92	1.198
309.29	0.000
309.65	0.431
310.02	0.330
310.38	0.220
310.75	0.874
311.12	0.753
311.48	0.954
311.85	1.047
312.22	1.055
312.58	0.849
312.95	0.534
313.31	0.207
313.68	1.361
314.05	0.408
314.41	1.340
314.78	0.412
315.14	2.364
315.51	1.967
315.87	1.230
316.24	3.236
316.61	2.067
316.97	2.183
317.34	1.660
317.70	1.625
318.07	1.827
318.43	1.667
318.80	1.610
319.16	2.344
319.53	5.033
319.89	3.839
320.26	4.049
320.62	4.012
320.99	3.132
321.35	4.419
321.72	3.011
322.08	4.935
322.45	4.670
322.81	4.617
323.18	3.533
323.54	5.116
323.91	5.745
324.27	6.250
324.64	7.116
325.00	7.755
325.37	7.530
325.73	7.253
326.10	7.539
326.46	8.072
326.83	8.749
327.19	8.544
327.56	8.862
327.92	8.539
328.29	8.571
328.65	9.811
329.01	9.835
329.38	9.124
329.74	10.104
330.11	11.585
330.47	10.204
330.84	10.192
331.20	12.072
331.56	10.926
331.93	10.776
332.29	13.291
332.66	12.760
333.02	12.175
333.38	12.191
333.75	12.821
334.11	11.728
334.48	12.511
334.84	14.011
335.20	14.364
335.57	12.421
335.93	11.924
336.29	13.536
336.66	12.625
337.02	11.338
337.38	12.407
337.75	13.000
338.11	12.985
338.47	13.139
338.84	13.956
339.20	12.888
339.56	13.486
339.93	13.966
340.29	15.413
340.65	13.978
341.02	14.007
341.38	14.336
341.74	14.753
342.11	13.258
342.47	13.345
342.83	14.014
343.20	12.892
343.56	13.217
343.92	14.260
344.28	15.030
344.65	13.299
345.01	13.829
345.37	14.634
345.73	13.808
346.10	15.272
346.46	14.382
346.82	13.011
347.19	12.718
347.55	13.116
347.91	13.997
348.27	13.905
348.63	15.503
349.00	13.290
349.36	14.547
349.72	15.008
350.08	14.262
350.45	14.525
350.81	13.787
351.17	13.599
351.53	14.694
351.89	13.047
352.26	13.760
352.62	14.919
352.98	13.333
353.34	13.446
353.70	14.482
354.07	14.919
354.43	14.492
354.79	14.121
355.15	15.238
355.51	13.924
355.87	14.887
356.24	13.866
356.60	13.743
356.96	15.079
357.32	14.058
357.68	13.917
358.04	15.347
358.40	13.746
358.77	14.274
359.13	14.732
359.49	13.328
359.85	14.509
360.21	15.152
360.57	14.231
360.93	15.129
361.29	13.822
361.66	14.812
362.02	14.318
362.38	14.623
362.74	14.307
363.10	15.726
363.46	14.752
363.82	16.228
364.18	14.834
364.54	14.338
364.90	14.480
365.26	13.610
365.62	15.912
365.98	15.469
366.35	16.023
366.71	15.004
367.07	14.949
367.43	15.385
367.79	16.184
368.15	15.219
368.51	16.169
368.87	15.291
369.23	16.101
369.59	15.087
369.95	15.469
370.31	15.968
370.67	15.672
371.03	14.787
371.39	15.463
371.75	15.311
372.11	15.549
372.47	15.828
372.83	16.891
373.19	16.120
373.55	14.874
373.91	15.767
374.27	16.159
374.63	16.726
374.99	15.248
375.35	16.226
375.71	16.923
376.07	15.590
376.42	16.871
376.78	16.577
377.14	17.265
377.50	16.268
377.86	17.470
378.22	17.167
378.58	16.218
378.94	16.257
379.30	17.031
379.66	16.364
380.02	17.351
380.38	16.738
380.74	17.235
381.09	17.546
381.45	17.431
381.81	16.965
382.17	16.751
382.53	16.989
382.89	17.137
383.25	18.233
383.61	18.293
383.97	16.825
384.32	18.074
384.68	17.399
385.04	18.199
385.40	17.673
385.76	19.371
386.12	19.922
386.48	18.199
386.83	18.199
387.19	18.681
387.55	18.758
387.91	18.643
388.27	18.437
388.62	18.502
388.98	18.355
389.34	18.738
389.70	18.459
390.06	18.565
390.42	18.977
390.77	18.901
391.13	18.726
391.49	18.823
391.85	19.298
392.20	18.393
392.56	19.898
392.92	19.612
393.28	20.165
393.64	18.559
393.99	19.875
394.35	18.596
394.71	19.796
395.07	19.485
395.42	19.429
395.78	19.349
396.14	19.987
396.50	19.594
396.85	19.382
397.21	18.985
397.57	19.060
397.92	19.892
398.28	19.195
398.64	18.614
399.00	19.695
399.35	19.357
399.71	19.012
400.07	19.166
400.42	18.666
400.78	19.718
401.14	19.238
401.49	20.250
401.85	19.135
402.21	20.000
402.57	19.375
402.92	18.193
403.28	19.799
403.63	19.861
403.99	18.814
404.35	19.363
404.70	18.929
405.06	18.684
405.42	19.267
405.77	18.361
406.13	18.161
406.49	19.124
406.84	19.193
407.20	20.108
407.55	18.416
407.91	18.850
408.27	18.292
408.62	20.431
408.98	19.470
409.34	20.136
409.69	17.894
410.05	18.781
410.40	19.444
410.76	19.119
411.11	18.688
411.47	19.132
411.83	18.581
412.18	18.662
412.54	19.351
412.89	18.781
413.25	19.495
413.60	19.441
413.96	19.387
414.31	19.512
414.67	18.987
415.03	18.842
415.38	18.407
415.74	19.544
416.09	18.942
416.45	19.244
416.80	19.828
417.16	19.890
417.51	20.053
417.87	19.492
418.22	20.078
418.58	19.465
418.93	20.564
419.29	18.694
419.64	20.091
420.00	21.033
420.35	20.179
420.71	20.413
421.06	19.767
421.42	21.274
421.77	20.578
422.12	20.431
422.48	20.087
422.83	20.592
423.19	21.106
423.54	20.459
423.90	19.611
424.25	21.125
424.61	22.521
424.96	21.487
425.31	21.433
425.67	21.890
426.02	20.730
426.38	22.167
426.73	21.429
427.09	22.468
427.44	22.176
427.79	22.157
428.15	22.269
428.50	22.047
428.85	21.622
429.21	22.411
429.56	22.480
429.92	22.650
430.27	22.556
430.62	22.112
430.98	22.611
431.33	22.660
431.68	22.606
432.04	22.471
432.39	22.932
432.74	22.971
433.10	24.023
433.45	23.059
433.80	23.738
434.16	23.102
434.51	23.226
434.86	24.448
435.22	24.117
435.57	24.329
435.92	23.772
436.28	24.031
436.63	25.157
436.98	24.392
437.34	23.533
437.69	25.283
438.04	24.615
438.39	24.252
438.75	24.347
439.10	24.561
439.45	24.833
439.81	23.976
440.16	26.010
440.51	25.433
440.86	26.405
441.22	25.283
441.57	25.331
441.92	26.390
442.27	26.053
442.63	25.428
442.98	26.192
443.33	25.042
443.68	26.207
444.03	25.633
444.39	26.217
444.74	26.644
445.09	26.281
445.44	26.895
445.79	27.024
446.15	26.211
446.50	26.012
446.85	27.418
447.20	26.538
447.55	26.897
447.91	26.734
448.26	26.921
448.61	26.310
448.96	27.080
449.31	27.168
449.66	26.481
450.02	26.868
450.37	27.623
450.72	26.518
451.07	27.089
451.42	26.654
451.77	27.426
452.12	27.273
452.47	26.529
452.83	27.680
453.18	27.451
453.53	27.750
453.88	27.930
454.23	26.798
454.58	28.715
454.93	27.384
455.28	26.794
455.63	27.898
455.98	27.901
456.34	27.522
456.69	28.463
457.04	28.607
457.39	27.947
457.74	27.267
458.09	27.487
458.44	27.911
458.79	27.059
459.14	28.776
459.49	28.239
459.84	28.821
460.19	27.063
460.54	28.545
460.89	28.239
461.24	28.944
461.59	28.147
461.94	27.484
462.29	28.227
462.64	28.704
462.99	28.097
463.34	28.790
463.69	28.121
464.04	29.237
464.39	28.260
464.74	29.877
465.09	29.133
465.44	29.256
465.79	28.288
466.14	29.418
466.49	28.637
466.84	29.506
467.19	29.975
467.54	28.544
467.89	29.627
468.24	29.319
468.59	29.333
468.94	29.143
469.29	29.180
469.64	30.622
469.99	30.343
470.34	28.942
470.68	29.530
471.03	29.724
471.38	29.815
471.73	30.742
472.08	29.715
472.43	30.067
472.78	28.513
473.13	30.952
473.48	30.879
473.83	29.514
474.17	30.181
474.52	30.377
474.87	30.121
475.22	29.896
475.57	29.531
475.92	30.828
476.27	30.326
476.61	30.961
476.96	29.504
477.31	30.882
477.66	29.607
478.01	31.162
478.36	30.937
478.70	30.832
479.05	31.374
479.40	30.525
479.75	30.292
480.10	29.339
480.45	31.050
480.79	31.420
481.14	30.635
481.49	30.542
481.84	30.261
482.19	30.075
482.53	30.743
482.88	31.265
483.23	30.182
483.58	30.755
483.92	31.123
484.27	30.128
484.62	30.928
484.97	30.638
485.31	30.238
485.66	30.763
486.01	30.544
486.36	29.912
486.70	29.946
487.05	29.663
487.40	29.705
487.75	29.887
488.09	29.883
488.44	29.161
488.79	29.959
489.13	30.769
489.48	30.440
489.83	30.179
490.17	30.742
490.52	31.085
490.87	30.773
491.22	31.184
491.56	31.309
491.91	31.023
492.26	31.065
492.60	31.334
492.95	32.268
493.30	31.363
493.64	32.318
493.99	31.836
494.34	31.748
494.68	31.476
495.03	31.630
495.37	31.747
495.72	33.064
496.07	32.439
496.41	31.698
496.76	32.520
497.11	31.393
497.45	31.551
497.80	31.837
498.14	31.843
498.49	31.691
498.84	31.936
499.18	32.229
499.53	32.292
499.87	31.955
500.22	31.701
500.56	32.375
500.91	32.480
501.26	31.933
501.60	32.514
501.95	31.538
502.29	32.736
502.64	32.867
502.98	33.794
503.33	31.556
503.67	32.145
504.02	33.284
504.36	32.806
504.71	33.434
505.06	32.763
505.40	32.589
505.75	33.608
506.09	34.060
506.44	34.856
506.78	33.571
507.13	33.454
507.47	32.115
507.82	33.173
508.16	33.069
508.51	33.526
508.85	33.909
509.19	34.114
509.54	34.477
509.88	33.765
510.23	34.804
510.57	33.993
510.92	33.689
511.26	34.643
511.61	34.818
511.95	34.849
512.30	34.313
512.64	34.836
512.98	34.812
513.33	34.639
513.67	34.281
514.02	36.384
514.36	35.486
514.70	35.315
515.05	36.545
515.39	35.478
515.74	37.066
516.08	35.266
516.42	37.102
516.77	36.513
517.11	36.795
517.46	36.445
517.80	34.982
518.14	35.824
518.49	36.238
518.83	36.209
519.17	35.476
519.52	36.234
519.86	35.414
520.20	36.513
520.55	36.273
520.89	36.261
521.23	36.352
521.58	37.350
521.92	36.282
522.26	36.370
522.61	37.468
522.95	37.417
523.29	36.976
523.64	37.738
523.98	36.747
524.32	36.920
524.66	38.156
525.01	37.273
525.35	36.293
525.69	37.306
526.04	35.780
526.38	38.262
526.72	36.102
527.06	37.613
527.41	38.193
527.75	36.662
528.09	37.741
528.43	39.095
528.78	37.492
529.12	37.161
529.46	37.622
529.80	36.669
530.15	37.822
530.49	36.768
530.83	38.030
531.17	37.609
531.51	38.851
531.86	36.982
532.20	36.952
532.54	38.802
532.88	37.645
533.22	39.046
533.57	37.418
533.91	38.055
534.25	39.323
534.59	37.909
534.93	37.256
535.27	37.817
535.62	38.108
535.96	37.443
536.30	37.863
536.64	38.181
536.98	36.655
537.32	39.474
537.66	38.990
538.01	39.161
538.35	37.864
538.69	38.016
539.03	37.047
539.37	37.550
539.71	37.219
540.05	38.086
540.39	38.227
540.73	39.888
541.07	39.296
541.42	37.903
541.76	39.023
542.10	38.747
542.44	37.665
542.78	37.577
543.12	37.981
543.46	39.430
543.80	38.446
544.14	36.449
544.48	37.442
544.82	37.936
545.16	39.003
545.50	37.917
545.84	39.164
546.18	38.865
546.52	40.159
546.86	38.749
547.20	39.270
547.54	37.314
547.88	38.927
548.22	37.475
548.56	37.665
548.90	38.679
549.24	37.741
549.58	38.787
549.92	37.598
550.26	38.901
550.60	39.257
550.94	38.686
551.28	39.258
551.62	39.231
551.96	39.098
552.30	38.596
552.64	38.152
552.98	38.115
553.32	38.374
553.66	38.462
554.00	40.365
554.34	39.365
554.68	39.823
555.02	40.030
555.36	40.165
555.69	38.242
556.03	38.758
556.37	38.932
556.71	39.928
557.05	38.926
557.39	38.662
557.73	39.505
558.07	40.875
558.41	40.658
558.75	39.439
559.08	41.056
559.42	40.635
559.76	39.712
560.10	39.526
560.44	37.826
560.78	40.350
561.12	39.633
561.45	40.408
561.79	39.356
562.13	40.454
562.47	39.784
562.81	39.481
563.15	39.774
563.48	40.806
563.82	39.945
564.16	40.181
564.50	38.446
564.84	39.558
565.17	40.241
565.51	40.915
565.85	40.192
566.19	39.721
566.52	40.684
566.86	39.203
567.20	39.103
567.54	40.146
567.88	41.066
568.21	40.045
568.55	39.076
568.89	39.014
569.23	38.854
569.56	39.011
569.90	38.936
570.24	37.849
570.57	38.000
570.91	38.097
571.25	36.797
571.59	37.185
571.92	35.911
572.26	36.775
572.60	36.000
572.93	35.770
573.27	35.549
573.61	36.247
573.95	36.974
574.28	35.779
574.62	35.749
574.96	36.101
575.29	36.295
575.63	35.320
575.97	34.833
576.30	35.985
576.64	35.417
576.98	36.036
577.31	36.495
577.65	36.537
577.98	36.348
578.32	35.620
578.66	35.397
578.99	35.190
579.33	35.823
579.67	35.276
580.00	35.418
580.34	35.448
580.67	34.990
581.01	35.807
581.35	35.680
581.68	35.800
582.02	35.915
582.35	35.432
582.69	36.190
583.02	35.655
583.36	35.841
583.70	36.734
584.03	36.169
584.37	36.674
584.70	36.401
585.04	36.321
585.37	36.388
585.71	35.818
586.04	36.183
586.38	36.303
586.72	36.758
587.05	37.146
587.39	37.378
587.72	37.671
588.06	36.812
588.39	37.596
588.73	36.844
589.06	37.965
589.40	37.297
589.73	38.226
590.07	38.331
590.40	37.539
590.73	38.797
591.07	37.871
591.40	38.424
591.74	38.009
592.07	39.471
592.41	39.708
592.74	38.988
593.08	37.932
593.41	38.517
593.75	37.749
594.08	37.762
594.41	37.773
594.75	37.824
595.08	38.782
595.42	38.388
595.75	39.054
596.09	38.937
596.42	38.528
596.75	37.922
597.09	39.134
597.42	39.612
597.75	38.708
598.09	38.162
598.42	38.403
598.76	39.082
599.09	38.261
599.42	38.499
599.76	37.923
600.09	38.424
600.42	38.362
600.76	37.259
601.09	38.282
601.42	38.230
601.76	37.991
602.09	37.500
602.42	39.890
602.76	38.837
603.09	39.120
603.42	39.674
603.76	39.113
604.09	38.477
604.42	39.552
604.76	39.519
605.09	38.620
605.42	39.233
605.75	39.273
606.09	39.575
606.42	37.990
606.75	39.307
607.09	39.473
607.42	39.123
607.75	38.321
608.08	38.455
608.42	38.465
608.75	39.614
609.08	39.213
609.41	40.102
609.75	39.264
610.08	40.439
610.41	39.758
610.74	40.029
611.07	39.948
611.41	39.699
611.74	40.405
612.07	39.775
612.40	40.481
612.73	39.944
613.07	38.639
613.40	39.551
613.73	39.843
614.06	39.566
614.39	40.835
614.72	39.608
615.06	40.168
615.39	39.520
615.72	39.612
616.05	40.503
616.38	39.031
616.71	39.694
617.05	42.372
617.38	39.975
617.71	40.943
618.04	41.270
618.37	41.362
618.70	42.640
619.03	42.153
619.36	40.232
619.69	41.698
620.03	43.024
620.36	42.275
620.69	40.400
621.02	41.514
621.35	41.992
621.68	43.537
622.01	43.167
622.34	42.378
622.67	41.877
623.00	41.271
623.33	41.845
623.66	42.857
623.99	42.057
624.32	42.510
624.65	40.752
624.99	42.137
625.32	42.381
625.65	43.284
625.98	41.821
626.31	42.062
626.64	43.847
626.97	44.066
627.30	43.170
627.63	41.681
627.96	44.025
628.29	44.218
628.62	44.444
628.95	43.687
629.28	43.750
629.61	44.666
629.94	44.477
630.26	43.874
630.59	46.098
630.92	44.410
631.25	43.897
631.58	45.374
631.91	44.298
632.24	46.101
632.57	45.341
632.90	46.026
633.23	44.824
633.56	46.474
633.89	45.623
634.22	46.790
634.55	47.141
634.88	44.955
635.20	46.026
635.53	47.200
635.86	47.074
636.19	47.089
636.52	48.087
636.85	45.533
637.18	45.912
637.51	45.912
637.83	46.912
638.16	48.568
638.49	45.232
638.82	46.053
639.15	48.575
639.48	46.630
639.81	45.607
640.13	46.320
640.46	46.356
640.79	45.803
641.12	49.188
641.45	48.949
641.77	45.481
642.10	49.131
642.43	47.428
642.76	47.525
643.09	48.950
643.41	45.793
643.74	48.270
644.07	48.276
644.40	49.662
644.73	50.438
645.05	49.329
645.38	49.912
645.71	48.759
646.04	49.192
646.36	48.227
646.69	48.921
647.02	51.418
647.35	48.507
647.67	49.909
648.00	51.119
648.33	47.440
648.66	48.814
648.98	47.069
649.31	47.273
649.64	45.526
649.96	45.705
650.29	47.189
650.62	47.863
650.94	48.333
651.27	48.417
651.60	48.468
651.92	48.427
652.25	46.004
652.58	47.500
652.90	48.714
653.23	47.731
653.56	47.547
653.88	47.423
654.21	48.687
654.54	47.199
654.86	51.952
655.19	45.760
655.52	45.743
655.84	40.277
656.17	44.231
656.49	59.379
656.82	60.494
657.15	45.071
657.47	33.507
657.80	24.642
658.13	24.187
658.45	36.204
658.78	35.462
659.10	34.568
659.43	34.864
659.75	36.063
660.08	37.586
660.41	41.164
660.73	44.061
661.06	45.581
661.38	47.358
661.71	47.023
662.03	50.644
662.36	50.330
662.68	50.221
663.01	51.528
663.33	46.404
663.66	50.465
663.98	45.581
664.31	47.122
664.63	49.309
664.96	47.174
665.28	46.358
665.61	53.896
665.93	50.652
666.26	51.410
666.58	47.427
666.91	52.706
667.23	52.594
667.56	53.318
667.88	50.360
668.21	50.597
668.53	50.591
668.86	51.651
669.18	49.528
669.50	46.973
669.83	49.767
670.15	48.951
670.48	53.349
670.80	52.535
671.13	50.112
671.45	44.292
671.77	53.004
672.10	46.139
672.42	49.251
672.75	46.892
673.07	48.837
673.39	48.624
673.72	46.548
674.04	47.083
674.37	48.517
674.69	50.321
675.01	51.111
675.34	47.072
675.66	49.537
675.98	47.007
676.31	50.229
676.63	51.306
676.95	48.182
677.28	50.588
677.60	54.699
677.92	50.000
678.25	47.702
678.57	48.052
678.89	49.160
679.22	51.007
679.54	45.181
679.86	44.732
680.18	48.350
680.51	46.780
680.83	47.316
681.15	49.800
681.48	50.410
681.80	48.347
682.12	45.766
682.44	47.280
682.77	49.669
683.09	47.140
683.41	49.545
683.73	45.622
684.06	48.894
684.38	47.097
684.70	51.416
685.02	46.473
685.34	46.245
685.67	46.904
685.99	46.112
686.31	47.257
686.63	48.423
686.96	44.677
687.28	48.283
687.60	46.578
687.92	51.717
688.24	48.589
688.56	48.472
688.89	48.661
689.21	52.000
689.53	50.116
689.85	51.163
690.17	50.223
690.49	49.882
690.82	46.359
691.14	47.619
691.46	47.430
691.78	53.153
692.10	51.613
692.42	47.403
692.74	47.650
693.06	49.775
693.39	45.023
693.71	44.118
694.03	48.961
694.35	49.065
694.67	49.495
694.99	51.175
695.31	52.480
695.63	49.000
695.95	50.505
696.27	53.368
696.59	53.333
696.91	53.501
697.23	46.787
697.56	51.733
697.88	46.667
698.20	49.658
698.52	47.765
698.84	44.498
699.16	47.500
699.48	51.378
699.80	48.883
700.12	49.326
700.44	51.261
700.76	52.035
701.08	48.485
701.40	47.590
701.72	53.704
702.04	54.455
702.36	53.177
702.68	49.249
703.00	52.424
703.32	53.079
703.64	47.175
703.96	48.986
704.28	54.601
704.60	51.111
704.91	54.574
705.23	50.166
705.55	57.951
705.87	55.235
706.19	48.519
706.51	45.704
706.83	51.125
707.15	50.156
707.47	49.300
707.79	48.698
708.11	51.000
708.43	49.750
708.74	48.837
709.06	53.521
709.38	52.905
709.70	48.225
710.02	50.318
710.34	53.560
710.66	49.679
710.98	49.669
711.29	55.738
711.61	53.220
711.93	48.860
712.25	54.639
712.57	50.549
712.89	52.239
713.20	51.211
713.52	49.129
713.84	49.829
714.16	51.546
714.48	50.968
714.80	54.808
715.11	50.760
715.43	47.962
715.75	48.333
716.07	50.166
716.39	50.671
716.70	47.970
717.02	48.473
717.34	53.036
717.66	51.327
717.97	52.174
718.29	51.046
718.61	51.575
718.93	45.736
719.24	50.570
719.56	54.618
719.88	49.828
720.20	46.591
720.51	51.724
720.83	50.193
721.15	55.462
721.46	52.016
721.78	47.826
722.10	55.762
722.42	48.963
722.73	52.653
723.05	55.918
723.37	55.508
723.68	58.559
724.00	54.701
724.32	50.222
724.63	54.545
724.95	58.515
725.27	52.995
725.58	53.814
725.90	50.000
726.22	52.896
726.53	50.508
726.85	51.311
727.16	53.962
727.48	50.202
727.80	54.656
728.11	51.271
728.43	52.941
728.74	52.823
729.06	52.000
729.38	55.263
729.69	53.386
730.01	48.846
730.32	50.746
730.64	50.883
730.96	53.962
731.27	47.000
731.59	47.119
731.90	46.178
732.22	50.789
732.53	52.492
732.85	51.773
733.16	47.475
733.48	47.482
733.80	49.275
734.11	51.186
734.43	49.141
734.74	52.121
735.06	49.511
735.37	50.151
735.69	50.505
736.00	47.735
736.32	47.987
736.63	49.296
736.95	50.853
737.26	52.313
737.58	49.664
737.89	49.451
738.21	53.008
738.52	58.025
738.83	54.585
739.15	46.725
739.46	55.512
739.78	47.619
740.09	48.366
740.41	50.000
740.72	51.181
741.04	53.036
741.35	48.936
741.66	51.185
741.98	53.571
742.29	55.446
742.61	56.545
742.92	46.919
743.23	50.926
743.55	54.751
743.86	51.675
744.18	50.718
744.49	51.064
744.80	51.087
745.12	59.358
745.43	44.390
745.74	55.208
746.06	54.146
746.37	58.115
746.68	54.502
747.00	53.191
747.31	57.214
747.62	50.000
747.94	55.502
748.25	55.941
748.56	57.377
748.88	49.215
749.19	57.447
749.50	55.172
749.82	49.057
750.13	46.330
750.44	50.752
750.75	57.090
751.07	56.204
751.38	49.425
751.69	49.804
752.01	55.039
752.32	52.590
752.63	46.640
752.94	52.586
753.26	54.812
753.57	47.964
753.88	56.637
754.19	50.417
754.51	47.934
754.82	45.344
755.13	60.000
755.44	52.419
755.75	51.953
756.07	52.529
756.38	53.962
756.69	49.042
757.00	48.667
757.31	48.693
757.63	46.037
757.94	48.889
758.25	44.658
758.56	46.277
758.87	44.476
759.18	48.287
759.50	48.727
759.81	51.505
760.12	53.226
760.43	50.606
760.74	53.704
761.05	51.385
761.36	44.318
761.67	49.091
761.99	51.701
762.30	49.091
762.61	52.964
762.92	48.416
763.23	44.595
763.54	44.860
763.85	50.000
764.16	44.813
764.47	53.629
764.78	48.718
765.10	49.158
765.41	45.741
765.72	48.254
766.03	48.120
766.34	45.985
766.65	50.598
766.96	56.061
767.27	52.660
767.58	52.299
767.89	52.482
768.20	44.318
768.51	50.000
768.82	47.783
769.13	54.378
769.44	48.069
769.75	46.119
770.06	45.690
770.37	49.519
770.68	51.269
770.99	49.321
771.30	56.373
771.61	51.131
771.92	48.707
772.23	53.695
772.54	51.613
772.85	56.790
773.16	46.067
773.47	64.052
773.78	58.170
774.09	45.509
774.39	55.333
774.70	52.866
775.01	51.034
775.32	48.571
775.63	48.760
775.94	51.908
776.25	51.181
776.56	55.000
776.87	59.615
777.18	53.846
777.48	59.483
777.79	50.435
778.10	42.857
778.41	50.450
778.72	62.698
779.03	45.865
779.34	56.028
779.65	52.740
779.95	56.164
780.26	57.931
780.57	56.911
780.88	52.756
781.19	59.483
781.50	55.039
781.80	44.379
782.11	44.025
782.42	60.000
782.73	57.554
783.04	54.074
783.34	45.139
783.65	44.444
783.96	50.820
784.27	53.793
784.57	51.220
784.88	52.344
785.19	71.000
785.50	58.000
785.81	55.172
786.11	44.828
786.42	44.660
786.73	57.273
787.04	44.898
787.34	50.000
787.65	59.048
787.96	53.097
788.26	54.545
788.57	47.009
788.88	50.000
789.19	50.794
789.49	48.696
789.80	66.327
790.11	59.596
790.41	43.636
790.72	42.391
791.03	62.500
791.33	65.000
791.64	47.500
791.95	65.116
792.25	51.064
792.56	59.551
792.87	67.123
793.17	50.725
793.48	33.333
793.79	55.000
794.09	72.500
794.40	50.943
794.70	51.456
795.01	47.154
795.32	50.427
795.62	61.905
795.93	54.902
796.23	51.887
796.54	47.917
796.85	58.824
797.15	46.479
797.46	45.833
797.76	39.394
798.07	51.163
798.37	44.737
798.68	50.000
798.99	51.852
799.29	41.429
799.60	53.623
799.90	57.333
800.21	36.066
800.51	49.231
800.82	66.102
801.12	59.420
801.43	72.131
801.73	50.794
802.04	68.000
802.34	52.239
802.65	51.923
802.95	66.071
803.26	63.462
803.56	72.549
803.87	39.130
804.17	44.000
804.48	47.619
804.78	46.296
805.09	45.652
805.39	64.444
805.70	50.000
806.00	43.860
806.30	49.296
806.61	47.143
806.91	37.500
807.22	50.000
807.52	54.667
807.83	38.182
808.13	43.056
808.43	61.765
808.74	44.776
809.04	61.017
809.35	44.231
809.65	42.187
809.95	54.054
810.26	34.091
810.56	47.945
810.86	71.429
811.17	62.000
811.47	63.265
811.77	39.474
812.08	38.636
812.38	62.264
812.69	37.500
812.99	30.303
813.29	34.211
813.59	20.000
813.90	36.364
814.20	46.154
814.50	57.692
814.81	47.170
815.11	31.915
815.41	71.186
815.72	45.238
816.02	58.824
816.32	43.750
816.62	56.098
816.93	67.568
817.23	45.714
817.53	77.083
817.84	60.870
818.14	42.308
818.44	26.316
818.74	36.957
819.04	25.000
819.35	45.946
819.65	50.000
819.95	55.556
820.25	26.190
820.56	85.000
820.86	27.586
821.16	62.500
821.46	63.830
821.76	60.000
822.07	25.581
822.37	32.432
822.67	50.000
822.97	61.905
823.27	50.000
823.57	48.000
823.88	40.741
824.18	60.714
824.48	35.294
824.78	61.290
825.08	69.565
825.38	66.667
825.69	4.167
825.99	52.632
826.29	27.778
826.59	133.333
826.89	14.286
827.19	45.652
827.49	50.000
827.79	80.000
828.09	64.286
828.39	90.909
828.70	72.973
829.00	28.571
829.30	66.667
829.60	46.667
829.90	50.000
830.20	50.000
830.50	51.852
830.80	65.217
831.10	50.000
831.40	69.697
831.70	100.000
832.00	33.333
832.30	61.905
832.60	108.333
832.90	20.690
833.20	10.000
833.50	81.818
833.80	22.222
834.10	53.846
834.40	56.250
834.70	66.667
835.00	115.789
835.30	119.231
835.60	73.333
835.90	51.613
836.20	77.273
836.50	57.143
836.80	7.692
837.10	57.143
837.40	-266.667
837.70	59.091
838.00	118.182
838.30	86.957
838.60	146.154
838.90	63.636
839.19	50.000
839.49	63.333
839.79	53.846
840.09	16.667
840.39	107.143
840.69	14.286
840.99	26.923
841.29	5.263
841.59	90.000
841.88	72.727
842.18	110.000
842.48	25.000
842.78	93.333
843.08	59.259
843.38	-60.000
843.68	86.957
843.97	66.667
844.27	-26.667
844.57	50.000
844.87	122.222
845.17	23.810
845.47	53.333
845.76	38.095
846.06	94.118
846.36	30.000
846.66	42.857
846.96	46.667
847.25	0.000
847.55	64.286
847.85	100.000
848.15	59.091
848.44	-66.667
848.74	35.000
849.04	59.259
849.34	154.545
849.63	-50.000
849.93	20.000
850.23	16.667
850.53	30.000
850.82	0.000
851.12	100.000
851.42	60.000
851.71	65.385
852.01	14.286
852.31	100.000
852.61	81.818
852.90	55.000
853.20	68.421
853.50	58.333
853.79	60.870
854.09	70.833
854.39	42.105
854.68	58.333
854.98	90.323
855.28	92.308
855.57	75.000
855.87	38.889
856.17	51.852
856.46	35.714
856.76	46.667
857.05	55.556
857.35	28.000
857.65	55.556
857.94	23.077
858.24	82.759
858.53	66.667
858.83	59.259
859.13	90.909
859.42	65.217
859.72	175.000
860.01	-266.667
860.31	56.000
860.60	14.286
860.90	0.000
861.20	40.000
861.49	-200.000
861.79	-60.000
862.08	65.000
862.38	106.667
862.67	-120.000
862.97	-50.000
863.26	58.333
863.56	77.778
863.85	-66.667
864.15	111.111
864.44	50.000
864.74	71.429
865.03	-150.000
865.33	-60.000
865.62	116.667
865.92	50.000
866.21	-66.667
866.51	93.750
866.80	0.000
867.10	-350.000
867.39	16.667
867.69	0.000
867.98	53.846
868.27	-100.000
868.57	60.000
868.86	38.889
869.16	-23.077
869.45	66.667
869.75	0.000
870.04	0.000
870.33	-57.143
870.63	85.714
870.92	466.667
871.22	-40.000
871.51	100.000
871.80	144.444
872.10	133.333
>>>>>End Processed Spectral Data<<<<<
