SpectraSuite Data File
++++++++++++++++++++++++++++++++++++
Date: Fri May 15 17:12:53 PDT 2015
User: schluterlab
Dark Spectrum Present: Yes
Reference Spectrum Present: Yes
Number of Sampled Component Spectra: 1
Spectrometers: USB2E3373
Integration Time (usec): 3000 (USB2E3373)
Spectra Averaged: 3 (USB2E3373)
Boxcar Smoothing: 0 (USB2E3373)
Correct for Electrical Dark: No (USB2E3373)
Strobe/Lamp Enabled: No (USB2E3373)
Correct for Detector Non-linearity: No (USB2E3373)
Correct for Stray Light: No (USB2E3373)
Number of Pixels in Processed Spectrum: 2048
>>>>>Begin Processed Spectral Data<<<<<
178.53	0.000
178.91	0.000
179.29	200.000
179.67	-100.000
180.04	-185.714
180.42	225.000
180.80	400.000
181.18	166.667
181.56	250.000
181.94	350.000
182.31	-400.000
182.69	0.000
183.07	-233.333
183.45	40.000
183.83	-50.000
184.20	-27.273
184.58	122.222
184.96	-150.000
185.34	-200.000
185.72	-350.000
186.09	53.846
186.47	800.000
186.85	-16.667
187.23	77.778
187.61	-100.000
187.98	133.333
188.36	44.444
188.74	133.333
189.12	5.882
189.49	16.667
189.87	0.000
190.25	71.429
190.63	250.000
191.00	-33.333
191.38	-21.053
191.76	400.000
192.14	-175.000
192.51	-100.000
192.89	22.222
193.27	142.857
193.65	83.333
194.02	109.091
194.40	-10.000
194.78	-37.500
195.15	8.333
195.53	-150.000
195.91	50.000
196.29	125.000
196.66	61.538
197.04	28.571
197.42	11.111
197.79	-300.000
198.17	-61.538
198.55	1100.000
198.92	-100.000
199.30	400.000
199.68	40.000
200.05	-166.667
200.43	0.000
200.81	133.333
201.18	66.667
201.56	800.000
201.94	700.000
202.31	-200.000
202.69	-100.000
203.07	-75.000
203.44	600.000
203.82	0.000
204.19	64.286
204.57	-166.667
204.95	150.000
205.32	40.000
205.70	-42.857
206.08	125.000
206.45	255.556
206.83	71.429
207.20	-42.857
207.58	-900.000
207.96	-100.000
208.33	90.000
208.71	325.000
209.08	0.000
209.46	300.000
209.84	-100.000
210.21	-400.000
210.59	71.429
210.96	-33.333
211.34	175.000
211.71	13.333
212.09	0.000
212.46	-900.000
212.84	0.000
213.22	150.000
213.59	150.000
213.97	169.231
214.34	90.909
214.72	150.000
215.09	-75.000
215.47	38.462
215.84	27.273
216.22	-66.667
216.59	100.000
216.97	200.000
217.34	50.000
217.72	60.000
218.09	-87.500
218.47	62.500
218.84	-700.000
219.22	55.556
219.59	-40.000
219.97	266.667
220.34	225.000
220.72	42.857
221.09	300.000
221.47	50.000
221.84	100.000
222.22	250.000
222.59	72.727
222.97	58.333
223.34	33.333
223.72	7.143
224.09	28.571
224.46	21.429
224.84	266.667
225.21	130.000
225.59	-6.667
225.96	-150.000
226.34	350.000
226.71	14.286
227.08	-83.333
227.46	37.500
227.83	-250.000
228.21	11.111
228.58	63.636
228.95	-37.500
229.33	70.000
229.70	37.500
230.08	-62.500
230.45	-14.286
230.82	228.571
231.20	40.000
231.57	64.286
231.95	85.714
232.32	-120.000
232.69	14.286
233.07	200.000
233.44	0.000
233.81	70.000
234.19	22.222
234.56	11.765
234.93	150.000
235.31	275.000
235.68	0.000
236.05	7.692
236.43	30.000
236.80	41.176
237.17	0.000
237.55	50.000
237.92	22.222
238.29	19.444
238.67	-20.000
239.04	35.294
239.41	-2.439
239.79	-6.667
240.16	19.512
240.53	2.632
240.91	2.174
241.28	6.349
241.65	32.143
242.02	21.918
242.40	23.333
242.77	27.119
243.14	7.576
243.51	16.250
243.89	26.437
244.26	6.897
244.63	16.667
245.00	12.371
245.38	13.402
245.75	1.124
246.12	11.207
246.49	18.182
246.87	11.538
247.24	11.765
247.61	1.754
247.98	10.569
248.36	4.375
248.73	14.474
249.10	7.143
249.47	12.025
249.84	8.497
250.22	12.353
250.59	12.418
250.96	17.371
251.33	10.465
251.70	16.471
252.08	13.198
252.45	11.881
252.82	10.553
253.19	7.834
253.56	6.075
253.94	9.009
254.31	12.609
254.68	15.351
255.05	15.748
255.42	6.114
255.79	11.583
256.16	7.782
256.54	11.194
256.91	9.886
257.28	8.550
257.65	7.865
258.02	7.801
258.39	9.764
258.76	12.088
259.14	8.970
259.51	12.621
259.88	6.873
260.25	11.111
260.62	13.194
260.99	7.458
261.36	8.562
261.73	6.646
262.10	13.982
262.47	11.350
262.85	8.464
263.22	9.538
263.59	9.657
263.96	9.006
264.33	10.303
264.70	7.143
265.07	7.440
265.44	11.331
265.81	9.605
266.18	7.104
266.55	10.026
266.92	11.140
267.29	9.399
267.66	11.509
268.03	11.257
268.40	9.399
268.77	13.369
269.14	9.353
269.51	10.026
269.88	8.479
270.25	6.888
270.62	10.244
270.99	9.463
271.36	7.579
271.73	8.920
272.10	7.543
272.47	8.511
272.84	10.149
273.21	11.369
273.58	8.434
273.95	10.984
274.32	9.700
274.69	6.109
275.06	15.179
275.43	7.483
275.80	9.713
276.17	8.966
276.54	9.422
276.91	9.649
277.28	10.262
277.65	10.950
278.02	11.277
278.39	8.534
278.76	9.015
279.13	7.054
279.50	9.454
279.87	10.151
280.23	7.312
280.60	10.526
280.97	9.495
281.34	10.385
281.71	10.678
282.08	11.043
282.45	6.262
282.82	7.336
283.19	10.058
283.56	10.597
283.92	7.211
284.29	9.423
284.66	8.140
285.03	9.037
285.40	8.696
285.77	9.315
286.14	9.206
286.51	9.410
286.87	8.227
287.24	9.392
287.61	8.995
287.98	8.947
288.35	8.146
288.72	8.932
289.08	6.597
289.45	8.963
289.82	8.741
290.19	8.362
290.56	5.832
290.93	9.764
291.29	6.471
291.66	9.134
292.03	7.974
292.40	8.710
292.77	6.220
293.13	4.708
293.50	6.525
293.87	8.550
294.24	8.346
294.60	6.557
294.97	8.333
295.34	5.521
295.71	6.408
296.08	8.221
296.44	5.405
296.81	6.528
297.18	7.971
297.55	9.350
297.91	6.849
298.28	8.179
298.65	8.141
299.02	6.469
299.38	4.514
299.75	6.897
300.12	5.759
300.48	4.743
300.85	7.098
301.22	7.013
301.59	5.526
301.95	7.595
302.32	7.912
302.69	6.343
303.05	6.683
303.42	6.227
303.79	7.126
304.15	6.452
304.52	5.351
304.89	6.082
305.25	6.053
305.62	5.018
305.99	6.082
306.35	5.549
306.72	5.624
307.09	6.385
307.45	6.200
307.82	6.250
308.19	7.317
308.55	5.453
308.92	6.972
309.29	4.246
309.65	4.629
310.02	6.491
310.38	5.708
310.75	7.541
311.12	5.920
311.48	6.045
311.85	6.702
312.22	4.958
312.58	6.582
312.95	4.696
313.31	4.969
313.68	5.445
314.05	6.122
314.41	6.907
314.78	6.289
315.14	6.475
315.51	6.522
315.87	6.557
316.24	7.381
316.61	6.594
316.97	6.944
317.34	6.055
317.70	6.119
318.07	5.577
318.43	5.980
318.80	5.682
319.16	6.738
319.53	6.458
319.89	6.890
320.26	6.377
320.62	6.219
320.99	5.010
321.35	6.166
321.72	6.646
322.08	6.546
322.45	6.497
322.81	6.287
323.18	5.201
323.54	5.792
323.91	5.258
324.27	5.273
324.64	6.742
325.00	7.117
325.37	7.346
325.73	6.437
326.10	6.176
326.46	7.085
326.83	7.349
327.19	7.062
327.56	7.646
327.92	8.363
328.29	7.768
328.65	8.019
329.01	7.904
329.38	8.387
329.74	8.593
330.11	9.175
330.47	8.442
330.84	9.038
331.20	10.932
331.56	10.185
331.93	10.685
332.29	11.641
332.66	12.036
333.02	11.152
333.38	11.824
333.75	13.462
334.11	12.802
334.48	14.325
334.84	15.568
335.20	15.188
335.57	15.050
335.93	15.899
336.29	17.127
336.66	15.985
337.02	17.472
337.38	17.130
337.75	18.818
338.11	19.026
338.47	19.799
338.84	19.963
339.20	20.201
339.56	19.358
339.93	21.665
340.29	22.202
340.65	21.774
341.02	23.316
341.38	21.947
341.74	21.908
342.11	20.537
342.47	22.153
342.83	24.221
343.20	22.822
343.56	23.130
343.92	23.826
344.28	25.278
344.65	24.525
345.01	24.114
345.37	24.390
345.73	25.188
346.10	27.006
346.46	25.484
346.82	26.759
347.19	24.771
347.55	25.063
347.91	26.456
348.27	25.627
348.63	27.002
349.00	26.251
349.36	26.683
349.72	27.446
350.08	26.803
350.45	27.614
350.81	25.914
351.17	28.420
351.53	28.163
351.89	26.590
352.26	27.920
352.62	28.145
352.98	28.032
353.34	28.019
353.70	28.236
354.07	28.145
354.43	27.782
354.79	29.232
355.15	29.444
355.51	28.481
355.87	28.803
356.24	27.896
356.60	28.052
356.96	29.286
357.32	30.272
357.68	28.225
358.04	30.048
358.40	28.617
358.77	29.825
359.13	29.063
359.49	30.508
359.85	30.577
360.21	30.781
360.57	29.533
360.93	30.257
361.29	29.230
361.66	30.408
362.02	31.667
362.38	30.617
362.74	30.129
363.10	30.926
363.46	30.912
363.82	32.231
364.18	31.734
364.54	30.735
364.90	30.968
365.26	31.150
365.62	32.701
365.98	32.111
366.35	32.702
366.71	32.890
367.07	32.729
367.43	31.776
367.79	32.367
368.15	31.945
368.51	32.848
368.87	31.515
369.23	32.274
369.59	33.965
369.95	33.211
370.31	33.237
370.67	32.612
371.03	33.159
371.39	34.500
371.75	34.359
372.11	34.593
372.47	33.876
372.83	35.131
373.19	33.381
373.55	34.079
373.91	34.485
374.27	35.082
374.63	34.961
374.99	36.241
375.35	35.446
375.71	34.545
376.07	35.393
376.42	34.830
376.78	35.906
377.14	35.884
377.50	36.985
377.86	36.278
378.22	36.439
378.58	35.449
378.94	36.736
379.30	36.057
379.66	37.555
380.02	37.094
380.38	37.005
380.74	37.163
381.09	37.853
381.45	37.554
381.81	37.138
382.17	38.198
382.53	37.726
382.89	37.414
383.25	38.208
383.61	39.268
383.97	38.413
384.32	37.398
384.68	38.700
385.04	37.684
385.40	39.203
385.76	39.748
386.12	38.680
386.48	40.485
386.83	38.681
387.19	39.866
387.55	40.025
387.91	39.364
388.27	38.889
388.62	40.717
388.98	39.963
389.34	39.975
389.70	41.330
390.06	39.144
390.42	40.220
390.77	39.830
391.13	41.299
391.49	40.750
391.85	41.520
392.20	41.368
392.56	40.114
392.92	41.515
393.28	41.804
393.64	40.721
393.99	41.755
394.35	40.607
394.71	42.146
395.07	41.420
395.42	40.862
395.78	40.912
396.14	40.731
396.50	41.661
396.85	40.889
397.21	40.977
397.57	41.129
397.92	41.522
398.28	40.345
398.64	40.542
399.00	40.688
399.35	40.576
399.71	40.666
400.07	42.382
400.42	42.289
400.78	41.396
401.14	41.319
401.49	41.751
401.85	41.743
402.21	41.807
402.57	40.688
402.92	40.715
403.28	41.541
403.63	40.921
403.99	41.263
404.35	40.849
404.70	40.298
405.06	39.894
405.42	41.268
405.77	39.338
406.13	41.094
406.49	40.261
406.84	41.198
407.20	41.361
407.55	39.730
407.91	39.973
408.27	40.982
408.62	41.231
408.98	40.789
409.34	41.512
409.69	39.793
410.05	40.086
410.40	41.173
410.76	41.616
411.11	40.625
411.47	41.815
411.83	42.059
412.18	41.120
412.54	40.512
412.89	40.148
413.25	40.132
413.60	40.559
413.96	40.368
414.31	40.793
414.67	42.078
415.03	40.679
415.38	41.971
415.74	41.498
416.09	42.521
416.45	41.796
416.80	42.168
417.16	42.956
417.51	43.304
417.87	41.917
418.22	43.782
418.58	43.278
418.93	43.636
419.29	42.061
419.64	43.163
420.00	44.836
420.35	43.164
420.71	45.930
421.06	44.629
421.42	45.012
421.77	45.780
422.12	45.062
422.48	45.533
422.83	45.418
423.19	44.808
423.54	44.680
423.90	45.760
424.25	45.982
424.61	45.961
424.96	46.574
425.31	47.545
425.67	47.887
426.02	47.350
426.38	48.591
426.73	48.305
427.09	48.418
427.44	48.706
427.79	48.144
428.15	49.090
428.50	49.849
428.85	47.973
429.21	49.632
429.56	49.973
429.92	49.204
430.27	48.471
430.62	49.033
430.98	48.673
431.33	50.263
431.68	50.340
432.04	51.761
432.39	49.857
432.74	50.511
433.10	52.241
433.45	52.151
433.80	52.583
434.16	51.579
434.51	52.581
434.86	53.426
435.22	52.552
435.57	54.211
435.92	55.150
436.28	53.190
436.63	54.421
436.98	54.114
437.34	54.386
437.69	54.681
438.04	55.556
438.39	53.940
438.75	57.438
439.10	56.480
439.45	56.482
439.81	56.453
440.16	58.848
440.51	57.254
440.86	59.094
441.22	56.391
441.57	58.113
441.92	58.290
442.27	58.869
442.63	57.976
442.98	59.506
443.33	57.373
443.68	57.931
444.03	58.917
444.39	58.780
444.74	60.145
445.09	59.577
445.44	58.063
445.79	60.186
446.15	58.976
446.50	59.623
446.85	60.096
447.20	58.446
447.55	60.547
447.91	61.083
448.26	61.355
448.61	61.658
448.96	61.790
449.31	62.197
449.66	61.731
450.02	61.609
450.37	61.529
450.72	61.283
451.07	63.228
451.42	62.110
451.77	61.483
452.12	62.201
452.47	63.876
452.83	62.485
453.18	63.504
453.53	62.263
453.88	62.963
454.23	63.614
454.58	63.287
454.93	64.884
455.28	62.667
455.63	64.352
455.98	63.800
456.34	63.985
456.69	63.024
457.04	64.650
457.39	63.366
457.74	64.087
458.09	62.036
458.44	65.769
458.79	64.482
459.14	64.474
459.49	64.537
459.84	63.565
460.19	64.563
460.54	64.853
460.89	64.716
461.24	64.845
461.59	65.321
461.94	64.403
462.29	65.682
462.64	66.047
462.99	65.606
463.34	64.117
463.69	65.058
464.04	66.465
464.39	65.858
464.74	64.479
465.09	66.625
465.44	65.147
465.79	64.512
466.14	66.249
466.49	65.440
466.84	65.437
467.19	65.895
467.54	65.326
467.89	66.519
468.24	66.241
468.59	66.222
468.94	65.206
469.29	67.410
469.64	66.029
469.99	68.325
470.34	68.259
470.68	70.172
471.03	67.941
471.38	68.545
471.73	67.857
472.08	65.943
472.43	68.926
472.78	67.512
473.13	67.687
473.48	68.143
473.83	66.812
474.17	67.552
474.52	66.879
474.87	68.000
475.22	67.968
475.57	65.443
475.92	68.184
476.27	66.531
476.61	69.039
476.96	65.811
477.31	67.388
477.66	67.135
478.01	68.782
478.36	66.885
478.70	68.135
479.05	68.516
479.40	67.727
479.75	67.935
480.10	66.820
480.45	69.050
480.79	69.637
481.14	69.570
481.49	67.488
481.84	67.954
482.19	65.949
482.53	68.058
482.88	66.730
483.23	67.226
483.58	66.557
483.92	67.909
484.27	66.910
484.62	67.324
484.97	66.211
485.31	65.173
485.66	63.434
486.01	62.561
486.36	61.910
486.70	61.784
487.05	63.458
487.40	64.374
487.75	65.099
488.09	64.555
488.44	65.990
488.79	66.978
489.13	68.069
489.48	67.165
489.83	67.354
490.17	68.090
490.52	66.513
490.87	66.636
491.22	68.099
491.56	68.501
491.91	68.308
492.26	69.130
492.60	67.131
492.95	69.208
493.30	68.588
493.64	69.450
493.99	67.295
494.34	67.961
494.68	68.381
495.03	67.786
495.37	68.302
495.72	68.753
496.07	68.537
496.41	68.443
496.76	67.757
497.11	66.511
497.45	67.876
497.80	70.383
498.14	68.604
498.49	69.172
498.84	68.014
499.18	70.482
499.53	69.246
499.87	68.142
500.22	68.595
500.56	70.701
500.91	68.223
501.26	67.177
501.60	68.765
501.95	68.025
502.29	68.281
502.64	68.147
502.98	69.610
503.33	69.116
503.67	67.277
504.02	68.377
504.36	69.817
504.71	68.081
505.06	68.948
505.40	69.645
505.75	70.412
506.09	68.322
506.44	70.791
506.78	70.510
507.13	68.925
507.47	68.251
507.82	69.338
508.16	69.202
508.51	70.252
508.85	71.324
509.19	71.102
509.54	70.027
509.88	69.849
510.23	71.114
510.57	70.444
510.92	69.136
511.26	70.922
511.61	70.682
511.95	70.411
512.30	71.064
512.64	69.783
512.98	69.961
513.33	71.852
513.67	70.551
514.02	72.540
514.36	73.200
514.70	73.485
515.05	73.090
515.39	72.550
515.74	73.593
516.08	72.684
516.42	73.675
516.77	72.030
517.11	73.947
517.46	73.668
517.80	72.884
518.14	71.892
518.49	72.957
518.83	74.362
519.17	71.922
519.52	72.291
519.86	72.449
520.20	73.026
520.55	73.108
520.89	73.902
521.23	73.464
521.58	73.502
521.92	74.231
522.26	74.366
522.61	73.571
522.95	76.424
523.29	72.808
523.64	74.778
523.98	75.243
524.32	74.227
524.66	75.160
525.01	74.675
525.35	73.040
525.69	74.141
526.04	74.471
526.38	74.319
526.72	73.708
527.06	73.606
527.41	71.834
527.75	72.922
528.09	73.422
528.43	75.084
528.78	74.455
529.12	74.323
529.46	74.724
529.80	72.704
530.15	72.805
530.49	74.680
530.83	75.376
531.17	74.480
531.51	75.239
531.86	73.555
532.20	74.948
532.54	75.017
532.88	76.318
533.22	73.992
533.57	73.657
533.91	73.238
534.25	74.609
534.59	73.445
534.93	72.310
535.27	72.398
535.62	71.614
535.96	73.646
536.30	74.868
536.64	75.396
536.98	74.146
537.32	76.743
537.66	74.755
538.01	75.874
538.35	73.578
538.69	73.702
539.03	72.112
539.37	73.890
539.71	73.211
540.05	72.777
540.39	73.892
540.73	74.965
541.07	74.448
541.42	72.648
541.76	75.155
542.10	74.398
542.44	75.469
542.78	72.127
543.12	73.970
543.46	74.548
543.80	73.282
544.14	71.162
544.48	74.017
544.82	73.821
545.16	74.317
545.50	74.232
545.84	75.212
546.18	73.546
546.52	76.063
546.86	75.126
547.20	74.964
547.54	72.367
547.88	74.524
548.22	72.124
548.56	71.966
548.90	73.046
549.24	72.590
549.58	73.836
549.92	73.124
550.26	74.432
550.60	76.134
550.94	76.251
551.28	76.662
551.62	77.615
551.96	75.489
552.30	74.927
552.64	73.695
552.98	73.277
553.32	74.536
553.66	73.657
554.00	77.372
554.34	74.668
554.68	74.558
555.02	75.595
555.36	75.168
555.69	74.139
556.03	74.590
556.37	74.591
556.71	74.874
557.05	75.764
557.39	73.606
557.73	76.312
558.07	76.546
558.41	77.871
558.75	78.020
559.08	76.044
559.42	76.984
559.76	77.582
560.10	75.765
560.44	76.396
560.78	73.916
561.12	76.023
561.45	75.896
561.79	76.471
562.13	75.160
562.47	75.468
562.81	75.072
563.15	73.766
563.48	75.177
563.82	74.949
564.16	74.721
564.50	74.324
564.84	75.435
565.17	74.715
565.51	75.956
565.85	76.132
566.19	73.475
566.52	75.804
566.86	74.486
567.20	74.097
567.54	74.270
567.88	75.278
568.21	73.812
568.55	71.902
568.89	71.612
569.23	71.834
569.56	70.665
569.90	70.361
570.24	67.622
570.57	68.618
570.91	68.560
571.25	67.215
571.59	66.428
571.92	65.511
572.26	66.093
572.60	66.450
572.93	66.771
573.27	65.831
573.61	66.587
573.95	65.647
574.28	65.360
574.62	65.141
574.96	64.174
575.29	64.791
575.63	63.669
575.97	65.031
576.30	65.589
576.64	64.265
576.98	66.152
577.31	65.028
577.65	64.702
577.98	64.222
578.32	63.754
578.66	63.164
578.99	64.085
579.33	64.352
579.67	64.269
580.00	65.266
580.34	64.900
580.67	64.738
581.01	65.178
581.35	64.040
581.68	64.141
582.02	63.681
582.35	63.157
582.69	64.141
583.02	63.939
583.36	65.507
583.70	66.251
584.03	67.278
584.37	67.758
584.70	66.291
585.04	64.404
585.37	65.012
585.71	64.725
586.04	65.229
586.38	65.404
586.72	66.083
587.05	66.984
587.39	66.704
587.72	67.824
588.06	66.427
588.39	66.676
588.73	68.101
589.06	67.841
589.40	68.648
589.73	68.529
590.07	70.053
590.40	70.240
590.73	71.787
591.07	70.399
591.40	71.638
591.74	71.810
592.07	71.289
592.41	70.981
592.74	68.459
593.08	67.447
593.41	67.249
593.75	67.746
594.08	67.010
594.41	68.523
594.75	69.466
595.08	69.429
595.42	68.936
595.75	70.259
596.09	70.055
596.42	71.021
596.75	72.247
597.09	70.524
597.42	70.099
597.75	71.324
598.09	69.986
598.42	69.585
598.76	70.270
599.09	68.670
599.42	68.776
599.76	69.451
600.09	68.891
600.42	68.006
600.76	68.091
601.09	68.435
601.42	69.683
601.76	69.631
602.09	70.916
602.42	71.230
602.76	71.392
603.09	70.473
603.42	70.360
603.76	70.202
604.09	69.745
604.42	70.135
604.76	71.518
605.09	72.258
605.42	70.609
605.75	70.578
606.09	69.384
606.42	69.475
606.75	69.610
607.09	71.033
607.42	70.536
607.75	70.249
608.08	69.946
608.42	70.900
608.75	72.819
609.08	73.094
609.41	73.198
609.75	73.841
610.08	73.689
610.41	71.304
610.74	72.647
611.07	73.592
611.41	74.312
611.74	74.893
612.07	72.698
612.40	74.125
612.73	75.424
613.07	75.084
613.40	74.891
613.73	74.370
614.06	74.124
614.39	74.619
614.72	73.221
615.06	74.078
615.39	72.325
615.72	72.928
616.05	73.520
616.38	72.934
616.71	76.024
617.05	76.961
617.38	76.744
617.71	76.667
618.04	77.905
618.37	77.995
618.70	78.944
619.03	77.986
619.36	77.931
619.69	80.364
620.03	80.497
620.36	79.185
620.69	78.444
621.02	78.899
621.35	82.324
621.68	85.374
622.01	81.833
622.34	81.963
622.67	80.205
623.00	78.254
623.33	80.945
623.66	79.955
623.99	78.366
624.32	80.076
624.65	79.248
624.99	80.587
625.32	79.454
625.65	82.090
625.98	83.078
626.31	83.209
626.64	84.662
626.97	84.119
627.30	83.275
627.63	83.276
627.96	83.468
628.29	85.199
628.62	85.447
628.95	86.774
629.28	88.710
629.61	85.743
629.94	85.337
630.26	83.597
630.59	89.594
630.92	86.051
631.25	86.667
631.58	89.758
631.91	88.706
632.24	90.711
632.57	89.205
632.90	91.815
633.23	90.353
633.56	94.332
633.89	92.972
634.22	91.728
634.55	93.139
634.88	94.381
635.20	92.564
635.53	96.800
635.86	93.108
636.19	92.755
636.52	92.219
636.85	90.571
637.18	91.069
637.51	92.830
637.83	92.247
638.16	95.498
638.49	92.234
638.82	94.605
639.15	93.080
639.48	95.186
639.81	93.305
640.13	97.258
640.46	98.397
640.79	96.171
641.12	95.126
641.45	94.294
641.77	96.296
642.10	101.106
642.43	99.518
642.76	101.155
643.09	101.616
643.41	96.117
643.74	94.399
644.07	98.194
644.40	100.507
644.73	101.751
645.05	95.302
645.38	100.000
645.71	101.241
646.04	101.616
646.36	102.128
646.69	102.878
647.02	103.970
647.35	105.410
647.67	98.355
648.00	103.172
648.33	97.270
648.66	98.136
648.98	95.980
649.31	98.512
649.64	93.721
649.96	94.814
650.29	98.126
650.62	96.581
650.94	101.481
651.27	100.186
651.60	99.099
651.92	96.154
652.25	100.710
652.58	94.833
652.90	100.686
653.23	95.966
653.56	96.277
653.88	96.220
654.21	97.373
654.54	95.586
654.86	96.944
655.19	92.544
655.52	80.495
655.84	66.020
656.17	72.128
656.49	95.668
656.82	99.361
657.15	78.853
657.47	59.041
657.80	45.058
658.13	44.751
658.45	71.056
658.78	72.318
659.10	73.429
659.43	75.841
659.75	79.625
660.08	82.138
660.41	89.785
660.73	92.541
661.06	98.787
661.38	104.892
661.71	100.205
662.03	104.936
662.36	107.033
662.68	105.752
663.01	106.769
663.33	104.872
663.66	108.140
663.98	105.814
664.31	101.706
664.63	104.839
664.96	98.043
665.28	100.883
665.61	103.247
665.93	104.783
666.26	104.121
666.58	107.383
666.91	106.588
667.23	108.962
667.56	106.872
667.88	105.276
668.21	109.785
668.53	105.437
668.86	106.368
669.18	103.066
669.50	109.201
669.83	104.186
670.15	105.594
670.48	109.330
670.80	104.608
671.13	103.579
671.45	101.826
671.77	101.288
672.10	98.020
672.42	94.944
672.75	94.849
673.07	97.138
673.39	95.596
673.72	97.041
674.04	97.917
674.37	101.907
674.69	98.073
675.01	105.556
675.34	101.577
675.66	102.546
675.98	102.661
676.31	103.211
676.63	105.226
676.95	100.909
677.28	107.529
677.60	105.301
677.92	103.440
678.25	102.845
678.57	106.061
678.89	100.840
679.22	107.383
679.54	94.177
679.86	98.012
680.18	98.447
680.51	96.023
680.83	98.012
681.15	99.600
681.48	97.541
681.80	102.066
682.12	98.992
682.44	100.418
682.77	101.766
683.09	99.314
683.41	98.182
683.73	102.535
684.06	97.566
684.38	100.000
684.70	104.139
685.02	96.680
685.34	96.838
685.67	94.559
685.99	94.756
686.31	94.336
686.63	94.063
686.96	96.008
687.28	95.152
687.60	94.297
687.92	100.606
688.24	96.976
688.56	102.838
688.89	100.893
689.21	101.556
689.53	102.784
689.85	101.860
690.17	98.214
690.49	103.310
690.82	103.883
691.14	103.095
691.46	103.738
691.78	101.802
692.10	100.860
692.42	100.433
692.74	95.085
693.06	100.450
693.39	97.059
693.71	97.964
694.03	99.769
694.35	97.664
694.67	99.747
694.99	108.616
695.31	103.133
695.63	100.250
695.95	103.283
696.27	103.109
696.59	105.556
696.91	108.123
697.23	101.285
697.56	102.475
697.88	97.204
698.20	102.961
698.52	102.118
698.84	94.498
699.16	99.250
699.48	102.757
699.80	92.804
700.12	100.270
700.44	103.641
700.76	104.942
701.08	107.879
701.40	105.120
701.72	110.802
702.04	113.201
702.36	120.401
702.68	106.907
703.00	112.424
703.32	104.106
703.64	100.000
703.96	106.377
704.28	106.135
704.60	110.476
704.91	104.732
705.23	107.641
705.55	114.841
705.87	113.718
706.19	114.074
706.51	113.402
706.83	108.360
707.15	105.607
707.47	102.241
707.79	95.573
708.11	95.750
708.43	99.500
708.74	102.842
709.06	106.197
709.38	103.670
709.70	103.254
710.02	104.459
710.34	104.954
710.66	100.000
710.98	109.603
711.29	106.230
711.61	108.136
711.93	102.280
712.25	110.653
712.57	110.256
712.89	112.313
713.20	103.460
713.52	107.666
713.84	108.532
714.16	105.155
714.48	101.613
714.80	107.051
715.11	102.736
715.43	99.373
715.75	106.667
716.07	100.000
716.39	102.685
716.70	105.535
717.02	109.160
717.34	110.121
717.66	112.832
717.97	113.913
718.29	110.042
718.61	109.843
718.93	110.853
719.24	109.506
719.56	110.040
719.88	100.000
720.20	106.818
720.51	104.598
720.83	107.722
721.15	114.706
721.46	111.694
721.78	100.395
722.10	100.743
722.42	104.979
722.73	109.796
723.05	106.939
723.37	113.136
723.68	112.613
724.00	109.402
724.32	111.111
724.63	111.364
724.95	113.974
725.27	116.590
725.58	108.051
725.90	103.571
726.22	104.633
726.53	96.610
726.85	105.243
727.16	106.792
727.48	106.478
727.80	102.024
728.11	108.475
728.43	98.824
728.74	102.419
729.06	107.600
729.38	106.391
729.69	107.570
730.01	102.308
730.32	105.597
730.64	93.286
730.96	107.170
731.27	101.667
731.59	103.729
731.90	101.592
732.22	97.476
732.53	104.319
732.85	102.837
733.16	105.051
733.48	100.719
733.80	101.449
734.11	96.271
734.43	103.780
734.74	95.758
735.06	101.954
735.37	96.375
735.69	101.010
736.00	98.606
736.32	96.309
736.63	100.704
736.95	92.491
737.26	99.644
737.58	94.295
737.89	105.495
738.21	101.504
738.52	104.527
738.83	108.734
739.15	105.240
739.46	111.024
739.78	103.663
740.09	97.712
740.41	98.551
740.72	106.693
741.04	108.097
741.35	103.404
741.66	117.062
741.98	111.735
742.29	111.386
742.61	120.419
742.92	108.531
743.23	103.241
743.55	111.765
743.86	107.177
744.18	107.177
744.49	120.745
744.80	116.304
745.12	120.856
745.43	108.780
745.74	120.833
746.06	115.610
746.37	116.754
746.68	108.057
747.00	111.170
747.31	111.940
747.62	108.738
747.94	109.091
748.25	118.812
748.56	118.033
748.88	120.942
749.19	118.085
749.50	115.271
749.82	108.962
750.13	107.339
750.44	105.263
750.75	98.881
751.07	106.204
751.38	100.000
751.69	103.529
752.01	105.039
752.32	105.578
752.63	105.534
752.94	111.207
753.26	110.879
753.57	111.312
753.88	111.947
754.19	102.917
754.51	110.331
754.82	101.215
755.13	111.667
755.44	101.613
755.75	100.781
756.07	103.891
756.38	100.377
756.69	97.318
757.00	97.000
757.31	94.118
757.63	92.988
757.94	90.556
758.25	90.685
758.56	94.149
758.87	91.501
759.18	91.900
759.50	99.273
759.81	103.344
760.12	100.645
760.43	96.970
760.74	96.605
761.05	95.077
761.36	92.614
761.67	100.909
761.99	103.401
762.30	94.909
762.61	98.814
762.92	108.145
763.23	103.604
763.54	107.477
763.85	108.051
764.16	99.170
764.47	99.597
764.78	94.505
765.10	96.633
765.41	96.530
765.72	97.460
766.03	100.752
766.34	90.146
766.65	101.195
766.96	111.111
767.27	109.043
767.58	108.046
767.89	117.021
768.20	109.091
768.51	110.989
768.82	105.419
769.13	100.000
769.44	97.854
769.75	98.174
770.06	103.448
770.37	100.962
770.68	109.645
770.99	97.285
771.30	109.804
771.61	101.357
771.92	99.569
772.23	106.897
772.54	107.527
772.85	119.136
773.16	106.180
773.47	116.993
773.78	120.915
774.09	103.593
774.39	109.333
774.70	101.911
775.01	112.414
775.32	110.000
775.63	112.397
775.94	112.214
776.25	119.685
776.56	113.333
776.87	128.846
777.18	114.530
777.48	118.103
777.79	113.043
778.10	118.095
778.41	118.018
778.72	111.111
779.03	110.526
779.34	112.057
779.65	114.384
779.95	106.164
780.26	105.517
780.57	117.073
780.88	114.173
781.19	124.138
781.50	106.202
781.80	93.491
782.11	92.453
782.42	121.538
782.73	111.511
783.04	105.926
783.34	97.222
783.65	105.128
783.96	119.672
784.27	102.069
784.57	112.195
784.88	111.719
785.19	122.000
785.50	131.000
785.81	106.034
786.11	117.241
786.42	117.476
786.73	114.545
787.04	114.286
787.34	106.250
787.65	108.571
787.96	105.310
788.26	109.091
788.57	109.402
788.88	113.281
789.19	96.032
789.49	115.652
789.80	111.224
790.11	113.131
790.41	97.273
790.72	119.565
791.03	104.545
791.33	132.500
791.64	108.750
791.95	118.605
792.25	114.894
792.56	113.483
792.87	112.329
793.17	126.087
793.48	105.333
793.79	112.500
794.09	128.750
794.40	103.774
794.70	111.650
795.01	100.000
795.32	105.128
795.62	105.714
795.93	110.784
796.23	100.000
796.54	107.292
796.85	132.353
797.15	97.183
797.46	115.278
797.76	131.818
798.07	91.860
798.37	111.842
798.68	130.303
798.99	107.407
799.29	121.429
799.60	111.594
799.90	121.333
800.21	140.984
800.51	121.538
800.82	128.814
801.12	118.841
801.43	118.033
801.73	138.095
802.04	134.000
802.34	104.478
802.65	142.308
802.95	108.929
803.26	128.846
803.56	127.451
803.87	110.870
804.17	104.000
804.48	104.762
804.78	144.444
805.09	134.783
805.39	128.889
805.70	138.889
806.00	105.263
806.30	109.859
806.61	118.571
806.91	115.278
807.22	122.368
807.52	114.667
807.83	134.545
808.13	98.611
808.43	123.529
808.74	113.433
809.04	111.864
809.35	126.923
809.65	104.688
809.95	140.541
810.26	129.545
810.56	102.740
810.86	126.190
811.17	122.000
811.47	144.898
811.77	150.000
812.08	129.545
812.38	100.000
812.69	132.500
812.99	139.394
813.29	136.842
813.59	120.000
813.90	134.091
814.20	135.897
814.50	103.846
814.81	96.226
815.11	110.638
815.41	123.729
815.72	107.143
816.02	109.804
816.32	120.833
816.62	136.585
816.93	100.000
817.23	120.000
817.53	135.417
817.84	115.217
818.14	103.846
818.44	110.526
818.74	117.391
819.04	75.000
819.35	127.027
819.65	150.000
819.95	105.556
820.25	119.048
820.56	115.000
820.86	113.793
821.16	137.500
821.46	100.000
821.76	137.500
822.07	93.023
822.37	100.000
822.67	175.000
822.97	123.810
823.27	153.571
823.57	144.000
823.88	114.815
824.18	135.714
824.48	135.294
824.78	154.839
825.08	169.565
825.38	93.939
825.69	166.667
825.99	128.947
826.29	119.444
826.59	366.667
826.89	133.333
827.19	91.304
827.49	112.500
827.79	97.143
828.09	164.286
828.39	139.394
828.70	121.622
829.00	114.286
829.30	152.381
829.60	133.333
829.90	140.625
830.20	118.421
830.50	122.222
830.80	117.391
831.10	145.455
831.40	121.212
831.70	119.355
832.00	219.048
832.30	138.095
832.60	208.333
832.90	86.207
833.20	140.000
833.50	84.848
833.80	140.741
834.10	157.692
834.40	128.125
834.70	277.778
835.00	200.000
835.30	126.923
835.60	313.333
835.90	100.000
836.20	118.182
836.50	125.000
836.80	115.385
837.10	110.714
837.40	700.000
837.70	145.455
838.00	200.000
838.30	82.609
838.60	253.846
838.90	127.273
839.19	139.286
839.49	83.333
839.79	184.615
840.09	125.000
840.39	121.429
840.69	85.714
840.99	115.385
841.29	73.684
841.59	180.000
841.88	190.909
842.18	200.000
842.48	187.500
842.78	93.333
843.08	74.074
843.38	190.000
843.68	43.478
843.97	240.000
844.27	80.000
844.57	115.000
844.87	138.889
845.17	100.000
845.47	106.667
845.76	85.714
846.06	135.294
846.36	310.000
846.66	142.857
846.96	133.333
847.25	37.500
847.55	178.571
847.85	250.000
848.15	109.091
848.44	0.000
848.74	105.000
849.04	114.815
849.34	300.000
849.63	150.000
849.93	-20.000
850.23	122.222
850.53	280.000
850.82	207.692
851.12	144.444
851.42	140.000
851.71	100.000
852.01	121.429
852.31	325.000
852.61	227.273
852.90	80.000
853.20	131.579
853.50	208.333
853.79	156.522
854.09	145.833
854.39	126.316
854.68	75.000
854.98	119.355
855.28	130.769
855.57	155.000
855.87	116.667
856.17	85.185
856.46	171.429
856.76	180.000
857.05	255.556
857.35	96.000
857.65	138.889
857.94	138.462
858.24	93.103
858.53	105.556
858.83	122.222
859.13	90.909
859.42	86.957
859.72	400.000
860.01	333.333
860.31	56.000
860.60	85.714
860.90	366.667
861.20	86.667
861.49	0.000
861.79	86.667
862.08	115.000
862.38	173.333
862.67	140.000
862.97	383.333
863.26	150.000
863.56	111.111
863.85	366.667
864.15	66.667
864.44	80.000
864.74	185.714
865.03	-225.000
865.33	200.000
865.62	366.667
865.92	141.667
866.21	133.333
866.51	87.500
866.80	90.909
867.10	50.000
867.39	183.333
867.69	0.000
867.98	76.923
868.27	100.000
868.57	53.333
868.86	133.333
869.16	38.462
869.45	100.000
869.75	900.000
870.04	0.000
870.33	242.857
870.63	90.476
870.92	-0.000
871.22	80.000
871.51	0.000
871.80	111.111
872.10	-166.667
>>>>>End Processed Spectral Data<<<<<
