SpectraSuite Data File
++++++++++++++++++++++++++++++++++++
Date: Fri May 15 17:27:50 PDT 2015
User: schluterlab
Dark Spectrum Present: Yes
Reference Spectrum Present: Yes
Number of Sampled Component Spectra: 1
Spectrometers: USB2E3373
Integration Time (usec): 3000 (USB2E3373)
Spectra Averaged: 3 (USB2E3373)
Boxcar Smoothing: 0 (USB2E3373)
Correct for Electrical Dark: No (USB2E3373)
Strobe/Lamp Enabled: No (USB2E3373)
Correct for Detector Non-linearity: No (USB2E3373)
Correct for Stray Light: No (USB2E3373)
Number of Pixels in Processed Spectrum: 2048
>>>>>Begin Processed Spectral Data<<<<<
178.53	0.000
178.91	0.000
179.29	37.500
179.67	-450.000
180.04	100.000
180.42	-50.000
180.80	-300.000
181.18	300.000
181.56	200.000
181.94	-250.000
182.31	800.000
182.69	-20.000
183.07	-133.333
183.45	160.000
183.83	-0.000
184.20	-36.364
184.58	111.111
184.96	-0.000
185.34	-33.333
185.72	-900.000
186.09	46.154
186.47	-700.000
186.85	66.667
187.23	111.111
187.61	-0.000
187.98	-333.333
188.36	-33.333
188.74	-433.333
189.12	47.059
189.49	-5.556
189.87	0.000
190.25	28.571
190.63	450.000
191.00	-233.333
191.38	21.053
191.76	500.000
192.14	125.000
192.51	150.000
192.89	-33.333
193.27	0.000
193.65	133.333
194.02	90.909
194.40	90.000
194.78	-175.000
195.15	-41.667
195.53	-200.000
195.91	325.000
196.29	25.000
196.66	115.385
197.04	100.000
197.42	-55.556
197.79	-300.000
198.17	-23.077
198.55	-0.000
198.92	-300.000
199.30	-300.000
199.68	-80.000
200.05	-33.333
200.43	0.000
200.81	33.333
201.18	-533.333
201.56	1600.000
201.94	-200.000
202.31	-66.667
202.69	-320.000
203.07	225.000
203.44	-600.000
203.82	0.000
204.19	50.000
204.57	-366.667
204.95	25.000
205.32	-30.000
205.70	-28.571
206.08	-175.000
206.45	100.000
206.83	28.571
207.20	-14.286
207.58	-700.000
207.96	0.000
208.33	0.000
208.71	50.000
209.08	-66.667
209.46	-500.000
209.84	-20.000
210.21	-600.000
210.59	128.571
210.96	200.000
211.34	175.000
211.71	26.667
212.09	-14.286
212.46	-1400.000
212.84	0.000
213.22	140.000
213.59	450.000
213.97	61.538
214.34	-36.364
214.72	-133.333
215.09	225.000
215.47	-38.462
215.84	36.364
216.22	-233.333
216.59	-12.500
216.97	100.000
217.34	75.000
217.72	-200.000
218.09	0.000
218.47	75.000
218.84	-1600.000
219.22	100.000
219.59	240.000
219.97	566.667
220.34	375.000
220.72	28.571
221.09	-25.000
221.47	-200.000
221.84	-500.000
222.22	-800.000
222.59	72.727
222.97	0.000
223.34	-133.333
223.72	14.286
224.09	28.571
224.46	-7.143
224.84	433.333
225.21	10.000
225.59	80.000
225.96	-350.000
226.34	125.000
226.71	-14.286
227.08	-100.000
227.46	0.000
227.83	-450.000
228.21	0.000
228.58	36.364
228.95	0.000
229.33	40.000
229.70	6.250
230.08	75.000
230.45	-14.286
230.82	185.714
231.20	-60.000
231.57	78.571
231.95	114.286
232.32	-80.000
232.69	-57.143
233.07	-300.000
233.44	-80.000
233.81	-120.000
234.19	66.667
234.56	-47.059
234.93	200.000
235.31	50.000
235.68	-320.000
236.05	-76.923
236.43	10.000
236.80	-17.647
237.17	9.375
237.55	-25.000
237.92	0.000
238.29	16.667
238.67	20.000
239.04	20.588
239.41	0.000
239.79	-10.000
240.16	19.512
240.53	7.895
240.91	-10.870
241.28	7.937
241.65	26.786
242.02	10.959
242.40	8.333
242.77	5.085
243.14	-6.061
243.51	-2.500
243.89	18.391
244.26	-5.747
244.63	-1.190
245.00	6.186
245.38	9.278
245.75	0.000
246.12	-9.483
246.49	3.306
246.87	14.423
247.24	1.681
247.61	-7.018
247.98	-4.065
248.36	2.500
248.73	4.605
249.10	3.247
249.47	-1.266
249.84	8.497
250.22	4.706
250.59	3.922
250.96	11.737
251.33	5.233
251.70	-0.588
252.08	7.107
252.45	4.950
252.82	4.523
253.19	8.756
253.56	3.738
253.94	4.505
254.31	7.391
254.68	11.842
255.05	4.724
255.42	5.240
255.79	8.494
256.16	2.335
256.54	7.463
256.91	2.281
257.28	2.974
257.65	4.120
258.02	3.546
258.39	7.071
258.76	5.861
259.14	9.967
259.51	3.560
259.88	-1.375
260.25	6.209
260.62	3.819
260.99	3.051
261.36	5.479
261.73	3.481
262.10	4.863
262.47	5.521
262.85	1.567
263.22	2.462
263.59	4.050
263.96	5.590
264.33	4.242
264.70	5.060
265.07	4.762
265.44	2.833
265.81	6.780
266.18	6.011
266.55	8.740
266.92	5.440
267.29	5.222
267.66	8.440
268.03	6.545
268.40	2.611
268.77	6.684
269.14	6.235
269.51	5.656
269.88	4.988
270.25	3.316
270.62	3.659
270.99	3.325
271.36	3.178
271.73	5.399
272.10	3.893
272.47	6.619
272.84	3.960
273.21	6.961
273.58	5.542
273.95	4.805
274.32	3.233
274.69	4.751
275.06	5.804
275.43	5.896
275.80	3.753
276.17	3.218
276.54	4.069
276.91	6.579
277.28	3.057
277.65	5.579
278.02	5.106
278.39	3.939
278.76	5.451
279.13	2.697
279.50	5.042
279.87	4.536
280.23	4.086
280.60	5.848
280.97	5.051
281.34	4.231
281.71	6.776
282.08	4.499
282.45	1.566
282.82	4.054
283.19	5.416
283.56	4.239
283.92	2.467
284.29	1.923
284.66	4.651
285.03	2.554
285.40	4.537
285.77	3.339
286.14	4.332
286.51	5.351
286.87	4.570
287.24	3.683
287.61	3.880
287.98	5.789
288.35	2.773
288.72	5.079
289.08	3.472
289.45	5.272
289.82	4.720
290.19	1.536
290.56	2.744
290.93	4.714
291.29	3.082
291.66	5.669
292.03	2.073
292.40	4.032
292.77	2.552
293.13	1.948
293.50	3.642
293.87	4.427
294.24	5.100
294.60	4.024
294.97	4.762
295.34	2.607
295.71	4.471
296.08	4.036
296.44	2.845
296.81	3.333
297.18	4.783
297.55	3.523
297.91	3.562
298.28	3.958
298.65	3.121
299.02	3.369
299.38	3.146
299.75	3.310
300.12	2.094
300.48	2.372
300.85	5.450
301.22	4.545
301.59	2.237
301.95	4.810
302.32	4.410
302.69	3.980
303.05	3.218
303.42	2.989
303.79	3.388
304.15	5.018
304.52	2.497
304.89	1.871
305.25	3.148
305.62	2.100
305.99	3.158
306.35	2.428
306.72	2.137
307.09	4.561
307.45	2.870
307.82	2.662
308.19	3.600
308.55	4.471
308.92	3.813
309.29	3.240
309.65	2.583
310.02	5.061
310.38	3.622
310.75	2.842
311.12	3.983
311.48	3.393
311.85	3.665
312.22	2.215
312.58	3.185
312.95	1.387
313.31	2.174
313.68	2.199
314.05	2.857
314.41	3.402
314.78	3.299
315.14	4.317
315.51	3.002
315.87	3.176
316.24	5.258
316.61	4.626
316.97	4.464
317.34	3.809
317.70	2.868
318.07	3.269
318.43	3.137
318.80	3.788
319.16	4.102
319.53	4.179
319.89	3.051
320.26	4.049
320.62	5.115
320.99	2.401
321.35	4.214
321.72	4.258
322.08	3.323
322.45	4.264
322.81	4.126
323.18	3.729
323.54	2.703
323.91	3.700
324.27	4.102
324.64	4.401
325.00	4.106
325.37	4.867
325.73	3.264
326.10	4.632
326.46	5.022
326.83	4.812
327.19	4.795
327.56	4.518
327.92	4.313
328.29	4.107
328.65	4.434
329.01	5.607
329.38	5.069
329.74	3.588
330.11	4.356
330.47	4.453
330.84	3.365
331.20	6.274
331.56	4.167
331.93	5.479
332.29	5.316
332.66	3.891
333.02	4.182
333.38	4.491
333.75	5.586
334.11	5.282
334.48	5.802
334.84	5.403
335.20	5.032
335.57	4.624
335.93	4.968
336.29	4.604
336.66	4.450
337.02	3.717
337.38	3.333
337.75	5.545
338.11	5.500
338.47	5.292
338.84	4.621
339.20	5.484
339.56	4.862
339.93	5.372
340.29	4.771
340.65	5.197
341.02	4.610
341.38	5.133
341.74	4.770
342.11	3.986
342.47	5.338
342.83	4.066
343.20	3.833
343.56	4.957
343.92	3.809
344.28	5.636
344.65	4.750
345.01	4.754
345.37	4.962
345.73	5.356
346.10	6.212
346.46	5.299
346.82	5.155
347.19	4.156
347.55	4.678
347.91	5.502
348.27	5.093
348.63	5.537
349.00	4.266
349.36	4.489
349.72	5.224
350.08	4.754
350.45	5.746
350.81	4.236
351.17	5.456
351.53	4.980
351.89	4.789
352.26	4.480
352.62	5.484
352.98	4.739
353.34	4.509
353.70	5.016
354.07	4.113
354.43	3.923
354.79	5.037
355.15	5.397
355.51	4.905
355.87	4.126
356.24	5.057
356.60	4.931
356.96	5.238
357.32	4.872
357.68	5.708
358.04	3.877
358.40	4.260
358.77	5.024
359.13	5.284
359.49	5.085
359.85	4.680
360.21	5.024
360.57	4.438
360.93	5.825
361.29	3.701
361.66	5.486
362.02	4.924
362.38	5.407
362.74	4.996
363.10	5.719
363.46	4.818
363.82	5.109
364.18	5.092
364.54	4.926
364.90	5.663
365.26	4.512
365.62	5.036
365.98	4.545
366.35	5.390
366.71	4.656
367.07	5.370
367.43	5.104
367.79	4.382
368.15	4.666
368.51	4.297
368.87	4.882
369.23	4.332
369.59	4.956
369.95	4.985
370.31	5.347
370.67	4.403
371.03	4.630
371.39	4.522
371.75	5.275
372.11	5.207
372.47	5.473
372.83	5.465
373.19	5.492
373.55	5.199
373.91	5.760
374.27	4.465
374.63	5.097
374.99	4.681
375.35	5.084
375.71	5.524
376.07	5.337
376.42	5.442
376.78	5.906
377.14	5.619
377.50	5.179
377.86	5.823
378.22	4.978
378.58	5.641
378.94	5.104
379.30	5.303
379.66	6.270
380.02	5.886
380.38	4.869
380.74	4.608
381.09	6.626
381.45	6.422
381.81	5.676
382.17	5.520
382.53	5.684
382.89	5.085
383.25	5.289
383.61	5.732
383.97	4.000
384.32	5.253
384.68	5.015
385.04	5.331
385.40	5.600
385.76	6.164
386.12	6.533
386.48	5.811
386.83	5.327
387.19	6.410
387.55	6.399
387.91	5.746
388.27	6.227
388.62	6.608
388.98	5.463
389.34	6.184
389.70	6.961
390.06	5.286
390.42	6.218
390.77	5.952
391.13	6.557
391.49	5.369
391.85	6.043
392.20	6.215
392.56	6.103
392.92	6.753
393.28	6.014
393.64	6.486
393.99	7.085
394.35	5.313
394.71	6.960
395.07	5.594
395.42	6.193
395.78	6.254
396.14	6.557
396.50	7.166
396.85	6.504
397.21	6.391
397.57	6.771
397.92	6.471
398.28	6.264
398.64	6.566
399.00	6.659
399.35	6.095
399.71	6.663
400.07	7.376
400.42	7.160
400.78	6.797
401.14	7.562
401.49	6.849
401.85	6.703
402.21	7.169
402.57	6.875
402.92	5.834
403.28	7.080
403.63	5.927
403.99	6.314
404.35	6.933
404.70	7.143
405.06	7.286
405.42	7.147
405.77	6.275
406.13	6.112
406.49	7.046
406.84	6.235
407.20	6.984
407.55	6.246
407.91	6.684
408.27	5.991
408.62	7.877
408.98	6.716
409.34	7.063
409.69	7.041
410.05	7.266
410.40	7.531
410.76	6.212
411.11	7.312
411.47	6.969
411.83	6.968
412.18	7.272
412.54	6.492
412.89	7.266
413.25	7.401
413.60	6.957
413.96	7.055
414.31	7.256
414.67	7.633
415.03	6.325
415.38	6.397
415.74	7.687
416.09	8.165
416.45	7.698
416.80	7.138
417.16	7.390
417.51	7.129
417.87	7.366
418.22	7.642
418.58	7.023
418.93	7.461
419.29	6.978
419.64	7.583
420.00	7.935
420.35	7.403
420.71	7.169
421.06	6.937
421.42	6.851
421.77	6.994
422.12	6.981
422.48	6.551
422.83	6.961
423.19	7.336
423.54	6.702
423.90	7.479
424.25	7.577
424.61	7.895
424.96	7.549
425.31	7.915
425.67	7.512
426.02	7.303
426.38	8.078
426.73	8.111
427.09	7.722
427.44	7.706
427.79	8.014
428.15	8.313
428.50	7.147
428.85	6.880
429.21	8.206
429.56	8.032
429.92	7.396
430.27	7.669
430.62	7.109
430.98	7.431
431.33	8.465
431.68	7.954
432.04	7.155
432.39	7.644
432.74	7.637
433.10	8.276
433.45	8.124
433.80	7.661
434.16	6.870
434.51	8.118
434.86	7.085
435.22	8.301
435.57	8.047
435.92	7.964
436.28	7.931
436.63	8.043
436.98	7.822
437.34	7.683
437.69	7.931
438.04	8.262
438.39	7.208
438.75	7.407
439.10	8.319
439.45	7.486
439.81	7.401
440.16	7.482
440.51	8.000
440.86	8.459
441.22	7.862
441.57	8.333
441.92	8.342
442.27	7.594
442.63	8.994
442.98	8.329
443.33	7.290
443.68	7.745
444.03	8.594
444.39	8.313
444.74	8.250
445.09	8.630
445.44	7.464
445.79	8.355
446.15	7.930
446.50	6.988
446.85	8.023
447.20	7.821
447.55	8.650
447.91	8.517
448.26	8.310
448.61	7.945
448.96	8.204
449.31	8.208
449.66	7.956
450.02	7.587
450.37	8.595
450.72	8.305
451.07	8.038
451.42	7.990
451.77	8.318
452.12	7.775
452.47	7.985
452.83	7.892
453.18	8.096
453.53	7.649
453.88	8.440
454.23	7.683
454.58	8.627
454.93	8.312
455.28	7.683
455.63	8.369
455.98	8.599
456.34	7.791
456.69	8.069
457.04	7.940
457.39	7.594
457.74	8.525
458.09	7.475
458.44	8.894
458.79	7.619
459.14	8.410
459.49	8.955
459.84	8.799
460.19	7.767
460.54	8.619
460.89	7.557
461.24	8.075
461.59	8.610
461.94	8.805
462.29	8.203
462.64	8.439
462.99	8.734
463.34	8.345
463.69	7.851
464.04	7.990
464.39	8.551
464.74	8.037
465.09	8.734
465.44	8.944
465.79	8.503
466.14	8.210
466.49	7.763
466.84	8.923
467.19	9.387
467.54	8.685
467.89	7.770
468.24	8.151
468.59	8.698
468.94	8.000
469.29	8.984
469.64	8.749
469.99	9.530
470.34	7.577
470.68	7.979
471.03	8.563
471.38	8.060
471.73	7.493
472.08	8.345
472.43	8.054
472.78	8.019
473.13	8.980
473.48	8.339
473.83	8.095
474.17	9.197
474.52	9.126
474.87	8.606
475.22	8.115
475.57	7.736
475.92	9.106
476.27	8.615
476.61	9.144
476.96	8.589
477.31	8.707
477.66	8.820
478.01	8.310
478.36	8.333
478.70	9.135
479.05	9.286
479.40	8.585
479.75	9.020
480.10	8.756
480.45	8.300
480.79	9.114
481.14	9.068
481.49	8.522
481.84	8.253
482.19	7.811
482.53	8.873
482.88	8.878
483.23	8.205
483.58	8.774
483.92	8.180
484.27	8.614
484.62	8.292
484.97	8.416
485.31	7.948
485.66	7.765
486.01	8.112
486.36	7.962
486.70	8.288
487.05	8.242
487.40	8.376
487.75	8.479
488.09	8.096
488.44	8.494
488.79	8.816
489.13	9.295
489.48	8.209
489.83	8.296
490.17	8.449
490.52	8.453
490.87	7.682
491.22	8.691
491.56	8.634
491.91	8.365
492.26	8.799
492.60	8.973
492.95	8.756
493.30	9.086
493.64	7.859
493.99	9.372
494.34	8.252
494.68	8.714
495.03	8.224
495.37	8.440
495.72	8.834
496.07	8.732
496.41	8.726
496.76	8.567
497.11	7.965
497.45	8.592
497.80	8.930
498.14	8.495
498.49	8.786
498.84	8.533
499.18	8.685
499.53	8.929
499.87	8.268
500.22	8.556
500.56	9.329
500.91	8.886
501.26	8.107
501.60	8.756
501.95	8.685
502.29	8.910
502.64	8.832
502.98	8.436
503.33	8.405
503.67	9.108
504.02	9.091
504.36	9.005
504.71	9.242
505.06	9.260
505.40	9.086
505.75	8.093
506.09	8.920
506.44	8.316
506.78	9.286
507.13	9.049
507.47	9.347
507.82	8.066
508.16	9.033
508.51	9.077
508.85	9.105
509.19	8.781
509.54	9.276
509.88	9.331
510.23	9.145
510.57	9.139
510.92	8.795
511.26	9.329
511.61	9.131
511.95	9.315
512.30	9.091
512.64	9.794
512.98	8.647
513.33	9.625
513.67	9.380
514.02	9.954
514.36	9.314
514.70	10.490
515.05	8.637
515.39	9.740
515.74	9.820
516.08	9.564
516.42	10.365
516.77	9.889
517.11	9.080
517.46	10.174
517.80	9.476
518.14	9.124
518.49	10.036
518.83	9.599
519.17	9.096
519.52	9.473
519.86	9.304
520.20	10.328
520.55	9.068
520.89	10.163
521.23	10.133
521.58	10.473
521.92	10.321
522.26	10.215
522.61	9.675
522.95	10.331
523.29	10.102
523.64	10.419
523.98	9.332
524.32	8.634
524.66	11.332
525.01	9.610
525.35	10.434
525.69	9.966
526.04	9.193
526.38	10.506
526.72	9.876
527.06	10.441
527.41	10.290
527.75	9.853
528.09	10.365
528.43	10.533
528.78	9.835
529.12	10.129
529.46	9.552
529.80	11.146
530.15	9.373
530.49	9.158
530.83	10.123
531.17	9.940
531.51	10.192
531.86	10.469
532.20	9.116
532.54	10.415
532.88	11.020
533.22	9.745
533.57	10.878
533.91	9.334
534.25	10.091
534.59	8.852
534.93	9.188
535.27	9.708
535.62	9.332
535.96	10.959
536.30	10.488
536.64	10.613
536.98	10.174
537.32	10.028
537.66	10.309
538.01	10.000
538.35	9.847
538.69	10.120
539.03	10.185
539.37	10.498
539.71	9.816
540.05	10.591
540.39	11.011
540.73	11.088
541.07	10.359
541.42	10.820
541.76	10.392
542.10	9.842
542.44	10.424
542.78	9.153
543.12	9.959
543.46	10.848
543.80	10.826
544.14	9.346
544.48	9.860
544.82	10.185
545.16	10.041
545.50	11.282
545.84	10.340
546.18	10.355
546.52	10.671
546.86	10.784
547.20	10.801
547.54	10.459
547.88	10.326
548.22	9.533
548.56	9.697
548.90	10.512
549.24	10.468
549.58	10.296
549.92	9.793
550.26	10.623
550.60	9.963
550.94	10.680
551.28	10.201
551.62	11.231
551.96	10.075
552.30	10.307
552.64	10.860
552.98	10.830
553.32	10.699
553.66	10.232
554.00	10.730
554.34	10.487
554.68	10.324
555.02	11.161
555.36	10.247
555.69	10.256
556.03	9.993
556.37	10.036
556.71	10.542
557.05	9.843
557.39	10.260
557.73	10.420
558.07	10.407
558.41	10.643
558.75	10.210
559.08	10.638
559.42	11.032
559.76	9.928
560.10	10.245
560.44	9.978
560.78	10.490
561.12	9.450
561.45	9.768
561.79	11.134
562.13	11.072
562.47	9.784
562.81	10.735
563.15	11.072
563.48	10.396
563.82	10.364
564.16	10.028
564.50	9.527
564.84	10.977
565.17	10.127
565.51	11.066
565.85	9.808
566.19	11.207
566.52	9.786
566.86	10.411
567.20	10.087
567.54	10.036
567.88	9.842
568.21	10.633
568.55	9.348
568.89	10.524
569.23	9.485
569.56	9.676
569.90	10.069
570.24	9.713
570.57	9.600
570.91	10.352
571.25	9.405
571.59	9.530
571.92	9.452
572.26	9.450
572.60	9.085
572.93	9.602
573.27	9.216
573.61	9.726
573.95	9.093
574.28	9.216
574.62	8.848
574.96	8.901
575.29	9.187
575.63	8.862
575.97	8.973
576.30	9.137
576.64	9.086
576.98	9.575
577.31	9.536
577.65	9.128
577.98	9.108
578.32	8.989
578.66	8.962
578.99	8.821
579.33	8.818
579.67	9.261
580.00	9.139
580.34	9.254
580.67	9.248
581.01	8.958
581.35	8.958
581.68	9.014
582.02	9.029
582.35	8.914
582.69	8.999
583.02	9.186
583.36	9.534
583.70	9.242
584.03	9.341
584.37	9.825
584.70	9.505
585.04	9.430
585.37	8.993
585.71	9.331
586.04	9.153
586.38	9.042
586.72	9.641
587.05	9.359
587.39	9.757
587.72	9.951
588.06	9.466
588.39	9.428
588.73	9.432
589.06	9.491
589.40	9.609
589.73	10.077
590.07	9.592
590.40	9.830
590.73	10.667
591.07	10.136
591.40	10.329
591.74	10.498
592.07	10.436
592.41	10.512
592.74	9.757
593.08	9.815
593.41	9.555
593.75	9.225
594.08	9.681
594.41	9.753
594.75	9.275
595.08	9.762
595.42	9.901
595.75	9.801
596.09	10.047
596.42	9.715
596.75	10.346
597.09	10.159
597.42	10.163
597.75	10.169
598.09	9.914
598.42	10.018
598.76	10.082
599.09	9.615
599.42	9.360
599.76	9.707
600.09	9.615
600.42	10.083
600.76	9.770
601.09	9.198
601.42	9.518
601.76	9.408
602.09	10.231
602.42	10.110
602.76	9.465
603.09	10.091
603.42	10.410
603.76	8.952
604.09	10.085
604.42	10.068
604.76	10.458
605.09	10.375
605.42	9.526
605.75	9.370
606.09	9.554
606.42	9.675
606.75	10.087
607.09	10.418
607.42	9.304
607.75	9.281
608.08	10.198
608.42	10.324
608.75	10.024
609.08	9.766
609.41	10.051
609.75	10.333
610.08	9.685
610.41	9.179
610.74	9.361
611.07	9.561
611.41	10.275
611.74	10.448
612.07	10.064
612.40	10.558
612.73	9.209
613.07	9.505
613.40	10.449
613.73	9.849
614.06	10.740
614.39	10.209
614.72	9.636
615.06	9.888
615.39	9.662
615.72	9.903
616.05	9.777
616.38	9.573
616.71	10.031
617.05	10.500
617.38	10.937
617.71	9.874
618.04	10.540
618.37	10.845
618.70	10.033
619.03	11.667
619.36	10.492
619.69	10.311
620.03	10.738
620.36	10.587
620.69	10.992
621.02	10.856
621.35	10.290
621.68	10.799
622.01	11.083
622.34	10.535
622.67	10.331
623.00	9.877
623.33	10.290
623.66	10.920
623.99	10.136
624.32	10.342
624.65	9.323
624.99	11.136
625.32	10.690
625.65	10.841
625.98	10.959
626.31	10.058
626.64	11.005
626.97	11.518
627.30	11.033
627.63	10.919
627.96	10.782
628.29	11.193
628.62	10.914
628.95	11.924
629.28	11.895
629.61	10.369
629.94	10.166
630.26	11.067
630.59	11.342
630.92	10.769
631.25	11.590
631.58	11.564
631.91	9.868
632.24	9.404
632.57	11.477
632.90	9.727
633.23	10.588
633.56	11.209
633.89	9.864
634.22	11.481
634.55	12.579
634.88	11.111
635.20	10.641
635.53	11.333
635.86	10.923
636.19	11.514
636.52	10.077
636.85	10.546
637.18	11.447
637.51	12.201
637.83	13.272
638.16	13.370
638.49	10.899
638.82	12.763
639.15	11.398
639.48	10.729
639.81	11.855
640.13	10.678
640.46	10.204
640.79	9.720
641.12	11.374
641.45	11.862
641.77	12.889
642.10	11.216
642.43	12.862
642.76	11.716
643.09	11.147
643.41	10.680
643.74	9.885
644.07	11.330
644.40	11.824
644.73	11.909
645.05	10.738
645.38	11.287
645.71	10.638
646.04	12.208
646.36	14.362
646.69	14.029
647.02	11.342
647.35	13.060
647.67	13.711
648.00	12.127
648.33	11.604
648.66	11.695
648.98	11.055
649.31	10.083
649.64	9.576
649.96	10.049
650.29	12.777
650.62	11.282
650.94	12.222
651.27	13.035
651.60	11.712
651.92	13.112
652.25	11.723
652.58	11.167
652.90	13.551
653.23	12.269
653.56	10.321
653.88	12.887
654.21	9.457
654.54	11.036
654.86	12.054
655.19	10.380
655.52	10.604
655.84	8.530
656.17	9.282
656.49	12.807
656.82	13.816
657.15	10.650
657.47	8.049
657.80	6.007
658.13	6.031
658.45	9.369
658.78	9.545
659.10	9.848
659.43	9.801
659.75	9.965
660.08	11.103
660.41	10.725
660.73	11.878
661.06	12.825
661.38	11.546
661.71	10.472
662.03	12.446
662.36	10.330
662.68	9.513
663.01	11.354
663.33	9.977
663.66	11.395
663.98	12.558
664.31	12.367
664.63	9.908
664.96	10.000
665.28	12.362
665.61	11.905
665.93	10.870
666.26	12.364
666.58	8.277
666.91	10.824
667.23	12.264
667.56	11.611
667.88	13.429
668.21	7.160
668.53	12.530
668.86	11.085
669.18	8.726
669.50	8.475
669.83	13.256
670.15	11.189
670.48	12.919
670.80	13.134
671.13	12.304
671.45	10.731
671.77	16.524
672.10	15.050
672.42	10.300
672.75	10.835
673.07	11.270
673.39	12.294
673.72	8.679
674.04	10.833
674.37	11.864
674.69	9.208
675.01	13.111
675.34	11.486
675.66	14.120
675.98	10.200
676.31	11.927
676.63	9.739
676.95	10.000
677.28	14.353
677.60	12.530
677.92	11.009
678.25	10.941
678.57	8.874
678.89	12.185
679.22	12.975
679.54	12.651
679.86	9.742
680.18	8.738
680.51	12.500
680.83	7.952
681.15	10.600
681.48	14.549
681.80	13.430
682.12	12.097
682.44	10.460
682.77	11.038
683.09	8.696
683.41	12.273
683.73	11.060
684.06	12.389
684.38	9.462
684.70	10.022
685.02	9.129
685.34	9.289
685.67	10.507
685.99	11.212
686.31	10.088
686.63	13.173
686.96	11.407
687.28	7.879
687.60	11.977
687.92	13.939
688.24	10.887
688.56	10.044
688.89	12.946
689.21	14.444
689.53	10.441
689.85	11.395
690.17	12.277
690.49	13.239
690.82	10.194
691.14	10.000
691.46	12.850
691.78	11.036
692.10	14.194
692.42	10.173
692.74	11.752
693.06	9.910
693.39	9.276
693.71	10.633
694.03	9.700
694.35	11.449
694.67	11.869
694.99	10.444
695.31	14.099
695.63	12.000
695.95	12.374
696.27	9.585
696.59	13.333
696.91	11.765
697.23	8.997
697.56	10.396
697.88	13.548
698.20	10.706
698.52	12.471
698.84	9.809
699.16	9.250
699.48	9.774
699.80	12.159
700.12	9.434
700.44	12.885
700.76	9.302
701.08	9.394
701.40	12.651
701.72	15.741
702.04	10.231
702.36	11.706
702.68	10.210
703.00	9.091
703.32	10.264
703.64	10.452
703.96	9.275
704.28	12.883
704.60	11.746
704.91	8.202
705.23	14.950
705.55	14.134
705.87	14.440
706.19	10.370
706.51	13.402
706.83	13.183
707.15	7.165
707.47	8.964
707.79	10.938
708.11	9.750
708.43	9.000
708.74	10.594
709.06	13.803
709.38	9.174
709.70	13.018
710.02	11.465
710.34	12.693
710.66	7.692
710.98	8.278
711.29	10.164
711.61	7.458
711.93	13.029
712.25	11.684
712.57	13.919
712.89	9.328
713.20	16.609
713.52	8.362
713.84	11.263
714.16	5.155
714.48	10.968
714.80	15.385
715.11	11.246
715.43	7.837
715.75	8.000
716.07	7.309
716.39	10.067
716.70	10.332
717.02	11.450
717.34	16.599
717.66	10.619
717.97	11.739
718.29	13.808
718.61	12.205
718.93	9.302
719.24	8.365
719.56	14.859
719.88	11.684
720.20	10.606
720.51	10.728
720.83	10.425
721.15	9.664
721.46	8.468
721.78	9.091
722.10	9.294
722.42	9.959
722.73	11.020
723.05	14.286
723.37	13.983
723.68	13.964
724.00	8.120
724.32	7.556
724.63	6.818
724.95	9.170
725.27	9.677
725.58	13.559
725.90	8.333
726.22	11.583
726.53	10.847
726.85	13.483
727.16	10.566
727.48	7.692
727.80	10.931
728.11	5.085
728.43	10.196
728.74	3.629
729.06	12.000
729.38	12.782
729.69	10.359
730.01	8.077
730.32	10.075
730.64	13.074
730.96	11.698
731.27	9.667
731.59	10.847
731.90	8.599
732.22	14.511
732.53	12.292
732.85	10.284
733.16	15.825
733.48	6.115
733.80	13.043
734.11	12.542
734.43	8.591
734.74	7.576
735.06	4.560
735.37	12.085
735.69	14.141
736.00	8.711
736.32	7.047
736.63	8.099
736.95	8.191
737.26	6.406
737.58	8.725
737.89	10.989
738.21	7.519
738.52	8.230
738.83	9.607
739.15	9.170
739.46	11.417
739.78	8.791
740.09	10.458
740.41	9.058
740.72	9.843
741.04	10.526
741.35	8.936
741.66	10.900
741.98	9.694
742.29	7.921
742.61	10.995
742.92	-1.422
743.23	4.167
743.55	10.407
743.86	7.177
744.18	9.091
744.49	4.255
744.80	7.065
745.12	13.369
745.43	10.244
745.74	9.375
746.06	10.732
746.37	12.042
746.68	11.848
747.00	9.574
747.31	15.423
747.62	7.282
747.94	17.225
748.25	8.416
748.56	12.022
748.88	15.183
749.19	16.489
749.50	15.764
749.82	-1.887
750.13	11.009
750.44	15.038
750.75	10.821
751.07	14.234
751.38	6.897
751.69	7.843
752.01	11.240
752.32	9.163
752.63	8.300
752.94	9.914
753.26	20.084
753.57	8.145
753.88	11.947
754.19	8.750
754.51	9.917
754.82	7.692
755.13	12.500
755.44	13.306
755.75	12.500
756.07	7.782
756.38	9.057
756.69	4.215
757.00	7.333
757.31	7.843
757.63	8.841
757.94	10.278
758.25	8.493
758.56	11.170
758.87	8.499
759.18	6.854
759.50	7.273
759.81	13.043
760.12	9.355
760.43	10.000
760.74	10.185
761.05	8.923
761.36	9.943
761.67	11.818
761.99	13.265
762.30	5.091
762.61	14.229
762.92	8.145
763.23	11.712
763.54	6.542
763.85	9.746
764.16	11.203
764.47	6.855
764.78	8.791
765.10	14.141
765.41	6.625
765.72	10.159
766.03	6.391
766.34	12.044
766.65	14.343
766.96	12.626
767.27	7.979
767.58	2.874
767.89	0.709
768.20	12.500
768.51	10.989
768.82	13.793
769.13	13.825
769.44	10.730
769.75	4.566
770.06	10.776
770.37	8.173
770.68	7.107
770.99	7.240
771.30	9.314
771.61	7.692
771.92	10.776
772.23	11.330
772.54	9.140
772.85	12.963
773.16	11.236
773.47	21.569
773.78	11.111
774.09	8.982
774.39	4.000
774.70	12.739
775.01	15.862
775.32	11.429
775.63	4.132
775.94	4.580
776.25	9.449
776.56	6.667
776.87	4.808
777.18	7.692
777.48	10.345
777.79	4.348
778.10	-2.857
778.41	8.108
778.72	14.286
779.03	8.271
779.34	9.220
779.65	9.589
779.95	6.164
780.26	15.172
780.57	5.691
780.88	7.874
781.19	1.724
781.50	10.078
781.80	5.917
782.11	7.547
782.42	7.692
782.73	7.194
783.04	12.593
783.34	11.111
783.65	-6.838
783.96	12.295
784.27	18.621
784.57	2.439
784.88	14.844
785.19	15.000
785.50	24.000
785.81	12.069
786.11	12.069
786.42	3.883
786.73	13.636
787.04	5.102
787.34	10.714
787.65	6.667
787.96	12.389
788.26	12.727
788.57	7.692
788.88	21.094
789.19	0.794
789.49	14.783
789.80	11.224
790.11	6.061
790.41	12.727
790.72	14.130
791.03	10.227
791.33	11.250
791.64	13.750
791.95	8.140
792.25	14.894
792.56	12.360
792.87	-2.740
793.17	0.000
793.48	4.000
793.79	11.250
794.09	25.000
794.40	11.321
794.70	6.796
795.01	4.878
795.32	1.709
795.62	8.571
795.93	15.686
796.23	8.491
796.54	4.167
796.85	20.588
797.15	12.676
797.46	2.778
797.76	27.273
798.07	10.465
798.37	-11.842
798.68	-7.576
798.99	1.235
799.29	18.571
799.60	13.043
799.90	21.333
800.21	16.393
800.51	12.308
800.82	10.169
801.12	5.797
801.43	8.197
801.73	12.698
802.04	6.000
802.34	20.896
802.65	11.538
802.95	-5.357
803.26	-5.769
803.56	7.843
803.87	-10.870
804.17	9.333
804.48	7.937
804.78	5.556
805.09	10.870
805.39	4.444
805.70	3.704
806.00	1.754
806.30	15.493
806.61	-4.286
806.91	-4.167
807.22	10.526
807.52	2.667
807.83	-10.909
808.13	2.778
808.43	25.000
808.74	2.985
809.04	-1.695
809.35	1.923
809.65	6.250
809.95	-21.622
810.26	9.091
810.56	12.329
810.86	2.381
811.17	4.000
811.47	14.286
811.77	-2.632
812.08	15.909
812.38	11.321
812.69	7.500
812.99	3.030
813.29	-2.632
813.59	-25.714
813.90	15.909
814.20	-10.256
814.50	38.462
814.81	20.755
815.11	2.128
815.41	18.644
815.72	14.286
816.02	9.804
816.32	-2.083
816.62	-2.439
816.93	5.405
817.23	2.857
817.53	39.583
817.84	8.696
818.14	5.769
818.44	-18.421
818.74	6.522
819.04	-25.000
819.35	16.216
819.65	14.706
819.95	2.778
820.25	4.762
820.56	30.000
820.86	-27.586
821.16	30.000
821.46	31.915
821.76	22.500
822.07	13.953
822.37	-37.838
822.67	0.000
822.97	4.762
823.27	7.143
823.57	4.000
823.88	-55.556
824.18	46.429
824.48	0.000
824.78	-6.452
825.08	-26.087
825.38	-6.061
825.69	-37.500
825.99	10.526
826.29	11.111
826.59	-40.000
826.89	-38.095
827.19	8.696
827.49	22.500
827.79	34.286
828.09	21.429
828.39	24.242
828.70	40.541
829.00	-7.143
829.30	-28.571
829.60	3.333
829.90	34.375
830.20	-2.632
830.50	11.111
830.80	-4.348
831.10	50.000
831.40	27.273
831.70	25.806
832.00	14.286
832.30	-9.524
832.60	-25.000
832.90	-10.345
833.20	-45.000
833.50	21.212
833.80	-29.630
834.10	7.692
834.40	37.500
834.70	-33.333
835.00	5.263
835.30	23.077
835.60	0.000
835.90	19.355
836.20	9.091
836.50	21.429
836.80	-15.385
837.10	46.429
837.40	-633.333
837.70	36.364
838.00	-18.182
838.30	-21.739
838.60	-7.692
838.90	68.182
839.19	10.714
839.49	23.333
839.79	0.000
840.09	-58.333
840.39	-7.143
840.69	-35.714
840.99	0.000
841.29	-57.895
841.59	-30.000
841.88	-27.273
842.18	-70.000
842.48	6.250
842.78	20.000
843.08	7.407
843.38	-50.000
843.68	8.696
843.97	26.667
844.27	-73.333
844.57	-5.000
844.87	22.222
845.17	-28.571
845.47	20.000
845.76	28.571
846.06	-11.765
846.36	-20.000
846.66	35.714
846.96	-46.667
847.25	-187.500
847.55	57.143
847.85	-175.000
848.15	9.091
848.44	-433.333
848.74	40.000
849.04	11.111
849.34	-118.182
849.63	33.333
849.93	-360.000
850.23	16.667
850.53	110.000
850.82	-46.154
851.12	33.333
851.42	46.667
851.71	-3.846
852.01	-14.286
852.31	-175.000
852.61	0.000
852.90	10.000
853.20	5.263
853.50	-16.667
853.79	39.130
854.09	25.000
854.39	15.789
854.68	-20.833
854.98	29.032
855.28	61.538
855.57	-35.000
855.87	0.000
856.17	3.704
856.46	0.000
856.76	-20.000
857.05	55.556
857.35	16.000
857.65	55.556
857.94	38.462
858.24	10.345
858.53	11.111
858.83	22.222
859.13	4.545
859.42	4.348
859.72	-50.000
860.01	-500.000
860.31	20.000
860.60	23.810
860.90	-200.000
861.20	-93.333
861.49	-50.000
861.79	26.667
862.08	45.000
862.38	126.667
862.67	-180.000
862.97	200.000
863.26	41.667
863.56	77.778
863.85	-133.333
864.15	44.444
864.44	-20.000
864.74	78.571
865.03	250.000
865.33	80.000
865.62	-133.333
865.92	-41.667
866.21	-33.333
866.51	25.000
866.80	-45.455
867.10	-300.000
867.39	75.000
867.69	0.000
867.98	0.000
868.27	-166.667
868.57	0.000
868.86	44.444
869.16	-15.385
869.45	6.667
869.75	-600.000
870.04	0.000
870.33	-42.857
870.63	42.857
870.92	366.667
871.22	-360.000
871.51	-800.000
871.80	88.889
872.10	466.667
>>>>>End Processed Spectral Data<<<<<
