SpectraSuite Data File
++++++++++++++++++++++++++++++++++++
Date: Fri May 15 17:25:01 PDT 2015
User: schluterlab
Dark Spectrum Present: Yes
Reference Spectrum Present: Yes
Number of Sampled Component Spectra: 1
Spectrometers: USB2E3373
Integration Time (usec): 3000 (USB2E3373)
Spectra Averaged: 3 (USB2E3373)
Boxcar Smoothing: 0 (USB2E3373)
Correct for Electrical Dark: No (USB2E3373)
Strobe/Lamp Enabled: No (USB2E3373)
Correct for Detector Non-linearity: No (USB2E3373)
Correct for Stray Light: No (USB2E3373)
Number of Pixels in Processed Spectrum: 2048
>>>>>Begin Processed Spectral Data<<<<<
178.53	0.000
178.91	0.000
179.29	87.500
179.67	-150.000
180.04	42.857
180.42	250.000
180.80	200.000
181.18	-366.667
181.56	-0.000
181.94	0.000
182.31	500.000
182.69	-120.000
183.07	-100.000
183.45	-100.000
183.83	66.667
184.20	-63.636
184.58	66.667
184.96	-75.000
185.34	-233.333
185.72	250.000
186.09	15.385
186.47	0.000
186.85	133.333
187.23	211.111
187.61	-100.000
187.98	-233.333
188.36	33.333
188.74	133.333
189.12	0.000
189.49	77.778
189.87	0.000
190.25	92.857
190.63	500.000
191.00	-166.667
191.38	-42.105
191.76	150.000
192.14	-50.000
192.51	150.000
192.89	0.000
193.27	100.000
193.65	100.000
194.02	136.364
194.40	50.000
194.78	-50.000
195.15	-8.333
195.53	-87.500
195.91	25.000
196.29	-175.000
196.66	69.231
197.04	28.571
197.42	66.667
197.79	-100.000
198.17	-46.154
198.55	1300.000
198.92	-233.333
199.30	-100.000
199.68	100.000
200.05	-66.667
200.43	0.000
200.81	133.333
201.18	266.667
201.56	2000.000
201.94	-350.000
202.31	-0.000
202.69	-300.000
203.07	175.000
203.44	500.000
203.82	0.000
204.19	71.429
204.57	-133.333
204.95	137.500
205.32	-60.000
205.70	85.714
206.08	-100.000
206.45	88.889
206.83	50.000
207.20	-42.857
207.58	-300.000
207.96	-166.667
208.33	-100.000
208.71	0.000
209.08	-166.667
209.46	-400.000
209.84	-100.000
210.21	100.000
210.59	-42.857
210.96	50.000
211.34	-50.000
211.71	-13.333
212.09	-157.143
212.46	-1000.000
212.84	0.000
213.22	150.000
213.59	200.000
213.97	23.077
214.34	45.455
214.72	-133.333
215.09	250.000
215.47	-30.769
215.84	0.000
216.22	-300.000
216.59	75.000
216.97	250.000
217.34	50.000
217.72	-220.000
218.09	-25.000
218.47	75.000
218.84	-1100.000
219.22	44.444
219.59	40.000
219.97	166.667
220.34	225.000
220.72	0.000
221.09	-150.000
221.47	400.000
221.84	-450.000
222.22	-850.000
222.59	45.455
222.97	-41.667
223.34	166.667
223.72	21.429
224.09	4.762
224.46	3.571
224.84	133.333
225.21	80.000
225.59	80.000
225.96	-50.000
226.34	100.000
226.71	71.429
227.08	83.333
227.46	-37.500
227.83	-300.000
228.21	33.333
228.58	-9.091
228.95	-37.500
229.33	30.000
229.70	-18.750
230.08	-125.000
230.45	-85.714
230.82	0.000
231.20	6.667
231.57	50.000
231.95	-57.143
232.32	-80.000
232.69	42.857
233.07	100.000
233.44	180.000
233.81	-70.000
234.19	-44.444
234.56	76.471
234.93	600.000
235.31	125.000
235.68	-200.000
236.05	15.385
236.43	0.000
236.80	17.647
237.17	31.250
237.55	-20.000
237.92	-37.037
238.29	2.778
238.67	-20.000
239.04	17.647
239.41	0.000
239.79	-6.667
240.16	48.780
240.53	7.895
240.91	6.522
241.28	26.984
241.65	21.429
242.02	32.877
242.40	30.000
242.77	18.644
243.14	15.152
243.51	15.000
243.89	14.943
244.26	10.345
244.63	9.524
245.00	13.402
245.38	25.773
245.75	5.618
246.12	10.345
246.49	11.570
246.87	11.538
247.24	8.403
247.61	10.526
247.98	12.195
248.36	13.750
248.73	22.368
249.10	11.039
249.47	13.924
249.84	17.647
250.22	12.353
250.59	15.033
250.96	20.657
251.33	15.698
251.70	16.471
252.08	13.706
252.45	9.406
252.82	11.558
253.19	12.903
253.56	15.888
253.94	13.964
254.31	15.652
254.68	21.053
255.05	14.173
255.42	12.664
255.79	18.147
256.16	12.840
256.54	11.940
256.91	18.251
257.28	17.100
257.65	16.105
258.02	12.057
258.39	18.519
258.76	15.385
259.14	15.947
259.51	13.916
259.88	11.684
260.25	12.745
260.62	17.361
260.99	7.458
261.36	10.274
261.73	14.873
262.10	14.286
262.47	14.724
262.85	15.047
263.22	16.308
263.59	14.330
263.96	15.839
264.33	12.121
264.70	12.798
265.07	14.286
265.44	13.598
265.81	15.819
266.18	11.475
266.55	15.681
266.92	13.212
267.29	16.710
267.66	15.857
268.03	11.518
268.40	14.099
268.77	16.310
269.14	15.348
269.51	16.710
269.88	13.466
270.25	12.245
270.62	14.390
270.99	12.788
271.36	14.425
271.73	14.554
272.10	13.139
272.47	14.894
272.84	14.604
273.21	19.258
273.58	14.458
273.95	14.416
274.32	14.088
274.69	10.407
275.06	14.063
275.43	14.286
275.80	13.024
276.17	15.402
276.54	14.561
276.91	14.254
277.28	15.502
277.65	13.430
278.02	14.255
278.39	13.129
278.76	12.369
279.13	10.581
279.50	15.546
279.87	13.607
280.23	12.473
280.60	14.230
280.97	15.152
281.34	15.962
281.71	12.936
282.08	10.020
282.45	14.481
282.82	11.583
283.19	14.507
283.56	15.222
283.92	13.472
284.29	13.077
284.66	11.434
285.03	12.967
285.40	12.854
285.77	14.411
286.14	12.455
286.51	16.052
286.87	12.980
287.24	13.444
287.61	11.464
287.98	12.456
288.35	12.825
288.72	13.485
289.08	11.632
289.45	13.181
289.82	13.112
290.19	10.751
290.56	10.635
290.93	10.606
291.29	8.320
291.66	13.071
292.03	12.919
292.40	11.452
292.77	11.483
293.13	9.253
293.50	9.863
293.87	11.450
294.24	11.747
294.60	9.836
294.97	12.054
295.34	11.196
295.71	9.538
296.08	11.659
296.44	8.677
296.81	9.722
297.18	10.725
297.55	11.924
297.91	10.137
298.28	10.686
298.65	11.126
299.02	10.377
299.38	7.524
299.75	9.931
300.12	9.293
300.48	8.696
300.85	11.407
301.22	9.481
301.59	10.526
301.95	10.127
302.32	10.895
302.69	10.323
303.05	10.396
303.42	9.465
303.79	9.930
304.15	10.394
304.52	7.610
304.89	8.889
305.25	9.806
305.62	9.335
305.99	9.591
306.35	8.671
306.72	8.661
307.09	9.350
307.45	8.840
307.82	8.681
308.19	9.292
308.55	8.724
308.92	10.349
309.29	8.045
309.65	8.611
310.02	9.681
310.38	8.891
310.75	10.164
311.12	8.611
311.48	9.438
311.85	8.168
312.22	7.806
312.58	7.749
312.95	7.044
313.31	7.660
313.68	8.796
314.05	9.184
314.41	8.144
314.78	7.835
315.14	10.175
315.51	9.420
315.87	7.787
316.24	10.212
316.61	10.236
316.97	8.829
317.34	8.984
317.70	8.700
318.07	8.173
318.43	8.627
318.80	8.617
319.16	8.398
319.53	10.066
319.89	9.547
320.26	7.794
320.62	10.431
320.99	7.829
321.35	7.914
321.72	8.827
322.08	8.761
322.45	9.442
322.81	9.332
323.18	7.066
323.54	7.722
323.91	8.666
324.27	8.203
324.64	7.959
325.00	8.850
325.37	9.550
325.73	8.885
326.10	8.356
326.46	8.430
326.83	9.361
327.19	9.154
327.56	9.557
327.92	8.715
328.29	8.571
328.65	9.057
329.01	9.283
329.38	8.018
329.74	7.365
330.11	9.546
330.47	9.833
330.84	7.981
331.20	9.411
331.56	7.685
331.93	9.224
332.29	8.249
332.66	9.593
333.02	8.550
333.38	8.433
333.75	9.707
334.11	8.863
334.48	8.613
334.84	9.249
335.20	9.149
335.57	7.978
335.93	9.124
336.29	9.116
336.66	8.174
337.02	7.807
337.38	7.963
337.75	8.455
338.11	8.566
338.47	9.033
338.84	8.965
339.20	8.592
339.56	8.073
339.93	8.684
340.29	9.541
340.65	8.781
341.02	8.422
341.38	7.080
341.74	8.216
342.11	8.232
342.47	7.740
342.83	9.429
343.20	8.885
343.56	8.696
343.92	8.415
344.28	8.454
344.65	8.290
345.01	8.989
345.37	9.251
345.73	9.121
346.10	9.405
346.46	9.336
346.82	8.020
347.19	8.479
347.55	8.772
347.91	9.223
348.27	8.569
348.63	8.433
349.00	7.547
349.36	8.479
349.72	8.292
350.08	8.607
350.45	8.220
350.81	7.724
351.17	7.573
351.53	8.408
351.89	7.432
352.26	8.560
352.62	8.871
352.98	7.791
353.34	8.535
353.70	8.900
354.07	7.984
354.43	8.167
354.79	8.092
355.15	8.571
355.51	9.415
355.87	8.981
356.24	6.444
356.60	8.084
356.96	8.571
357.32	8.387
357.68	8.991
358.04	7.916
358.40	8.441
358.77	8.214
359.13	7.766
359.49	7.550
359.85	7.098
360.21	8.134
360.57	7.651
360.93	9.380
361.29	8.006
361.66	8.072
362.02	7.727
362.38	8.606
362.74	8.176
363.10	7.825
363.46	8.970
363.82	9.542
364.18	7.675
364.54	8.088
364.90	7.885
365.26	8.006
365.62	9.051
365.98	7.845
366.35	8.886
366.71	7.539
367.07	7.983
367.43	7.764
367.79	7.491
368.15	8.184
368.51	8.740
368.87	7.251
369.23	7.726
369.59	7.799
369.95	8.871
370.31	8.743
370.67	8.060
371.03	7.767
371.39	7.732
371.75	8.059
372.11	8.417
372.47	8.210
372.83	8.801
373.19	8.131
373.55	8.303
373.91	7.703
374.27	8.221
374.63	8.615
374.99	8.085
375.35	8.287
375.71	8.741
376.07	8.146
376.42	8.435
376.78	8.456
377.14	7.583
377.50	8.433
377.86	8.367
378.22	8.168
378.58	7.500
378.94	8.003
379.30	8.546
379.66	8.276
380.02	7.909
380.38	7.182
380.74	8.378
381.09	8.160
381.45	7.462
381.81	8.328
382.17	8.820
382.53	7.558
382.89	8.223
383.25	8.090
383.61	8.232
383.97	7.429
384.32	8.568
384.68	8.173
385.04	7.108
385.40	7.281
385.76	7.925
386.12	8.215
386.48	8.365
386.83	8.370
387.19	7.753
387.55	7.967
387.91	8.007
388.27	7.448
388.62	8.433
388.98	8.287
389.34	8.557
389.70	9.260
390.06	8.496
390.42	8.744
390.77	8.306
391.13	8.386
391.49	8.279
391.85	7.927
392.20	8.286
392.56	8.201
392.92	9.336
393.28	8.785
393.64	8.529
393.99	9.404
394.35	7.906
394.71	8.748
395.07	8.548
395.42	8.379
395.78	8.208
396.14	8.701
396.50	8.434
396.85	7.663
397.21	8.521
397.57	8.401
397.92	8.328
398.28	8.793
398.64	8.554
399.00	9.368
399.35	8.352
399.71	8.214
400.07	8.827
400.42	8.384
400.78	8.696
401.14	8.893
401.49	8.577
401.85	8.531
402.21	9.699
402.57	8.313
402.92	8.595
403.28	9.085
403.63	8.575
403.99	8.099
404.35	9.057
404.70	8.095
405.06	8.696
405.42	8.515
405.77	7.844
406.13	9.139
406.49	8.585
406.84	8.130
407.20	9.573
407.55	8.371
407.91	8.289
408.27	8.349
408.62	9.231
408.98	8.749
409.34	8.984
409.69	8.656
410.05	7.882
410.40	8.519
410.76	8.866
411.11	8.438
411.47	9.336
411.83	8.349
412.18	8.430
412.54	8.489
412.89	8.805
413.25	9.146
413.60	8.571
413.96	8.896
414.31	8.780
414.67	8.852
415.03	8.123
415.38	8.355
415.74	8.990
416.09	9.471
416.45	9.791
416.80	9.121
417.16	9.254
417.51	9.327
417.87	8.279
418.22	9.521
418.58	7.291
418.93	9.592
419.29	8.515
419.64	8.360
420.00	9.698
420.35	8.955
420.71	8.991
421.06	9.331
421.42	9.315
421.77	8.844
422.12	8.456
422.48	8.933
422.83	8.585
423.19	9.199
423.54	8.642
423.90	8.481
424.25	8.209
424.61	8.996
424.96	9.350
425.31	9.243
425.67	8.744
426.02	9.776
426.38	9.393
426.73	9.867
427.09	9.304
427.44	9.529
427.79	8.898
428.15	9.163
428.50	9.691
428.85	9.152
429.21	9.281
429.56	9.111
429.92	9.605
430.27	9.123
430.62	8.991
430.98	9.023
431.33	9.411
431.68	9.158
432.04	9.279
432.39	9.127
432.74	9.080
433.10	10.230
433.45	9.618
433.80	8.299
434.16	8.199
434.51	9.839
434.86	9.466
435.22	9.871
435.57	9.420
435.92	9.820
436.28	9.064
436.63	9.355
436.98	9.618
437.34	8.590
437.69	9.362
438.04	9.231
438.39	8.919
438.75	10.018
439.10	9.734
439.45	9.677
439.81	9.235
440.16	9.382
440.51	9.552
440.86	9.789
441.22	9.276
441.57	9.272
441.92	10.126
442.27	9.368
442.63	10.814
442.98	9.937
443.33	9.238
443.68	9.443
444.03	9.935
444.39	9.444
444.74	9.922
445.09	9.855
445.44	10.313
445.79	9.850
446.15	9.526
446.50	9.484
446.85	9.458
447.20	9.541
447.55	10.045
447.91	9.645
448.26	9.960
448.61	10.017
448.96	10.155
449.31	8.786
449.66	9.350
450.02	9.926
450.37	9.662
450.72	9.622
451.07	10.063
451.42	9.176
451.77	9.524
452.12	9.809
452.47	8.822
452.83	9.776
453.18	9.930
453.53	10.303
453.88	9.957
454.23	9.773
454.58	9.761
454.93	10.374
455.28	9.270
455.63	10.167
455.98	10.343
456.34	8.876
456.69	10.038
457.04	10.649
457.39	8.991
457.74	9.008
458.09	9.535
458.44	9.713
458.79	9.636
459.14	10.011
459.49	10.388
459.84	10.491
460.19	9.769
460.54	9.902
460.89	9.943
461.24	10.373
461.59	10.748
461.94	9.686
462.29	10.314
462.64	9.967
462.99	10.630
463.34	9.875
463.69	9.653
464.04	10.654
464.39	9.824
464.74	10.000
465.09	10.044
465.44	10.098
465.79	9.467
466.14	10.262
466.49	9.316
466.84	10.827
467.19	10.576
467.54	9.515
467.89	9.792
468.24	9.307
468.59	10.286
468.94	9.968
469.29	10.295
469.64	10.663
469.99	9.601
470.34	9.488
470.68	10.515
471.03	9.413
471.38	11.341
471.73	10.574
472.08	9.566
472.43	9.597
472.78	9.390
473.13	10.204
473.48	11.140
473.83	10.149
474.17	9.780
474.52	10.083
474.87	10.485
475.22	9.518
475.57	10.164
475.92	10.313
476.27	10.827
476.61	10.590
476.96	9.927
477.31	10.438
477.66	10.112
478.01	9.489
478.36	10.675
478.70	9.842
479.05	10.549
479.40	10.175
479.75	10.271
480.10	10.292
480.45	9.950
480.79	10.272
481.14	9.887
481.49	10.099
481.84	10.039
482.19	9.588
482.53	10.120
482.88	10.167
483.23	9.741
483.58	10.142
483.92	10.213
484.27	9.754
484.62	10.623
484.97	9.453
485.31	9.718
485.66	9.511
486.01	9.782
486.36	9.481
486.70	9.820
487.05	9.538
487.40	9.979
487.75	9.887
488.09	9.765
488.44	10.385
488.79	10.198
489.13	10.697
489.48	10.090
489.83	10.090
490.17	9.258
490.52	10.300
490.87	9.995
491.22	10.172
491.56	10.342
491.91	9.895
492.26	10.015
492.60	10.413
492.95	11.412
493.30	10.161
493.64	10.020
493.99	10.290
494.34	9.563
494.68	9.857
495.03	9.976
495.37	10.795
495.72	10.045
496.07	10.098
496.41	10.283
496.76	10.318
497.11	10.200
497.45	9.881
497.80	10.747
498.14	10.084
498.49	10.157
498.84	10.279
499.18	10.392
499.53	10.565
499.87	10.311
500.22	9.693
500.56	10.590
500.91	10.291
501.26	9.985
501.60	10.133
501.95	9.898
502.29	10.218
502.64	10.859
502.98	10.311
503.33	9.846
503.67	10.458
504.02	10.557
504.36	10.589
504.71	10.253
505.06	10.770
505.40	10.964
505.75	10.361
506.09	10.492
506.44	11.345
506.78	10.816
507.13	11.272
507.47	10.131
507.82	9.989
508.16	10.143
508.51	10.965
508.85	10.570
509.19	9.580
509.54	10.349
509.88	10.518
510.23	10.866
510.57	10.903
510.92	9.968
511.26	9.984
511.61	10.781
511.95	10.795
512.30	10.588
512.64	11.742
512.98	10.612
513.33	11.248
513.67	10.631
514.02	11.785
514.36	11.200
514.70	12.005
515.05	11.575
515.39	10.508
515.74	11.018
516.08	10.998
516.42	11.131
516.77	11.703
517.11	10.504
517.46	11.311
517.80	11.085
518.14	10.533
518.49	11.418
518.83	10.875
519.17	10.188
519.52	11.604
519.86	10.744
520.20	11.300
520.55	10.944
520.89	11.481
521.23	10.893
521.58	11.861
521.92	10.897
522.26	11.451
522.61	11.169
522.95	11.457
523.29	12.008
523.64	12.325
523.98	10.953
524.32	10.889
524.66	11.332
525.01	12.208
525.35	11.860
525.69	10.168
526.04	11.243
526.38	12.127
526.72	10.661
527.06	11.414
527.41	11.807
527.75	11.126
528.09	11.561
528.43	12.357
528.78	11.023
529.12	11.032
529.46	11.436
529.80	11.463
530.15	11.749
530.49	11.448
530.83	12.038
531.17	11.686
531.51	11.902
531.86	10.469
532.20	11.065
532.54	11.436
532.88	11.499
533.22	11.492
533.57	12.189
533.91	11.292
534.25	11.914
534.59	10.776
534.93	11.391
535.27	10.977
535.62	10.564
535.96	11.611
536.30	12.071
536.64	12.336
536.98	10.592
537.32	11.949
537.66	12.412
538.01	11.469
538.35	11.165
538.69	12.250
539.03	11.278
539.37	11.642
539.71	11.588
540.05	11.881
540.39	11.773
540.73	10.669
541.07	12.293
541.42	12.231
541.76	12.526
542.10	11.218
542.44	11.536
542.78	10.048
543.12	10.440
543.46	11.752
543.80	10.826
544.14	10.748
544.48	12.258
544.82	12.235
545.16	11.475
545.50	12.150
545.84	12.040
546.18	11.135
546.52	11.031
546.86	11.215
547.20	11.588
547.54	11.378
547.88	12.024
548.22	11.308
548.56	11.280
548.90	11.523
549.24	12.052
549.58	12.059
549.92	11.222
550.26	12.161
550.60	12.862
550.94	12.472
551.28	11.747
551.62	12.231
551.96	12.180
552.30	12.281
552.64	11.354
552.98	11.814
553.32	11.912
553.66	10.885
554.00	11.314
554.34	11.374
554.68	12.168
555.02	11.830
555.36	12.341
555.69	11.136
556.03	10.992
556.37	11.744
556.71	12.635
557.05	11.708
557.39	10.186
557.73	12.294
558.07	12.142
558.41	12.021
558.75	12.938
559.08	11.426
559.42	11.111
559.76	10.889
560.10	11.544
560.44	11.914
560.78	11.818
561.12	10.649
561.45	12.157
561.79	11.275
562.13	12.349
562.47	10.432
562.81	12.320
563.15	12.059
563.48	11.952
563.82	11.874
564.16	12.047
564.50	11.149
564.84	12.517
565.17	11.268
565.51	12.637
565.85	12.346
566.19	11.340
566.52	12.332
566.86	12.532
567.20	11.083
567.54	11.314
567.88	11.599
568.21	11.652
568.55	11.304
568.89	11.499
569.23	11.218
569.56	10.814
569.90	11.287
570.24	11.053
570.57	10.909
570.91	11.502
571.25	10.983
571.59	10.744
571.92	10.844
572.26	10.447
572.60	10.760
572.93	10.762
573.27	10.439
573.61	10.770
573.95	10.541
574.28	10.408
574.62	10.425
574.96	10.671
575.29	10.878
575.63	10.469
575.97	10.680
576.30	10.599
576.64	10.358
576.98	10.656
577.31	10.617
577.65	10.665
577.98	10.778
578.32	10.615
578.66	10.380
578.99	10.505
579.33	10.667
579.67	10.522
580.00	10.658
580.34	10.398
580.67	10.163
581.01	10.495
581.35	10.357
581.68	10.195
582.02	10.075
582.35	10.084
582.69	10.732
583.02	10.340
583.36	10.551
583.70	10.774
584.03	10.870
584.37	11.180
584.70	10.769
585.04	10.078
585.37	10.467
585.71	10.343
586.04	10.691
586.38	10.296
586.72	11.047
587.05	11.121
587.39	10.651
587.72	11.126
588.06	10.684
588.39	11.193
588.73	11.111
589.06	11.122
589.40	11.511
589.73	11.720
590.07	11.367
590.40	11.649
590.73	11.326
591.07	11.493
591.40	11.175
591.74	11.222
592.07	12.152
592.41	11.749
592.74	10.872
593.08	10.234
593.41	10.675
593.75	11.089
594.08	10.951
594.41	10.771
594.75	10.687
595.08	10.935
595.42	11.005
595.75	10.815
596.09	11.337
596.42	10.831
596.75	11.723
597.09	10.934
597.42	11.111
597.75	11.452
598.09	11.363
598.42	11.236
598.76	10.940
599.09	11.458
599.42	11.027
599.76	10.986
600.09	11.388
600.42	11.410
600.76	10.810
601.09	10.840
601.42	10.928
601.76	10.996
602.09	10.809
602.42	11.542
602.76	11.121
603.09	11.005
603.42	11.455
603.76	10.887
604.09	10.774
604.42	11.802
604.76	11.749
605.09	11.197
605.42	11.061
605.75	11.033
606.09	11.083
606.42	10.759
606.75	10.606
607.09	11.429
607.42	10.501
607.75	11.146
608.08	11.186
608.42	11.284
608.75	11.133
609.08	10.264
609.41	11.929
609.75	11.895
610.08	11.633
610.41	11.063
610.74	11.019
611.07	11.111
611.41	11.572
611.74	11.514
612.07	10.493
612.40	11.324
612.73	11.186
613.07	11.249
613.40	12.090
613.73	11.416
614.06	12.020
614.39	12.521
614.72	11.373
615.06	10.950
615.39	11.627
615.72	10.980
616.05	11.955
616.38	10.712
616.71	11.682
617.05	11.736
617.38	11.565
617.71	10.943
618.04	12.000
618.37	12.863
618.70	11.881
619.03	12.708
619.36	11.505
619.69	12.055
620.03	12.491
620.36	11.660
620.69	11.777
621.02	11.544
621.35	11.867
621.68	10.884
622.01	11.417
622.34	12.610
622.67	12.539
623.00	12.328
623.33	11.738
623.66	12.341
623.99	11.800
624.32	13.232
624.65	10.677
624.99	11.588
625.32	12.055
625.65	11.940
625.98	12.168
626.31	11.804
626.64	12.218
626.97	13.351
627.30	11.909
627.63	12.218
627.96	11.500
628.29	12.673
628.62	13.471
628.95	11.022
629.28	11.391
629.61	12.263
629.94	13.783
630.26	13.439
630.59	12.175
630.92	12.923
631.25	13.436
631.58	12.885
631.91	12.171
632.24	12.959
632.57	12.273
632.90	12.337
633.23	12.235
633.56	12.846
633.89	11.961
634.22	13.580
634.55	11.690
634.88	13.155
635.20	12.564
635.53	13.467
635.86	11.573
636.19	14.101
636.52	12.755
636.85	12.035
637.18	11.572
637.51	13.585
637.83	13.009
638.16	13.643
638.49	12.398
638.82	15.132
639.15	13.026
639.48	13.893
639.81	13.110
640.13	11.111
640.46	13.120
640.79	12.371
641.12	11.374
641.45	13.213
641.77	13.333
642.10	12.322
642.43	13.023
642.76	13.696
643.09	14.378
643.41	13.269
643.74	13.180
644.07	14.450
644.40	14.527
644.73	14.886
645.05	14.262
645.38	12.875
645.71	14.362
646.04	12.926
646.36	13.830
646.69	16.367
647.02	11.153
647.35	13.433
647.67	13.346
648.00	13.433
648.33	15.529
648.66	12.712
648.98	12.228
649.31	11.405
649.64	11.146
649.96	12.480
650.29	12.777
650.62	12.991
650.94	14.444
651.27	14.525
651.60	15.135
651.92	13.811
652.25	11.901
652.58	16.833
652.90	13.551
653.23	13.109
653.56	13.198
653.88	12.715
654.21	11.033
654.54	13.582
654.86	14.092
655.19	13.450
655.52	12.461
655.84	10.177
656.17	11.062
656.49	15.237
656.82	16.295
657.15	12.422
657.47	9.471
657.80	7.106
658.13	7.203
658.45	10.861
658.78	11.054
659.10	11.223
659.43	11.646
659.75	12.087
660.08	12.207
660.41	13.994
660.73	14.088
661.06	14.038
661.38	11.937
661.71	11.294
662.03	13.734
662.36	14.066
662.68	14.159
663.01	13.537
663.33	11.833
663.66	14.186
663.98	9.070
664.31	13.433
664.63	11.751
664.96	10.435
665.28	11.038
665.61	12.987
665.93	13.043
666.26	13.883
666.58	9.843
666.91	12.941
667.23	12.264
667.56	11.848
667.88	14.388
668.21	12.888
668.53	15.130
668.86	13.915
669.18	12.028
669.50	13.075
669.83	12.791
670.15	15.618
670.48	13.397
670.80	16.820
671.13	12.304
671.45	12.785
671.77	13.734
672.10	10.891
672.42	13.483
672.75	14.387
673.07	17.531
673.39	14.312
673.72	11.045
674.04	11.875
674.37	13.771
674.69	13.062
675.01	15.556
675.34	13.514
675.66	13.657
675.98	14.856
676.31	12.156
676.63	13.539
676.95	14.318
677.28	13.647
677.60	14.217
677.92	13.073
678.25	14.661
678.57	12.338
678.89	10.924
679.22	12.528
679.54	11.044
679.86	13.519
680.18	12.427
680.51	13.447
680.83	10.736
681.15	14.200
681.48	13.115
681.80	14.669
682.12	12.500
682.44	12.762
682.77	14.128
683.09	12.815
683.41	11.136
683.73	11.751
684.06	12.611
684.38	11.183
684.70	12.854
685.02	12.448
685.34	11.265
685.67	10.507
685.99	14.828
686.31	11.150
686.63	13.173
686.96	10.266
687.28	9.697
687.60	13.878
687.92	14.545
688.24	11.895
688.56	13.100
688.89	12.054
689.21	14.889
689.53	14.617
689.85	12.093
690.17	14.955
690.49	11.820
690.82	11.408
691.14	12.381
691.46	11.215
691.78	10.586
692.10	14.409
692.42	12.121
692.74	14.103
693.06	13.288
693.39	12.443
693.71	11.765
694.03	9.931
694.35	14.953
694.67	11.869
694.99	10.444
695.31	14.360
695.63	14.250
695.95	13.636
696.27	12.694
696.59	16.389
696.91	14.566
697.23	13.882
697.56	10.891
697.88	15.054
698.20	10.934
698.52	12.706
698.84	11.483
699.16	10.500
699.48	13.283
699.80	14.144
700.12	13.208
700.44	14.566
700.76	7.558
701.08	12.727
701.40	12.651
701.72	14.506
702.04	10.891
702.36	14.381
702.68	10.811
703.00	14.242
703.32	11.144
703.64	10.734
703.96	13.333
704.28	9.816
704.60	14.286
704.91	12.934
705.23	13.289
705.55	14.134
705.87	11.552
706.19	11.481
706.51	13.746
706.83	14.791
707.15	10.592
707.47	11.204
707.79	11.719
708.11	13.250
708.43	14.250
708.74	12.920
709.06	14.930
709.38	15.291
709.70	11.538
710.02	11.465
710.34	17.647
710.66	8.654
710.98	13.245
711.29	15.082
711.61	10.847
711.93	18.893
712.25	15.808
712.57	13.553
712.89	4.851
713.20	17.301
713.52	13.937
713.84	13.311
714.16	11.340
714.48	15.484
714.80	17.308
715.11	12.462
715.43	12.853
715.75	9.000
716.07	10.963
716.39	11.074
716.70	8.487
717.02	9.160
717.34	19.433
717.66	11.062
717.97	13.913
718.29	12.971
718.61	13.780
718.93	12.791
719.24	16.730
719.56	10.040
719.88	12.371
720.20	13.258
720.51	15.326
720.83	9.653
721.15	14.706
721.46	11.290
721.78	12.253
722.10	13.755
722.42	11.618
722.73	13.061
723.05	17.143
723.37	17.797
723.68	12.162
724.00	14.957
724.32	11.111
724.63	8.636
724.95	14.410
725.27	11.982
725.58	13.136
725.90	13.095
726.22	17.375
726.53	14.576
726.85	14.232
727.16	15.094
727.48	11.336
727.80	11.336
728.11	10.169
728.43	16.078
728.74	12.500
729.06	16.400
729.38	18.045
729.69	9.960
730.01	8.846
730.32	15.299
730.64	15.548
730.96	14.340
731.27	13.333
731.59	9.831
731.90	12.739
732.22	14.826
732.53	12.625
732.85	14.894
733.16	15.825
733.48	11.871
733.80	9.783
734.11	12.881
734.43	12.371
734.74	15.455
735.06	9.772
735.37	14.502
735.69	12.795
736.00	9.408
736.32	10.403
736.63	14.437
736.95	15.017
737.26	9.964
737.58	9.396
737.89	9.890
738.21	10.902
738.52	10.700
738.83	18.777
739.15	9.607
739.46	15.354
739.78	10.989
740.09	11.111
740.41	15.942
740.72	11.811
741.04	11.741
741.35	11.915
741.66	14.218
741.98	12.245
742.29	16.832
742.61	13.613
742.92	12.796
743.23	11.574
743.55	16.742
743.86	9.091
744.18	13.876
744.49	9.043
744.80	7.609
745.12	16.043
745.43	14.634
745.74	10.417
746.06	14.634
746.37	14.660
746.68	16.114
747.00	7.979
747.31	15.920
747.62	4.854
747.94	11.962
748.25	10.891
748.56	13.115
748.88	13.613
749.19	23.404
749.50	15.764
749.82	15.094
750.13	10.092
750.44	15.789
750.75	12.687
751.07	18.248
751.38	13.793
751.69	12.549
752.01	15.504
752.32	12.351
752.63	13.043
752.94	7.328
753.26	17.992
753.57	9.050
753.88	9.292
754.19	10.833
754.51	9.917
754.82	10.931
755.13	12.500
755.44	12.500
755.75	14.453
756.07	12.840
756.38	12.830
756.69	9.195
757.00	13.333
757.31	11.765
757.63	7.622
757.94	8.611
758.25	12.877
758.56	13.298
758.87	10.765
759.18	10.280
759.50	13.818
759.81	14.716
760.12	14.516
760.43	9.091
760.74	10.802
761.05	12.923
761.36	10.511
761.67	14.848
761.99	15.986
762.30	12.727
762.61	9.486
762.92	13.122
763.23	12.613
763.54	9.813
763.85	12.712
764.16	9.544
764.47	14.919
764.78	12.088
765.10	14.815
765.41	11.987
765.72	12.698
766.03	8.271
766.34	8.759
766.65	13.944
766.96	15.657
767.27	10.638
767.58	9.195
767.89	5.674
768.20	7.386
768.51	8.791
768.82	17.241
769.13	8.295
769.44	8.155
769.75	11.416
770.06	11.207
770.37	16.346
770.68	10.660
770.99	9.955
771.30	13.725
771.61	14.027
771.92	12.069
772.23	20.197
772.54	17.204
772.85	12.346
773.16	14.607
773.47	13.725
773.78	10.458
774.09	12.575
774.39	6.667
774.70	21.019
775.01	17.241
775.32	10.000
775.63	3.306
775.94	14.504
776.25	8.661
776.56	21.667
776.87	13.462
777.18	9.402
777.48	15.517
777.79	9.565
778.10	11.429
778.41	9.910
778.72	16.667
779.03	13.534
779.34	14.894
779.65	17.808
779.95	13.699
780.26	13.103
780.57	4.065
780.88	18.898
781.19	6.897
781.50	17.829
781.80	12.426
782.11	2.516
782.42	10.769
782.73	12.950
783.04	10.370
783.34	6.250
783.65	4.274
783.96	15.574
784.27	13.793
784.57	8.943
784.88	13.281
785.19	19.000
785.50	20.000
785.81	18.966
786.11	12.931
786.42	8.738
786.73	17.273
787.04	1.020
787.34	10.714
787.65	4.762
787.96	9.735
788.26	13.636
788.57	6.838
788.88	17.969
789.19	7.937
789.49	12.174
789.80	11.224
790.11	7.071
790.41	17.273
790.72	19.565
791.03	12.500
791.33	33.750
791.64	12.500
791.95	10.465
792.25	18.085
792.56	11.236
792.87	0.000
793.17	8.696
793.48	-5.333
793.79	3.750
794.09	5.000
794.40	4.717
794.70	12.621
795.01	18.699
795.32	11.966
795.62	8.571
795.93	11.765
796.23	31.132
796.54	25.000
796.85	8.824
797.15	8.451
797.46	5.556
797.76	24.242
798.07	11.628
798.37	6.579
798.68	7.576
798.99	16.049
799.29	15.714
799.60	15.942
799.90	34.667
800.21	31.148
800.51	10.769
800.82	5.085
801.12	20.290
801.43	14.754
801.73	15.873
802.04	6.000
802.34	16.418
802.65	26.923
802.95	3.571
803.26	13.462
803.56	11.765
803.87	-2.174
804.17	10.667
804.48	19.048
804.78	11.111
805.09	17.391
805.39	-2.222
805.70	20.370
806.00	-1.754
806.30	8.451
806.61	10.000
806.91	5.556
807.22	27.632
807.52	16.000
807.83	5.455
808.13	9.722
808.43	10.294
808.74	-7.463
809.04	23.729
809.35	5.769
809.65	-1.562
809.95	-18.919
810.26	15.909
810.56	12.329
810.86	14.286
811.17	34.000
811.47	22.449
811.77	-21.053
812.08	31.818
812.38	28.302
812.69	5.000
812.99	18.182
813.29	7.895
813.59	-51.429
813.90	18.182
814.20	-10.256
814.50	5.769
814.81	15.094
815.11	4.255
815.41	16.949
815.72	19.048
816.02	33.333
816.32	14.583
816.62	-2.439
816.93	-27.027
817.23	-14.286
817.53	37.500
817.84	0.000
818.14	15.385
818.44	-10.526
818.74	21.739
819.04	2.500
819.35	2.703
819.65	-5.882
819.95	-25.000
820.25	0.000
820.56	32.500
820.86	-3.448
821.16	55.000
821.46	27.660
821.76	32.500
822.07	11.628
822.37	-18.919
822.67	3.125
822.97	14.286
823.27	14.286
823.57	-8.000
823.88	-25.926
824.18	0.000
824.48	2.941
824.78	22.581
825.08	0.000
825.38	18.182
825.69	-29.167
825.99	21.053
826.29	11.111
826.59	-73.333
826.89	-47.619
827.19	36.957
827.49	25.000
827.79	20.000
828.09	7.143
828.39	12.121
828.70	35.135
829.00	25.000
829.30	0.000
829.60	10.000
829.90	-3.125
830.20	5.263
830.50	-3.704
830.80	-4.348
831.10	27.273
831.40	69.697
831.70	51.613
832.00	23.810
832.30	-14.286
832.60	-50.000
832.90	31.034
833.20	20.000
833.50	0.000
833.80	18.519
834.10	38.462
834.40	21.875
834.70	-122.222
835.00	-10.526
835.30	65.385
835.60	-26.667
835.90	38.710
836.20	4.545
836.50	10.714
836.80	-11.538
837.10	0.000
837.40	66.667
837.70	-31.818
838.00	18.182
838.30	4.348
838.60	0.000
838.90	27.273
839.19	7.143
839.49	56.667
839.79	61.538
840.09	-83.333
840.39	28.571
840.69	10.714
840.99	-34.615
841.29	-15.789
841.59	-170.000
841.88	-27.273
842.18	50.000
842.48	87.500
842.78	-13.333
843.08	-14.815
843.38	0.000
843.68	39.130
843.97	20.000
844.27	-53.333
844.57	30.000
844.87	-11.111
845.17	33.333
845.47	-33.333
845.76	28.571
846.06	29.412
846.36	20.000
846.66	-28.571
846.96	-20.000
847.25	-50.000
847.55	35.714
847.85	50.000
848.15	4.545
848.44	-333.333
848.74	0.000
849.04	22.222
849.34	9.091
849.63	-83.333
849.93	-360.000
850.23	16.667
850.53	30.000
850.82	-23.077
851.12	0.000
851.42	60.000
851.71	11.538
852.01	-35.714
852.31	-175.000
852.61	27.273
852.90	60.000
853.20	-5.263
853.50	0.000
853.79	30.435
854.09	4.167
854.39	-15.789
854.68	8.333
854.98	41.935
855.28	19.231
855.57	45.000
855.87	11.111
856.17	18.519
856.46	42.857
856.76	0.000
857.05	155.556
857.35	44.000
857.65	11.111
857.94	-92.308
858.24	20.690
858.53	72.222
858.83	44.444
859.13	40.909
859.42	-17.391
859.72	25.000
860.01	-133.333
860.31	24.000
860.60	14.286
860.90	-233.333
861.20	13.333
861.49	-50.000
861.79	-26.667
862.08	-20.000
862.38	80.000
862.67	-240.000
862.97	33.333
863.26	41.667
863.56	22.222
863.85	-366.667
864.15	44.444
864.44	-80.000
864.74	107.143
865.03	175.000
865.33	80.000
865.62	16.667
865.92	0.000
866.21	-116.667
866.51	0.000
866.80	-18.182
867.10	0.000
867.39	83.333
867.69	0.000
867.98	23.077
868.27	-366.667
868.57	6.667
868.86	22.222
869.16	-23.077
869.45	0.000
869.75	-1900.000
870.04	0.000
870.33	-157.143
870.63	9.524
870.92	533.333
871.22	-240.000
871.51	-700.000
871.80	88.889
872.10	100.000
>>>>>End Processed Spectral Data<<<<<
