SpectraSuite Data File
++++++++++++++++++++++++++++++++++++
Date: Fri May 15 17:20:34 PDT 2015
User: schluterlab
Dark Spectrum Present: Yes
Reference Spectrum Present: Yes
Number of Sampled Component Spectra: 1
Spectrometers: USB2E3373
Integration Time (usec): 3000 (USB2E3373)
Spectra Averaged: 3 (USB2E3373)
Boxcar Smoothing: 0 (USB2E3373)
Correct for Electrical Dark: No (USB2E3373)
Strobe/Lamp Enabled: No (USB2E3373)
Correct for Detector Non-linearity: No (USB2E3373)
Correct for Stray Light: No (USB2E3373)
Number of Pixels in Processed Spectrum: 2048
>>>>>Begin Processed Spectral Data<<<<<
178.53	0.000
178.91	0.000
179.29	150.000
179.67	-200.000
180.04	-85.714
180.42	275.000
180.80	-100.000
181.18	-66.667
181.56	650.000
181.94	300.000
182.31	-900.000
182.69	160.000
183.07	-166.667
183.45	-100.000
183.83	33.333
184.20	45.455
184.58	-33.333
184.96	-300.000
185.34	-433.333
185.72	-150.000
186.09	46.154
186.47	-1300.000
186.85	16.667
187.23	33.333
187.61	-800.000
187.98	-33.333
188.36	155.556
188.74	600.000
189.12	64.706
189.49	22.222
189.87	0.000
190.25	42.857
190.63	250.000
191.00	33.333
191.38	47.368
191.76	900.000
192.14	-275.000
192.51	200.000
192.89	77.778
193.27	-14.286
193.65	166.667
194.02	9.091
194.40	-20.000
194.78	-37.500
195.15	-25.000
195.53	12.500
195.91	-0.000
196.29	275.000
196.66	38.462
197.04	-57.143
197.42	-11.111
197.79	-333.333
198.17	-46.154
198.55	300.000
198.92	200.000
199.30	300.000
199.68	120.000
200.05	-100.000
200.43	0.000
200.81	200.000
201.18	33.333
201.56	300.000
201.94	200.000
202.31	-166.667
202.69	0.000
203.07	50.000
203.44	500.000
203.82	0.000
204.19	150.000
204.57	133.333
204.95	-50.000
205.32	60.000
205.70	157.143
206.08	-25.000
206.45	222.222
206.83	157.143
207.20	28.571
207.58	-300.000
207.96	-100.000
208.33	-30.000
208.71	75.000
209.08	-16.667
209.46	300.000
209.84	220.000
210.21	0.000
210.59	128.571
210.96	66.667
211.34	150.000
211.71	100.000
212.09	-28.571
212.46	-300.000
212.84	0.000
213.22	120.000
213.59	-250.000
213.97	76.923
214.34	90.909
214.72	-50.000
215.09	75.000
215.47	-46.154
215.84	45.455
216.22	-200.000
216.59	0.000
216.97	700.000
217.34	-25.000
217.72	80.000
218.09	87.500
218.47	62.500
218.84	-100.000
219.22	111.111
219.59	180.000
219.97	-33.333
220.34	-50.000
220.72	42.857
221.09	125.000
221.47	500.000
221.84	-250.000
222.22	-350.000
222.59	-18.182
222.97	50.000
223.34	100.000
223.72	100.000
224.09	23.810
224.46	14.286
224.84	333.333
225.21	180.000
225.59	113.333
225.96	150.000
226.34	175.000
226.71	42.857
227.08	-16.667
227.46	25.000
227.83	-350.000
228.21	77.778
228.58	45.455
228.95	-12.500
229.33	10.000
229.70	0.000
230.08	12.500
230.45	-14.286
230.82	157.143
231.20	73.333
231.57	50.000
231.95	57.143
232.32	-40.000
232.69	78.571
233.07	266.667
233.44	260.000
233.81	90.000
234.19	88.889
234.56	-5.882
234.93	400.000
235.31	-50.000
235.68	-220.000
236.05	7.692
236.43	0.000
236.80	29.412
237.17	28.125
237.55	-35.000
237.92	11.111
238.29	-2.778
238.67	26.667
239.04	0.000
239.41	-4.878
239.79	0.000
240.16	26.829
240.53	-15.789
240.91	-2.174
241.28	11.111
241.65	21.429
242.02	16.438
242.40	15.000
242.77	-3.390
243.14	7.576
243.51	10.000
243.89	11.494
244.26	3.448
244.63	13.095
245.00	4.124
245.38	8.247
245.75	-1.124
246.12	3.448
246.49	11.570
246.87	6.731
247.24	0.000
247.61	-2.632
247.98	-6.504
248.36	3.750
248.73	1.974
249.10	2.597
249.47	2.532
249.84	3.268
250.22	0.588
250.59	4.575
250.96	11.268
251.33	1.744
251.70	7.647
252.08	7.107
252.45	3.465
252.82	2.513
253.19	2.765
253.56	1.402
253.94	5.405
254.31	7.391
254.68	7.456
255.05	3.150
255.42	-2.183
255.79	4.633
256.16	5.837
256.54	6.343
256.91	1.901
257.28	1.487
257.65	1.124
258.02	3.546
258.39	5.051
258.76	3.297
259.14	5.980
259.51	6.796
259.88	2.405
260.25	0.980
260.62	3.472
260.99	-1.356
261.36	-1.712
261.73	0.316
262.10	1.824
262.47	2.454
262.85	1.881
263.22	0.615
263.59	2.492
263.96	-0.311
264.33	4.242
264.70	3.869
265.07	3.571
265.44	1.700
265.81	1.977
266.18	2.459
266.55	3.599
266.92	1.813
267.29	3.394
267.66	1.790
268.03	0.000
268.40	0.783
268.77	3.743
269.14	4.556
269.51	1.799
269.88	1.247
270.25	1.786
270.62	1.463
270.99	-0.767
271.36	1.956
271.73	1.643
272.10	1.946
272.47	3.546
272.84	0.743
273.21	2.320
273.58	3.133
273.95	4.348
274.32	0.924
274.69	-1.584
275.06	4.241
275.43	1.361
275.80	4.194
276.17	2.759
276.54	2.998
276.91	1.096
277.28	1.965
277.65	5.372
278.02	4.894
278.39	0.219
278.76	2.516
279.13	1.037
279.50	5.252
279.87	3.456
280.23	-0.430
280.60	5.848
280.97	2.626
281.34	1.154
281.71	5.339
282.08	2.249
282.45	3.523
282.82	2.510
283.19	2.708
283.56	3.661
283.92	0.380
284.29	0.962
284.66	1.163
285.03	3.143
285.40	0.567
285.77	1.582
286.14	1.444
286.51	5.166
286.87	2.742
287.24	2.394
287.61	1.587
287.98	4.912
288.35	3.120
288.72	4.904
289.08	1.562
289.45	3.515
289.82	3.671
290.19	1.536
290.56	2.058
290.93	2.189
291.29	3.236
291.66	4.252
292.03	2.233
292.40	3.065
292.77	1.595
293.13	1.948
293.50	0.607
293.87	3.053
294.24	3.555
294.60	5.216
294.97	5.060
295.34	2.301
295.71	3.130
296.08	2.990
296.44	1.138
296.81	3.611
297.18	3.623
297.55	4.336
297.91	3.973
298.28	5.409
298.65	4.749
299.02	3.504
299.38	1.368
299.75	3.586
300.12	4.450
300.48	4.611
300.85	5.196
301.22	3.506
301.59	2.895
301.95	6.835
302.32	4.799
302.69	3.234
303.05	2.847
303.42	3.736
303.79	3.738
304.15	5.137
304.52	3.448
304.89	3.275
305.25	4.600
305.62	3.501
305.99	5.146
306.35	3.468
306.72	2.925
307.09	4.333
307.45	5.052
307.82	4.282
308.19	4.646
308.55	4.471
308.92	5.338
309.29	3.352
309.65	3.229
310.02	4.180
310.38	3.622
310.75	5.137
311.12	4.090
311.48	5.408
311.85	5.131
312.22	3.586
312.58	3.928
312.95	3.202
313.31	3.830
313.68	3.874
314.05	4.592
314.41	4.742
314.78	5.155
315.14	5.447
315.51	4.969
315.87	4.816
316.24	5.966
316.61	5.020
316.97	4.762
317.34	4.980
317.70	4.780
318.07	4.231
318.43	5.196
318.80	4.451
319.16	5.273
319.53	7.217
319.89	5.020
320.26	4.150
320.62	6.419
320.99	3.862
321.35	5.139
321.72	7.061
322.08	6.042
322.45	6.091
322.81	6.876
323.18	6.379
323.54	6.853
323.91	6.037
324.27	8.301
324.64	7.491
325.00	8.577
325.37	9.550
325.73	8.613
326.10	9.537
326.46	10.045
326.83	9.449
327.19	11.247
327.56	10.947
327.92	11.796
328.29	11.161
328.65	11.887
329.01	11.857
329.38	11.797
329.74	12.559
330.11	12.882
330.47	13.173
330.84	14.327
331.20	15.779
331.56	14.722
331.93	15.799
332.29	16.132
332.66	17.104
333.02	15.149
333.38	16.224
333.75	16.941
334.11	17.278
334.48	18.586
334.84	17.216
335.20	17.475
335.57	16.591
335.93	17.525
336.29	18.508
336.66	17.075
337.02	18.123
337.38	17.500
337.75	18.182
338.11	18.936
338.47	17.974
338.84	19.131
339.20	17.916
339.56	19.174
339.93	17.010
340.29	18.624
340.65	18.638
341.02	18.617
341.38	18.142
341.74	18.640
342.11	16.464
342.47	18.594
342.83	18.080
343.20	17.770
343.56	17.565
343.92	17.626
344.28	18.190
344.65	17.789
345.01	17.459
345.37	17.157
345.73	18.828
346.10	18.119
346.46	18.082
346.82	18.085
347.19	16.958
347.55	17.794
347.91	17.799
348.27	17.300
348.63	16.780
349.00	16.571
349.36	17.290
349.72	17.745
350.08	17.131
350.45	16.121
350.81	16.362
351.17	16.694
351.53	16.735
351.89	16.185
352.26	18.000
352.62	17.742
352.98	17.269
353.34	16.586
353.70	17.799
354.07	16.532
354.43	17.694
354.79	17.589
355.15	17.619
355.51	17.642
355.87	16.586
356.24	17.374
356.60	17.623
356.96	17.857
357.32	16.534
357.68	17.123
358.04	16.478
358.40	17.765
358.77	17.624
359.13	17.054
359.49	17.180
359.85	17.863
360.21	16.746
360.57	17.138
360.93	17.625
361.29	16.616
361.66	16.928
362.02	17.273
362.38	17.136
362.74	17.562
363.10	17.081
363.46	17.346
363.82	18.557
364.18	17.343
364.54	16.765
364.90	17.491
365.26	17.031
365.62	17.956
365.98	17.449
366.35	18.281
366.71	16.925
367.07	17.925
367.43	17.613
367.79	17.456
368.15	17.803
368.51	17.771
368.87	17.516
369.23	17.473
369.59	17.638
369.95	17.962
370.31	18.642
370.67	17.090
371.03	17.924
371.39	17.433
371.75	17.802
372.11	17.618
372.47	18.269
372.83	18.027
373.19	18.117
373.55	16.895
373.91	17.279
374.27	17.860
374.63	18.737
374.99	18.298
375.35	17.897
375.71	18.112
376.07	18.399
376.42	18.163
376.78	18.121
377.14	17.536
377.50	18.526
377.86	18.942
378.22	19.081
378.58	18.462
378.94	18.210
379.30	18.278
379.66	18.621
380.02	18.578
380.38	18.077
380.74	18.492
381.09	19.325
381.45	17.309
381.81	18.630
382.17	18.591
382.53	18.551
382.89	18.958
383.25	19.228
383.61	18.476
383.97	18.921
384.32	18.512
384.68	18.266
385.04	18.321
385.40	18.793
385.76	19.874
386.12	19.470
386.48	20.179
386.83	19.658
387.19	19.475
387.55	20.075
387.91	19.621
388.27	18.987
388.62	18.880
388.98	18.969
389.34	20.175
389.70	19.888
390.06	19.132
390.42	19.106
390.77	19.032
391.13	18.600
391.49	19.405
391.85	19.298
392.20	18.142
392.56	19.008
392.92	19.495
393.28	19.988
393.64	18.739
393.99	19.248
394.35	18.659
394.71	19.221
395.07	19.233
395.42	19.065
395.78	19.349
396.14	18.537
396.50	19.023
396.85	19.253
397.21	18.233
397.57	18.370
397.92	18.754
398.28	19.368
398.64	17.590
399.00	18.510
399.35	17.381
399.71	18.036
400.07	18.440
400.42	18.237
400.78	18.861
401.14	18.149
401.49	18.463
401.85	17.307
402.21	18.193
402.57	18.438
402.92	17.252
403.28	18.296
403.63	18.159
403.99	18.240
404.35	17.989
404.70	16.726
405.06	17.333
405.42	17.216
405.77	16.502
406.13	16.822
406.49	17.466
406.84	16.748
407.20	17.640
407.55	16.677
407.91	16.110
408.27	16.890
408.62	17.292
408.98	16.759
409.34	17.658
409.69	16.021
410.05	16.441
410.40	16.605
410.76	17.551
411.11	17.188
411.47	16.437
411.83	15.945
412.18	15.959
412.54	17.041
412.89	16.687
413.25	17.088
413.60	15.280
413.96	16.871
414.31	16.829
414.67	16.742
415.03	16.445
415.38	16.449
415.74	17.459
416.09	17.113
416.45	17.286
416.80	16.193
417.16	16.851
417.51	16.855
417.87	16.428
418.22	16.969
418.58	17.057
418.93	17.179
419.29	16.517
419.64	16.721
420.00	17.695
420.35	17.552
420.71	17.558
421.06	16.145
421.42	17.909
421.77	17.341
422.12	16.459
422.48	17.217
422.83	17.633
423.19	18.002
423.54	17.519
423.90	16.961
424.25	17.107
424.61	17.931
424.96	18.293
425.31	18.371
425.67	17.254
426.02	18.905
426.38	18.159
426.73	18.644
427.09	19.177
427.44	19.353
427.79	18.798
428.15	19.175
428.50	18.353
428.85	17.690
429.21	19.581
429.56	18.760
429.92	18.798
430.27	18.496
430.62	18.662
430.98	18.524
431.33	19.348
431.68	19.152
432.04	18.614
432.39	18.768
432.74	18.280
433.10	20.115
433.45	19.534
433.80	19.095
434.16	18.726
434.51	18.925
434.86	19.570
435.22	19.125
435.57	19.526
435.92	19.521
436.28	20.155
436.63	20.479
436.98	19.930
437.34	19.117
437.69	20.334
438.04	19.943
438.39	19.304
438.75	19.976
439.10	19.638
439.45	19.903
439.81	20.550
440.16	19.537
440.51	19.821
440.86	20.665
441.22	19.344
441.57	20.143
441.92	20.094
442.27	20.621
442.63	20.182
442.98	20.448
443.33	20.200
443.68	20.053
444.03	21.361
444.39	19.725
444.74	21.293
445.09	20.880
445.44	20.855
445.79	21.145
446.15	20.154
446.50	19.689
446.85	19.979
447.20	20.282
447.55	21.429
447.91	20.699
448.26	20.660
448.61	21.416
448.96	20.425
449.31	20.231
449.66	21.138
450.02	20.308
450.37	20.273
450.72	20.447
451.07	20.570
451.42	20.162
451.77	20.374
452.12	20.036
452.47	19.704
452.83	20.612
453.18	21.063
453.53	20.796
453.88	20.765
454.23	20.221
454.58	21.474
454.93	22.101
455.28	19.810
455.63	20.769
455.98	21.347
456.34	19.987
456.69	21.665
457.04	21.613
457.39	21.810
457.74	20.798
458.09	19.835
458.44	20.304
458.79	20.728
459.14	20.824
459.49	21.910
459.84	20.699
460.19	20.813
460.54	21.638
460.89	21.420
461.24	20.994
461.59	21.021
461.94	20.377
462.29	21.653
462.64	22.791
462.99	20.718
463.34	20.932
463.69	21.171
464.04	21.065
464.39	20.619
464.74	20.920
465.09	21.522
465.44	21.350
465.79	20.578
466.14	21.494
466.49	21.219
466.84	21.059
467.19	20.776
467.54	20.754
467.89	20.783
468.24	20.620
468.59	21.460
468.94	21.143
469.29	21.770
469.64	21.531
469.99	21.654
470.34	20.956
470.68	23.117
471.03	22.293
471.38	20.970
471.73	22.129
472.08	20.828
472.43	21.477
472.78	20.699
473.13	21.565
473.48	22.150
473.83	21.108
474.17	21.632
474.52	21.251
474.87	22.667
475.22	20.927
475.57	21.400
475.92	21.668
476.27	21.944
476.61	20.891
476.96	21.640
477.31	22.661
477.66	21.124
478.01	21.112
478.36	21.732
478.70	21.642
479.05	22.198
479.40	22.205
479.75	20.751
480.10	21.147
480.45	21.800
480.79	22.356
481.14	22.439
481.49	21.084
481.84	21.429
482.19	21.375
482.53	21.727
482.88	21.623
483.23	21.833
483.58	21.651
483.92	21.297
484.27	21.787
484.62	21.739
484.97	20.771
485.31	21.351
485.66	21.118
486.01	21.017
486.36	20.497
486.70	20.486
487.05	20.415
487.40	20.502
487.75	21.239
488.09	21.044
488.44	21.080
488.79	21.330
489.13	22.316
489.48	22.403
489.83	21.300
490.17	20.315
490.52	20.878
490.87	21.240
491.22	21.777
491.56	22.154
491.91	21.511
492.26	21.488
492.60	22.361
492.95	22.528
493.30	21.983
493.64	22.151
493.99	21.981
494.34	21.262
494.68	21.619
495.03	22.287
495.37	22.130
495.72	22.211
496.07	22.537
496.41	21.274
496.76	22.018
497.11	21.379
497.45	21.909
497.80	22.351
498.14	22.752
498.49	21.940
498.84	21.457
499.18	22.440
499.53	21.825
499.87	21.498
500.22	22.354
500.56	22.945
500.91	22.339
501.26	22.096
501.60	22.036
501.95	21.931
502.29	22.373
502.64	22.201
502.98	22.052
503.33	20.893
503.67	21.880
504.02	23.118
504.36	22.118
504.71	22.323
505.06	22.798
505.40	21.827
505.75	22.526
506.09	23.011
506.44	23.255
506.78	22.755
507.13	23.268
507.47	21.671
507.82	22.115
508.16	22.029
508.51	22.560
508.85	23.705
509.19	22.512
509.54	22.145
509.88	22.006
510.23	22.916
510.57	23.036
510.92	21.802
511.26	22.968
511.61	22.992
511.95	23.726
512.30	22.949
512.64	23.539
512.98	22.796
513.33	24.790
513.67	23.252
514.02	24.142
514.36	24.343
514.70	24.942
515.05	23.267
515.39	23.908
515.74	23.353
516.08	24.567
516.42	24.558
516.77	24.459
517.11	24.095
517.46	24.835
517.80	24.732
518.14	24.311
518.49	23.858
518.83	24.423
519.17	22.862
519.52	23.505
519.86	23.349
520.20	24.362
520.55	24.140
520.89	24.090
521.23	24.446
521.58	25.174
521.92	24.551
522.26	25.179
522.61	25.260
522.95	25.894
523.29	25.985
523.64	25.604
523.98	25.535
524.32	25.451
524.66	26.761
525.01	24.740
525.35	25.729
525.69	26.061
526.04	25.198
526.38	25.486
526.72	25.311
527.06	25.940
527.41	26.451
527.75	24.464
528.09	25.847
528.43	27.009
528.78	26.007
529.12	24.968
529.46	26.186
529.80	25.522
530.15	26.667
530.49	25.791
530.83	27.018
531.17	26.864
531.51	27.086
531.86	26.105
532.20	25.748
532.54	27.297
532.88	26.899
533.22	27.218
533.57	25.950
533.91	25.979
534.25	27.214
534.59	26.106
534.93	26.117
535.27	25.952
535.62	26.053
535.96	26.223
536.30	25.594
536.64	27.292
536.98	25.923
537.32	27.169
537.66	26.367
538.01	27.413
538.35	26.006
538.69	26.298
539.03	26.316
539.37	26.178
539.71	26.449
540.05	26.205
540.39	27.078
540.73	25.662
541.07	26.865
541.42	27.285
541.76	27.392
542.10	26.703
542.44	26.477
542.78	26.290
543.12	26.854
543.46	26.704
543.80	26.301
544.14	26.101
544.48	27.049
544.82	26.931
545.16	27.322
545.50	26.235
545.84	27.125
546.18	26.596
546.52	27.397
546.86	26.887
547.20	28.684
547.54	27.491
547.88	27.106
548.22	26.693
548.56	27.111
548.90	27.561
549.24	26.928
549.58	26.939
549.92	26.590
550.26	27.766
550.60	27.063
550.94	27.558
551.28	27.357
551.62	27.231
551.96	27.594
552.30	27.047
552.64	26.375
552.98	27.145
553.32	27.889
553.66	26.633
554.00	27.664
554.34	27.917
554.68	27.065
555.02	27.232
555.36	27.749
555.69	26.227
556.03	26.053
556.37	26.192
556.71	27.509
557.05	26.473
557.39	25.428
557.73	27.736
558.07	27.677
558.41	27.489
558.75	27.981
559.08	27.502
559.42	27.063
559.76	27.622
560.10	27.523
560.44	26.210
560.78	26.923
561.12	27.010
561.45	27.126
561.79	26.961
562.13	27.963
562.47	26.475
562.81	26.513
563.15	25.882
563.48	28.076
563.82	27.248
564.16	27.577
564.50	26.419
564.84	26.908
565.17	27.230
565.51	27.664
565.85	26.543
566.19	27.122
566.52	27.681
566.86	27.763
567.20	27.148
567.54	26.399
567.88	26.772
568.21	26.697
568.55	25.761
568.89	26.181
569.23	25.903
569.56	25.044
569.90	25.782
570.24	24.860
570.57	25.055
570.91	25.200
571.25	24.531
571.59	24.073
571.92	23.437
572.26	24.094
572.60	24.806
572.93	24.380
573.27	24.639
573.61	24.314
573.95	24.140
574.28	24.179
574.62	24.027
574.96	24.084
575.29	23.448
575.63	23.296
575.97	23.041
576.30	24.037
576.64	23.709
576.98	23.964
577.31	23.618
577.65	23.601
577.98	23.605
578.32	23.629
578.66	22.824
578.99	23.257
579.33	23.258
579.67	23.568
580.00	22.987
580.34	23.756
580.67	23.046
581.01	23.607
581.35	23.407
581.68	23.440
582.02	23.270
582.35	23.398
582.69	23.374
583.02	23.286
583.36	23.586
583.70	23.884
584.03	23.992
584.37	24.901
584.70	23.764
585.04	23.290
585.37	23.710
585.71	23.155
586.04	22.920
586.38	23.313
586.72	24.362
587.05	24.061
587.39	23.987
587.72	24.440
588.06	24.024
588.39	23.896
588.73	24.115
589.06	24.494
589.40	24.404
589.73	24.352
590.07	24.509
590.40	24.652
590.73	25.041
591.07	24.597
591.40	25.022
591.74	24.932
592.07	25.464
592.41	25.044
592.74	24.213
593.08	23.716
593.41	24.613
593.75	24.043
594.08	23.584
594.41	24.491
594.75	25.000
595.08	24.669
595.42	24.255
595.75	24.822
596.09	24.433
596.42	24.184
596.75	24.556
597.09	24.282
597.42	24.842
597.75	25.011
598.09	25.215
598.42	24.368
598.76	24.539
599.09	24.720
599.42	24.024
599.76	24.191
600.09	23.756
600.42	23.427
600.76	24.108
601.09	24.084
601.42	23.815
601.76	24.176
602.09	24.010
602.42	24.431
602.76	24.533
603.09	24.709
603.42	25.251
603.76	23.710
604.09	23.896
604.42	23.773
604.76	24.967
605.09	24.817
605.42	25.282
605.75	24.606
606.09	23.439
606.42	24.229
606.75	24.805
607.09	24.659
607.42	23.881
607.75	24.201
608.08	23.450
608.42	24.303
608.75	24.145
609.08	25.112
609.41	25.330
609.75	23.891
610.08	24.114
610.41	23.382
610.74	23.793
611.07	24.548
611.41	24.286
611.74	25.640
612.07	24.251
612.40	25.164
612.73	25.198
613.07	24.128
613.40	25.055
613.73	24.342
614.06	24.318
614.39	25.324
614.72	23.978
615.06	25.196
615.39	24.072
615.72	23.843
616.05	24.581
616.38	24.330
616.71	24.159
617.05	24.954
617.38	25.456
617.71	24.654
618.04	24.317
618.37	26.923
618.70	25.413
619.03	25.694
619.36	25.036
619.69	25.019
620.03	26.735
620.36	25.393
620.69	25.910
621.02	26.376
621.35	27.303
621.68	25.595
622.01	25.583
622.34	25.778
622.67	26.656
623.00	26.034
623.33	24.771
623.66	25.355
623.99	26.475
624.32	25.247
624.65	25.639
624.99	25.884
625.32	24.261
625.65	26.394
625.98	25.705
626.31	25.520
626.64	27.210
626.97	28.534
627.30	25.306
627.63	26.603
627.96	26.864
628.29	25.994
628.62	26.254
628.95	27.154
629.28	27.016
629.61	26.022
629.94	28.641
630.26	25.494
630.59	27.055
630.92	26.667
631.25	26.462
631.58	27.863
631.91	25.329
632.24	26.835
632.57	27.386
632.90	28.114
633.23	26.941
633.56	27.834
633.89	27.004
634.22	29.383
634.55	28.463
634.88	28.736
635.20	26.923
635.53	26.933
635.86	27.828
636.19	29.237
636.52	27.934
636.85	26.799
637.18	26.667
637.51	27.170
637.83	27.464
638.16	28.240
638.49	26.703
638.82	28.158
639.15	27.408
639.48	27.373
639.81	27.755
640.13	28.571
640.46	29.300
640.79	26.951
641.12	28.508
641.45	27.327
641.77	28.444
642.10	30.174
642.43	28.778
642.76	30.693
643.09	26.817
643.41	28.803
643.74	28.995
644.07	31.034
644.40	29.899
644.73	30.123
645.05	29.362
645.38	31.041
645.71	29.078
646.04	28.905
646.36	27.482
646.69	31.115
647.02	31.758
647.35	30.410
647.67	28.336
648.00	31.716
648.33	31.911
648.66	29.153
648.98	25.963
649.31	26.612
649.64	27.943
649.96	27.066
650.29	30.324
650.62	29.915
650.94	30.741
651.27	28.305
651.60	30.270
651.92	29.371
652.25	27.709
652.58	27.500
652.90	29.674
653.23	29.580
653.56	25.888
653.88	27.663
654.21	24.694
654.54	29.202
654.86	29.711
655.19	27.485
655.52	24.768
655.84	21.309
656.17	23.614
656.49	31.787
656.82	33.322
657.15	25.415
657.47	18.687
657.80	13.957
658.13	13.804
658.45	21.703
658.78	21.993
659.10	21.437
659.43	22.532
659.75	22.990
660.08	24.759
660.41	25.843
660.73	28.039
661.06	27.556
661.38	25.636
661.71	27.310
662.03	30.258
662.36	28.132
662.68	27.434
663.01	31.223
663.33	31.090
663.66	29.767
663.98	26.512
664.31	27.932
664.63	29.724
664.96	23.696
665.28	26.932
665.61	29.654
665.93	28.478
666.26	27.549
666.58	28.188
666.91	28.000
667.23	31.604
667.56	28.910
667.88	28.058
668.21	31.265
668.53	27.660
668.86	29.717
669.18	26.415
669.50	28.087
669.83	27.442
670.15	28.671
670.48	28.708
670.80	30.876
671.13	27.740
671.45	29.680
671.77	28.112
672.10	27.921
672.42	27.528
672.75	30.018
673.07	28.444
673.39	30.092
673.72	24.458
674.04	28.125
674.37	30.932
674.69	27.409
675.01	29.556
675.34	28.604
675.66	30.093
675.98	26.386
676.31	28.440
676.63	26.128
676.95	30.455
677.28	33.176
677.60	30.120
677.92	27.752
678.25	28.884
678.57	26.840
678.89	28.151
679.22	28.412
679.54	28.112
679.86	26.839
680.18	29.515
680.51	28.030
680.83	26.441
681.15	27.800
681.48	28.484
681.80	27.273
682.12	26.008
682.44	25.314
682.77	30.243
683.09	29.291
683.41	26.136
683.73	27.880
684.06	26.770
684.38	26.022
684.70	27.887
685.02	25.311
685.34	28.458
685.67	22.514
685.99	26.040
686.31	25.310
686.63	24.490
686.96	26.426
687.28	25.253
687.60	25.665
687.92	27.273
688.24	25.806
688.56	28.603
688.89	27.009
689.21	28.444
689.53	26.450
689.85	23.256
690.17	29.018
690.49	27.423
690.82	28.155
691.14	28.333
691.46	25.701
691.78	24.324
692.10	25.591
692.42	26.407
692.74	24.573
693.06	26.351
693.39	27.602
693.71	28.054
694.03	23.326
694.35	25.467
694.67	26.010
694.99	27.154
695.31	27.676
695.63	29.250
695.95	23.485
696.27	28.238
696.59	26.944
696.91	25.490
697.23	23.907
697.56	27.970
697.88	27.097
698.20	26.424
698.52	28.471
698.84	25.837
699.16	28.250
699.48	26.566
699.80	25.558
700.12	28.032
700.44	29.132
700.76	22.965
701.08	27.273
701.40	28.313
701.72	31.481
702.04	27.063
702.36	31.104
702.68	29.129
703.00	30.303
703.32	25.513
703.64	27.401
703.96	29.855
704.28	29.141
704.60	26.984
704.91	27.129
705.23	25.581
705.55	29.682
705.87	31.408
706.19	29.259
706.51	28.522
706.83	26.367
707.15	24.299
707.47	27.171
707.79	25.521
708.11	26.750
708.43	29.500
708.74	27.390
709.06	25.634
709.38	23.853
709.70	29.882
710.02	28.025
710.34	31.269
710.66	22.436
710.98	25.166
711.29	25.246
711.61	30.169
711.93	30.293
712.25	30.928
712.57	32.234
712.89	26.866
713.20	29.412
713.52	27.875
713.84	26.962
714.16	29.210
714.48	27.419
714.80	27.564
715.11	27.052
715.43	24.765
715.75	25.667
716.07	24.917
716.39	28.859
716.70	28.782
717.02	26.336
717.34	28.340
717.66	28.319
717.97	24.783
718.29	31.381
718.61	29.134
718.93	26.357
719.24	31.179
719.56	27.711
719.88	27.148
720.20	27.273
720.51	23.755
720.83	28.958
721.15	32.773
721.46	26.613
721.78	25.296
722.10	25.279
722.42	25.726
722.73	25.714
723.05	28.571
723.37	29.661
723.68	32.883
724.00	28.632
724.32	28.000
724.63	30.000
724.95	30.131
725.27	29.032
725.58	24.153
725.90	22.619
726.22	23.166
726.53	27.458
726.85	27.715
727.16	30.943
727.48	27.530
727.80	28.745
728.11	22.458
728.43	25.098
728.74	22.177
729.06	29.600
729.38	34.962
729.69	25.100
730.01	23.077
730.32	25.000
730.64	30.035
730.96	26.792
731.27	26.667
731.59	25.085
731.90	24.522
732.22	27.129
732.53	26.578
732.85	25.887
733.16	28.620
733.48	23.022
733.80	23.188
734.11	26.780
734.43	25.773
734.74	24.242
735.06	20.521
735.37	24.471
735.69	23.906
736.00	24.042
736.32	24.161
736.63	25.352
736.95	25.597
737.26	20.285
737.58	24.161
737.89	25.275
738.21	24.436
738.52	28.807
738.83	27.948
739.15	23.144
739.46	28.740
739.78	23.443
740.09	26.144
740.41	25.362
740.72	24.409
741.04	26.721
741.35	26.809
741.66	23.697
741.98	22.959
742.29	24.752
742.61	26.702
742.92	20.853
743.23	27.778
743.55	25.339
743.86	26.316
744.18	27.751
744.49	18.085
744.80	30.435
745.12	35.294
745.43	22.927
745.74	30.208
746.06	29.268
746.37	34.555
746.68	24.645
747.00	30.851
747.31	27.861
747.62	29.126
747.94	30.622
748.25	27.723
748.56	22.951
748.88	27.749
749.19	23.404
749.50	30.542
749.82	25.472
750.13	23.853
750.44	25.940
750.75	29.478
751.07	26.277
751.38	26.054
751.69	25.490
752.01	27.132
752.32	26.295
752.63	26.087
752.94	25.000
753.26	30.126
753.57	25.792
753.88	31.858
754.19	26.250
754.51	20.248
754.82	19.028
755.13	32.083
755.44	27.016
755.75	26.953
756.07	26.459
756.38	20.755
756.69	25.287
757.00	22.667
757.31	25.817
757.63	21.037
757.94	23.333
758.25	21.096
758.56	21.809
758.87	19.830
759.18	24.299
759.50	21.818
759.81	25.418
760.12	21.290
760.43	24.545
760.74	25.309
761.05	20.923
761.36	20.170
761.67	25.455
761.99	22.449
762.30	22.909
762.61	23.715
762.92	23.529
763.23	22.072
763.54	22.430
763.85	22.881
764.16	21.992
764.47	22.581
764.78	22.711
765.10	23.232
765.41	21.136
765.72	23.492
766.03	15.038
766.34	24.088
766.65	30.279
766.96	23.232
767.27	25.532
767.58	20.115
767.89	21.277
768.20	26.136
768.51	20.879
768.82	25.616
769.13	23.963
769.44	22.318
769.75	21.461
770.06	24.569
770.37	27.885
770.68	27.411
770.99	25.339
771.30	28.431
771.61	23.529
771.92	24.138
772.23	24.631
772.54	28.495
772.85	23.457
773.16	27.528
773.47	27.451
773.78	24.837
774.09	23.353
774.39	27.333
774.70	22.293
775.01	31.034
775.32	22.857
775.63	19.835
775.94	25.954
776.25	22.835
776.56	29.167
776.87	27.885
777.18	25.641
777.48	31.034
777.79	32.174
778.10	24.762
778.41	23.423
778.72	26.190
779.03	30.075
779.34	28.369
779.65	24.658
779.95	21.233
780.26	26.897
780.57	15.447
780.88	25.984
781.19	21.552
781.50	27.907
781.80	23.669
782.11	25.786
782.42	24.615
782.73	26.619
783.04	22.963
783.34	19.444
783.65	18.803
783.96	25.410
784.27	25.517
784.57	21.138
784.88	25.781
785.19	25.000
785.50	35.000
785.81	22.414
786.11	25.000
786.42	28.155
786.73	31.818
787.04	29.592
787.34	19.643
787.65	23.810
787.96	20.354
788.26	30.909
788.57	21.368
788.88	30.469
789.19	20.635
789.49	26.087
789.80	21.429
790.11	25.253
790.41	28.182
790.72	33.696
791.03	23.864
791.33	22.500
791.64	26.250
791.95	25.581
792.25	28.723
792.56	29.213
792.87	21.918
793.17	26.087
793.48	16.000
793.79	23.750
794.09	26.250
794.40	17.925
794.70	26.214
795.01	25.203
795.32	14.530
795.62	24.762
795.93	20.588
796.23	23.585
796.54	33.333
796.85	50.000
797.15	21.127
797.46	20.833
797.76	36.364
798.07	36.047
798.37	17.105
798.68	30.303
798.99	32.099
799.29	44.286
799.60	17.391
799.90	37.333
800.21	40.984
800.51	21.538
800.82	20.339
801.12	43.478
801.43	36.066
801.73	28.571
802.04	20.000
802.34	23.881
802.65	40.385
802.95	19.643
803.26	36.538
803.56	35.294
803.87	13.043
804.17	24.000
804.48	41.270
804.78	29.630
805.09	10.870
805.39	51.111
805.70	9.259
806.00	17.544
806.30	23.944
806.61	25.714
806.91	19.444
807.22	43.421
807.52	40.000
807.83	20.000
808.13	33.333
808.43	32.353
808.74	25.373
809.04	23.729
809.35	9.615
809.65	34.375
809.95	0.000
810.26	43.182
810.56	20.548
810.86	33.333
811.17	42.000
811.47	46.939
811.77	34.211
812.08	36.364
812.38	45.283
812.69	7.500
812.99	24.242
813.29	10.526
813.59	2.857
813.90	25.000
814.20	35.897
814.50	34.615
814.81	41.509
815.11	17.021
815.41	42.373
815.72	30.952
816.02	45.098
816.32	27.083
816.62	17.073
816.93	24.324
817.23	25.714
817.53	27.083
817.84	15.217
818.14	34.615
818.44	7.895
818.74	50.000
819.04	7.500
819.35	40.541
819.65	0.000
819.95	25.000
820.25	54.762
820.56	45.000
820.86	10.345
821.16	50.000
821.46	29.787
821.76	35.000
822.07	9.302
822.37	-21.622
822.67	31.250
822.97	52.381
823.27	28.571
823.57	20.000
823.88	-7.407
824.18	60.714
824.48	41.176
824.78	29.032
825.08	47.826
825.38	51.515
825.69	20.833
825.99	55.263
826.29	30.556
826.59	53.333
826.89	-28.571
827.19	15.217
827.49	12.500
827.79	22.857
828.09	35.714
828.39	57.576
828.70	72.973
829.00	14.286
829.30	61.905
829.60	33.333
829.90	25.000
830.20	18.421
830.50	-3.704
830.80	52.174
831.10	27.273
831.40	60.606
831.70	58.065
832.00	38.095
832.30	4.762
832.60	33.333
832.90	41.379
833.20	25.000
833.50	48.485
833.80	55.556
834.10	53.846
834.40	21.875
834.70	55.556
835.00	31.579
835.30	88.462
835.60	13.333
835.90	32.258
836.20	36.364
836.50	53.571
836.80	11.538
837.10	50.000
837.40	33.333
837.70	45.455
838.00	9.091
838.30	52.174
838.60	46.154
838.90	72.727
839.19	3.571
839.49	33.333
839.79	76.923
840.09	-8.333
840.39	53.571
840.69	50.000
840.99	7.692
841.29	-10.526
841.59	10.000
841.88	72.727
842.18	-10.000
842.48	43.750
842.78	33.333
843.08	48.148
843.38	-10.000
843.68	26.087
843.97	80.000
844.27	6.667
844.57	55.000
844.87	50.000
845.17	-14.286
845.47	46.667
845.76	42.857
846.06	82.353
846.36	50.000
846.66	-14.286
846.96	46.667
847.25	-75.000
847.55	135.714
847.85	62.500
848.15	-4.545
848.44	-233.333
848.74	25.000
849.04	44.444
849.34	0.000
849.63	33.333
849.93	-60.000
850.23	50.000
850.53	120.000
850.82	61.538
851.12	77.778
851.42	0.000
851.71	0.000
852.01	42.857
852.31	125.000
852.61	36.364
852.90	-10.000
853.20	84.211
853.50	108.333
853.79	73.913
854.09	108.333
854.39	42.105
854.68	-29.167
854.98	51.613
855.28	53.846
855.57	60.000
855.87	83.333
856.17	33.333
856.46	14.286
856.76	46.667
857.05	155.556
857.35	4.000
857.65	55.556
857.94	46.154
858.24	62.069
858.53	111.111
858.83	33.333
859.13	54.545
859.42	43.478
859.72	175.000
860.01	233.333
860.31	52.000
860.60	23.810
860.90	233.333
861.20	-66.667
861.49	-250.000
861.79	-26.667
862.08	20.000
862.38	113.333
862.67	20.000
862.97	0.000
863.26	0.000
863.56	16.667
863.85	-33.333
864.15	72.222
864.44	120.000
864.74	92.857
865.03	75.000
865.33	80.000
865.62	133.333
865.92	50.000
866.21	66.667
866.51	18.750
866.80	-36.364
867.10	-100.000
867.39	150.000
867.69	0.000
867.98	7.692
868.27	0.000
868.57	20.000
868.86	83.333
869.16	53.846
869.45	46.667
869.75	-300.000
870.04	0.000
870.33	-42.857
870.63	4.762
870.92	366.667
871.22	40.000
871.51	-100.000
871.80	166.667
872.10	100.000
>>>>>End Processed Spectral Data<<<<<
