SpectraSuite Data File
++++++++++++++++++++++++++++++++++++
Date: Fri May 15 17:07:07 PDT 2015
User: schluterlab
Dark Spectrum Present: Yes
Reference Spectrum Present: Yes
Number of Sampled Component Spectra: 1
Spectrometers: USB2E3373
Integration Time (usec): 3000 (USB2E3373)
Spectra Averaged: 3 (USB2E3373)
Boxcar Smoothing: 0 (USB2E3373)
Correct for Electrical Dark: No (USB2E3373)
Strobe/Lamp Enabled: No (USB2E3373)
Correct for Detector Non-linearity: No (USB2E3373)
Correct for Stray Light: No (USB2E3373)
Number of Pixels in Processed Spectrum: 2048
>>>>>Begin Processed Spectral Data<<<<<
178.53	0.000
178.91	0.000
179.29	200.000
179.67	-500.000
180.04	-14.286
180.42	325.000
180.80	1000.000
181.18	-166.667
181.56	100.000
181.94	300.000
182.31	-200.000
182.69	0.000
183.07	100.000
183.45	80.000
183.83	-83.333
184.20	54.545
184.58	-33.333
184.96	-225.000
185.34	-200.000
185.72	150.000
186.09	107.692
186.47	800.000
186.85	133.333
187.23	33.333
187.61	-300.000
187.98	300.000
188.36	144.444
188.74	33.333
189.12	111.765
189.49	100.000
189.87	0.000
190.25	57.143
190.63	450.000
191.00	0.000
191.38	63.158
191.76	550.000
192.14	-250.000
192.51	650.000
192.89	11.111
193.27	14.286
193.65	16.667
194.02	-0.000
194.40	50.000
194.78	-87.500
195.15	50.000
195.53	12.500
195.91	175.000
196.29	25.000
196.66	-0.000
197.04	-14.286
197.42	111.111
197.79	66.667
198.17	15.385
198.55	900.000
198.92	466.667
199.30	700.000
199.68	160.000
200.05	300.000
200.43	0.000
200.81	266.667
201.18	0.000
201.56	300.000
201.94	50.000
202.31	-400.000
202.69	60.000
203.07	-25.000
203.44	1000.000
203.82	0.000
204.19	78.571
204.57	-166.667
204.95	50.000
205.32	80.000
205.70	128.571
206.08	75.000
206.45	288.889
206.83	107.143
207.20	14.286
207.58	-1600.000
207.96	166.667
208.33	10.000
208.71	200.000
209.08	-150.000
209.46	200.000
209.84	-20.000
210.21	-200.000
210.59	142.857
210.96	150.000
211.34	200.000
211.71	133.333
212.09	28.571
212.46	-800.000
212.84	0.000
213.22	70.000
213.59	-0.000
213.97	115.385
214.34	100.000
214.72	83.333
215.09	25.000
215.47	0.000
215.84	100.000
216.22	166.667
216.59	112.500
216.97	550.000
217.34	0.000
217.72	140.000
218.09	137.500
218.47	12.500
218.84	500.000
219.22	11.111
219.59	260.000
219.97	133.333
220.34	175.000
220.72	185.714
221.09	100.000
221.47	250.000
221.84	-100.000
222.22	150.000
222.59	109.091
222.97	141.667
223.34	-66.667
223.72	71.429
224.09	38.095
224.46	50.000
224.84	33.333
225.21	150.000
225.59	86.667
225.96	100.000
226.34	150.000
226.71	128.571
227.08	-33.333
227.46	50.000
227.83	100.000
228.21	133.333
228.58	136.364
228.95	212.500
229.33	30.000
229.70	87.500
230.08	-12.500
230.45	28.571
230.82	257.143
231.20	-33.333
231.57	42.857
231.95	242.857
232.32	0.000
232.69	114.286
233.07	200.000
233.44	40.000
233.81	80.000
234.19	155.556
234.56	123.529
234.93	-600.000
235.31	350.000
235.68	60.000
236.05	69.231
236.43	20.000
236.80	88.235
237.17	87.500
237.55	135.000
237.92	96.296
238.29	61.111
238.67	120.000
239.04	70.588
239.41	63.415
239.79	110.000
240.16	104.878
240.53	97.368
240.91	97.826
241.28	74.603
241.65	108.929
242.02	100.000
242.40	96.667
242.77	98.305
243.14	98.485
243.51	91.250
243.89	91.954
244.26	83.908
244.63	97.619
245.00	82.474
245.38	88.660
245.75	80.899
246.12	81.897
246.49	82.645
246.87	94.231
247.24	84.874
247.61	89.474
247.98	89.431
248.36	83.125
248.73	82.237
249.10	88.961
249.47	85.443
249.84	86.928
250.22	83.529
250.59	92.810
250.96	82.629
251.33	87.791
251.70	88.824
252.08	82.741
252.45	83.168
252.82	86.935
253.19	83.410
253.56	87.850
253.94	87.838
254.31	82.174
254.68	91.667
255.05	79.921
255.42	88.646
255.79	82.239
256.16	89.494
256.54	86.567
256.91	82.890
257.28	84.758
257.65	82.772
258.02	79.787
258.39	86.532
258.76	90.110
259.14	86.711
259.51	78.964
259.88	81.100
260.25	84.314
260.62	89.583
260.99	83.390
261.36	85.959
261.73	84.810
262.10	86.626
262.47	83.129
262.85	88.088
263.22	88.308
263.59	86.916
263.96	90.062
264.33	85.758
264.70	83.929
265.07	85.714
265.44	87.535
265.81	88.418
266.18	86.066
266.55	84.576
266.92	82.902
267.29	86.423
267.66	83.376
268.03	83.508
268.40	85.117
268.77	86.096
269.14	81.295
269.51	84.833
269.88	82.045
270.25	84.694
270.62	84.878
270.99	82.864
271.36	81.663
271.73	81.455
272.10	82.968
272.47	85.106
272.84	81.436
273.21	81.671
273.58	81.928
273.95	81.922
274.32	82.217
274.69	82.127
275.06	87.723
275.43	77.098
275.80	82.561
276.17	81.149
276.54	79.443
276.91	80.702
277.28	80.131
277.65	80.372
278.02	80.426
278.39	83.151
278.76	83.019
279.13	79.668
279.50	80.672
279.87	74.730
280.23	79.140
280.60	77.388
280.97	78.990
281.34	76.346
281.71	79.055
282.08	78.732
282.45	73.973
282.82	77.992
283.19	80.271
283.56	77.842
283.92	79.507
284.29	74.615
284.66	75.775
285.03	75.639
285.40	77.127
285.77	73.638
286.14	70.578
286.51	76.937
286.87	72.943
287.24	76.059
287.61	70.899
287.98	75.789
288.35	74.697
288.72	74.081
289.08	72.396
289.45	73.462
289.82	68.706
290.19	70.990
290.56	68.268
290.93	69.697
291.29	64.561
291.66	64.567
292.03	67.464
292.40	66.290
292.77	65.869
293.13	63.961
293.50	63.126
293.87	60.305
294.24	64.915
294.60	64.083
294.97	63.095
295.34	60.890
295.71	62.146
296.08	59.342
296.44	58.890
296.81	57.361
297.18	61.884
297.55	60.163
297.91	58.493
298.28	55.409
298.65	56.309
299.02	56.873
299.38	56.772
299.75	55.448
300.12	54.974
300.48	56.126
300.85	54.119
301.22	54.805
301.59	53.289
301.95	54.177
302.32	55.512
302.69	52.736
303.05	55.322
303.42	53.300
303.79	53.621
304.15	52.808
304.52	51.724
304.89	50.994
305.25	53.390
305.62	50.875
305.99	49.591
306.35	52.139
306.72	50.844
307.09	52.794
307.45	52.239
307.82	50.000
308.19	51.916
308.55	49.618
308.92	50.763
309.29	51.508
309.65	50.915
310.02	49.285
310.38	51.153
310.75	50.601
311.12	48.332
311.48	49.947
311.85	49.005
312.22	47.785
312.58	49.682
312.95	47.599
313.31	48.654
313.68	48.272
314.05	46.327
314.41	50.000
314.78	47.835
315.14	49.229
315.51	48.344
315.87	48.873
316.24	48.129
316.61	46.752
316.97	47.520
317.34	47.070
317.70	45.889
318.07	45.577
318.43	47.843
318.80	47.254
319.16	47.656
319.53	47.388
319.89	45.079
320.26	46.559
320.62	47.643
320.99	45.825
321.35	47.688
321.72	45.171
322.08	48.943
322.45	46.599
322.81	44.401
323.18	46.712
323.54	45.946
323.91	46.251
324.27	46.484
324.64	46.442
325.00	44.891
325.37	46.006
325.73	44.334
326.10	46.231
326.46	44.933
326.83	44.969
327.19	46.818
327.56	45.873
327.92	45.951
328.29	45.536
328.65	44.811
329.01	44.026
329.38	45.069
329.74	44.381
330.11	44.393
330.47	43.321
330.84	45.288
331.20	46.863
331.56	43.981
331.93	43.196
332.29	44.455
332.66	44.434
333.02	44.424
333.38	42.621
333.75	44.414
334.11	42.167
334.48	43.699
334.84	45.238
335.20	44.831
335.57	43.064
335.93	42.186
336.29	42.081
336.66	43.688
337.02	42.751
337.38	43.426
337.75	43.000
338.11	42.651
338.47	41.971
338.84	43.068
339.20	42.779
339.56	41.651
339.93	43.151
340.29	42.936
340.65	42.921
341.02	41.755
341.38	41.681
341.74	40.636
342.11	41.334
342.47	43.060
342.83	41.522
343.20	41.638
343.56	42.174
343.92	42.338
344.28	40.734
344.65	42.832
345.01	42.351
345.37	41.632
345.73	41.255
346.10	42.623
346.46	39.950
346.82	40.344
347.19	39.651
347.55	40.852
347.91	41.100
348.27	40.663
348.63	41.993
349.00	39.459
349.36	40.898
349.72	41.957
350.08	40.000
350.45	41.101
350.81	41.279
351.17	39.414
351.53	40.000
351.89	40.958
352.26	40.400
352.62	39.839
352.98	39.920
353.34	39.452
353.70	39.887
354.07	40.000
354.43	39.792
354.79	39.802
355.15	41.190
355.51	39.715
355.87	38.997
356.24	37.276
356.60	38.561
356.96	39.841
357.32	37.300
357.68	38.546
358.04	39.580
358.40	38.103
358.77	38.596
359.13	38.751
359.49	37.673
359.85	39.392
360.21	38.995
360.57	38.715
360.93	39.259
361.29	36.782
361.66	38.480
362.02	39.242
362.38	39.223
362.74	39.213
363.10	39.127
363.46	39.214
363.82	39.444
364.18	37.934
364.54	37.647
364.90	38.065
365.26	37.627
365.62	39.489
365.98	38.856
366.35	38.237
366.71	39.172
367.07	38.244
367.43	37.958
367.79	37.668
368.15	37.258
368.51	37.509
368.87	36.540
369.23	35.957
369.59	37.099
369.95	38.416
370.31	38.006
370.67	38.209
371.03	37.491
371.39	36.032
371.75	37.436
372.11	37.518
372.47	37.130
372.83	37.119
373.19	36.448
373.55	35.596
373.91	37.797
374.27	37.208
374.63	37.688
374.99	35.816
375.35	36.978
375.71	36.853
376.07	36.938
376.42	37.415
376.78	36.980
377.14	36.222
377.50	36.720
377.86	36.278
378.22	36.758
378.58	36.474
378.94	36.169
379.30	36.993
379.66	37.241
380.02	36.235
380.38	36.032
380.74	36.086
381.09	37.117
381.45	35.902
381.81	36.089
382.17	36.485
382.53	35.853
382.89	35.656
383.25	36.528
383.61	36.829
383.97	34.730
384.32	35.960
384.68	37.028
385.04	35.539
385.40	35.843
385.76	36.541
386.12	36.611
386.48	36.398
386.83	35.067
387.19	36.264
387.55	36.951
387.91	36.125
388.27	35.775
388.62	35.997
388.98	35.789
389.34	36.165
389.70	36.544
390.06	34.361
390.42	35.363
390.77	36.037
391.13	35.372
391.49	35.446
391.85	35.997
392.20	35.217
392.56	36.109
392.92	35.995
393.28	36.851
393.64	35.075
393.99	36.301
394.35	35.863
394.71	36.143
395.07	36.078
395.42	35.762
395.78	35.049
396.14	34.994
396.50	35.764
396.85	35.415
397.21	36.153
397.57	34.922
397.92	35.291
398.28	35.690
398.64	33.795
399.00	35.158
399.35	33.916
399.71	35.095
400.07	35.550
400.42	34.149
400.78	36.130
401.14	35.148
401.49	36.093
401.85	34.979
402.21	34.217
402.57	35.562
402.92	33.877
403.28	35.338
403.63	35.309
403.99	35.395
404.35	35.290
404.70	34.048
405.06	34.783
405.42	35.053
405.77	34.282
406.13	34.517
406.49	34.162
406.84	35.208
407.20	34.196
407.55	34.771
407.91	34.358
408.27	34.544
408.62	35.569
408.98	34.812
409.34	35.130
409.69	34.690
410.05	35.591
410.40	34.691
410.76	34.017
411.11	34.812
411.47	34.583
411.83	34.526
412.18	34.942
412.54	33.895
412.89	33.005
413.25	35.680
413.60	34.720
413.96	33.006
414.31	34.390
414.67	33.483
415.03	34.554
415.38	34.987
415.74	34.397
416.09	34.879
416.45	33.693
416.80	34.038
417.16	34.530
417.51	34.244
417.87	33.442
418.22	34.650
418.58	34.649
418.93	33.793
419.29	32.202
419.64	33.830
420.00	35.139
420.35	33.612
420.71	34.447
421.06	34.131
421.42	33.413
421.77	33.642
422.12	34.393
422.48	34.434
422.83	33.817
423.19	34.255
423.54	33.568
423.90	32.921
424.25	35.304
424.61	35.251
424.96	34.030
425.31	34.951
425.67	33.920
426.02	35.277
426.38	34.377
426.73	33.959
427.09	34.620
427.44	34.529
427.79	34.355
428.15	34.102
428.50	33.919
428.85	33.907
429.21	34.522
429.56	34.825
429.92	34.258
430.27	34.135
430.62	33.508
430.98	34.023
431.33	34.385
431.68	34.223
432.04	33.426
432.39	33.428
432.74	33.313
433.10	33.793
433.45	32.915
433.80	34.243
434.16	33.684
434.51	34.247
434.86	33.566
435.22	33.932
435.57	33.375
435.92	33.713
436.28	33.214
436.63	34.455
436.98	32.735
437.34	32.184
437.69	34.466
438.04	32.934
438.39	33.415
438.75	34.487
439.10	33.729
439.45	34.449
439.81	33.945
440.16	34.323
440.51	33.552
440.86	35.347
441.22	32.975
441.57	33.720
441.92	34.732
442.27	34.202
442.63	34.368
442.98	34.176
443.33	34.279
443.68	33.846
444.03	35.420
444.39	33.743
444.74	34.950
445.09	33.742
445.44	34.473
445.79	34.812
446.15	33.095
446.50	33.777
446.85	33.688
447.20	32.951
447.55	34.208
447.91	34.067
448.26	33.637
448.61	34.485
448.96	33.735
449.31	33.873
449.66	33.333
450.02	33.714
450.37	34.143
450.72	32.761
451.07	34.051
451.42	32.834
451.77	32.972
452.12	32.416
452.47	33.548
452.83	33.392
453.18	32.891
453.53	34.197
453.88	34.973
454.23	33.006
454.58	33.375
454.93	34.729
455.28	32.571
455.63	33.292
455.98	32.652
456.34	32.567
456.69	33.355
457.04	34.783
457.39	33.232
457.74	32.709
458.09	32.490
458.44	33.002
458.79	33.109
459.14	32.551
459.49	33.910
459.84	32.769
460.19	33.495
460.54	33.802
460.89	33.239
461.24	33.168
461.59	33.076
461.94	32.579
462.29	34.258
462.64	33.887
462.99	33.514
463.34	33.102
463.69	33.076
464.04	33.232
464.39	32.626
464.74	32.699
465.09	34.373
465.44	33.410
465.79	32.256
466.14	33.751
466.49	33.525
466.84	34.206
467.19	33.229
467.54	33.333
467.89	32.028
468.24	33.090
468.59	33.397
468.94	32.063
469.29	32.787
469.64	31.921
469.99	33.637
470.34	31.399
470.68	33.184
471.03	33.050
471.38	32.311
471.73	31.863
472.08	31.479
472.43	31.409
472.78	32.008
473.13	33.061
473.48	32.704
473.83	31.756
474.17	31.865
474.52	32.738
474.87	32.424
475.22	32.886
475.57	31.959
475.92	32.145
476.27	32.305
476.61	33.565
476.96	32.348
477.31	32.071
477.66	30.955
478.01	31.331
478.36	31.754
478.70	32.137
479.05	32.308
479.40	32.008
479.75	31.752
480.10	32.770
480.45	32.250
480.79	32.377
481.14	32.223
481.49	31.872
481.84	32.577
482.19	31.478
482.53	32.230
482.88	32.172
483.23	31.718
483.58	31.698
483.92	31.655
484.27	31.039
484.62	32.407
484.97	32.463
485.31	32.876
485.66	32.590
486.01	33.608
486.36	33.984
486.70	34.396
487.05	33.996
487.40	33.557
487.75	33.690
488.09	33.096
488.44	32.634
488.79	32.761
489.13	33.013
489.48	31.937
489.83	31.256
490.17	31.281
490.52	31.409
490.87	31.236
491.22	31.710
491.56	31.499
491.91	30.641
492.26	31.794
492.60	30.854
492.95	32.120
493.30	30.874
493.64	31.680
493.99	30.242
494.34	30.971
494.68	31.190
495.03	30.365
495.37	31.305
495.72	30.540
496.07	31.561
496.41	31.038
496.76	30.447
497.11	30.554
497.45	30.883
497.80	30.827
498.14	31.148
498.49	31.082
498.84	29.840
499.18	31.024
499.53	30.556
499.87	30.739
500.22	30.415
500.56	31.669
500.91	30.171
501.26	30.499
501.60	30.743
501.95	30.907
502.29	30.751
502.64	30.840
502.98	30.883
503.33	30.307
503.67	30.120
504.02	30.890
504.36	31.371
504.71	30.707
505.06	30.448
505.40	31.015
505.75	31.392
506.09	29.954
506.44	30.903
506.78	30.663
507.13	30.817
507.47	29.922
507.82	30.823
508.16	30.005
508.51	31.375
508.85	31.188
509.19	29.856
509.54	29.759
509.88	30.421
510.23	30.715
510.57	29.663
510.92	28.838
511.26	29.842
511.61	29.813
511.95	30.466
512.30	29.213
512.64	30.551
512.98	29.253
513.33	29.323
513.67	29.107
514.02	29.233
514.36	30.343
514.70	30.303
515.05	29.906
515.39	29.634
515.74	29.401
516.08	29.468
516.42	29.918
516.77	29.315
517.11	29.555
517.46	28.965
517.80	29.559
518.14	28.843
518.49	28.546
518.83	30.194
519.17	28.199
519.52	29.248
519.86	27.671
520.20	28.372
520.55	28.080
520.89	28.984
521.23	28.689
521.58	29.148
521.92	28.974
522.26	27.846
522.61	28.636
522.95	29.470
523.29	29.034
523.64	28.145
523.98	28.516
524.32	28.415
524.66	28.681
525.01	28.701
525.35	28.710
525.69	28.418
526.04	28.307
526.38	29.767
526.72	28.188
527.06	27.626
527.41	28.232
527.75	27.882
528.09	28.904
528.43	29.777
528.78	27.459
529.12	29.032
529.46	28.005
529.80	28.562
530.15	29.373
530.49	28.956
530.83	28.933
531.17	28.543
531.51	28.249
531.86	28.212
532.20	28.532
532.54	28.999
532.88	29.158
533.22	29.368
533.57	28.244
533.91	28.916
534.25	29.167
534.59	28.544
534.93	28.508
535.27	29.251
535.62	28.192
535.96	28.180
536.30	28.100
536.64	29.497
536.98	28.084
537.32	28.521
537.66	28.471
538.01	28.881
538.35	28.294
538.69	28.429
539.03	29.323
539.37	29.071
539.71	27.948
540.05	28.106
540.39	29.294
540.73	28.870
541.07	29.627
541.42	29.167
541.76	28.699
542.10	28.975
542.44	29.326
542.78	28.149
543.12	28.640
543.46	30.042
543.80	27.481
544.14	27.303
544.48	29.314
544.82	29.323
545.16	28.279
545.50	29.239
545.84	29.037
546.18	29.787
546.52	29.200
546.86	27.462
547.20	27.825
547.54	28.410
547.88	29.144
548.22	28.468
548.56	28.958
548.90	28.841
549.24	27.961
549.58	29.478
549.92	28.663
550.26	29.524
550.60	28.922
550.94	28.454
551.28	27.898
551.62	28.000
551.96	28.647
552.30	29.020
552.64	28.984
552.98	28.622
553.32	27.461
553.66	27.721
554.00	29.562
554.34	30.133
554.68	28.687
555.02	29.464
555.36	28.497
555.69	29.084
556.03	27.766
556.37	28.114
556.71	28.953
557.05	28.561
557.39	26.691
557.73	28.636
558.07	28.658
558.41	27.335
558.75	28.215
559.08	27.975
559.42	27.937
559.76	27.862
560.10	28.899
560.44	28.593
560.78	29.371
561.12	29.055
561.45	29.234
561.79	28.501
562.13	29.879
562.47	27.770
562.81	27.738
563.15	28.068
563.48	28.642
563.82	29.032
564.16	29.944
564.50	28.986
564.84	28.581
565.17	29.242
565.51	29.167
565.85	29.492
566.19	29.377
566.52	29.357
566.86	29.563
567.20	28.954
567.54	29.562
567.88	30.521
568.21	30.204
568.55	30.326
568.89	30.903
569.23	31.584
569.56	31.436
569.90	32.481
570.24	31.969
570.57	32.945
570.91	32.834
571.25	32.062
571.59	32.949
571.92	31.822
572.26	32.156
572.60	32.713
572.93	32.727
573.27	32.476
573.61	33.234
573.95	33.506
574.28	33.157
574.62	32.113
574.96	32.835
575.29	33.115
575.63	32.003
575.97	32.556
576.30	32.584
576.64	33.060
576.98	32.973
577.31	33.423
577.65	33.394
577.98	33.495
578.32	33.410
578.66	32.882
578.99	32.897
579.33	33.075
579.67	32.349
580.00	33.063
580.34	33.408
580.67	32.715
581.01	33.021
581.35	32.989
581.68	33.596
582.02	33.694
582.35	34.243
582.69	33.716
583.02	32.664
583.36	32.860
583.70	34.008
584.03	33.500
584.37	33.794
584.70	33.379
585.04	32.228
585.37	32.727
585.71	33.226
586.04	32.451
586.38	33.156
586.72	32.970
587.05	33.709
587.39	33.408
587.72	33.543
588.06	33.186
588.39	33.124
588.73	33.211
589.06	33.659
589.40	32.769
589.73	33.297
590.07	33.195
590.40	32.933
590.73	32.825
591.07	32.146
591.40	31.790
591.74	31.946
592.07	33.024
592.41	31.979
592.74	32.059
593.08	31.645
593.41	32.982
593.75	32.646
594.08	32.372
594.41	32.424
594.75	31.947
595.08	33.371
595.42	32.315
595.75	32.783
596.09	32.877
596.42	31.749
596.75	31.306
597.09	33.166
597.42	31.662
597.75	32.387
598.09	31.281
598.42	31.318
598.76	31.360
599.09	32.452
599.42	31.413
599.76	32.167
600.09	32.127
600.42	32.108
600.76	31.835
601.09	31.450
601.42	31.767
601.76	32.076
602.09	32.013
602.42	32.730
602.76	33.319
603.09	32.517
603.42	32.818
603.76	32.056
604.09	31.713
604.42	32.657
604.76	31.998
605.09	32.678
605.42	31.783
605.75	31.830
606.09	31.550
606.42	31.818
606.75	32.468
607.09	33.055
607.42	31.148
607.75	31.528
608.08	31.402
608.42	31.932
608.75	30.988
609.08	32.138
609.41	32.234
609.75	31.351
610.08	32.052
610.41	31.014
610.74	31.741
611.07	31.783
611.41	31.396
611.74	32.143
612.07	30.942
612.40	31.565
612.73	31.525
613.07	30.596
613.40	31.729
613.73	30.498
614.06	30.940
614.39	31.359
614.72	30.588
615.06	30.615
615.39	30.459
615.72	30.301
616.05	31.341
616.38	30.142
616.71	29.847
617.05	29.586
617.38	30.924
617.71	30.503
618.04	31.302
618.37	31.589
618.70	30.495
619.03	30.694
619.36	29.740
619.69	30.553
620.03	30.022
620.36	30.043
620.69	30.050
621.02	29.740
621.35	31.203
621.68	29.677
622.01	29.417
622.34	30.487
622.67	29.416
623.00	29.939
623.33	29.878
623.66	29.319
623.99	29.652
624.32	30.342
624.65	28.947
624.99	29.947
625.32	29.189
625.65	30.244
625.98	30.218
626.31	27.764
626.64	28.683
626.97	28.883
627.30	30.298
627.63	29.983
627.96	29.650
628.29	28.400
628.62	27.827
628.95	28.858
629.28	28.730
629.61	27.817
629.94	29.032
630.26	28.557
630.59	29.553
630.92	27.897
631.25	26.769
631.58	26.211
631.91	26.754
632.24	27.064
632.57	28.182
632.90	25.741
633.23	26.824
633.56	27.456
633.89	25.771
634.22	29.753
634.55	27.446
634.88	27.331
635.20	25.897
635.53	27.067
635.86	25.358
636.19	28.461
636.52	27.041
636.85	25.062
637.18	28.553
637.51	26.038
637.83	27.070
638.16	26.876
638.49	25.613
638.82	27.368
639.15	26.187
639.48	26.960
639.81	25.662
640.13	26.407
640.46	26.822
640.79	24.448
641.12	25.702
641.45	26.426
641.77	25.926
642.10	27.962
642.43	24.598
642.76	25.413
643.09	28.271
643.41	23.301
643.74	25.535
644.07	27.422
644.40	26.520
644.73	24.869
645.05	26.174
645.38	24.339
645.71	27.305
646.04	26.212
646.36	23.404
646.69	27.698
647.02	25.520
647.35	25.373
647.67	26.691
648.00	26.866
648.33	26.962
648.66	25.932
648.98	23.786
649.31	25.124
649.64	26.060
649.96	25.446
650.29	27.768
650.62	25.983
650.94	28.519
651.27	25.698
651.60	24.685
651.92	26.573
652.25	25.577
652.58	26.667
652.90	26.244
653.23	25.882
653.56	24.704
653.88	23.711
654.21	23.117
654.54	28.862
654.86	28.014
655.19	25.731
655.52	30.882
655.84	32.425
656.17	38.227
656.49	52.720
656.82	56.039
657.15	42.907
657.47	31.309
657.80	23.713
658.13	23.395
658.45	35.767
658.78	34.649
659.10	33.361
659.43	33.237
659.75	32.018
660.08	30.276
660.41	30.235
660.73	27.901
661.06	25.130
661.38	24.462
661.71	25.051
662.03	26.824
662.36	24.176
662.68	22.345
663.01	25.764
663.33	21.578
663.66	23.023
663.98	21.163
664.31	26.226
664.63	22.350
664.96	21.957
665.28	24.062
665.61	27.489
665.93	25.652
666.26	24.729
666.58	23.714
666.91	25.882
667.23	24.292
667.56	25.355
667.88	23.022
668.21	24.105
668.53	22.931
668.86	24.764
669.18	20.047
669.50	23.245
669.83	22.326
670.15	25.641
670.48	23.445
670.80	23.502
671.13	23.714
671.45	21.233
671.77	24.034
672.10	25.347
672.42	26.217
672.75	28.242
673.07	27.549
673.39	27.890
673.72	24.063
674.04	23.125
674.37	26.907
674.69	24.625
675.01	24.667
675.34	23.423
675.66	25.463
675.98	25.499
676.31	27.752
676.63	23.040
676.95	22.727
677.28	26.824
677.60	23.614
677.92	25.229
678.25	24.508
678.57	25.541
678.89	24.160
679.22	27.069
679.54	25.502
679.86	26.243
680.18	26.408
680.51	28.598
680.83	26.044
681.15	28.000
681.48	27.254
681.80	26.653
682.12	24.798
682.44	26.987
682.77	29.360
683.09	24.485
683.41	24.091
683.73	25.346
684.06	26.770
684.38	23.011
684.70	26.580
685.02	26.349
685.34	27.075
685.67	25.891
685.99	27.667
686.31	29.027
686.63	26.902
686.96	23.954
687.28	26.667
687.60	26.236
687.92	27.273
688.24	26.613
688.56	25.546
688.89	29.241
689.21	28.222
689.53	26.450
689.85	25.349
690.17	29.911
690.49	26.478
690.82	26.456
691.14	24.048
691.46	25.234
691.78	26.126
692.10	29.247
692.42	28.355
692.74	26.282
693.06	24.775
693.39	25.339
693.71	25.792
694.03	24.711
694.35	26.636
694.67	23.232
694.99	22.454
695.31	26.632
695.63	29.000
695.95	23.737
696.27	25.648
696.59	27.500
696.91	23.529
697.23	24.165
697.56	25.495
697.88	28.602
698.20	26.196
698.52	25.882
698.84	25.598
699.16	25.250
699.48	28.571
699.80	26.303
700.12	28.841
700.44	26.050
700.76	25.291
701.08	23.636
701.40	26.807
701.72	32.407
702.04	20.792
702.36	23.746
702.68	22.823
703.00	26.061
703.32	24.047
703.64	25.141
703.96	24.058
704.28	24.540
704.60	27.937
704.91	24.921
705.23	24.917
705.55	28.975
705.87	26.715
706.19	24.444
706.51	23.024
706.83	25.402
707.15	24.299
707.47	29.692
707.79	27.604
708.11	29.250
708.43	27.250
708.74	28.941
709.06	30.141
709.38	28.746
709.70	28.402
710.02	26.752
710.34	26.006
710.66	24.679
710.98	24.503
711.29	26.230
711.61	29.153
711.93	26.710
712.25	29.897
712.57	25.641
712.89	25.000
713.20	24.913
713.52	26.481
713.84	25.939
714.16	21.649
714.48	27.419
714.80	25.321
715.11	28.267
715.43	27.586
715.75	24.333
716.07	25.581
716.39	24.497
716.70	29.151
717.02	24.809
717.34	29.150
717.66	21.681
717.97	23.913
718.29	29.707
718.61	28.740
718.93	25.969
719.24	26.996
719.56	29.317
719.88	23.368
720.20	24.621
720.51	25.287
720.83	28.958
721.15	31.092
721.46	28.629
721.78	24.506
722.10	24.907
722.42	21.992
722.73	26.939
723.05	27.347
723.37	31.356
723.68	32.883
724.00	27.350
724.32	25.778
724.63	25.909
724.95	26.638
725.27	28.571
725.58	27.542
725.90	24.206
726.22	29.344
726.53	29.492
726.85	28.464
727.16	34.717
727.48	26.721
727.80	30.769
728.11	23.729
728.43	22.353
728.74	19.758
729.06	29.600
729.38	34.962
729.69	23.108
730.01	25.769
730.32	29.478
730.64	28.975
730.96	28.302
731.27	30.000
731.59	28.475
731.90	30.573
732.22	30.915
732.53	32.558
732.85	32.270
733.16	31.650
733.48	29.137
733.80	31.522
734.11	28.136
734.43	33.333
734.74	29.394
735.06	30.293
735.37	27.492
735.69	26.936
736.00	26.829
736.32	31.208
736.63	29.930
736.95	28.328
737.26	28.114
737.58	26.510
737.89	27.106
738.21	28.195
738.52	26.337
738.83	25.328
739.15	28.821
739.46	25.197
739.78	29.304
740.09	26.144
740.41	30.797
740.72	29.134
741.04	33.198
741.35	27.660
741.66	29.858
741.98	28.061
742.29	25.248
742.61	27.225
742.92	21.327
743.23	22.685
743.55	27.602
743.86	29.665
744.18	33.014
744.49	26.064
744.80	24.457
745.12	35.294
745.43	24.390
745.74	33.333
746.06	32.195
746.37	29.319
746.68	21.801
747.00	24.468
747.31	34.328
747.62	29.126
747.94	33.971
748.25	30.198
748.56	33.880
748.88	26.702
749.19	30.851
749.50	31.527
749.82	23.113
750.13	30.275
750.44	32.331
750.75	29.478
751.07	34.672
751.38	31.034
751.69	26.667
752.01	30.620
752.32	26.693
752.63	29.249
752.94	27.586
753.26	30.962
753.57	24.434
753.88	26.549
754.19	27.500
754.51	28.512
754.82	27.126
755.13	29.583
755.44	29.839
755.75	32.812
756.07	35.409
756.38	26.415
756.69	29.885
757.00	29.000
757.31	30.719
757.63	30.183
757.94	28.333
758.25	27.397
758.56	30.851
758.87	29.178
759.18	32.399
759.50	29.818
759.81	34.114
760.12	30.645
760.43	31.212
760.74	31.173
761.05	31.692
761.36	29.830
761.67	33.636
761.99	29.592
762.30	29.091
762.61	25.296
762.92	29.864
763.23	29.730
763.54	23.832
763.85	30.085
764.16	30.705
764.47	31.048
764.78	26.740
765.10	34.343
765.41	27.129
765.72	32.698
766.03	29.323
766.34	28.467
766.65	33.068
766.96	27.778
767.27	34.574
767.58	28.161
767.89	25.532
768.20	30.114
768.51	34.615
768.82	28.079
769.13	29.032
769.44	30.901
769.75	29.224
770.06	31.897
770.37	25.481
770.68	31.472
770.99	32.127
771.30	34.314
771.61	30.769
771.92	29.741
772.23	28.079
772.54	28.495
772.85	32.716
773.16	27.528
773.47	43.137
773.78	33.987
774.09	27.545
774.39	34.667
774.70	25.478
775.01	33.793
775.32	27.857
775.63	28.099
775.94	22.137
776.25	30.709
776.56	27.500
776.87	30.769
777.18	26.496
777.48	31.034
777.79	23.478
778.10	29.524
778.41	24.324
778.72	30.952
779.03	34.586
779.34	36.170
779.65	37.671
779.95	35.616
780.26	35.172
780.57	31.707
780.88	21.260
781.19	27.586
781.50	27.132
781.80	27.219
782.11	25.157
782.42	37.692
782.73	25.899
783.04	28.148
783.34	27.083
783.65	25.641
783.96	32.787
784.27	30.345
784.57	31.707
784.88	28.125
785.19	37.000
785.50	39.000
785.81	30.172
786.11	27.586
786.42	29.126
786.73	30.909
787.04	30.612
787.34	26.786
787.65	33.333
787.96	23.894
788.26	30.000
788.57	28.205
788.88	35.156
789.19	28.571
789.49	32.174
789.80	33.673
790.11	31.313
790.41	30.000
790.72	40.217
791.03	26.136
791.33	35.000
791.64	31.250
791.95	29.070
792.25	29.787
792.56	31.461
792.87	32.877
793.17	36.232
793.48	32.000
793.79	32.500
794.09	38.750
794.40	24.528
794.70	27.184
795.01	18.699
795.32	32.479
795.62	25.714
795.93	38.235
796.23	39.623
796.54	31.250
796.85	33.824
797.15	16.901
797.46	29.167
797.76	48.485
798.07	30.233
798.37	34.211
798.68	6.061
798.99	19.753
799.29	25.714
799.60	21.739
799.90	40.000
800.21	47.541
800.51	23.077
800.82	35.593
801.12	36.232
801.43	34.426
801.73	44.444
802.04	32.000
802.34	20.896
802.65	40.385
802.95	16.071
803.26	13.462
803.56	27.451
803.87	-10.870
804.17	24.000
804.48	46.032
804.78	31.481
805.09	45.652
805.39	31.111
805.70	24.074
806.00	0.000
806.30	35.211
806.61	34.286
806.91	11.111
807.22	31.579
807.52	38.667
807.83	16.364
808.13	38.889
808.43	35.294
808.74	28.358
809.04	27.119
809.35	7.692
809.65	28.125
809.95	18.919
810.26	9.091
810.56	30.137
810.86	2.381
811.17	36.000
811.47	63.265
811.77	21.053
812.08	25.000
812.38	16.981
812.69	27.500
812.99	69.697
813.29	36.842
813.59	8.571
813.90	47.727
814.20	-17.949
814.50	36.538
814.81	71.698
815.11	17.021
815.41	32.203
815.72	52.381
816.02	21.569
816.32	18.750
816.62	24.390
816.93	29.730
817.23	11.429
817.53	41.667
817.84	19.565
818.14	25.000
818.44	10.526
818.74	32.609
819.04	2.500
819.35	29.730
819.65	14.706
819.95	19.444
820.25	42.857
820.56	45.000
820.86	-13.793
821.16	45.000
821.46	40.426
821.76	45.000
822.07	32.558
822.37	18.919
822.67	12.500
822.97	40.476
823.27	28.571
823.57	16.000
823.88	25.926
824.18	60.714
824.48	52.941
824.78	35.484
825.08	60.870
825.38	51.515
825.69	41.667
825.99	26.316
826.29	25.000
826.59	46.667
826.89	0.000
827.19	26.087
827.49	22.500
827.79	71.429
828.09	64.286
828.39	57.576
828.70	64.865
829.00	17.857
829.30	57.143
829.60	36.667
829.90	34.375
830.20	44.737
830.50	59.259
830.80	39.130
831.10	27.273
831.40	75.758
831.70	54.839
832.00	47.619
832.30	85.714
832.60	83.333
832.90	3.448
833.20	5.000
833.50	51.515
833.80	25.926
834.10	11.538
834.40	40.625
834.70	100.000
835.00	15.789
835.30	88.462
835.60	66.667
835.90	35.484
836.20	68.182
836.50	67.857
836.80	7.692
837.10	21.429
837.40	-133.333
837.70	45.455
838.00	36.364
838.30	21.739
838.60	23.077
838.90	40.909
839.19	28.571
839.49	43.333
839.79	69.231
840.09	50.000
840.39	75.000
840.69	28.571
840.99	19.231
841.29	47.368
841.59	-80.000
841.88	54.545
842.18	20.000
842.48	50.000
842.78	46.667
843.08	59.259
843.38	20.000
843.68	34.783
843.97	33.333
844.27	-13.333
844.57	55.000
844.87	61.111
845.17	52.381
845.47	26.667
845.76	57.143
846.06	29.412
846.36	40.000
846.66	57.143
846.96	53.333
847.25	-50.000
847.55	42.857
847.85	-25.000
848.15	27.273
848.44	-166.667
848.74	60.000
849.04	29.630
849.34	18.182
849.63	-100.000
849.93	-200.000
850.23	5.556
850.53	50.000
850.82	-38.462
851.12	100.000
851.42	33.333
851.71	26.923
852.01	21.429
852.31	150.000
852.61	9.091
852.90	10.000
853.20	47.368
853.50	66.667
853.79	34.783
854.09	58.333
854.39	84.211
854.68	20.833
854.98	38.710
855.28	88.462
855.57	100.000
855.87	38.889
856.17	37.037
856.46	28.571
856.76	26.667
857.05	22.222
857.35	60.000
857.65	77.778
857.94	107.692
858.24	41.379
858.53	22.222
858.83	59.259
859.13	81.818
859.42	30.435
859.72	25.000
860.01	-200.000
860.31	84.000
860.60	42.857
860.90	-133.333
861.20	20.000
861.49	-350.000
861.79	46.667
862.08	50.000
862.38	146.667
862.67	140.000
862.97	83.333
863.26	-8.333
863.56	111.111
863.85	-233.333
864.15	61.111
864.44	-10.000
864.74	78.571
865.03	-75.000
865.33	-40.000
865.62	133.333
865.92	58.333
866.21	33.333
866.51	87.500
866.80	54.545
867.10	-150.000
867.39	91.667
867.69	0.000
867.98	84.615
868.27	-266.667
868.57	6.667
868.86	44.444
869.16	76.923
869.45	93.333
869.75	0.000
870.04	0.000
870.33	14.286
870.63	23.810
870.92	33.333
871.22	-160.000
871.51	300.000
871.80	122.222
872.10	400.000
>>>>>End Processed Spectral Data<<<<<
