SpectraSuite Data File
++++++++++++++++++++++++++++++++++++
Date: Fri May 15 20:17:24 PDT 2015
User: schluterlab
Dark Spectrum Present: Yes
Reference Spectrum Present: Yes
Number of Sampled Component Spectra: 1
Spectrometers: USB2E3373
Integration Time (usec): 3000 (USB2E3373)
Spectra Averaged: 3 (USB2E3373)
Boxcar Smoothing: 0 (USB2E3373)
Correct for Electrical Dark: No (USB2E3373)
Strobe/Lamp Enabled: No (USB2E3373)
Correct for Detector Non-linearity: No (USB2E3373)
Correct for Stray Light: No (USB2E3373)
Number of Pixels in Processed Spectrum: 2048
>>>>>Begin Processed Spectral Data<<<<<
178.53	0.000
178.91	0.000
179.29	0.000
179.67	-400.000
180.04	100.000
180.42	125.000
180.80	-400.000
181.18	33.333
181.56	-0.000
181.94	150.000
182.31	800.000
182.69	-160.000
183.07	-600.000
183.45	-100.000
183.83	50.000
184.20	-27.273
184.58	77.778
184.96	-150.000
185.34	66.667
185.72	-300.000
186.09	7.692
186.47	-300.000
186.85	116.667
187.23	88.889
187.61	200.000
187.98	-33.333
188.36	33.333
188.74	-100.000
189.12	29.412
189.49	11.111
189.87	0.000
190.25	-7.143
190.63	-200.000
191.00	-233.333
191.38	-26.316
191.76	150.000
192.14	50.000
192.51	300.000
192.89	44.444
193.27	114.286
193.65	366.667
194.02	136.364
194.40	110.000
194.78	-37.500
195.15	16.667
195.53	-162.500
195.91	175.000
196.29	-225.000
196.66	130.769
197.04	200.000
197.42	-111.111
197.79	-166.667
198.17	-53.846
198.55	1700.000
198.92	-133.333
199.30	-500.000
199.68	-260.000
200.05	166.667
200.43	0.000
200.81	0.000
201.18	-100.000
201.56	1200.000
201.94	-300.000
202.31	-0.000
202.69	-220.000
203.07	200.000
203.44	500.000
203.82	0.000
204.19	28.571
204.57	-300.000
204.95	100.000
205.32	-10.000
205.70	28.571
206.08	-100.000
206.45	244.444
206.83	128.571
207.20	-85.714
207.58	100.000
207.96	-300.000
208.33	-130.000
208.71	-150.000
209.08	-283.333
209.46	-400.000
209.84	20.000
210.21	-800.000
210.59	42.857
210.96	33.333
211.34	50.000
211.71	20.000
212.09	-128.571
212.46	-1800.000
212.84	0.000
213.22	0.000
213.59	400.000
213.97	100.000
214.34	0.000
214.72	16.667
215.09	350.000
215.47	-30.769
215.84	-36.364
216.22	-233.333
216.59	137.500
216.97	-100.000
217.34	25.000
217.72	-160.000
218.09	-75.000
218.47	50.000
218.84	-400.000
219.22	66.667
219.59	-40.000
219.97	233.333
220.34	250.000
220.72	-157.143
221.09	-200.000
221.47	-300.000
221.84	-700.000
222.22	-850.000
222.59	81.818
222.97	-33.333
223.34	-66.667
223.72	7.143
224.09	23.810
224.46	3.571
224.84	300.000
225.21	0.000
225.59	66.667
225.96	-250.000
226.34	125.000
226.71	-171.429
227.08	-16.667
227.46	-100.000
227.83	-600.000
228.21	-33.333
228.58	-72.727
228.95	-87.500
229.33	70.000
229.70	25.000
230.08	0.000
230.45	-128.571
230.82	0.000
231.20	-53.333
231.57	50.000
231.95	-42.857
232.32	-60.000
232.69	35.714
233.07	-200.000
233.44	-140.000
233.81	-20.000
234.19	-122.222
234.56	-23.529
234.93	200.000
235.31	-150.000
235.68	-140.000
236.05	-30.769
236.43	-45.000
236.80	-23.529
237.17	15.625
237.55	10.000
237.92	3.704
238.29	8.333
238.67	23.333
239.04	-20.588
239.41	-24.390
239.79	-23.333
240.16	-7.317
240.53	-5.263
240.91	-13.043
241.28	4.762
241.65	-3.571
242.02	13.699
242.40	10.000
242.77	3.390
243.14	-3.030
243.51	1.250
243.89	0.000
244.26	-4.598
244.63	9.524
245.00	6.186
245.38	-4.124
245.75	1.124
246.12	-6.034
246.49	0.826
246.87	-1.923
247.24	-0.840
247.61	-2.632
247.98	-14.634
248.36	5.625
248.73	3.947
249.10	3.896
249.47	5.063
249.84	-0.654
250.22	0.000
250.59	5.229
250.96	8.451
251.33	-1.744
251.70	8.235
252.08	2.030
252.45	4.455
252.82	1.508
253.19	0.922
253.56	1.869
253.94	6.757
254.31	6.522
254.68	8.772
255.05	0.000
255.42	8.734
255.79	3.861
256.16	3.113
256.54	9.328
256.91	3.042
257.28	1.859
257.65	2.996
258.02	1.418
258.39	6.734
258.76	8.059
259.14	4.319
259.51	1.942
259.88	2.062
260.25	3.268
260.62	4.167
260.99	3.051
261.36	2.740
261.73	3.481
262.10	2.432
262.47	0.000
262.85	3.135
263.22	1.538
263.59	4.984
263.96	8.696
264.33	3.636
264.70	3.571
265.07	3.869
265.44	5.099
265.81	3.672
266.18	4.918
266.55	7.969
266.92	5.699
267.29	6.266
267.66	5.371
268.03	2.356
268.40	3.394
268.77	5.080
269.14	5.755
269.51	5.398
269.88	4.988
270.25	1.020
270.62	3.902
270.99	3.325
271.36	2.445
271.73	5.399
272.10	3.163
272.47	6.147
272.84	5.198
273.21	6.032
273.58	5.060
273.95	4.805
274.32	4.157
274.69	4.072
275.06	7.143
275.43	4.762
275.80	5.740
276.17	2.529
276.54	5.139
276.91	4.386
277.28	4.585
277.65	5.785
278.02	4.468
278.39	4.158
278.76	5.241
279.13	-0.207
279.50	5.042
279.87	4.536
280.23	2.151
280.60	5.848
280.97	4.848
281.34	2.692
281.71	6.366
282.08	2.658
282.45	4.110
282.82	3.861
283.19	3.288
283.56	2.890
283.92	1.898
284.29	4.038
284.66	2.326
285.03	2.554
285.40	3.781
285.77	4.569
286.14	3.971
286.51	6.273
286.87	2.925
287.24	3.131
287.61	2.293
287.98	6.316
288.35	2.600
288.72	3.678
289.08	2.604
289.45	2.812
289.82	5.070
290.19	2.901
290.56	2.401
290.93	2.862
291.29	2.311
291.66	4.724
292.03	4.306
292.40	2.581
292.77	3.349
293.13	2.435
293.50	2.428
293.87	3.206
294.24	2.937
294.60	2.832
294.97	4.315
295.34	1.840
295.71	2.534
296.08	4.185
296.44	2.134
296.81	3.056
297.18	3.913
297.55	4.743
297.91	4.110
298.28	4.881
298.65	3.935
299.02	3.774
299.38	1.368
299.75	3.310
300.12	3.010
300.48	3.294
300.85	3.422
301.22	3.896
301.59	3.289
301.95	4.304
302.32	3.761
302.69	3.358
303.05	2.351
303.42	2.740
303.79	3.972
304.15	3.823
304.52	2.735
304.89	2.807
305.25	2.542
305.62	3.034
305.99	3.626
306.35	2.659
306.72	2.137
307.09	2.509
307.45	3.674
307.82	2.662
308.19	3.020
308.55	3.599
308.92	4.139
309.29	3.017
309.65	2.799
310.02	2.860
310.38	4.281
310.75	3.825
311.12	4.090
311.48	3.606
311.85	4.503
312.22	2.532
312.58	3.609
312.95	4.269
313.31	3.106
313.68	3.246
314.05	4.286
314.41	4.536
314.78	4.639
315.14	5.344
315.51	5.383
315.87	3.893
316.24	6.067
316.61	4.823
316.97	5.754
317.34	5.469
317.70	5.067
318.07	5.288
318.43	6.176
318.80	6.250
319.16	5.859
319.53	7.977
319.89	6.496
320.26	7.692
320.62	8.325
320.99	6.681
321.35	8.222
321.72	9.346
322.08	9.265
322.45	9.340
322.81	9.823
323.18	10.402
323.54	10.907
323.91	10.321
324.27	13.086
324.64	13.296
325.00	13.686
325.37	15.886
325.73	14.143
326.10	14.896
326.46	15.785
326.83	16.885
327.19	17.001
327.56	17.029
327.92	18.398
328.29	18.214
328.65	20.000
329.01	19.118
329.38	21.382
329.74	19.830
330.11	20.853
330.47	22.542
330.84	21.058
331.20	24.905
331.56	23.889
331.93	23.836
332.29	24.840
332.66	23.982
333.02	23.606
333.38	24.106
333.75	25.458
334.11	24.888
334.48	24.207
334.84	27.015
335.20	26.898
335.57	24.751
335.93	25.745
336.29	26.888
336.66	25.795
337.02	24.257
337.38	26.111
337.75	26.909
338.11	27.412
338.47	27.190
338.84	26.617
339.20	27.148
339.56	28.716
339.93	28.111
340.29	27.615
340.65	28.763
341.02	27.748
341.38	27.168
341.74	27.032
342.11	26.343
342.47	27.313
342.83	28.114
343.20	27.003
343.56	28.696
343.92	27.724
344.28	26.900
344.65	25.993
345.01	26.793
345.37	27.754
345.73	28.368
346.10	28.645
346.46	28.007
346.82	28.069
347.19	27.930
347.55	27.151
347.91	29.126
348.27	27.243
348.63	27.683
349.00	27.728
349.36	28.346
349.72	29.022
350.08	28.115
350.45	27.215
350.81	27.907
351.17	28.664
351.53	27.347
351.89	26.507
352.26	27.440
352.62	28.871
352.98	28.193
353.34	26.973
353.70	28.964
354.07	28.387
354.43	28.663
354.79	28.984
355.15	29.127
355.51	28.323
355.87	28.398
356.24	27.325
356.60	28.860
356.96	29.286
357.32	28.994
357.68	27.834
358.04	28.514
358.40	28.698
358.77	28.868
359.13	28.343
359.49	28.505
359.85	29.095
360.21	27.990
360.57	28.921
360.93	29.425
361.29	27.568
361.66	29.702
362.02	29.091
362.38	29.094
362.74	28.539
363.10	30.023
363.46	30.467
363.82	29.226
364.18	29.520
364.54	29.559
364.90	30.179
365.26	30.058
365.62	30.730
365.98	31.012
366.35	31.464
366.71	31.486
367.07	31.060
367.43	30.482
367.79	31.025
368.15	30.581
368.51	31.464
368.87	29.864
369.23	30.469
369.59	31.195
369.95	32.111
370.31	30.997
370.67	32.090
371.03	30.919
371.39	31.218
371.75	31.795
372.11	31.526
372.47	32.322
372.83	32.576
373.19	33.024
373.55	32.202
373.91	32.109
374.27	32.814
374.63	32.448
374.99	33.191
375.35	32.939
375.71	33.986
376.07	33.708
376.42	33.197
376.78	34.295
377.14	34.529
377.50	35.193
377.86	34.203
378.22	34.844
378.58	35.256
378.94	35.161
379.30	35.184
379.66	36.426
380.02	35.193
380.38	36.214
380.74	36.266
381.09	37.117
381.45	36.758
381.81	36.212
382.17	36.041
382.53	35.603
382.89	38.293
383.25	38.332
383.61	37.500
383.97	37.143
384.32	36.961
384.68	38.700
385.04	37.194
385.40	37.523
385.76	39.371
386.12	39.133
386.48	39.591
386.83	39.442
387.19	39.560
387.55	39.272
387.91	39.731
388.27	38.156
388.62	40.151
388.98	39.963
389.34	39.288
389.70	40.398
390.06	38.955
390.42	40.026
390.77	39.765
391.13	39.344
391.49	40.103
391.85	40.676
392.20	40.301
392.56	40.814
392.92	40.106
393.28	41.215
393.64	40.000
393.99	42.320
394.35	39.975
394.71	41.060
395.07	40.226
395.42	40.923
395.78	41.173
396.14	40.984
396.50	41.027
396.85	42.176
397.21	41.604
397.57	41.191
397.92	42.540
398.28	41.264
398.64	40.964
399.00	41.817
399.35	41.479
399.71	41.758
400.07	41.294
400.42	41.432
400.78	41.641
401.14	40.774
401.49	41.334
401.85	41.316
402.21	41.145
402.57	41.438
402.92	39.962
403.28	40.476
403.63	40.353
403.99	41.135
404.35	42.536
404.70	40.119
405.06	40.599
405.42	41.392
405.77	40.616
406.13	40.687
406.49	40.379
406.84	42.115
407.20	41.902
407.55	40.953
407.91	40.642
408.27	41.109
408.62	42.215
408.98	40.665
409.34	41.884
409.69	41.602
410.05	40.579
410.40	40.741
410.76	40.772
411.11	41.125
411.47	41.683
411.83	41.180
412.18	41.184
412.54	40.387
412.89	40.825
413.25	41.516
413.60	41.491
413.96	40.675
414.31	39.634
414.67	40.218
415.03	41.079
415.38	40.405
415.74	41.303
416.09	42.587
416.45	40.918
416.80	42.102
417.16	42.472
417.51	41.106
417.87	40.939
418.22	41.839
418.58	41.204
418.93	42.069
419.29	40.653
419.64	41.672
420.00	42.254
420.35	42.328
420.71	42.345
421.06	41.314
421.42	42.067
421.77	42.486
422.12	42.963
422.48	41.960
422.83	41.879
423.19	42.889
423.54	41.329
423.90	41.048
424.25	42.997
424.61	42.166
424.96	41.928
425.31	42.865
425.67	43.310
426.02	43.581
426.38	42.768
426.73	43.947
427.09	43.861
427.44	43.588
427.79	42.958
428.15	42.961
428.50	43.913
428.85	43.366
429.21	43.520
429.56	43.019
429.92	42.938
430.27	43.258
430.62	44.171
430.98	43.312
431.33	43.323
431.68	43.276
432.04	44.326
432.39	43.183
432.74	43.115
433.10	43.908
433.45	44.265
433.80	44.167
434.16	43.213
434.51	44.839
434.86	45.006
435.22	45.261
435.57	44.791
435.92	44.910
436.28	42.993
436.63	43.982
436.98	43.048
437.34	44.586
437.69	45.379
438.04	44.615
438.39	44.411
438.75	45.659
439.10	44.765
439.45	45.831
439.81	44.709
440.16	46.081
440.51	45.851
440.86	47.009
441.22	45.136
441.57	45.254
441.92	47.114
442.27	46.619
442.63	47.163
442.98	45.778
443.33	46.689
443.68	45.729
444.03	45.753
444.39	46.139
444.74	45.206
445.09	45.991
445.44	46.154
445.79	47.911
446.15	45.870
446.50	45.591
446.85	46.759
447.20	45.673
447.55	46.540
447.91	45.798
448.26	46.500
448.61	45.769
448.96	47.504
449.31	46.301
449.66	45.412
450.02	46.720
450.37	47.125
450.72	47.251
451.07	47.405
451.42	46.879
451.77	46.896
452.12	47.249
452.47	45.589
452.83	47.762
453.18	45.794
453.53	46.587
453.88	47.845
454.23	46.220
454.58	47.481
454.93	47.809
455.28	46.476
455.63	47.179
455.98	47.865
456.34	47.446
456.69	48.348
457.04	47.322
457.39	47.448
457.74	46.614
458.09	46.557
458.44	46.343
458.79	46.443
459.14	46.968
459.49	48.000
459.84	46.870
460.19	46.481
460.54	49.205
460.89	47.273
461.24	47.267
461.59	47.090
461.94	46.855
462.29	47.889
462.64	48.505
462.99	47.732
463.34	47.149
463.69	47.876
464.04	48.426
464.39	47.241
464.74	46.994
465.09	49.033
465.44	48.355
465.79	45.635
466.14	46.921
466.49	47.499
466.84	47.591
467.19	48.373
467.54	47.510
467.89	47.821
468.24	48.114
468.59	49.460
468.94	47.492
469.29	48.590
469.64	49.624
469.99	48.984
470.34	46.962
470.68	49.292
471.03	49.540
471.38	48.645
471.73	48.249
472.08	47.015
472.43	48.591
472.78	46.813
473.13	49.184
473.48	47.752
473.83	47.447
474.17	48.122
474.52	47.735
474.87	48.970
475.22	48.200
475.57	49.125
475.92	48.711
476.27	48.778
476.61	48.900
476.96	47.462
477.31	49.324
477.66	48.146
478.01	48.737
478.36	47.985
478.70	48.450
479.05	48.626
479.40	49.232
479.75	48.279
480.10	47.568
480.45	48.450
480.79	48.187
481.14	48.719
481.49	47.783
481.84	48.407
482.19	48.831
482.53	48.489
482.88	48.449
483.23	48.560
483.58	48.019
483.92	47.822
484.27	47.311
484.62	48.543
484.97	48.010
485.31	47.507
485.66	47.018
486.01	47.044
486.36	47.505
486.70	48.036
487.05	48.425
487.40	47.751
487.75	47.437
488.09	46.848
488.44	46.871
488.79	47.777
489.13	47.957
489.48	47.969
489.83	47.220
490.17	47.640
490.52	48.868
490.87	47.571
491.22	48.424
491.56	49.004
491.91	47.084
492.26	48.955
492.60	47.985
492.95	49.041
493.30	48.412
493.64	49.460
493.99	47.923
494.34	48.641
494.68	48.143
495.03	48.418
495.37	48.528
495.72	48.713
496.07	49.463
496.41	48.726
496.76	49.056
497.11	47.182
497.45	49.069
497.80	48.991
498.14	47.690
498.49	48.197
498.84	47.854
499.18	48.143
499.53	48.611
499.87	48.444
500.22	49.357
500.56	49.117
500.91	49.297
501.26	48.443
501.60	48.992
501.95	48.811
502.29	48.668
502.64	49.759
502.98	49.235
503.33	47.550
503.67	48.482
504.02	49.169
504.36	48.738
504.71	48.586
505.06	48.515
505.40	49.848
505.75	49.175
506.09	47.745
506.44	50.000
506.78	49.133
507.13	48.656
507.47	48.460
507.82	49.626
508.16	48.019
508.51	48.321
508.85	49.241
509.19	48.270
509.54	49.491
509.88	49.191
510.23	49.005
510.57	49.332
510.92	48.134
511.26	49.645
511.61	48.405
511.95	48.877
512.30	50.222
512.64	49.471
512.98	48.737
513.33	49.245
513.67	49.744
514.02	52.059
514.36	50.971
514.70	50.641
515.05	50.470
515.39	49.646
515.74	50.359
516.08	50.568
516.42	50.412
516.77	50.790
517.11	50.267
517.46	50.868
517.80	49.702
518.14	49.479
518.49	50.120
518.83	50.851
519.17	49.848
519.52	49.556
519.86	50.360
520.20	50.851
520.55	49.656
520.89	51.443
521.23	49.715
521.58	51.420
521.92	51.795
522.26	51.854
522.61	52.338
522.95	51.589
523.29	49.936
523.64	50.889
523.98	51.264
524.32	51.611
524.66	51.536
525.01	52.338
525.35	51.264
525.69	50.236
526.04	52.116
526.38	52.205
526.72	49.902
527.06	49.935
527.41	51.253
527.75	51.743
528.09	50.100
528.43	53.140
528.78	50.957
529.12	52.258
529.46	50.292
529.80	49.652
530.15	52.475
530.49	51.313
530.83	52.052
531.17	50.638
531.51	52.257
531.86	51.326
532.20	51.983
532.54	50.919
532.88	51.129
533.22	51.277
533.57	51.048
533.91	50.261
534.25	52.344
534.59	49.775
534.93	48.962
535.27	50.508
535.62	50.551
535.96	51.402
536.30	51.055
536.64	51.551
536.98	50.523
537.32	51.351
537.66	51.823
538.01	51.818
538.35	50.347
538.69	51.531
539.03	50.239
539.37	51.615
539.71	51.670
540.05	50.849
540.39	51.939
540.73	51.255
541.07	53.108
541.42	51.546
541.76	51.686
542.10	51.480
542.44	52.120
542.78	50.379
543.12	51.099
543.46	50.904
543.80	53.158
544.14	50.067
544.48	49.967
544.82	50.854
545.16	51.025
545.50	51.135
545.84	52.479
546.18	50.922
546.52	51.911
546.86	51.114
547.20	50.644
547.54	51.237
547.88	51.155
548.22	50.427
548.56	50.462
548.90	51.550
549.24	50.482
549.58	51.410
549.92	50.036
550.26	51.282
550.60	53.011
550.94	52.054
551.28	51.005
551.62	51.923
551.96	50.602
552.30	51.096
552.64	50.141
552.98	50.141
553.32	49.929
553.66	50.581
554.00	52.263
554.34	51.551
554.68	49.926
555.02	51.488
555.36	51.832
555.69	50.330
556.03	51.106
556.37	50.890
556.71	52.347
557.05	51.305
557.39	50.781
557.73	51.724
558.07	51.282
558.41	51.761
558.75	51.364
559.08	51.694
559.42	51.270
559.76	52.122
560.10	51.300
560.44	49.963
560.78	51.049
561.12	51.199
561.45	51.862
561.79	51.050
562.13	51.952
562.47	50.719
562.81	51.153
563.15	50.846
563.48	52.192
563.82	51.544
564.16	51.880
564.50	49.730
564.84	50.803
565.17	49.765
565.51	52.801
565.85	52.881
566.19	50.862
566.52	51.877
566.86	50.707
567.20	50.125
567.54	51.582
567.88	51.904
568.21	50.848
568.55	50.761
568.89	50.924
569.23	51.276
569.56	49.781
569.90	49.817
570.24	48.828
570.57	50.291
570.91	49.669
571.25	49.490
571.59	48.739
571.92	47.496
572.26	47.524
572.60	48.000
572.93	47.725
573.27	48.558
573.61	48.389
573.95	48.252
574.28	47.881
574.62	47.496
574.96	47.420
575.29	47.855
575.63	46.748
575.97	48.062
576.30	48.018
576.64	47.576
576.98	47.902
577.31	48.734
577.65	48.188
577.98	48.183
578.32	47.758
578.66	46.809
578.99	46.912
579.33	46.965
579.67	47.666
580.00	46.582
580.34	47.438
580.67	46.711
581.01	47.358
581.35	47.136
581.68	47.550
582.02	47.734
582.35	47.484
582.69	47.916
583.02	47.362
583.36	47.622
583.70	48.728
584.03	48.596
584.37	48.730
584.70	47.637
585.04	47.513
585.37	47.740
585.71	48.358
586.04	47.756
586.38	47.666
586.72	48.666
587.05	48.469
587.39	49.091
587.72	48.496
588.06	47.938
588.39	48.391
588.73	48.016
589.06	49.870
589.40	48.324
589.73	48.667
590.07	49.207
590.40	49.303
590.73	49.259
591.07	49.406
591.40	49.599
591.74	49.140
592.07	49.768
592.41	50.618
592.74	48.307
593.08	47.712
593.41	48.731
593.75	48.250
594.08	47.923
594.41	48.508
594.75	48.092
595.08	48.581
595.42	48.841
595.75	49.831
596.09	49.335
596.42	48.987
596.75	49.778
597.09	50.159
597.42	48.555
597.75	49.977
598.09	49.072
598.42	48.736
598.76	49.206
599.09	48.958
599.42	47.632
599.76	48.232
600.09	47.926
600.42	48.105
600.76	48.031
601.09	48.664
601.42	48.570
601.76	48.789
602.09	48.680
602.42	50.337
602.76	49.363
603.09	48.713
603.42	51.547
603.76	48.468
604.09	49.089
604.42	49.746
604.76	49.755
605.09	48.903
605.42	49.074
605.75	48.643
606.09	48.535
606.42	48.040
606.75	48.182
607.09	48.044
607.42	48.383
607.75	48.179
608.08	48.023
608.42	48.424
608.75	49.783
609.08	49.128
609.41	49.848
609.75	49.748
610.08	48.877
610.41	48.551
610.74	49.537
611.07	50.233
611.41	49.715
611.74	50.959
612.07	49.946
612.40	50.000
612.73	50.339
613.07	49.663
613.40	50.274
613.73	49.636
614.06	49.249
614.39	48.787
614.72	49.524
615.06	49.665
615.39	49.072
615.72	47.955
616.05	50.112
616.38	48.148
616.71	51.682
617.05	49.969
617.38	49.403
617.71	49.874
618.04	51.048
618.37	51.135
618.70	50.297
619.03	51.875
619.36	50.217
619.69	53.374
620.03	51.351
620.36	50.358
620.69	50.321
621.02	51.300
621.35	52.116
621.68	49.660
622.01	52.083
622.34	51.317
622.67	51.183
623.00	52.067
623.33	52.591
623.66	51.683
623.99	49.395
624.32	51.103
624.65	50.827
624.99	51.016
625.32	50.644
625.65	51.767
625.98	50.927
626.31	49.875
626.64	52.166
626.97	51.658
627.30	50.963
627.63	51.040
627.96	50.584
628.29	52.174
628.62	51.524
628.95	51.202
629.28	53.024
629.61	52.044
629.94	51.613
630.26	50.395
630.59	51.821
630.92	51.282
631.25	51.692
631.58	53.855
631.91	50.877
632.24	53.670
632.57	54.773
632.90	52.195
633.23	53.412
633.56	53.652
633.89	52.158
634.22	53.827
634.55	52.351
634.88	52.363
635.20	53.718
635.53	54.933
635.86	52.276
636.19	51.746
636.52	52.168
636.85	51.117
637.18	53.333
637.51	52.579
637.83	52.300
638.16	54.297
638.49	49.864
638.82	54.211
639.15	52.917
639.48	54.058
639.81	53.278
640.13	53.535
640.46	52.915
640.79	54.345
641.12	51.994
641.45	52.553
641.77	52.000
642.10	55.450
642.43	53.698
642.76	51.320
643.09	55.412
643.41	55.016
643.74	55.189
644.07	52.709
644.40	54.730
644.73	54.291
645.05	52.685
645.38	55.026
645.71	53.901
646.04	56.194
646.36	53.723
646.69	56.295
647.02	57.656
647.35	55.037
647.67	53.016
648.00	55.784
648.33	53.584
648.66	55.254
648.98	52.764
649.31	51.405
649.64	53.532
649.96	55.429
650.29	54.855
650.62	52.479
650.94	55.926
651.27	50.838
651.60	56.216
651.92	53.147
652.25	52.220
652.58	54.500
652.90	54.202
653.23	53.950
653.56	53.299
653.88	52.577
654.21	51.664
654.54	51.104
654.86	53.820
655.19	52.193
655.52	53.173
655.84	47.129
656.17	51.145
656.49	68.886
656.82	71.772
657.15	55.278
657.47	41.129
657.80	30.854
658.13	30.260
658.45	47.086
658.78	46.563
659.10	46.156
659.43	45.642
659.75	47.361
660.08	47.172
660.41	50.460
660.73	49.586
661.06	51.473
661.38	52.838
661.71	53.593
662.03	56.223
662.36	53.846
662.68	52.655
663.01	53.275
663.33	55.220
663.66	55.116
663.98	53.023
664.31	53.731
664.63	53.456
664.96	49.130
665.28	53.422
665.61	53.896
665.93	52.391
666.26	53.579
666.58	50.559
666.91	53.882
667.23	54.953
667.56	54.976
667.88	52.758
668.21	56.325
668.53	54.610
668.86	55.660
669.18	52.830
669.50	52.300
669.83	51.395
670.15	48.019
670.48	53.349
670.80	54.608
671.13	51.454
671.45	49.772
671.77	52.790
672.10	50.891
672.42	50.562
672.75	49.911
673.07	52.773
673.39	50.092
673.72	49.704
674.04	50.833
674.37	53.390
674.69	50.964
675.01	53.778
675.34	50.000
675.66	54.861
675.98	54.989
676.31	53.440
676.63	54.869
676.95	51.364
677.28	54.118
677.60	54.940
677.92	55.734
678.25	51.641
678.57	49.351
678.89	52.311
679.22	52.796
679.54	48.996
679.86	53.082
680.18	52.816
680.51	48.106
680.83	52.087
681.15	52.400
681.48	51.230
681.80	51.033
682.12	54.435
682.44	51.464
682.77	50.773
683.09	51.487
683.41	48.864
683.73	50.461
684.06	51.549
684.38	47.527
684.70	52.288
685.02	52.697
685.34	49.802
685.67	47.280
685.99	50.995
686.31	49.204
686.63	50.278
686.96	47.719
687.28	49.091
687.60	48.669
687.92	51.111
688.24	50.605
688.56	49.127
688.89	51.562
689.21	50.444
689.53	52.668
689.85	50.930
690.17	50.893
690.49	49.409
690.82	47.330
691.14	50.000
691.46	51.168
691.78	50.225
692.10	48.602
692.42	52.597
692.74	49.145
693.06	51.126
693.39	48.869
693.71	49.548
694.03	50.346
694.35	50.701
694.67	50.253
694.99	46.997
695.31	53.003
695.63	49.750
695.95	47.727
696.27	50.259
696.59	52.778
696.91	51.541
697.23	45.758
697.56	49.257
697.88	50.753
698.20	49.886
698.52	47.294
698.84	49.282
699.16	48.750
699.48	51.378
699.80	50.868
700.12	48.248
700.44	51.261
700.76	48.256
701.08	50.303
701.40	49.398
701.72	54.321
702.04	54.455
702.36	57.191
702.68	48.348
703.00	48.182
703.32	48.974
703.64	44.068
703.96	49.275
704.28	49.080
704.60	50.476
704.91	47.634
705.23	46.512
705.55	55.477
705.87	54.874
706.19	55.185
706.51	53.608
706.83	49.518
707.15	49.844
707.47	51.261
707.79	45.573
708.11	49.000
708.43	50.500
708.74	49.612
709.06	50.141
709.38	50.765
709.70	47.337
710.02	50.318
710.34	52.941
710.66	45.192
710.98	46.358
711.29	48.525
711.61	52.542
711.93	49.186
712.25	55.326
712.57	49.084
712.89	50.373
713.20	49.827
713.52	47.735
713.84	53.925
714.16	51.890
714.48	50.645
714.80	49.359
715.11	49.240
715.43	48.903
715.75	46.667
716.07	48.837
716.39	46.644
716.70	47.601
717.02	50.763
717.34	48.988
717.66	52.655
717.97	50.000
718.29	52.301
718.61	50.000
718.93	47.674
719.24	51.711
719.56	49.799
719.88	47.079
720.20	49.621
720.51	42.912
720.83	49.035
721.15	52.941
721.46	50.000
721.78	45.850
722.10	46.468
722.42	49.378
722.73	52.653
723.05	55.510
723.37	52.542
723.68	53.604
724.00	45.299
724.32	42.667
724.63	46.818
724.95	48.908
725.27	46.083
725.58	49.153
725.90	45.635
726.22	47.876
726.53	49.492
726.85	50.187
727.16	52.453
727.48	51.012
727.80	49.798
728.11	43.220
728.43	45.098
728.74	43.952
729.06	56.400
729.38	46.241
729.69	42.231
730.01	48.846
730.32	50.373
730.64	46.996
730.96	49.434
731.27	45.333
731.59	46.441
731.90	45.541
732.22	49.527
732.53	48.173
732.85	45.390
733.16	51.178
733.48	42.446
733.80	46.377
734.11	47.119
734.43	49.828
734.74	47.273
735.06	40.717
735.37	45.317
735.69	48.485
736.00	44.599
736.32	44.295
736.63	47.887
736.95	47.440
737.26	42.349
737.58	47.651
737.89	45.788
738.21	45.489
738.52	46.502
738.83	48.472
739.15	48.908
739.46	51.575
739.78	43.590
740.09	47.059
740.41	49.275
740.72	45.669
741.04	42.915
741.35	51.064
741.66	43.602
741.98	44.388
742.29	48.020
742.61	45.550
742.92	41.706
743.23	45.370
743.55	41.176
743.86	47.368
744.18	50.718
744.49	39.362
744.80	46.196
745.12	58.824
745.43	44.878
745.74	47.396
746.06	45.854
746.37	46.073
746.68	45.498
747.00	46.277
747.31	52.736
747.62	41.262
747.94	45.455
748.25	47.525
748.56	50.273
748.88	44.503
749.19	50.532
749.50	55.172
749.82	41.038
750.13	44.495
750.44	45.113
750.75	46.642
751.07	49.635
751.38	44.828
751.69	42.745
752.01	47.287
752.32	46.215
752.63	43.874
752.94	42.241
753.26	55.649
753.57	45.249
753.88	46.460
754.19	41.250
754.51	42.975
754.82	44.939
755.13	48.750
755.44	45.161
755.75	46.094
756.07	46.693
756.38	45.660
756.69	44.444
757.00	48.333
757.31	44.444
757.63	42.683
757.94	41.944
758.25	40.548
758.56	41.223
758.87	41.643
759.18	41.433
759.50	44.727
759.81	47.826
760.12	45.484
760.43	43.333
760.74	49.383
761.05	44.308
761.36	41.761
761.67	45.455
761.99	45.238
762.30	41.818
762.61	45.455
762.92	46.606
763.23	45.045
763.54	42.056
763.85	42.373
764.16	43.154
764.47	36.694
764.78	38.828
765.10	43.771
765.41	40.063
765.72	38.730
766.03	44.737
766.34	41.971
766.65	41.434
766.96	48.485
767.27	44.681
767.58	44.828
767.89	48.936
768.20	44.318
768.51	41.758
768.82	46.798
769.13	36.866
769.44	43.777
769.75	37.443
770.06	39.224
770.37	37.981
770.68	47.716
770.99	38.462
771.30	45.588
771.61	43.439
771.92	44.828
772.23	47.783
772.54	45.699
772.85	45.679
773.16	50.562
773.47	49.020
773.78	43.137
774.09	44.311
774.39	45.333
774.70	47.134
775.01	48.966
775.32	39.286
775.63	47.934
775.94	44.275
776.25	35.433
776.56	42.500
776.87	42.308
777.18	36.752
777.48	42.241
777.79	39.130
778.10	30.476
778.41	32.432
778.72	45.238
779.03	40.602
779.34	41.844
779.65	52.740
779.95	44.521
780.26	44.138
780.57	30.894
780.88	44.094
781.19	45.690
781.50	45.736
781.80	41.420
782.11	35.849
782.42	36.923
782.73	41.727
783.04	42.963
783.34	34.722
783.65	40.171
783.96	39.344
784.27	44.828
784.57	30.894
784.88	39.844
785.19	42.000
785.50	47.000
785.81	45.690
786.11	36.207
786.42	31.068
786.73	48.182
787.04	50.000
787.34	46.429
787.65	38.095
787.96	38.938
788.26	45.455
788.57	33.333
788.88	48.437
789.19	33.333
789.49	40.000
789.80	46.939
790.11	39.394
790.41	36.364
790.72	35.870
791.03	37.500
791.33	38.750
791.64	41.250
791.95	48.837
792.25	39.362
792.56	44.944
792.87	42.466
793.17	34.783
793.48	40.000
793.79	37.500
794.09	55.000
794.40	33.962
794.70	35.922
795.01	32.520
795.32	33.333
795.62	38.095
795.93	37.255
796.23	43.396
796.54	37.500
796.85	47.059
797.15	57.746
797.46	45.833
797.76	46.970
798.07	45.349
798.37	17.105
798.68	24.242
798.99	29.630
799.29	47.143
799.60	31.884
799.90	33.333
800.21	42.623
800.51	40.000
800.82	28.814
801.12	44.928
801.43	54.098
801.73	36.508
802.04	24.000
802.34	22.388
802.65	40.385
802.95	26.786
803.26	59.615
803.56	41.176
803.87	41.304
804.17	28.000
804.48	31.746
804.78	25.926
805.09	47.826
805.39	22.222
805.70	33.333
806.00	21.053
806.30	42.254
806.61	51.429
806.91	18.056
807.22	51.316
807.52	44.000
807.83	45.455
808.13	30.556
808.43	54.412
808.74	35.821
809.04	28.814
809.35	28.846
809.65	43.750
809.95	2.703
810.26	40.909
810.56	13.699
810.86	52.381
811.17	36.000
811.47	32.653
811.77	47.368
812.08	36.364
812.38	47.170
812.69	12.500
812.99	12.121
813.29	39.474
813.59	25.714
813.90	36.364
814.20	35.897
814.50	36.538
814.81	26.415
815.11	19.149
815.41	40.678
815.72	45.238
816.02	54.902
816.32	27.083
816.62	39.024
816.93	56.757
817.23	37.143
817.53	52.083
817.84	21.739
818.14	50.000
818.44	7.895
818.74	41.304
819.04	20.000
819.35	21.622
819.65	50.000
819.95	33.333
820.25	16.667
820.56	77.500
820.86	10.345
821.16	37.500
821.46	36.170
821.76	25.000
822.07	30.233
822.37	-5.405
822.67	-6.250
822.97	38.095
823.27	10.714
823.57	56.000
823.88	25.926
824.18	32.143
824.48	29.412
824.78	12.903
825.08	56.522
825.38	15.152
825.69	12.500
825.99	34.211
826.29	38.889
826.59	0.000
826.89	-9.524
827.19	34.783
827.49	37.500
827.79	11.429
828.09	50.000
828.39	66.667
828.70	45.946
829.00	-3.571
829.30	0.000
829.60	40.000
829.90	53.125
830.20	5.263
830.50	-14.815
830.80	30.435
831.10	13.636
831.40	54.545
831.70	48.387
832.00	-9.524
832.30	-4.762
832.60	8.333
832.90	44.828
833.20	10.000
833.50	24.242
833.80	37.037
834.10	38.462
834.40	28.125
834.70	-44.444
835.00	0.000
835.30	73.077
835.60	33.333
835.90	58.065
836.20	36.364
836.50	57.143
836.80	-26.923
837.10	0.000
837.40	-266.667
837.70	18.182
838.00	-63.636
838.30	-4.348
838.60	38.462
838.90	40.909
839.19	53.571
839.49	26.667
839.79	23.077
840.09	-50.000
840.39	42.857
840.69	17.857
840.99	23.077
841.29	-63.158
841.59	0.000
841.88	36.364
842.18	70.000
842.48	-31.250
842.78	-20.000
843.08	59.259
843.38	-10.000
843.68	13.043
843.97	60.000
844.27	-60.000
844.57	0.000
844.87	11.111
845.17	-4.762
845.47	53.333
845.76	-42.857
846.06	29.412
846.36	0.000
846.66	7.143
846.96	46.667
847.25	-137.500
847.55	21.429
847.85	-25.000
848.15	-4.545
848.44	-366.667
848.74	-5.000
849.04	51.852
849.34	-18.182
849.63	-116.667
849.93	-240.000
850.23	38.889
850.53	180.000
850.82	0.000
851.12	-11.111
851.42	100.000
851.71	19.231
852.01	-50.000
852.31	0.000
852.61	-27.273
852.90	-5.000
853.20	36.842
853.50	0.000
853.79	21.739
854.09	41.667
854.39	15.789
854.68	4.167
854.98	12.903
855.28	57.692
855.57	25.000
855.87	-5.556
856.17	48.148
856.46	21.429
856.76	20.000
857.05	11.111
857.35	0.000
857.65	-33.333
857.94	15.385
858.24	37.931
858.53	11.111
858.83	29.630
859.13	27.273
859.42	-13.043
859.72	-100.000
860.01	-166.667
860.31	16.000
860.60	33.333
860.90	-133.333
861.20	13.333
861.49	-500.000
861.79	20.000
862.08	15.000
862.38	93.333
862.67	-180.000
862.97	100.000
863.26	83.333
863.56	5.556
863.85	-400.000
864.15	0.000
864.44	50.000
864.74	42.857
865.03	-25.000
865.33	0.000
865.62	50.000
865.92	91.667
866.21	-183.333
866.51	6.250
866.80	-18.182
867.10	-150.000
867.39	83.333
867.69	0.000
867.98	0.000
868.27	-166.667
868.57	46.667
868.86	0.000
869.16	-76.923
869.45	73.333
869.75	-800.000
870.04	0.000
870.33	-85.714
870.63	52.381
870.92	433.333
871.22	-120.000
871.51	-300.000
871.80	88.889
872.10	200.000
>>>>>End Processed Spectral Data<<<<<
