SpectraSuite Data File
++++++++++++++++++++++++++++++++++++
Date: Fri May 15 17:03:22 PDT 2015
User: schluterlab
Dark Spectrum Present: Yes
Reference Spectrum Present: Yes
Number of Sampled Component Spectra: 1
Spectrometers: USB2E3373
Integration Time (usec): 3000 (USB2E3373)
Spectra Averaged: 3 (USB2E3373)
Boxcar Smoothing: 0 (USB2E3373)
Correct for Electrical Dark: No (USB2E3373)
Strobe/Lamp Enabled: No (USB2E3373)
Correct for Detector Non-linearity: No (USB2E3373)
Correct for Stray Light: No (USB2E3373)
Number of Pixels in Processed Spectrum: 2048
>>>>>Begin Processed Spectral Data<<<<<
178.53	0.000
178.91	0.000
179.29	125.000
179.67	-400.000
180.04	-14.286
180.42	200.000
180.80	200.000
181.18	-133.333
181.56	200.000
181.94	250.000
182.31	-1000.000
182.69	20.000
183.07	-66.667
183.45	100.000
183.83	-83.333
184.20	63.636
184.58	88.889
184.96	-425.000
185.34	-66.667
185.72	150.000
186.09	15.385
186.47	700.000
186.85	150.000
187.23	-33.333
187.61	-1000.000
187.98	-266.667
188.36	144.444
188.74	-233.333
189.12	47.059
189.49	50.000
189.87	0.000
190.25	57.143
190.63	250.000
191.00	-33.333
191.38	0.000
191.76	750.000
192.14	-150.000
192.51	800.000
192.89	-77.778
193.27	42.857
193.65	-0.000
194.02	127.273
194.40	50.000
194.78	-75.000
195.15	91.667
195.53	50.000
195.91	50.000
196.29	200.000
196.66	38.462
197.04	-28.571
197.42	133.333
197.79	-566.667
198.17	-38.462
198.55	200.000
198.92	233.333
199.30	1100.000
199.68	-100.000
200.05	66.667
200.43	0.000
200.81	133.333
201.18	200.000
201.56	400.000
201.94	-150.000
202.31	-333.333
202.69	-20.000
203.07	-75.000
203.44	300.000
203.82	0.000
204.19	128.571
204.57	-400.000
204.95	-0.000
205.32	40.000
205.70	200.000
206.08	225.000
206.45	200.000
206.83	128.571
207.20	-85.714
207.58	-400.000
207.96	133.333
208.33	-40.000
208.71	150.000
209.08	-83.333
209.46	-900.000
209.84	40.000
210.21	-300.000
210.59	100.000
210.96	66.667
211.34	-25.000
211.71	106.667
212.09	42.857
212.46	-700.000
212.84	0.000
213.22	140.000
213.59	250.000
213.97	76.923
214.34	136.364
214.72	150.000
215.09	50.000
215.47	38.462
215.84	-54.545
216.22	-33.333
216.59	37.500
216.97	400.000
217.34	25.000
217.72	100.000
218.09	187.500
218.47	100.000
218.84	300.000
219.22	44.444
219.59	120.000
219.97	400.000
220.34	-25.000
220.72	142.857
221.09	175.000
221.47	-150.000
221.84	150.000
222.22	-50.000
222.59	90.909
222.97	58.333
223.34	233.333
223.72	57.143
224.09	71.429
224.46	28.571
224.84	66.667
225.21	-10.000
225.59	120.000
225.96	-200.000
226.34	200.000
226.71	28.571
227.08	33.333
227.46	50.000
227.83	-250.000
228.21	155.556
228.58	27.273
228.95	-12.500
229.33	60.000
229.70	43.750
230.08	12.500
230.45	85.714
230.82	271.429
231.20	20.000
231.57	121.429
231.95	28.571
232.32	-60.000
232.69	114.286
233.07	266.667
233.44	80.000
233.81	-30.000
234.19	44.444
234.56	76.471
234.93	300.000
235.31	100.000
235.68	-60.000
236.05	-15.385
236.43	-50.000
236.80	70.588
237.17	34.375
237.55	-35.000
237.92	18.519
238.29	2.778
238.67	6.667
239.04	8.824
239.41	-4.878
239.79	-13.333
240.16	24.390
240.53	28.947
240.91	10.870
241.28	15.873
241.65	-1.786
242.02	17.808
242.40	23.333
242.77	6.780
243.14	15.152
243.51	8.750
243.89	18.391
244.26	10.345
244.63	3.571
245.00	9.278
245.38	10.309
245.75	-12.360
246.12	1.724
246.49	12.397
246.87	3.846
247.24	-0.840
247.61	-6.140
247.98	-0.813
248.36	6.875
248.73	8.553
249.10	0.649
249.47	4.430
249.84	7.843
250.22	8.235
250.59	3.268
250.96	4.225
251.33	1.163
251.70	5.882
252.08	8.122
252.45	3.960
252.82	3.518
253.19	6.912
253.56	1.869
253.94	10.360
254.31	3.913
254.68	8.772
255.05	5.118
255.42	7.424
255.79	5.405
256.16	3.891
256.54	5.970
256.91	6.464
257.28	4.461
257.65	4.869
258.02	4.255
258.39	9.091
258.76	7.326
259.14	10.299
259.51	6.149
259.88	5.155
260.25	3.595
260.62	9.375
260.99	0.678
261.36	2.055
261.73	5.696
262.10	6.383
262.47	2.147
262.85	3.762
263.22	4.615
263.59	6.231
263.96	9.006
264.33	4.242
264.70	3.274
265.07	3.274
265.44	5.382
265.81	7.062
266.18	2.186
266.55	4.884
266.92	8.808
267.29	7.572
267.66	3.325
268.03	5.759
268.40	2.350
268.77	8.021
269.14	3.597
269.51	6.427
269.88	2.494
270.25	3.571
270.62	2.195
270.99	3.581
271.36	5.134
271.73	4.695
272.10	3.406
272.47	3.783
272.84	5.198
273.21	4.640
273.58	4.578
273.95	2.975
274.32	1.155
274.69	1.584
275.06	3.571
275.43	3.628
275.80	7.726
276.17	1.839
276.54	6.210
276.91	4.167
277.28	3.493
277.65	5.165
278.02	4.468
278.39	4.595
278.76	1.677
279.13	2.490
279.50	4.412
279.87	4.104
280.23	3.871
280.60	6.823
280.97	4.444
281.34	2.885
281.71	7.187
282.08	0.818
282.45	1.957
282.82	2.703
283.19	3.482
283.56	3.276
283.92	3.605
284.29	3.462
284.66	2.713
285.03	4.322
285.40	3.970
285.77	3.691
286.14	5.235
286.51	6.089
286.87	2.742
287.24	2.762
287.61	4.056
287.98	4.211
288.35	3.293
288.72	4.203
289.08	3.993
289.45	4.394
289.82	4.720
290.19	1.536
290.56	2.058
290.93	1.684
291.29	3.082
291.66	4.567
292.03	2.711
292.40	2.742
292.77	4.625
293.13	2.110
293.50	1.214
293.87	4.885
294.24	3.091
294.60	3.726
294.97	3.869
295.34	2.301
295.71	4.322
296.08	4.036
296.44	0.427
296.81	3.333
297.18	2.609
297.55	5.420
297.91	2.466
298.28	4.617
298.65	2.985
299.02	1.482
299.38	1.778
299.75	1.931
300.12	2.749
300.48	3.557
300.85	3.802
301.22	1.948
301.59	3.026
301.95	3.544
302.32	3.891
302.69	2.363
303.05	1.485
303.42	2.242
303.79	4.556
304.15	3.943
304.52	3.329
304.89	2.573
305.25	2.421
305.62	3.151
305.99	2.339
306.35	2.428
306.72	2.362
307.09	3.535
307.45	3.904
307.82	2.315
308.19	3.717
308.55	3.599
308.92	2.505
309.29	2.682
309.65	2.691
310.02	4.620
310.38	3.842
310.75	3.934
311.12	2.583
311.48	2.757
311.85	2.932
312.22	2.954
312.58	4.034
312.95	4.696
313.31	4.141
313.68	4.817
314.05	3.163
314.41	4.433
314.78	5.567
315.14	5.139
315.51	6.418
315.87	4.611
316.24	6.775
316.61	6.791
316.97	6.548
317.34	6.250
317.70	6.692
318.07	7.308
318.43	7.843
318.80	7.292
319.16	7.422
319.53	10.161
319.89	8.661
320.26	9.211
320.62	10.231
320.99	9.916
321.35	10.791
321.72	12.253
322.08	11.380
322.45	12.081
322.81	11.984
323.18	12.659
323.54	13.803
323.91	14.216
324.27	14.844
324.64	16.011
325.00	17.427
325.37	17.264
325.73	16.591
326.10	18.710
326.46	20.090
326.83	21.872
327.19	20.314
327.56	21.720
327.92	22.623
328.29	21.071
328.65	22.547
329.01	23.162
329.38	24.700
329.74	25.590
330.11	25.023
330.47	24.026
330.84	27.404
331.20	28.897
331.56	26.204
331.93	28.676
332.29	29.239
332.66	28.235
333.02	28.996
333.38	29.239
333.75	29.670
334.11	30.170
334.48	30.553
334.84	32.509
335.20	31.473
335.57	31.006
335.93	31.527
336.29	32.965
336.66	32.334
337.02	32.900
337.38	31.852
337.75	34.545
338.11	33.814
338.47	33.668
338.84	33.734
339.20	33.547
339.56	34.404
339.93	34.378
340.29	35.505
340.65	36.380
341.02	35.550
341.38	34.867
341.74	34.364
342.11	34.142
342.47	35.676
342.83	34.948
343.20	35.366
343.56	35.826
343.92	36.581
344.28	35.696
344.65	36.615
345.01	34.572
345.37	35.071
345.73	36.485
346.10	35.462
346.46	36.165
346.82	36.989
347.19	35.827
347.55	35.923
347.91	36.650
348.27	34.842
348.63	36.542
349.00	35.603
349.36	38.071
349.72	37.811
350.08	36.639
350.45	35.754
350.81	36.877
351.17	36.238
351.53	36.163
351.89	36.416
352.26	37.040
352.62	37.661
352.98	36.386
353.34	36.554
353.70	37.540
354.07	37.581
354.43	36.269
354.79	37.655
355.15	37.857
355.51	37.263
355.87	37.217
356.24	38.418
356.60	37.672
356.96	37.778
357.32	37.700
357.68	37.217
358.04	36.914
358.40	37.701
358.77	38.118
359.13	37.870
359.49	37.904
359.85	38.456
360.21	38.118
360.57	37.950
360.93	39.259
361.29	37.085
361.66	39.107
362.02	40.379
362.38	39.299
362.74	39.364
363.10	39.654
363.46	39.733
363.82	41.097
364.18	39.114
364.54	38.456
364.90	39.140
365.26	38.937
365.62	40.511
365.98	39.223
366.35	40.495
366.71	40.946
367.07	40.566
367.43	40.115
367.79	40.212
368.15	40.632
368.51	41.369
368.87	41.350
369.23	40.794
369.59	41.035
369.95	41.056
370.31	42.341
370.67	42.239
371.03	41.075
371.39	41.721
371.75	41.465
372.11	41.655
372.47	43.343
372.83	43.435
373.19	43.795
373.55	42.094
373.91	42.693
374.27	44.082
374.63	43.647
374.99	42.837
375.35	43.593
375.71	44.615
376.07	43.399
376.42	43.673
376.78	45.235
377.14	44.279
377.50	45.020
377.86	44.645
378.22	44.225
378.58	44.872
378.94	43.541
379.30	43.855
379.66	45.893
380.02	45.371
380.38	43.701
380.74	44.823
381.09	46.012
381.45	45.810
381.81	45.096
382.17	44.607
382.53	46.159
382.89	46.265
383.25	45.613
383.61	46.341
383.97	45.905
384.32	46.904
384.68	46.316
385.04	46.936
385.40	46.111
385.76	47.484
386.12	48.254
386.48	48.595
386.83	46.607
387.19	48.046
387.55	48.306
387.91	48.472
388.27	47.558
388.62	48.584
388.98	48.312
389.34	48.157
389.70	48.788
390.06	46.381
390.42	47.863
390.77	49.117
391.13	47.730
391.49	48.124
391.85	48.928
392.20	49.906
392.56	49.587
392.92	49.149
393.28	49.469
393.64	48.408
393.99	50.157
394.35	47.818
394.71	49.361
395.07	48.146
395.42	47.480
395.78	49.707
396.14	48.739
396.50	50.983
396.85	47.907
397.21	49.060
397.57	48.966
397.92	48.892
398.28	50.115
398.64	48.855
399.00	49.379
399.35	48.702
399.71	49.110
400.07	50.544
400.42	49.082
400.78	50.459
401.14	50.212
401.49	49.792
401.85	50.213
402.21	49.940
402.57	49.938
402.92	48.808
403.28	49.123
403.63	51.135
403.99	49.362
404.35	51.780
404.70	49.643
405.06	49.589
405.42	50.466
405.77	49.622
406.13	50.000
406.49	48.194
406.84	51.773
407.20	49.789
407.55	48.680
407.91	50.201
408.27	49.713
408.62	50.154
408.98	49.415
409.34	50.372
409.69	49.031
410.05	48.892
410.40	50.062
410.76	49.819
411.11	50.562
411.47	50.427
411.83	50.722
412.18	50.450
412.54	50.437
412.89	49.507
413.25	50.722
413.60	50.373
413.96	50.368
414.31	50.610
414.67	50.609
415.03	50.200
415.38	50.783
415.74	51.596
416.09	51.796
416.45	51.317
416.80	50.496
417.16	52.279
417.51	51.233
417.87	50.978
418.22	53.109
418.58	52.107
418.93	51.787
419.29	49.872
419.64	51.847
420.00	53.401
420.35	51.284
420.71	52.248
421.06	51.136
421.42	51.202
421.77	51.908
422.12	52.327
422.48	51.381
422.83	50.174
423.19	51.693
423.54	50.852
423.90	51.826
424.25	52.354
424.61	52.326
424.96	50.697
425.31	54.188
425.67	52.993
426.02	53.592
426.38	53.287
426.73	54.298
427.09	52.532
427.44	53.647
427.79	53.683
428.15	52.063
428.50	52.574
428.85	52.273
429.21	53.141
429.56	53.639
429.92	53.416
430.27	52.732
430.62	51.960
430.98	52.707
431.33	52.734
431.68	53.375
432.04	53.382
432.39	53.965
432.74	53.157
433.10	55.230
433.45	53.763
433.80	54.208
434.16	53.850
434.51	52.849
434.86	54.646
435.22	53.786
435.57	54.523
435.92	54.731
436.28	53.131
436.63	54.250
436.98	53.824
437.34	54.688
437.69	55.575
438.04	54.473
438.39	53.940
438.75	55.616
439.10	54.103
439.45	55.447
439.81	54.373
440.16	56.057
440.51	55.164
440.86	57.281
441.22	54.468
441.57	55.408
441.92	55.981
442.27	55.322
442.63	54.818
442.98	54.911
443.33	54.035
443.68	54.324
444.03	55.738
444.39	55.288
444.74	56.299
445.09	56.459
445.44	55.897
445.79	56.524
446.15	54.570
446.50	54.520
446.85	55.845
447.20	54.380
447.55	56.417
447.91	55.330
448.26	55.777
448.61	55.325
448.96	56.282
449.31	55.434
449.66	54.297
450.02	55.106
450.37	55.246
450.72	55.441
451.07	55.823
451.42	56.180
451.77	55.877
452.12	54.844
452.47	55.763
452.83	54.711
453.18	55.345
453.53	55.120
453.88	56.102
454.23	54.886
454.58	55.730
454.93	56.443
455.28	54.095
455.63	55.239
455.98	54.480
456.34	54.598
456.69	55.845
457.04	55.261
457.39	55.832
457.74	56.167
458.09	54.208
458.44	53.774
458.79	54.230
459.14	55.149
459.49	55.164
459.84	54.766
460.19	55.340
460.54	55.807
460.89	55.511
461.24	54.224
461.59	55.463
461.94	54.969
462.29	56.212
462.64	55.482
462.99	54.367
463.34	54.937
463.69	55.792
464.04	54.843
464.39	54.942
464.74	54.663
465.09	54.398
465.44	55.741
465.79	54.989
466.14	55.359
466.49	54.917
466.84	55.146
467.19	53.942
467.54	55.236
467.89	54.706
468.24	55.535
468.59	55.492
468.94	53.651
469.29	55.738
469.64	54.545
469.99	56.132
470.34	54.608
470.68	55.108
471.03	55.768
471.38	55.563
471.73	55.042
472.08	54.274
472.43	54.362
472.78	53.804
473.13	54.898
473.48	54.853
473.83	53.176
474.17	54.728
474.52	54.052
474.87	54.182
475.22	55.522
475.57	53.924
475.92	53.812
476.27	54.191
476.61	54.282
476.96	53.207
477.31	54.462
477.66	53.989
478.01	53.397
478.36	53.922
478.70	55.628
479.05	54.835
479.40	53.895
479.75	53.650
480.10	53.610
480.45	53.350
480.79	54.280
481.14	53.791
481.49	54.138
481.84	53.813
482.19	52.619
482.53	54.388
482.88	53.222
483.23	53.119
483.58	53.113
483.92	53.243
484.27	52.188
484.62	53.384
484.97	53.151
485.31	51.590
485.66	52.203
486.01	52.563
486.36	51.711
486.70	51.964
487.05	52.625
487.40	52.482
487.75	52.338
488.09	52.689
488.44	52.270
488.79	53.082
489.13	54.367
489.48	53.484
489.83	52.825
490.17	52.404
490.52	52.656
490.87	51.504
491.22	53.200
491.56	52.419
491.91	52.390
492.26	52.990
492.60	52.447
492.95	54.058
493.30	53.200
493.64	54.126
493.99	52.995
494.34	51.650
494.68	52.952
495.03	51.290
495.37	52.699
495.72	53.054
496.07	53.220
496.41	52.877
496.76	53.063
497.11	52.585
497.45	52.506
497.80	54.087
498.14	53.254
498.49	54.444
498.84	53.693
499.18	53.263
499.53	53.423
499.87	52.578
500.22	52.770
500.56	52.597
500.91	53.112
501.26	51.409
501.60	52.730
501.95	53.615
502.29	52.736
502.64	53.137
502.98	53.478
503.33	51.633
503.67	52.675
504.02	53.959
504.36	53.439
504.71	53.081
505.06	52.189
505.40	53.350
505.75	54.227
506.09	52.712
506.44	54.415
506.78	52.959
507.13	52.999
507.47	52.480
507.82	52.404
508.16	52.668
508.51	52.833
508.85	54.317
509.19	53.007
509.54	52.279
509.88	52.913
510.23	53.470
510.57	54.142
510.92	51.706
511.26	53.082
511.61	53.080
511.95	53.644
512.30	52.938
512.64	53.200
512.98	53.453
513.33	53.777
513.67	52.473
514.02	54.462
514.36	54.400
514.70	54.487
515.05	54.113
515.39	53.483
515.74	55.868
516.08	54.393
516.42	54.240
516.77	54.710
517.11	54.955
517.46	53.680
517.80	54.291
518.14	53.889
518.49	53.245
518.83	53.706
519.17	52.759
519.52	53.582
519.86	51.921
520.20	52.552
520.55	54.159
520.89	53.890
521.23	54.465
521.58	53.628
521.92	54.872
522.26	55.042
522.61	54.740
522.95	55.828
523.29	54.130
523.64	54.193
523.98	55.541
524.32	53.995
524.66	54.481
525.01	54.545
525.35	54.310
525.69	54.411
526.04	53.042
526.38	55.577
526.72	53.564
527.06	53.696
527.41	54.683
527.75	53.954
528.09	54.020
528.43	54.625
528.78	54.719
529.12	53.871
529.46	53.281
529.80	54.212
530.15	54.455
530.49	54.141
530.83	55.062
531.17	53.593
531.51	55.540
531.86	52.889
532.20	54.001
532.54	53.778
532.88	55.578
533.22	54.906
533.57	54.391
533.91	54.765
534.25	56.185
534.59	54.201
534.93	54.688
535.27	52.665
535.62	54.763
535.96	54.207
536.30	53.628
536.64	54.721
536.98	53.449
537.32	54.765
537.66	54.628
538.01	54.615
538.35	54.092
538.69	53.595
539.03	52.016
539.37	54.913
539.71	54.942
540.05	53.632
540.39	54.778
540.73	54.324
541.07	54.558
541.42	53.831
541.76	55.334
542.10	53.820
542.44	53.023
542.78	52.306
543.12	53.984
543.46	54.103
543.80	55.864
544.14	52.136
544.48	53.564
544.82	55.229
545.16	53.962
545.50	52.937
545.84	54.887
546.18	54.752
546.52	55.588
546.86	54.134
547.20	54.864
547.54	54.700
547.88	54.484
548.22	52.663
548.56	53.892
548.90	54.784
549.24	53.237
549.58	53.879
549.92	53.824
550.26	54.652
550.60	54.870
550.94	55.414
551.28	55.023
551.62	56.077
551.96	54.286
552.30	54.971
552.64	53.032
552.98	53.938
553.32	52.782
553.66	54.282
554.00	54.526
554.34	55.022
554.68	53.466
555.02	54.613
555.36	54.525
555.69	55.311
556.03	52.891
556.37	53.950
556.71	54.296
557.05	55.257
557.39	53.829
557.73	54.423
558.07	54.676
558.41	55.819
558.75	54.170
559.08	55.162
559.42	53.571
559.76	55.645
560.10	53.440
560.44	53.909
560.78	53.007
561.12	55.430
561.45	55.025
561.79	54.972
562.13	54.649
562.47	54.964
562.81	54.539
563.15	54.513
563.48	54.243
563.82	54.221
564.16	54.666
564.50	54.527
564.84	54.284
565.17	53.924
565.51	55.396
565.85	54.870
566.19	53.382
566.52	55.630
566.86	54.692
567.20	52.864
567.54	55.049
567.88	54.833
568.21	54.129
568.55	54.185
568.89	53.799
569.23	53.394
569.56	53.765
569.90	53.877
570.24	52.587
570.57	53.527
570.91	54.305
571.25	52.746
571.59	52.382
571.92	52.237
572.26	52.687
572.60	52.992
572.93	53.248
573.27	53.229
573.61	53.371
573.95	53.277
574.28	52.039
574.62	52.352
574.96	52.231
575.29	52.499
575.63	51.205
575.97	52.453
576.30	52.797
576.64	52.265
576.98	53.616
577.31	52.814
577.65	52.615
577.98	52.895
578.32	52.492
578.66	51.902
578.99	52.387
579.33	52.386
579.67	51.956
580.00	52.886
580.34	52.736
580.67	52.448
581.01	52.402
581.35	52.132
581.68	52.253
582.02	52.890
582.35	52.498
582.69	52.513
583.02	52.275
583.36	53.087
583.70	53.427
584.03	53.962
584.37	53.953
584.70	53.571
585.04	53.212
585.37	53.514
585.71	52.999
586.04	53.555
586.38	53.107
586.72	54.003
587.05	54.015
587.39	53.369
587.72	54.265
588.06	54.138
588.39	53.518
588.73	53.632
589.06	53.816
589.40	54.165
589.73	53.961
590.07	53.663
590.40	54.799
590.73	55.395
591.07	55.131
591.40	54.942
591.74	55.113
592.07	55.148
592.41	53.666
592.74	53.883
593.08	53.161
593.41	53.311
593.75	53.876
594.08	53.244
594.41	53.639
594.75	53.931
595.08	53.916
595.42	54.803
595.75	54.788
596.09	54.222
596.42	54.113
596.75	55.950
597.09	54.487
597.42	54.743
597.75	55.749
598.09	54.097
598.42	53.881
598.76	54.783
599.09	54.006
599.42	53.543
599.76	53.837
600.09	53.922
600.42	53.298
600.76	53.195
601.09	53.550
601.42	53.976
601.76	54.109
602.09	55.322
602.42	54.591
602.76	54.966
603.09	55.150
603.42	56.187
603.76	54.435
604.09	54.719
604.42	55.668
604.76	55.941
605.09	55.210
605.42	55.440
605.75	54.159
606.09	54.480
606.42	53.878
606.75	54.199
607.09	55.297
607.42	53.389
607.75	53.996
608.08	54.268
608.42	54.134
608.75	55.711
609.08	56.054
609.41	55.025
609.75	54.435
610.08	54.368
610.41	53.478
610.74	55.583
611.07	56.641
611.41	55.371
611.74	55.757
612.07	55.407
612.40	56.127
612.73	56.045
613.07	55.006
613.40	54.978
613.73	54.841
614.06	55.092
614.39	54.992
614.72	55.126
615.06	56.425
615.39	54.421
615.72	54.844
616.05	54.916
616.38	54.245
616.71	55.963
617.05	55.652
617.38	55.877
617.71	57.044
618.04	57.016
618.37	57.818
618.70	57.228
619.03	56.250
619.36	56.874
619.69	56.710
620.03	56.392
620.36	57.082
620.69	55.103
621.02	56.804
621.35	57.178
621.68	58.333
622.01	57.417
622.34	56.744
622.67	56.546
623.00	56.891
623.33	57.088
623.66	57.218
623.99	57.035
624.32	56.578
624.65	56.917
624.99	56.960
625.32	56.027
625.65	56.874
625.98	58.259
626.31	57.689
626.64	58.319
626.97	58.202
627.30	58.056
627.63	59.012
627.96	58.580
628.29	58.834
628.62	56.441
628.95	58.116
629.28	59.274
629.61	58.624
629.94	59.335
630.26	57.905
630.59	59.729
630.92	60.000
631.25	56.410
631.58	59.031
631.91	57.018
632.24	58.830
632.57	60.227
632.90	59.549
633.23	58.588
633.56	59.068
633.89	58.940
634.22	58.148
634.55	59.848
634.88	60.026
635.20	58.462
635.53	60.267
635.86	57.737
636.19	60.414
636.52	60.332
636.85	59.181
637.18	60.126
637.51	58.113
637.83	57.293
638.16	61.119
638.49	57.766
638.82	60.000
639.15	60.516
639.48	60.798
639.81	61.785
640.13	61.472
640.46	61.516
640.79	60.825
641.12	60.709
641.45	60.060
641.77	59.407
642.10	60.190
642.43	61.576
642.76	61.386
643.09	60.258
643.41	61.165
643.74	61.285
644.07	62.069
644.40	60.811
644.73	62.522
645.05	58.725
645.38	60.847
645.71	59.397
646.04	65.530
646.36	60.816
646.69	64.388
647.02	63.327
647.35	62.873
647.67	60.146
648.00	62.687
648.33	59.898
648.66	60.339
648.98	59.799
649.31	59.669
649.64	57.928
649.96	61.102
650.29	61.840
650.62	61.026
650.94	63.704
651.27	61.080
651.60	60.901
651.92	60.490
652.25	60.924
652.58	58.833
652.90	60.892
653.23	59.496
653.56	61.760
653.88	63.058
654.21	60.595
654.54	60.781
654.86	60.272
655.19	58.187
655.52	56.037
655.84	51.594
656.17	58.758
656.49	80.397
656.82	85.102
657.15	66.346
657.47	50.200
657.80	37.628
658.13	37.188
658.45	58.425
658.78	58.314
659.10	58.586
659.43	60.759
659.75	62.062
660.08	62.483
660.41	63.126
660.73	62.845
661.06	62.565
661.38	63.014
661.71	58.727
662.03	63.305
662.36	63.297
662.68	62.611
663.01	64.192
663.33	64.965
663.66	64.186
663.98	61.395
664.31	60.768
664.63	61.751
664.96	61.304
665.28	59.603
665.61	63.203
665.93	64.565
666.26	63.991
666.58	57.718
666.91	64.471
667.23	62.028
667.56	68.009
667.88	60.432
668.21	61.575
668.53	62.884
668.86	64.858
669.18	60.377
669.50	59.564
669.83	61.860
670.15	62.937
670.48	65.072
670.80	60.829
671.13	58.837
671.45	61.416
671.77	61.159
672.10	60.000
672.42	60.487
672.75	61.456
673.07	65.295
673.39	62.569
673.72	58.974
674.04	59.375
674.37	62.076
674.69	60.385
675.01	64.000
675.34	59.234
675.66	65.741
675.98	60.976
676.31	63.532
676.63	61.520
676.95	61.364
677.28	60.941
677.60	61.928
677.92	60.550
678.25	61.488
678.57	62.338
678.89	58.193
679.22	63.311
679.54	59.237
679.86	57.256
680.18	61.359
680.51	58.902
680.83	60.636
681.15	60.800
681.48	63.934
681.80	61.364
682.12	60.887
682.44	60.879
682.77	60.927
683.09	60.870
683.41	60.227
683.73	59.447
684.06	62.832
684.38	61.075
684.70	63.834
685.02	62.241
685.34	60.672
685.67	59.287
685.99	59.313
686.31	57.345
686.63	60.482
686.96	58.175
687.28	57.576
687.60	59.506
687.92	64.242
688.24	61.492
688.56	63.755
688.89	60.714
689.21	63.333
689.53	60.093
689.85	61.395
690.17	62.054
690.49	63.121
690.82	62.621
691.14	59.048
691.46	64.019
691.78	58.559
692.10	61.075
692.42	62.121
692.74	62.179
693.06	57.432
693.39	61.991
693.71	60.407
694.03	58.661
694.35	62.383
694.67	63.384
694.99	62.924
695.31	66.841
695.63	63.750
695.95	62.374
696.27	62.176
696.59	62.500
696.91	61.905
697.23	58.869
697.56	63.366
697.88	60.215
698.20	59.909
698.52	62.824
698.84	57.416
699.16	60.750
699.48	62.155
699.80	56.328
700.12	64.690
700.44	61.905
700.76	57.849
701.08	61.818
701.40	60.241
701.72	62.346
702.04	67.327
702.36	63.880
702.68	60.360
703.00	65.758
703.32	58.944
703.64	64.124
703.96	59.420
704.28	59.509
704.60	60.952
704.91	60.252
705.23	65.449
705.55	69.965
705.87	63.538
706.19	61.111
706.51	59.794
706.83	59.807
707.15	62.305
707.47	63.585
707.79	61.719
708.11	62.500
708.43	60.500
708.74	58.915
709.06	64.225
709.38	63.914
709.70	63.609
710.02	62.420
710.34	62.229
710.66	59.615
710.98	62.914
711.29	61.311
711.61	62.712
711.93	59.283
712.25	63.574
712.57	62.271
712.89	64.179
713.20	61.592
713.52	59.930
713.84	59.727
714.16	61.168
714.48	64.839
714.80	60.256
715.11	59.878
715.43	57.994
715.75	63.333
716.07	54.153
716.39	64.765
716.70	61.624
717.02	59.542
717.34	64.372
717.66	65.044
717.97	66.087
718.29	66.109
718.61	59.843
718.93	64.341
719.24	63.498
719.56	68.273
719.88	64.948
720.20	65.530
720.51	60.153
720.83	59.846
721.15	64.286
721.46	65.323
721.78	55.336
722.10	60.967
722.42	55.187
722.73	59.184
723.05	64.082
723.37	64.407
723.68	67.568
724.00	60.256
724.32	56.000
724.63	61.364
724.95	62.445
725.27	66.820
725.58	66.102
725.90	59.127
726.22	64.093
726.53	60.000
726.85	62.547
727.16	65.660
727.48	59.919
727.80	61.538
728.11	62.712
728.43	57.647
728.74	60.887
729.06	59.200
729.38	64.286
729.69	58.964
730.01	56.538
730.32	63.433
730.64	59.717
730.96	66.038
731.27	59.333
731.59	62.373
731.90	59.554
732.22	60.883
732.53	61.462
732.85	63.121
733.16	62.626
733.48	58.993
733.80	62.319
734.11	61.356
734.43	58.763
734.74	60.606
735.06	58.958
735.37	62.840
735.69	63.636
736.00	58.537
736.32	60.067
736.63	61.268
736.95	61.092
737.26	62.633
737.58	61.745
737.89	62.637
738.21	59.774
738.52	60.082
738.83	65.502
739.15	62.882
739.46	56.693
739.78	57.875
740.09	56.209
740.41	62.681
740.72	63.780
741.04	67.611
741.35	61.702
741.66	61.611
741.98	65.816
742.29	56.931
742.61	56.545
742.92	52.133
743.23	53.704
743.55	61.538
743.86	61.244
744.18	55.981
744.49	59.574
744.80	64.130
745.12	71.658
745.43	57.561
745.74	60.938
746.06	60.976
746.37	65.445
746.68	67.773
747.00	64.894
747.31	70.149
747.62	62.621
747.94	62.201
748.25	64.851
748.56	71.585
748.88	70.157
749.19	65.957
749.50	61.576
749.82	49.057
750.13	55.505
750.44	61.654
750.75	60.821
751.07	64.234
751.38	63.218
751.69	59.608
752.01	61.240
752.32	60.159
752.63	63.636
752.94	63.362
753.26	64.017
753.57	61.991
753.88	61.504
754.19	62.500
754.51	64.463
754.82	58.300
755.13	69.167
755.44	64.516
755.75	57.422
756.07	61.868
756.38	60.377
756.69	59.770
757.00	57.333
757.31	63.072
757.63	57.317
757.94	59.167
758.25	58.356
758.56	60.638
758.87	55.241
759.18	57.009
759.50	66.909
759.81	64.548
760.12	57.742
760.43	59.697
760.74	60.185
761.05	60.000
761.36	62.500
761.67	60.606
761.99	64.966
762.30	60.364
762.61	60.079
762.92	61.086
763.23	60.360
763.54	59.346
763.85	60.593
764.16	55.187
764.47	54.032
764.78	59.707
765.10	63.300
765.41	59.937
765.72	63.810
766.03	59.023
766.34	58.029
766.65	62.151
766.96	69.192
767.27	62.766
767.58	60.920
767.89	67.376
768.20	56.818
768.51	60.440
768.82	61.576
769.13	59.908
769.44	57.082
769.75	54.338
770.06	59.914
770.37	59.135
770.68	62.437
770.99	55.656
771.30	61.275
771.61	64.253
771.92	58.190
772.23	67.488
772.54	61.290
772.85	66.049
773.16	56.180
773.47	69.281
773.78	61.438
774.09	56.287
774.39	66.667
774.70	53.503
775.01	62.759
775.32	62.857
775.63	57.025
775.94	58.779
776.25	62.992
776.56	60.833
776.87	73.077
777.18	70.940
777.48	61.207
777.79	51.304
778.10	53.333
778.41	56.757
778.72	64.286
779.03	66.917
779.34	63.830
779.65	60.959
779.95	55.479
780.26	68.966
780.57	57.724
780.88	59.055
781.19	56.034
781.50	62.016
781.80	57.396
782.11	62.264
782.42	65.385
782.73	58.993
783.04	63.704
783.34	51.389
783.65	58.120
783.96	72.131
784.27	56.552
784.57	64.228
784.88	66.406
785.19	76.000
785.50	59.000
785.81	52.586
786.11	58.621
786.42	74.757
786.73	69.091
787.04	57.143
787.34	66.964
787.65	57.143
787.96	66.372
788.26	73.636
788.57	55.556
788.88	48.437
789.19	61.111
789.49	69.565
789.80	57.143
790.11	68.687
790.41	50.909
790.72	75.000
791.03	51.136
791.33	73.750
791.64	65.000
791.95	73.256
792.25	54.255
792.56	69.663
792.87	69.863
793.17	59.420
793.48	66.667
793.79	62.500
794.09	82.500
794.40	57.547
794.70	65.049
795.01	54.472
795.32	62.393
795.62	66.667
795.93	74.510
796.23	57.547
796.54	58.333
796.85	86.765
797.15	59.155
797.46	65.278
797.76	90.909
798.07	50.000
798.37	61.842
798.68	63.636
798.99	58.025
799.29	65.714
799.60	69.565
799.90	69.333
800.21	77.049
800.51	53.846
800.82	81.356
801.12	68.116
801.43	57.377
801.73	66.667
802.04	80.000
802.34	44.776
802.65	88.462
802.95	60.714
803.26	46.154
803.56	88.235
803.87	41.304
804.17	57.333
804.48	68.254
804.78	70.370
805.09	56.522
805.39	75.556
805.70	88.889
806.00	36.842
806.30	69.014
806.61	68.571
806.91	51.389
807.22	73.684
807.52	64.000
807.83	72.727
808.13	52.778
808.43	64.706
808.74	55.224
809.04	72.881
809.35	59.615
809.65	59.375
809.95	62.162
810.26	65.909
810.56	49.315
810.86	57.143
811.17	46.000
811.47	77.551
811.77	31.579
812.08	84.091
812.38	56.604
812.69	70.000
812.99	57.576
813.29	52.632
813.59	42.857
813.90	65.909
814.20	58.974
814.50	65.385
814.81	67.925
815.11	85.106
815.41	69.492
815.72	78.571
816.02	47.059
816.32	72.917
816.62	41.463
816.93	48.649
817.23	42.857
817.53	70.833
817.84	52.174
818.14	50.000
818.44	52.632
818.74	86.957
819.04	30.000
819.35	86.486
819.65	76.471
819.95	69.444
820.25	47.619
820.56	80.000
820.86	3.448
821.16	110.000
821.46	68.085
821.76	62.500
822.07	97.674
822.37	32.432
822.67	81.250
822.97	57.143
823.27	103.571
823.57	84.000
823.88	51.852
824.18	110.714
824.48	79.412
824.78	54.839
825.08	52.174
825.38	81.818
825.69	12.500
825.99	78.947
826.29	75.000
826.59	126.667
826.89	61.905
827.19	56.522
827.49	52.500
827.79	88.571
828.09	107.143
828.39	84.848
828.70	129.730
829.00	89.286
829.30	71.429
829.60	76.667
829.90	81.250
830.20	31.579
830.50	37.037
830.80	73.913
831.10	90.909
831.40	87.879
831.70	45.161
832.00	119.048
832.30	66.667
832.60	133.333
832.90	68.966
833.20	25.000
833.50	100.000
833.80	70.370
834.10	53.846
834.40	75.000
834.70	33.333
835.00	68.421
835.30	142.308
835.60	80.000
835.90	51.613
836.20	54.545
836.50	92.857
836.80	26.923
837.10	57.143
837.40	166.667
837.70	63.636
838.00	63.636
838.30	39.130
838.60	161.538
838.90	77.273
839.19	64.286
839.49	60.000
839.79	138.462
840.09	108.333
840.39	96.429
840.69	82.143
840.99	42.308
841.29	5.263
841.59	100.000
841.88	109.091
842.18	50.000
842.48	100.000
842.78	66.667
843.08	40.741
843.38	0.000
843.68	52.174
843.97	86.667
844.27	53.333
844.57	55.000
844.87	11.111
845.17	76.190
845.47	6.667
845.76	42.857
846.06	70.588
846.36	140.000
846.66	100.000
846.96	113.333
847.25	12.500
847.55	142.857
847.85	100.000
848.15	13.636
848.44	-166.667
848.74	95.000
849.04	44.444
849.34	118.182
849.63	116.667
849.93	220.000
850.23	88.889
850.53	180.000
850.82	53.846
851.12	177.778
851.42	60.000
851.71	15.385
852.01	71.429
852.31	150.000
852.61	9.091
852.90	35.000
853.20	68.421
853.50	91.667
853.79	73.913
854.09	87.500
854.39	115.789
854.68	50.000
854.98	70.968
855.28	73.077
855.57	75.000
855.87	38.889
856.17	85.185
856.46	100.000
856.76	80.000
857.05	222.222
857.35	60.000
857.65	111.111
857.94	53.846
858.24	68.966
858.53	155.556
858.83	81.481
859.13	90.909
859.42	39.130
859.72	175.000
860.01	0.000
860.31	84.000
860.60	85.714
860.90	-233.333
861.20	-13.333
861.49	50.000
861.79	6.667
862.08	80.000
862.38	126.667
862.67	-100.000
862.97	66.667
863.26	25.000
863.56	100.000
863.85	66.667
864.15	66.667
864.44	20.000
864.74	121.429
865.03	-0.000
865.33	-80.000
865.62	116.667
865.92	66.667
866.21	-133.333
866.51	75.000
866.80	45.455
867.10	300.000
867.39	158.333
867.69	0.000
867.98	46.154
868.27	-66.667
868.57	6.667
868.86	116.667
869.16	115.385
869.45	86.667
869.75	-900.000
870.04	0.000
870.33	-14.286
870.63	38.095
870.92	233.333
871.22	20.000
871.51	1300.000
871.80	188.889
872.10	100.000
>>>>>End Processed Spectral Data<<<<<
