SpectraSuite Data File
++++++++++++++++++++++++++++++++++++
Date: Fri May 15 20:08:27 PDT 2015
User: schluterlab
Dark Spectrum Present: Yes
Reference Spectrum Present: Yes
Number of Sampled Component Spectra: 1
Spectrometers: USB2E3373
Integration Time (usec): 3000 (USB2E3373)
Spectra Averaged: 3 (USB2E3373)
Boxcar Smoothing: 0 (USB2E3373)
Correct for Electrical Dark: No (USB2E3373)
Strobe/Lamp Enabled: No (USB2E3373)
Correct for Detector Non-linearity: No (USB2E3373)
Correct for Stray Light: No (USB2E3373)
Number of Pixels in Processed Spectrum: 2048
>>>>>Begin Processed Spectral Data<<<<<
178.53	0.000
178.91	0.000
179.29	50.000
179.67	-450.000
180.04	-42.857
180.42	100.000
180.80	200.000
181.18	33.333
181.56	350.000
181.94	200.000
182.31	200.000
182.69	-20.000
183.07	100.000
183.45	0.000
183.83	-0.000
184.20	36.364
184.58	111.111
184.96	-125.000
185.34	66.667
185.72	50.000
186.09	76.923
186.47	400.000
186.85	100.000
187.23	100.000
187.61	-400.000
187.98	-166.667
188.36	66.667
188.74	-200.000
189.12	76.471
189.49	-44.444
189.87	0.000
190.25	114.286
190.63	300.000
191.00	-66.667
191.38	31.579
191.76	800.000
192.14	-100.000
192.51	-150.000
192.89	77.778
193.27	28.571
193.65	50.000
194.02	127.273
194.40	30.000
194.78	-175.000
195.15	-8.333
195.53	37.500
195.91	100.000
196.29	-125.000
196.66	53.846
197.04	114.286
197.42	-22.222
197.79	-66.667
198.17	-69.231
198.55	1300.000
198.92	-266.667
199.30	-700.000
199.68	40.000
200.05	-100.000
200.43	0.000
200.81	433.333
201.18	-33.333
201.56	700.000
201.94	-50.000
202.31	-0.000
202.69	-340.000
203.07	450.000
203.44	600.000
203.82	0.000
204.19	42.857
204.57	-533.333
204.95	87.500
205.32	-40.000
205.70	71.429
206.08	150.000
206.45	122.222
206.83	64.286
207.20	28.571
207.58	-300.000
207.96	0.000
208.33	-60.000
208.71	75.000
209.08	-133.333
209.46	-1400.000
209.84	-80.000
210.21	100.000
210.59	-85.714
210.96	-133.333
211.34	-275.000
211.71	20.000
212.09	-57.143
212.46	-1600.000
212.84	0.000
213.22	30.000
213.59	400.000
213.97	76.923
214.34	81.818
214.72	-100.000
215.09	250.000
215.47	-7.692
215.84	-27.273
216.22	66.667
216.59	62.500
216.97	150.000
217.34	125.000
217.72	-280.000
218.09	137.500
218.47	262.500
218.84	-700.000
219.22	0.000
219.59	40.000
219.97	133.333
220.34	25.000
220.72	-171.429
221.09	175.000
221.47	-150.000
221.84	-800.000
222.22	-650.000
222.59	9.091
222.97	41.667
223.34	-66.667
223.72	-7.143
224.09	23.810
224.46	-14.286
224.84	300.000
225.21	-60.000
225.59	-33.333
225.96	-200.000
226.34	100.000
226.71	-42.857
227.08	0.000
227.46	0.000
227.83	-250.000
228.21	155.556
228.58	27.273
228.95	12.500
229.33	40.000
229.70	50.000
230.08	0.000
230.45	14.286
230.82	0.000
231.20	-26.667
231.57	114.286
231.95	28.571
232.32	-70.000
232.69	0.000
233.07	-200.000
233.44	-40.000
233.81	-90.000
234.19	11.111
234.56	11.765
234.93	350.000
235.31	225.000
235.68	-300.000
236.05	-53.846
236.43	-5.000
236.80	-41.176
237.17	28.125
237.55	-10.000
237.92	-18.519
238.29	16.667
238.67	50.000
239.04	29.412
239.41	0.000
239.79	3.333
240.16	36.585
240.53	2.632
240.91	4.348
241.28	12.698
241.65	32.143
242.02	30.137
242.40	30.000
242.77	20.339
243.14	21.212
243.51	32.500
243.89	36.782
244.26	24.138
244.63	16.667
245.00	20.619
245.38	28.866
245.75	24.719
246.12	22.414
246.49	33.884
246.87	29.808
247.24	29.412
247.61	21.053
247.98	32.520
248.36	20.000
248.73	21.053
249.10	23.377
249.47	28.481
249.84	32.680
250.22	28.824
250.59	22.876
250.96	30.986
251.33	23.837
251.70	26.471
252.08	21.320
252.45	18.812
252.82	31.156
253.19	24.885
253.56	21.028
253.94	27.027
254.31	29.130
254.68	31.140
255.05	24.803
255.42	29.694
255.79	30.116
256.16	23.346
256.54	26.119
256.91	29.658
257.28	27.138
257.65	27.715
258.02	24.823
258.39	27.609
258.76	30.403
259.14	28.571
259.51	29.450
259.88	25.430
260.25	28.431
260.62	29.861
260.99	24.407
261.36	23.973
261.73	26.582
262.10	30.091
262.47	26.994
262.85	25.705
263.22	27.077
263.59	25.545
263.96	31.366
264.33	29.091
264.70	23.810
265.07	23.214
265.44	23.796
265.81	27.119
266.18	26.503
266.55	30.077
266.92	28.756
267.29	25.326
267.66	26.343
268.03	28.010
268.40	29.243
268.77	30.481
269.14	25.899
269.51	28.278
269.88	24.938
270.25	26.531
270.62	27.073
270.99	28.389
271.36	25.672
271.73	24.883
272.10	26.277
272.47	24.823
272.84	25.990
273.21	25.754
273.58	26.747
273.95	26.316
274.32	26.328
274.69	26.244
275.06	28.125
275.43	27.664
275.80	23.841
276.17	25.287
276.54	24.197
276.91	25.219
277.28	24.672
277.65	27.479
278.02	28.511
278.39	25.383
278.76	26.415
279.13	24.689
279.50	24.580
279.87	27.862
280.23	26.022
280.60	25.926
280.97	23.434
281.34	24.231
281.71	27.926
282.08	25.971
282.45	25.636
282.82	25.676
283.19	24.371
283.56	26.012
283.92	24.858
284.29	22.692
284.66	23.643
285.03	24.361
285.40	23.819
285.77	21.441
286.14	24.729
286.51	26.199
286.87	25.046
287.24	23.941
287.61	22.751
287.98	21.930
288.35	23.917
288.72	25.744
289.08	21.181
289.45	22.496
289.82	24.476
290.19	21.843
290.56	23.671
290.93	22.727
291.29	23.112
291.66	23.150
292.03	21.531
292.40	22.419
292.77	21.531
293.13	18.831
293.50	19.575
293.87	21.985
294.24	18.702
294.60	21.759
294.97	20.089
295.34	17.945
295.71	20.268
296.08	17.937
296.44	18.919
296.81	19.306
297.18	20.580
297.55	19.783
297.91	18.904
298.28	20.580
298.65	18.318
299.02	17.520
299.38	16.689
299.75	18.897
300.12	17.670
300.48	17.260
300.85	18.378
301.22	18.182
301.59	17.895
301.95	18.861
302.32	18.288
302.69	17.910
303.05	18.812
303.42	16.314
303.79	17.523
304.15	17.443
304.52	16.409
304.89	15.906
305.25	16.586
305.62	16.803
305.99	15.789
306.35	16.069
306.72	16.198
307.09	16.990
307.45	17.222
307.82	14.352
308.19	17.770
308.55	15.158
308.92	17.538
309.29	16.648
309.65	16.577
310.02	14.961
310.38	17.892
310.75	15.628
311.12	16.469
311.48	15.695
311.85	16.649
312.22	16.034
312.58	16.136
312.95	15.368
313.31	14.596
313.68	16.649
314.05	14.796
314.41	15.567
314.78	14.742
315.14	17.472
315.51	15.424
315.87	15.676
316.24	17.290
316.61	16.240
316.97	16.865
317.34	15.430
317.70	16.539
318.07	15.577
318.43	16.863
318.80	15.909
319.16	14.746
319.53	17.759
319.89	15.157
320.26	16.599
320.62	16.550
320.99	15.449
321.35	16.752
321.72	16.511
322.08	16.918
322.45	14.010
322.81	14.538
323.18	14.917
323.54	14.479
323.91	15.774
324.27	15.234
324.64	16.011
325.00	15.876
325.37	16.621
325.73	15.322
326.10	16.530
326.46	16.143
326.83	15.573
327.19	15.519
327.56	15.639
327.92	16.109
328.29	14.732
328.65	16.226
329.01	15.533
329.38	16.037
329.74	16.336
330.11	15.385
330.47	15.584
330.84	14.423
331.20	17.015
331.56	15.278
331.93	15.342
332.29	15.949
332.66	15.928
333.02	14.405
333.38	14.849
333.75	16.392
334.11	14.593
334.48	16.772
334.84	16.026
335.20	15.188
335.57	15.231
335.93	16.260
336.29	15.654
336.66	15.804
337.02	15.706
337.38	15.185
337.75	15.455
338.11	14.878
338.47	15.328
338.84	15.342
339.20	15.539
339.56	15.138
339.93	15.040
340.29	15.872
340.65	16.398
341.02	15.160
341.38	14.602
341.74	15.371
342.11	14.298
342.47	14.680
342.83	15.917
343.20	13.937
343.56	15.304
343.92	15.855
344.28	15.798
344.65	15.371
345.01	15.212
345.37	15.643
345.73	15.816
346.10	15.272
346.46	15.055
346.82	14.812
347.19	15.295
347.55	15.121
347.91	15.939
348.27	15.441
348.63	14.821
349.00	14.028
349.36	14.464
349.72	14.677
350.08	14.262
350.45	14.844
350.81	14.120
351.17	14.414
351.53	15.837
351.89	13.047
352.26	13.680
352.62	15.161
352.98	15.100
353.34	14.412
353.70	13.997
354.07	15.000
354.43	14.652
354.79	14.038
355.15	15.714
355.51	14.715
355.87	13.673
356.24	14.437
356.60	13.500
356.96	14.603
357.32	14.936
357.68	13.917
358.04	14.701
358.40	14.469
358.77	14.753
359.13	13.531
359.49	13.636
359.85	14.119
360.21	14.434
360.57	14.767
360.93	13.918
361.29	13.595
361.66	14.734
362.02	15.152
362.38	14.851
362.74	15.064
363.10	14.597
363.46	13.862
363.82	14.651
364.18	14.391
364.54	13.824
364.90	15.197
365.26	14.774
365.62	16.204
365.98	14.516
366.35	15.222
366.71	13.673
367.07	14.804
367.43	14.019
367.79	14.770
368.15	14.142
368.51	14.421
368.87	12.563
369.23	13.213
369.59	13.848
369.95	14.003
370.31	14.740
370.67	14.403
371.03	12.547
371.39	13.421
371.75	14.432
372.11	14.051
372.47	13.831
372.83	13.982
373.19	13.552
373.55	13.791
373.91	14.183
374.27	14.174
374.63	15.291
374.99	13.759
375.35	14.206
375.71	14.196
376.07	14.537
376.42	13.333
376.78	14.362
377.14	14.015
377.50	15.073
377.86	14.391
378.22	13.912
378.58	13.910
378.94	14.745
379.30	13.350
379.66	14.295
380.02	13.918
380.38	13.694
380.74	14.303
381.09	14.172
381.45	13.394
381.81	15.052
382.17	13.706
382.53	13.616
382.89	13.497
383.25	14.126
383.61	14.085
383.97	13.333
384.32	14.196
384.68	14.241
385.04	13.603
385.40	12.757
385.76	14.403
386.12	14.360
386.48	14.943
386.83	14.965
387.19	14.103
387.55	14.994
387.91	14.120
388.27	13.980
388.62	14.412
388.98	13.076
389.34	14.366
389.70	13.860
390.06	13.845
390.42	13.990
390.77	13.996
391.13	13.934
391.49	14.036
391.85	14.035
392.20	13.999
392.56	14.431
392.92	14.974
393.28	15.271
393.64	15.195
393.99	14.734
394.35	14.042
394.71	14.049
395.07	13.765
395.42	14.329
395.78	14.593
396.14	14.817
396.50	13.697
396.85	14.231
397.21	14.098
397.57	13.730
397.92	14.859
398.28	14.885
398.64	13.976
399.00	14.503
399.35	13.544
399.71	14.877
400.07	14.450
400.42	13.464
400.78	14.452
401.14	14.943
401.49	14.890
401.85	14.138
402.21	14.337
402.57	14.625
402.92	14.429
403.28	14.474
403.63	14.313
403.99	14.796
404.35	13.679
404.70	14.762
405.06	13.690
405.42	14.108
405.77	14.003
406.13	13.853
406.49	14.150
406.84	14.548
407.20	13.245
407.55	13.909
407.91	14.439
408.27	14.022
408.62	14.831
408.98	13.863
409.34	14.436
409.69	14.922
410.05	14.039
410.40	14.444
410.76	14.958
411.11	14.812
411.47	14.596
411.83	13.999
412.18	13.964
412.54	14.669
412.89	14.163
413.25	14.079
413.60	13.727
413.96	14.233
414.31	13.902
414.67	14.304
415.03	14.581
415.38	13.969
415.74	14.072
416.09	15.611
416.45	14.855
416.80	14.475
417.16	15.124
417.51	15.590
417.87	13.494
418.22	14.184
418.58	14.381
418.93	14.984
419.29	13.444
419.64	14.712
420.00	15.302
420.35	14.448
420.71	14.642
421.06	14.242
421.42	14.844
421.77	14.393
422.12	14.075
422.48	14.239
422.83	13.689
423.19	14.842
423.54	13.874
423.90	14.193
424.25	14.638
424.61	14.504
424.96	14.344
425.31	14.385
425.67	14.261
426.02	14.959
426.38	15.028
426.73	14.649
427.09	15.000
427.44	14.882
427.79	14.555
428.15	15.291
428.50	14.173
428.85	13.329
429.21	14.827
429.56	14.340
429.92	14.792
430.27	14.937
430.62	14.009
430.98	14.597
431.33	14.406
431.68	14.129
432.04	14.477
432.39	13.862
432.74	13.951
433.10	15.517
433.45	14.934
433.80	14.568
434.16	13.629
434.51	15.215
434.86	14.111
435.22	14.750
435.57	15.533
435.92	14.671
436.28	15.027
436.63	14.889
436.98	14.542
437.34	14.277
437.69	14.908
438.04	14.245
438.39	13.806
438.75	14.451
439.10	14.148
439.45	14.973
439.81	14.312
440.16	13.836
440.51	15.343
440.86	15.710
441.22	14.762
441.57	15.121
441.92	15.425
442.27	14.967
442.63	14.668
442.98	14.302
443.33	14.580
443.68	14.854
444.03	16.046
444.39	14.757
444.74	14.939
445.09	14.699
445.44	14.986
445.79	15.988
446.15	14.537
446.50	14.365
446.85	15.409
447.20	15.381
447.55	15.792
447.91	15.172
448.26	15.083
448.61	15.774
448.96	15.032
449.31	14.682
449.66	15.389
450.02	15.117
450.37	14.049
450.72	15.292
451.07	15.000
451.42	15.231
451.77	15.009
452.12	15.012
452.47	15.196
452.83	14.723
453.18	15.307
453.53	15.613
453.88	15.240
454.23	15.366
454.58	15.617
454.93	15.979
455.28	13.968
455.63	15.127
455.98	15.574
456.34	14.751
456.69	15.883
457.04	15.375
457.39	14.702
457.74	15.054
458.09	14.361
458.44	15.506
458.79	15.238
459.14	15.675
459.49	15.881
459.84	14.834
460.19	15.352
460.54	15.831
460.89	15.341
461.24	15.466
461.59	16.211
461.94	15.346
462.29	15.802
462.64	15.615
462.99	15.030
463.34	14.882
463.69	14.221
464.04	14.952
464.39	15.039
464.74	15.706
465.09	15.533
465.44	15.753
465.79	15.306
466.14	15.393
466.49	15.584
466.84	16.002
467.19	15.770
467.54	15.964
467.89	15.098
468.24	13.929
468.59	15.810
468.94	15.238
469.29	15.541
469.64	15.858
469.99	16.118
470.34	14.471
470.68	15.511
471.03	16.702
471.38	15.121
471.73	15.196
472.08	14.858
472.43	14.765
472.78	14.805
473.13	15.714
473.48	14.332
473.83	15.006
474.17	16.256
474.52	15.890
474.87	15.939
475.22	15.131
475.57	15.471
475.92	16.237
476.27	16.065
476.61	15.856
476.96	14.501
477.31	15.360
477.66	15.393
478.01	14.655
478.36	14.760
478.70	15.878
479.05	15.989
479.40	15.315
479.75	15.120
480.10	15.310
480.45	15.900
480.79	15.911
481.14	15.369
481.49	15.468
481.84	16.264
482.19	15.949
482.53	15.060
482.88	15.370
483.23	15.307
483.58	15.377
483.92	15.392
484.27	15.360
484.62	15.240
484.97	15.257
485.31	14.812
485.66	15.610
486.01	16.598
486.36	16.241
486.70	15.856
487.05	15.881
487.40	15.279
487.75	15.155
488.09	14.184
488.44	14.580
488.79	14.531
489.13	14.944
489.48	15.220
489.83	14.933
490.17	14.876
490.52	15.150
490.87	15.039
491.22	15.998
491.56	15.133
491.91	15.296
492.26	15.654
492.60	15.403
492.95	15.544
493.30	15.340
493.64	15.619
493.99	15.362
494.34	15.485
494.68	14.905
495.03	15.280
495.37	15.751
495.72	15.901
496.07	15.073
496.41	14.953
496.76	15.431
497.11	15.277
497.45	15.513
497.80	15.489
498.14	15.648
498.49	15.185
498.84	15.968
499.18	15.361
499.53	15.179
499.87	15.126
500.22	14.886
500.56	15.835
500.91	15.060
501.26	14.236
501.60	15.248
501.95	15.526
502.29	15.012
502.64	15.444
502.98	15.392
503.33	14.986
503.67	15.518
504.02	15.836
504.36	15.042
504.71	14.394
505.06	14.847
505.40	14.772
505.75	15.567
506.09	15.560
506.44	15.914
506.78	16.173
507.13	15.047
507.47	15.405
507.82	14.957
508.16	15.214
508.51	15.635
508.85	16.170
509.19	15.274
509.54	15.121
509.88	14.833
510.23	15.546
510.57	15.714
510.92	13.913
511.26	15.276
511.61	15.567
511.95	15.233
512.30	15.299
512.64	15.470
512.98	14.767
513.33	16.060
513.67	14.156
514.02	16.133
514.36	16.800
514.70	15.385
515.05	15.981
515.39	14.935
515.74	16.287
516.08	15.900
516.42	15.489
516.77	15.506
517.11	15.668
517.46	15.260
517.80	15.435
518.14	15.248
518.49	14.784
518.83	15.006
519.17	15.100
519.52	14.979
519.86	14.766
520.20	15.067
520.55	14.697
520.89	15.433
521.23	14.820
521.58	16.215
521.92	15.897
522.26	15.159
522.61	15.065
522.95	15.497
523.29	14.740
523.64	16.391
523.98	16.202
524.32	14.755
524.66	15.045
525.01	15.519
525.35	16.656
525.69	14.545
526.04	14.881
526.38	17.315
526.72	15.043
527.06	15.564
527.41	14.974
527.75	15.282
528.09	15.482
528.43	16.475
528.78	13.993
529.12	14.968
529.46	15.335
529.80	14.946
530.15	15.710
530.49	15.758
530.83	15.527
531.17	14.641
531.51	15.663
531.86	14.752
532.20	14.405
532.54	15.521
532.88	15.811
533.22	15.457
533.57	15.924
533.91	15.927
534.25	15.234
534.59	15.523
534.93	15.293
535.27	15.355
535.62	15.295
535.96	15.786
536.30	14.842
536.64	15.300
536.98	14.634
537.32	16.287
537.66	15.498
538.01	15.664
538.35	15.881
538.69	16.378
539.03	14.696
539.37	16.487
539.71	16.224
540.05	15.479
540.39	16.136
540.73	15.621
541.07	15.124
541.42	16.398
541.76	15.279
542.10	15.072
542.44	15.010
542.78	15.210
543.12	15.110
543.46	15.855
543.80	15.822
544.14	14.820
544.48	14.657
544.82	15.106
545.16	15.915
545.50	15.220
545.84	15.227
546.18	15.887
546.52	15.645
546.86	15.025
547.20	15.665
547.54	15.265
547.88	16.644
548.22	14.727
548.56	15.633
548.90	15.296
549.24	15.152
549.58	15.303
549.92	14.939
550.26	15.165
550.60	14.572
550.94	14.563
551.28	15.688
551.62	15.000
551.96	16.391
552.30	15.863
552.64	15.021
552.98	14.557
553.32	15.621
553.66	15.530
554.00	14.964
554.34	15.214
554.68	15.560
555.02	15.997
555.36	15.258
555.69	15.678
556.03	15.132
556.37	15.587
556.71	14.946
557.05	14.691
557.39	15.390
557.73	14.768
558.07	16.063
558.41	14.548
558.75	14.965
559.08	15.839
559.42	15.317
559.76	15.292
560.10	15.214
560.44	14.743
560.78	16.014
561.12	15.585
561.45	15.320
561.79	15.756
562.13	15.401
562.47	14.892
562.81	16.138
563.15	15.233
563.48	15.842
563.82	15.168
564.16	14.345
564.50	15.000
564.84	15.261
565.17	14.420
565.51	16.257
565.85	15.706
566.19	15.119
566.52	16.153
566.86	16.260
567.20	15.255
567.54	15.511
567.88	16.110
568.21	15.667
568.55	15.000
568.89	16.119
569.23	15.503
569.56	15.543
569.90	16.646
570.24	15.817
570.57	16.291
570.91	16.382
571.25	15.587
571.59	16.007
571.92	15.585
572.26	15.670
572.60	15.628
572.93	15.814
573.27	15.674
573.61	16.169
573.95	15.674
574.28	16.022
574.62	15.535
574.96	15.607
575.29	15.649
575.63	15.185
575.97	15.370
576.30	15.715
576.64	15.682
576.98	16.088
577.31	15.655
577.65	16.055
577.98	16.526
578.32	15.746
578.66	15.603
578.99	15.466
579.33	15.289
579.67	15.165
580.00	15.797
580.34	15.896
580.67	15.455
581.01	15.538
581.35	15.741
581.68	16.257
582.02	16.297
582.35	15.896
582.69	15.952
583.02	15.339
583.36	15.093
583.70	15.498
584.03	15.040
584.37	15.669
584.70	15.522
585.04	15.026
585.37	15.676
585.71	15.502
586.04	15.582
586.38	15.177
586.72	15.667
587.05	15.829
587.39	16.019
587.72	16.266
588.06	15.776
588.39	15.494
588.73	15.751
589.06	15.460
589.40	15.589
589.73	15.590
590.07	16.088
590.40	15.944
590.73	15.568
591.07	15.564
591.40	14.960
591.74	15.973
592.07	15.677
592.41	16.696
592.74	16.010
593.08	15.683
593.41	16.145
593.75	16.290
594.08	15.860
594.41	16.448
594.75	15.573
595.08	16.534
595.42	15.237
595.75	16.035
596.09	14.973
596.42	15.957
596.75	15.586
597.09	16.128
597.42	14.950
597.75	15.712
598.09	15.346
598.42	15.388
598.76	15.315
599.09	16.426
599.42	15.726
599.76	15.576
600.09	16.063
600.42	15.353
600.76	14.859
601.09	15.305
601.42	15.707
601.76	15.641
602.09	15.223
602.42	15.417
602.76	15.705
603.09	16.321
603.42	15.844
603.76	15.847
604.09	15.188
604.42	15.186
604.76	16.110
605.09	16.271
605.42	15.485
605.75	15.061
606.09	14.862
606.42	15.388
606.75	15.108
607.09	16.484
607.42	15.463
607.75	15.853
608.08	15.274
608.42	15.532
608.75	16.048
609.08	15.595
609.41	15.838
609.75	14.466
610.08	16.326
610.41	14.928
610.74	15.310
611.07	15.297
611.41	15.828
611.74	15.832
612.07	16.167
612.40	15.153
612.73	15.085
613.07	15.636
613.40	15.755
613.73	14.550
614.06	15.748
614.39	14.834
614.72	15.070
615.06	15.196
615.39	15.120
615.72	15.554
616.05	15.698
616.38	15.328
616.71	15.474
617.05	14.824
617.38	15.839
617.71	15.031
618.04	15.683
618.37	16.709
618.70	15.248
619.03	16.042
619.36	14.834
619.69	15.845
620.03	16.435
620.36	15.451
620.69	15.774
621.02	15.596
621.35	16.266
621.68	15.986
622.01	16.083
622.34	15.563
622.67	15.536
623.00	15.391
623.33	15.549
623.66	15.782
623.99	14.902
624.32	15.133
624.65	16.316
624.99	15.500
625.32	14.329
625.65	15.632
625.98	15.633
626.31	13.965
626.64	15.511
626.97	14.660
627.30	15.937
627.63	14.991
627.96	13.926
628.29	14.339
628.62	15.044
628.95	15.030
629.28	14.617
629.61	15.254
629.94	15.934
630.26	15.909
630.59	15.609
630.92	15.590
631.25	14.359
631.58	13.877
631.91	13.487
632.24	13.303
632.57	14.318
632.90	15.302
633.23	13.882
633.56	13.728
633.89	14.057
634.22	15.556
634.55	13.977
634.88	12.516
635.20	14.103
635.53	14.933
635.86	13.394
636.19	16.429
636.52	14.541
636.85	15.012
637.18	14.969
637.51	13.459
637.83	14.980
638.16	16.098
638.49	12.807
638.82	17.105
639.15	14.247
639.48	14.993
639.81	14.784
640.13	15.007
640.46	15.160
640.79	13.402
641.12	13.146
641.45	14.865
641.77	17.037
642.10	13.902
642.43	14.309
642.76	16.502
643.09	13.409
643.41	13.430
643.74	14.168
644.07	15.271
644.40	14.189
644.73	16.462
645.05	15.436
645.38	14.638
645.71	13.298
646.04	15.619
646.36	14.894
646.69	15.468
647.02	15.879
647.35	14.552
647.67	16.453
648.00	15.858
648.33	16.724
648.66	15.593
648.98	13.233
649.31	12.893
649.64	15.071
649.96	14.587
650.29	14.991
650.62	14.701
650.94	13.519
651.27	11.359
651.60	15.135
651.92	15.385
652.25	13.499
652.58	15.333
652.90	15.609
653.23	14.790
653.56	14.382
653.88	13.918
654.21	11.559
654.54	13.752
654.86	15.110
655.19	14.327
655.52	17.260
655.84	17.367
656.17	19.850
656.49	26.305
656.82	25.928
657.15	18.557
657.47	13.227
657.80	9.620
658.13	9.125
658.45	12.791
658.78	12.517
659.10	12.290
659.43	12.043
659.75	11.741
660.08	11.793
660.41	11.849
660.73	14.227
661.06	16.118
661.38	14.677
661.71	11.704
662.03	16.738
662.36	14.066
662.68	13.274
663.01	14.629
663.33	13.689
663.66	14.186
663.98	12.558
664.31	14.712
664.63	14.977
664.96	12.826
665.28	12.362
665.61	13.636
665.93	16.739
666.26	15.184
666.58	8.949
666.91	14.353
667.23	14.151
667.56	14.692
667.88	11.751
668.21	13.365
668.53	14.421
668.86	16.274
669.18	12.028
669.50	12.591
669.83	14.651
670.15	15.385
670.48	13.876
670.80	14.286
671.13	15.213
671.45	13.242
671.77	13.948
672.10	14.851
672.42	13.483
672.75	17.584
673.07	15.921
673.39	13.761
673.72	15.385
674.04	12.292
674.37	15.890
674.69	14.561
675.01	13.778
675.34	13.063
675.66	15.046
675.98	11.308
676.31	15.826
676.63	12.827
676.95	10.455
677.28	16.471
677.60	16.627
677.92	11.239
678.25	14.880
678.57	11.255
678.89	13.655
679.22	15.213
679.54	12.651
679.86	14.115
680.18	14.563
680.51	15.909
680.83	13.917
681.15	13.800
681.48	13.934
681.80	14.463
682.12	15.726
682.44	13.389
682.77	11.700
683.09	11.899
683.41	11.364
683.73	14.055
684.06	13.938
684.38	11.613
684.70	15.033
685.02	13.485
685.34	12.846
685.67	13.321
685.99	15.732
686.31	15.752
686.63	13.173
686.96	9.506
687.28	9.495
687.60	13.118
687.92	14.747
688.24	13.911
688.56	14.192
688.89	14.955
689.21	12.889
689.53	12.297
689.85	13.488
690.17	16.071
690.49	14.184
690.82	11.165
691.14	12.619
691.46	13.785
691.78	12.613
692.10	14.839
692.42	13.853
692.74	13.889
693.06	11.937
693.39	11.312
693.71	10.633
694.03	10.855
694.35	11.682
694.67	14.141
694.99	12.010
695.31	15.405
695.63	12.250
695.95	15.152
696.27	13.990
696.59	13.889
696.91	12.885
697.23	12.853
697.56	13.614
697.88	17.204
698.20	13.440
698.52	12.471
698.84	11.483
699.16	11.750
699.48	15.288
699.80	14.640
700.12	14.555
700.44	14.006
700.76	13.663
701.08	8.788
701.40	14.458
701.72	19.444
702.04	15.512
702.36	15.719
702.68	12.012
703.00	14.545
703.32	12.610
703.64	14.407
703.96	13.043
704.28	11.963
704.60	12.698
704.91	11.356
705.23	10.299
705.55	16.961
705.87	12.996
706.19	12.963
706.51	11.684
706.83	13.183
707.15	15.265
707.47	14.566
707.79	15.625
708.11	14.750
708.43	14.750
708.74	16.537
709.06	12.394
709.38	15.291
709.70	15.089
710.02	14.968
710.34	15.480
710.66	13.462
710.98	12.252
711.29	12.787
711.61	13.559
711.93	14.007
712.25	17.869
712.57	14.652
712.89	11.567
713.20	11.419
713.52	16.028
713.84	15.017
714.16	13.058
714.48	13.871
714.80	13.782
715.11	14.894
715.43	13.166
715.75	11.667
716.07	11.628
716.39	13.087
716.70	9.963
717.02	14.504
717.34	20.243
717.66	12.832
717.97	10.000
718.29	12.971
718.61	16.929
718.93	17.054
719.24	12.167
719.56	11.245
719.88	16.151
720.20	14.773
720.51	4.981
720.83	14.672
721.15	13.866
721.46	14.113
721.78	11.462
722.10	14.870
722.42	7.884
722.73	12.653
723.05	17.959
723.37	15.678
723.68	17.117
724.00	10.684
724.32	10.222
724.63	10.455
724.95	13.100
725.27	14.286
725.58	16.949
725.90	10.317
726.22	14.672
726.53	15.254
726.85	14.607
727.16	16.981
727.48	8.502
727.80	14.980
728.11	11.441
728.43	11.765
728.74	9.677
729.06	16.800
729.38	19.549
729.69	9.960
730.01	16.154
730.32	18.657
730.64	16.608
730.96	16.604
731.27	11.667
731.59	15.254
731.90	14.650
732.22	19.243
732.53	11.960
732.85	14.184
733.16	16.835
733.48	15.108
733.80	13.768
734.11	15.932
734.43	16.495
734.74	15.758
735.06	11.075
735.37	12.689
735.69	14.478
736.00	13.937
736.32	15.101
736.63	15.845
736.95	12.287
737.26	16.726
737.58	13.758
737.89	10.989
738.21	15.038
738.52	17.695
738.83	10.917
739.15	15.721
739.46	16.929
739.78	12.454
740.09	14.052
740.41	11.232
740.72	7.480
741.04	11.336
741.35	18.298
741.66	12.796
741.98	13.776
742.29	19.307
742.61	8.901
742.92	7.109
743.23	9.259
743.55	17.647
743.86	12.919
744.18	16.268
744.49	10.106
744.80	8.696
745.12	16.578
745.43	9.268
745.74	16.667
746.06	18.537
746.37	13.089
746.68	14.692
747.00	10.638
747.31	16.418
747.62	14.078
747.94	13.876
748.25	12.871
748.56	10.929
748.88	10.471
749.19	13.298
749.50	12.808
749.82	6.132
750.13	6.422
750.44	19.173
750.75	16.418
751.07	18.613
751.38	15.326
751.69	10.588
752.01	16.279
752.32	13.546
752.63	16.601
752.94	14.224
753.26	20.921
753.57	13.122
753.88	17.257
754.19	13.750
754.51	14.050
754.82	13.765
755.13	18.750
755.44	15.323
755.75	18.359
756.07	16.342
756.38	13.962
756.69	11.877
757.00	11.000
757.31	14.706
757.63	12.805
757.94	15.556
758.25	14.247
758.56	14.362
758.87	10.765
759.18	17.445
759.50	14.545
759.81	15.719
760.12	15.161
760.43	13.333
760.74	11.728
761.05	15.385
761.36	14.773
761.67	16.970
761.99	17.007
762.30	12.000
762.61	13.439
762.92	11.312
763.23	14.414
763.54	9.346
763.85	14.831
764.16	15.353
764.47	12.903
764.78	11.722
765.10	14.478
765.41	17.035
765.72	16.825
766.03	12.030
766.34	13.504
766.65	20.717
766.96	15.657
767.27	10.638
767.58	10.920
767.89	7.801
768.20	14.205
768.51	17.582
768.82	12.808
769.13	10.138
769.44	19.742
769.75	15.068
770.06	13.793
770.37	9.135
770.68	15.228
770.99	15.385
771.30	17.157
771.61	11.312
771.92	12.500
772.23	14.778
772.54	11.290
772.85	14.815
773.16	12.921
773.47	24.183
773.78	15.686
774.09	10.778
774.39	8.667
774.70	12.102
775.01	20.690
775.32	20.000
775.63	8.264
775.94	13.740
776.25	14.961
776.56	7.500
776.87	15.385
777.18	12.821
777.48	18.103
777.79	13.043
778.10	-5.714
778.41	6.306
778.72	7.937
779.03	13.534
779.34	12.766
779.65	12.329
779.95	6.849
780.26	13.103
780.57	1.626
780.88	14.961
781.19	7.759
781.50	15.504
781.80	11.834
782.11	13.836
782.42	6.154
782.73	9.353
783.04	8.889
783.34	12.500
783.65	-5.983
783.96	11.475
784.27	17.241
784.57	14.634
784.88	11.719
785.19	22.000
785.50	20.000
785.81	18.103
786.11	8.621
786.42	14.563
786.73	13.636
787.04	14.286
787.34	13.393
787.65	8.571
787.96	2.655
788.26	4.545
788.57	12.821
788.88	16.406
789.19	18.254
789.49	3.478
789.80	8.163
790.11	15.152
790.41	4.545
790.72	22.826
791.03	12.500
791.33	21.250
791.64	1.250
791.95	9.302
792.25	11.702
792.56	20.225
792.87	4.110
793.17	10.145
793.48	1.333
793.79	3.750
794.09	12.500
794.40	12.264
794.70	7.767
795.01	7.317
795.32	11.111
795.62	5.714
795.93	15.686
796.23	7.547
796.54	11.458
796.85	13.235
797.15	11.268
797.46	16.667
797.76	25.758
798.07	15.116
798.37	11.842
798.68	4.545
798.99	18.519
799.29	18.571
799.60	-1.449
799.90	25.333
800.21	22.951
800.51	23.077
800.82	16.949
801.12	23.188
801.43	24.590
801.73	7.937
802.04	-4.000
802.34	13.433
802.65	38.462
802.95	0.000
803.26	-3.846
803.56	-9.804
803.87	-8.696
804.17	16.000
804.48	17.460
804.78	3.704
805.09	15.217
805.39	-13.333
805.70	22.222
806.00	0.000
806.30	9.859
806.61	22.857
806.91	-2.778
807.22	21.053
807.52	24.000
807.83	-1.818
808.13	16.667
808.43	23.529
808.74	17.910
809.04	3.390
809.35	11.538
809.65	12.500
809.95	-13.514
810.26	-20.455
810.56	10.959
810.86	19.048
811.17	10.000
811.47	16.327
811.77	0.000
812.08	2.273
812.38	11.321
812.69	10.000
812.99	-21.212
813.29	-5.263
813.59	-2.857
813.90	-9.091
814.20	-17.949
814.50	5.769
814.81	9.434
815.11	-6.383
815.41	23.729
815.72	14.286
816.02	23.529
816.32	12.500
816.62	4.878
816.93	-8.108
817.23	-2.857
817.53	33.333
817.84	0.000
818.14	-5.769
818.44	10.526
818.74	32.609
819.04	-7.500
819.35	2.703
819.65	14.706
819.95	-8.333
820.25	16.667
820.56	35.000
820.86	-31.034
821.16	15.000
821.46	14.894
821.76	7.500
822.07	0.000
822.37	-13.514
822.67	-9.375
822.97	14.286
823.27	0.000
823.57	20.000
823.88	-25.926
824.18	32.143
824.48	-2.941
824.78	9.677
825.08	30.435
825.38	30.303
825.69	4.167
825.99	-5.263
826.29	-16.667
826.59	6.667
826.89	-9.524
827.19	13.043
827.49	5.000
827.79	40.000
828.09	35.714
828.39	21.212
828.70	62.162
829.00	-17.857
829.30	-28.571
829.60	-16.667
829.90	0.000
830.20	-5.263
830.50	-18.519
830.80	8.696
831.10	18.182
831.40	27.273
831.70	6.452
832.00	52.381
832.30	23.810
832.60	-16.667
832.90	17.241
833.20	-10.000
833.50	-3.030
833.80	29.630
834.10	15.385
834.40	25.000
834.70	-33.333
835.00	-10.526
835.30	50.000
835.60	0.000
835.90	19.355
836.20	0.000
836.50	32.143
836.80	-11.538
837.10	-7.143
837.40	-233.333
837.70	13.636
838.00	-100.000
838.30	0.000
838.60	-15.385
838.90	9.091
839.19	-3.571
839.49	43.333
839.79	-7.692
840.09	-66.667
840.39	3.571
840.69	10.714
840.99	23.077
841.29	-5.263
841.59	-20.000
841.88	-27.273
842.18	40.000
842.48	-12.500
842.78	0.000
843.08	7.407
843.38	-20.000
843.68	13.043
843.97	-33.333
844.27	-80.000
844.57	5.000
844.87	11.111
845.17	9.524
845.47	33.333
845.76	0.000
846.06	17.647
846.36	-50.000
846.66	-57.143
846.96	13.333
847.25	-125.000
847.55	142.857
847.85	-137.500
848.15	-22.727
848.44	-233.333
848.74	10.000
849.04	37.037
849.34	27.273
849.63	-66.667
849.93	-200.000
850.23	16.667
850.53	-10.000
850.82	-46.154
851.12	-111.111
851.42	0.000
851.71	-11.538
852.01	-14.286
852.31	-150.000
852.61	-54.545
852.90	5.000
853.20	36.842
853.50	-41.667
853.79	13.043
854.09	16.667
854.39	21.053
854.68	-25.000
854.98	6.452
855.28	38.462
855.57	5.000
855.87	-55.556
856.17	29.630
856.46	-14.286
856.76	-40.000
857.05	77.778
857.35	36.000
857.65	22.222
857.94	-23.077
858.24	27.586
858.53	5.556
858.83	3.704
859.13	27.273
859.42	34.783
859.72	-175.000
860.01	-300.000
860.31	12.000
860.60	-14.286
860.90	-66.667
861.20	-13.333
861.49	-600.000
861.79	-13.333
862.08	35.000
862.38	40.000
862.67	-240.000
862.97	-66.667
863.26	-8.333
863.56	38.889
863.85	-366.667
864.15	11.111
864.44	10.000
864.74	64.286
865.03	175.000
865.33	-40.000
865.62	83.333
865.92	-50.000
866.21	33.333
866.51	43.750
866.80	9.091
867.10	-200.000
867.39	-25.000
867.69	0.000
867.98	-53.846
868.27	166.667
868.57	60.000
868.86	27.778
869.16	23.077
869.45	53.333
869.75	-800.000
870.04	0.000
870.33	-114.286
870.63	33.333
870.92	300.000
871.22	-100.000
871.51	-400.000
871.80	22.222
872.10	166.667
>>>>>End Processed Spectral Data<<<<<
