SpectraSuite Data File
++++++++++++++++++++++++++++++++++++
Date: Fri May 15 17:05:34 PDT 2015
User: schluterlab
Dark Spectrum Present: Yes
Reference Spectrum Present: Yes
Number of Sampled Component Spectra: 1
Spectrometers: USB2E3373
Integration Time (usec): 3000 (USB2E3373)
Spectra Averaged: 3 (USB2E3373)
Boxcar Smoothing: 0 (USB2E3373)
Correct for Electrical Dark: No (USB2E3373)
Strobe/Lamp Enabled: No (USB2E3373)
Correct for Detector Non-linearity: No (USB2E3373)
Correct for Stray Light: No (USB2E3373)
Number of Pixels in Processed Spectrum: 2048
>>>>>Begin Processed Spectral Data<<<<<
178.53	0.000
178.91	0.000
179.29	175.000
179.67	250.000
180.04	57.143
180.42	100.000
180.80	900.000
181.18	-433.333
181.56	-0.000
181.94	150.000
182.31	-600.000
182.69	0.000
183.07	166.667
183.45	240.000
183.83	-16.667
184.20	63.636
184.58	-44.444
184.96	-375.000
185.34	-333.333
185.72	0.000
186.09	69.231
186.47	500.000
186.85	16.667
187.23	66.667
187.61	-0.000
187.98	-233.333
188.36	188.889
188.74	233.333
189.12	64.706
189.49	33.333
189.87	0.000
190.25	135.714
190.63	550.000
191.00	33.333
191.38	52.632
191.76	300.000
192.14	-125.000
192.51	800.000
192.89	77.778
193.27	-42.857
193.65	-33.333
194.02	109.091
194.40	90.000
194.78	-100.000
195.15	8.333
195.53	75.000
195.91	-150.000
196.29	50.000
196.66	38.462
197.04	85.714
197.42	88.889
197.79	66.667
198.17	-76.923
198.55	100.000
198.92	66.667
199.30	700.000
199.68	-20.000
200.05	33.333
200.43	0.000
200.81	200.000
201.18	166.667
201.56	200.000
201.94	50.000
202.31	-133.333
202.69	0.000
203.07	50.000
203.44	1100.000
203.82	0.000
204.19	114.286
204.57	-233.333
204.95	100.000
205.32	80.000
205.70	71.429
206.08	175.000
206.45	255.556
206.83	164.286
207.20	-85.714
207.58	300.000
207.96	-66.667
208.33	50.000
208.71	150.000
209.08	-150.000
209.46	-100.000
209.84	40.000
210.21	-100.000
210.59	71.429
210.96	150.000
211.34	75.000
211.71	33.333
212.09	142.857
212.46	-1700.000
212.84	0.000
213.22	180.000
213.59	250.000
213.97	161.538
214.34	72.727
214.72	-50.000
215.09	-100.000
215.47	100.000
215.84	72.727
216.22	-133.333
216.59	-12.500
216.97	800.000
217.34	175.000
217.72	0.000
218.09	100.000
218.47	137.500
218.84	100.000
219.22	55.556
219.59	-80.000
219.97	33.333
220.34	-125.000
220.72	100.000
221.09	25.000
221.47	500.000
221.84	50.000
222.22	-150.000
222.59	36.364
222.97	66.667
223.34	-33.333
223.72	14.286
224.09	19.048
224.46	46.429
224.84	166.667
225.21	10.000
225.59	53.333
225.96	400.000
226.34	175.000
226.71	-14.286
227.08	100.000
227.46	100.000
227.83	100.000
228.21	188.889
228.58	63.636
228.95	0.000
229.33	50.000
229.70	87.500
230.08	-37.500
230.45	-57.143
230.82	42.857
231.20	33.333
231.57	71.429
231.95	57.143
232.32	-70.000
232.69	28.571
233.07	200.000
233.44	-40.000
233.81	90.000
234.19	0.000
234.56	23.529
234.93	150.000
235.31	50.000
235.68	80.000
236.05	-15.385
236.43	-15.000
236.80	-23.529
237.17	25.000
237.55	25.000
237.92	-7.407
238.29	27.778
238.67	20.000
239.04	0.000
239.41	-26.829
239.79	-23.333
240.16	2.439
240.53	7.895
240.91	-26.087
241.28	26.984
241.65	30.357
242.02	15.068
242.40	13.333
242.77	10.169
243.14	7.576
243.51	2.500
243.89	19.540
244.26	6.897
244.63	11.905
245.00	7.216
245.38	3.093
245.75	-5.618
246.12	3.448
246.49	3.306
246.87	8.654
247.24	3.361
247.61	-2.632
247.98	0.813
248.36	5.625
248.73	4.605
249.10	3.247
249.47	1.266
249.84	5.229
250.22	4.118
250.59	1.307
250.96	8.451
251.33	6.395
251.70	0.588
252.08	3.553
252.45	1.980
252.82	3.015
253.19	4.147
253.56	-5.607
253.94	4.505
254.31	9.565
254.68	6.140
255.05	3.937
255.42	6.550
255.79	4.247
256.16	5.058
256.54	2.239
256.91	3.802
257.28	1.487
257.65	2.247
258.02	1.418
258.39	7.407
258.76	2.930
259.14	4.319
259.51	2.913
259.88	-0.344
260.25	2.941
260.62	2.431
260.99	-0.678
261.36	2.397
261.73	5.380
262.10	4.255
262.47	1.227
262.85	4.702
263.22	1.846
263.59	1.558
263.96	2.795
264.33	2.424
264.70	0.000
265.07	-0.595
265.44	5.382
265.81	3.672
266.18	1.913
266.55	4.113
266.92	3.368
267.29	2.089
267.66	2.813
268.03	2.094
268.40	-0.261
268.77	4.813
269.14	5.276
269.51	3.085
269.88	0.000
270.25	-0.255
270.62	-0.976
270.99	0.767
271.36	1.711
271.73	3.286
272.10	0.973
272.47	1.891
272.84	0.000
273.21	3.016
273.58	4.337
273.95	3.432
274.32	1.848
274.69	1.584
275.06	1.339
275.43	2.041
275.80	1.766
276.17	0.000
276.54	2.355
276.91	2.412
277.28	-0.218
277.65	3.099
278.02	1.064
278.39	1.094
278.76	2.096
279.13	-0.207
279.50	3.782
279.87	1.512
280.23	1.075
280.60	5.848
280.97	3.030
281.34	1.923
281.71	3.491
282.08	2.045
282.45	1.957
282.82	1.158
283.19	1.354
283.56	2.505
283.92	-1.328
284.29	1.538
284.66	1.550
285.03	0.982
285.40	3.214
285.77	3.163
286.14	1.986
286.51	3.137
286.87	-0.183
287.24	0.552
287.61	2.822
287.98	3.333
288.35	2.253
288.72	0.701
289.08	1.736
289.45	2.812
289.82	3.322
290.19	-0.171
290.56	1.887
290.93	0.505
291.29	1.387
291.66	2.835
292.03	0.957
292.40	1.774
292.77	0.638
293.13	-1.299
293.50	0.455
293.87	1.985
294.24	2.164
294.60	2.534
294.97	1.190
295.34	-0.460
295.71	2.832
296.08	1.345
296.44	-0.427
296.81	1.806
297.18	2.029
297.55	4.878
297.91	0.411
298.28	2.243
298.65	1.900
299.02	3.100
299.38	-1.094
299.75	0.690
300.12	0.262
300.48	2.635
300.85	1.521
301.22	0.130
301.59	0.921
301.95	1.266
302.32	2.594
302.69	1.119
303.05	0.619
303.42	2.242
303.79	1.402
304.15	1.673
304.52	0.595
304.89	0.117
305.25	0.726
305.62	-0.700
305.99	0.936
306.35	0.925
306.72	1.237
307.09	1.710
307.45	1.837
307.82	0.000
308.19	1.045
308.55	1.200
308.92	2.070
309.29	0.782
309.65	2.045
310.02	1.650
310.38	2.854
310.75	2.295
311.12	1.399
311.48	0.848
311.85	3.141
312.22	1.160
312.58	0.849
312.95	0.534
313.31	0.828
313.68	2.094
314.05	1.735
314.41	1.959
314.78	2.165
315.14	1.644
315.51	1.760
315.87	0.922
316.24	2.528
316.61	2.165
316.97	1.587
317.34	1.855
317.70	2.486
318.07	2.500
318.43	3.039
318.80	2.178
319.16	3.223
319.53	3.609
319.89	2.362
320.26	2.935
320.62	4.112
320.99	2.818
321.35	3.392
321.72	3.634
322.08	4.230
322.45	3.858
322.81	4.126
323.18	4.220
323.54	4.054
323.91	3.992
324.27	3.711
324.64	4.588
325.00	5.383
325.37	6.061
325.73	4.805
326.10	5.540
326.46	6.278
326.83	6.474
327.19	6.190
327.56	6.516
327.92	6.778
328.29	6.250
328.65	6.321
329.01	7.077
329.38	7.650
329.74	5.949
330.11	7.878
330.47	6.865
330.84	7.500
331.20	9.221
331.56	7.130
331.93	7.580
332.29	8.341
332.66	9.955
333.02	7.993
333.38	7.699
333.75	8.333
334.11	8.863
334.48	10.154
334.84	8.059
335.20	8.600
335.57	8.341
335.93	8.672
336.29	9.208
336.66	8.174
337.02	8.271
337.38	8.611
337.75	9.091
338.11	9.558
338.47	8.029
338.84	9.057
339.20	9.506
339.56	10.367
339.93	8.953
340.29	9.908
340.65	9.229
341.02	10.106
341.38	9.292
341.74	8.304
342.11	7.972
342.47	9.075
342.83	9.948
343.20	9.233
343.56	9.739
343.92	8.857
344.28	10.504
344.65	8.636
345.01	9.248
345.37	9.083
345.73	10.042
346.10	10.440
346.46	8.663
346.82	9.574
347.19	8.229
347.55	9.106
347.91	9.871
348.27	9.863
348.63	8.859
349.00	8.532
349.36	8.811
349.72	8.955
350.08	9.672
350.45	9.816
350.81	9.053
351.17	9.202
351.53	10.204
351.89	8.836
352.26	9.680
352.62	9.435
352.98	8.353
353.34	8.132
353.70	10.194
354.07	9.839
354.43	8.647
354.79	8.340
355.15	9.524
355.51	9.731
355.87	9.871
356.24	8.809
356.60	8.973
356.96	9.683
357.32	8.706
357.68	8.835
358.04	8.643
358.40	9.325
358.77	8.772
359.13	9.207
359.49	8.860
359.85	8.814
360.21	9.649
360.57	9.717
360.93	8.472
361.29	8.384
361.66	9.169
362.02	9.848
362.38	8.835
362.74	8.478
363.10	9.481
363.46	8.525
363.82	9.767
364.18	9.225
364.54	8.750
364.90	8.459
365.26	8.443
365.62	9.854
365.98	9.457
366.35	9.323
366.71	9.165
367.07	9.652
367.43	8.339
367.79	8.905
368.15	8.471
368.51	8.813
368.87	8.040
369.23	8.375
369.59	9.548
369.95	9.457
370.31	10.260
370.67	8.284
371.03	8.215
371.39	8.096
371.75	9.890
372.11	9.558
372.47	8.580
372.83	9.723
373.19	9.914
373.55	8.664
373.91	8.423
374.27	9.497
374.63	9.476
374.99	8.865
375.35	9.610
375.71	9.371
376.07	9.270
376.42	9.524
376.78	9.329
377.14	8.599
377.50	8.898
377.86	9.237
378.22	9.190
378.58	9.231
378.94	9.263
379.30	9.046
379.66	9.906
380.02	8.952
380.38	9.251
380.74	9.635
381.09	10.613
381.45	9.358
381.81	9.870
382.17	9.518
382.53	9.244
382.89	10.232
383.25	11.014
383.61	9.756
383.97	8.508
384.32	10.069
384.68	9.783
385.04	9.436
385.40	8.961
385.76	10.440
386.12	11.190
386.48	9.898
386.83	9.575
387.19	10.195
387.55	9.661
387.91	9.658
388.27	9.829
388.62	9.943
388.98	9.454
389.34	9.994
389.70	9.882
390.06	9.125
390.42	10.492
390.77	9.418
391.13	9.269
391.49	9.573
391.85	9.487
392.20	9.605
392.56	9.663
392.92	9.865
393.28	10.024
393.64	9.610
393.99	10.909
394.35	8.855
394.71	9.898
395.07	9.365
395.42	9.957
395.78	9.511
396.14	10.404
396.50	9.321
396.85	10.174
397.21	10.150
397.57	9.655
397.92	9.766
398.28	9.943
398.64	9.880
399.00	10.666
399.35	8.916
399.71	9.822
400.07	10.036
400.42	9.853
400.78	10.043
401.14	9.921
401.49	10.423
401.85	9.263
402.21	10.301
402.57	9.812
402.92	9.598
403.28	10.088
403.63	9.016
403.99	9.375
404.35	9.619
404.70	9.940
405.06	8.989
405.42	8.825
405.77	9.297
406.13	10.128
406.49	9.059
406.84	9.352
407.20	9.633
407.55	8.822
407.91	9.158
408.27	9.050
408.62	10.031
408.98	9.550
409.34	9.913
409.69	8.786
410.05	8.929
410.40	9.815
410.76	8.806
411.11	9.375
411.47	9.204
411.83	8.726
412.18	9.138
412.54	9.426
412.89	8.990
413.25	8.965
413.60	8.447
413.96	9.693
414.31	8.963
414.67	9.557
415.03	8.988
415.38	8.877
415.74	10.163
416.09	9.993
416.45	9.723
416.80	9.319
417.16	10.014
417.51	10.526
417.87	9.322
418.22	9.456
418.58	9.699
418.93	9.969
419.29	8.835
419.64	8.684
420.00	9.950
420.35	9.373
420.71	9.538
421.06	8.656
421.42	9.555
421.77	9.306
422.12	9.478
422.48	9.204
422.83	9.629
423.19	9.989
423.54	8.936
423.90	9.541
424.25	8.898
424.61	9.670
424.96	10.105
425.31	9.474
425.67	9.918
426.02	9.894
426.38	9.580
426.73	10.048
427.09	10.000
427.44	9.706
427.79	10.607
428.15	10.316
428.50	9.449
428.85	8.907
429.21	10.243
429.56	9.865
429.92	10.169
430.27	9.724
430.62	9.305
430.98	8.705
431.33	10.726
431.68	9.314
432.04	10.061
432.39	9.298
432.74	9.381
433.10	10.575
433.45	9.438
433.80	9.867
434.16	9.030
434.51	10.108
434.86	9.292
435.22	9.534
435.57	9.732
435.92	10.479
436.28	9.541
436.63	9.869
436.98	9.096
437.34	9.982
437.69	10.197
438.04	9.915
438.39	9.407
438.75	9.290
439.10	9.960
439.45	10.408
439.81	10.153
440.16	9.798
440.51	10.448
440.86	10.997
441.22	10.294
441.57	9.768
441.92	11.123
442.27	9.812
442.63	11.242
442.98	10.281
443.33	9.516
443.68	9.973
444.03	10.184
444.39	9.543
444.74	10.758
445.09	10.189
445.44	9.915
445.79	10.624
446.15	10.187
446.50	9.318
446.85	10.361
447.20	10.115
447.55	10.882
447.91	10.491
448.26	10.415
448.61	10.248
448.96	10.384
449.31	9.711
449.66	9.872
450.02	9.983
450.37	10.077
450.72	10.424
451.07	10.380
451.42	10.112
451.77	10.127
452.12	9.450
452.47	9.530
452.83	10.188
453.18	9.614
453.53	10.872
453.88	9.472
454.23	9.650
454.58	10.264
454.93	11.018
455.28	9.587
455.63	10.911
455.98	10.162
456.34	10.473
456.69	9.720
457.04	11.405
457.39	10.328
457.74	10.036
458.09	9.476
458.44	9.187
458.79	10.420
459.14	10.812
459.49	11.045
459.84	10.209
460.19	10.133
460.54	10.208
460.89	10.739
461.24	10.000
461.59	10.748
461.94	9.119
462.29	11.218
462.64	10.100
462.99	10.900
463.34	10.292
463.69	10.296
464.04	11.138
464.39	10.006
464.74	10.798
465.09	10.356
465.44	10.964
465.79	9.921
466.14	10.490
466.49	9.948
466.84	11.184
467.19	10.263
467.54	10.728
467.89	9.602
468.24	10.766
468.59	11.492
468.94	10.603
469.29	11.016
469.64	11.415
469.99	11.212
470.34	10.444
470.68	11.186
471.03	10.616
471.38	9.986
471.73	10.994
472.08	10.787
472.43	9.463
472.78	10.761
473.13	11.973
473.48	10.358
473.83	10.461
474.17	11.593
474.52	11.551
474.87	11.273
475.22	10.555
475.57	11.011
475.92	11.081
476.27	11.816
476.61	10.995
476.96	10.541
477.31	11.141
477.66	10.393
478.01	10.051
478.36	11.057
478.70	11.419
479.05	11.209
479.40	11.447
479.75	11.001
480.10	10.906
480.45	10.750
480.79	11.178
481.14	11.117
481.49	9.557
481.84	11.004
482.19	10.477
482.53	11.127
482.88	11.026
483.23	10.893
483.58	11.226
483.92	10.600
484.27	10.529
484.62	10.399
484.97	10.116
485.31	10.585
485.66	10.263
486.01	10.450
486.36	9.998
486.70	10.577
487.05	10.386
487.40	10.781
487.75	10.254
488.09	10.383
488.44	10.970
488.79	10.347
489.13	10.978
489.48	10.817
489.83	10.987
490.17	10.517
490.52	11.039
490.87	10.921
491.22	10.793
491.56	11.101
491.91	10.851
492.26	11.279
492.60	11.420
492.95	11.608
493.30	10.503
493.64	11.248
493.99	11.981
494.34	10.340
494.68	10.762
495.03	10.462
495.37	10.991
495.72	10.601
496.07	11.024
496.41	10.377
496.76	11.055
497.11	10.433
497.45	11.599
497.80	11.504
498.14	11.227
498.49	10.767
498.84	11.028
499.18	11.697
499.53	11.161
499.87	10.068
500.22	10.979
500.56	11.397
500.91	10.793
501.26	11.270
501.60	10.625
501.95	10.869
502.29	11.235
502.64	11.680
502.98	11.001
503.33	10.759
503.67	11.133
504.02	11.290
504.36	11.529
504.71	11.869
505.06	11.777
505.40	11.523
505.75	11.598
506.09	11.860
506.44	12.064
506.78	11.633
507.13	11.996
507.47	11.018
507.82	10.524
508.16	11.094
508.51	11.647
508.85	11.460
509.19	11.176
509.54	11.689
509.88	10.841
510.23	11.512
510.57	11.652
510.92	10.768
511.26	11.675
511.61	11.441
511.95	11.836
512.30	12.084
512.64	11.742
512.98	11.679
513.33	11.584
513.67	11.143
514.02	13.043
514.36	11.829
514.70	12.121
515.05	12.103
515.39	11.688
515.74	12.156
516.08	11.476
516.42	12.426
516.77	12.171
517.11	12.107
517.46	12.567
517.80	12.694
518.14	11.513
518.49	11.959
518.83	12.333
519.17	11.583
519.52	12.078
519.86	12.185
520.20	12.576
520.55	11.507
520.89	12.359
521.23	12.540
521.58	13.438
521.92	12.821
522.26	12.492
522.61	11.883
522.95	12.318
523.29	12.961
523.64	13.215
523.98	12.508
524.32	11.727
524.66	13.380
525.01	12.987
525.35	12.638
525.69	11.650
526.04	11.310
526.38	13.813
526.72	11.969
527.06	13.100
527.41	13.127
527.75	12.399
528.09	12.890
528.43	13.504
528.78	12.343
529.12	12.194
529.46	11.566
529.80	12.730
530.15	12.871
530.49	12.593
530.83	12.312
531.17	12.559
531.51	12.654
531.86	12.780
532.20	12.596
532.54	12.866
532.88	13.689
533.22	13.239
533.57	11.730
533.91	12.337
534.25	12.435
534.59	13.214
534.93	12.775
535.27	11.865
535.62	11.860
535.96	12.785
536.30	12.797
536.64	12.750
536.98	13.171
537.32	13.514
537.66	13.815
538.01	13.077
538.35	12.136
538.69	13.249
539.03	12.440
539.37	12.517
539.71	12.952
540.05	12.763
540.39	12.465
540.73	12.483
541.07	13.191
541.42	13.710
541.76	12.939
542.10	12.251
542.44	13.690
542.78	12.595
543.12	13.049
543.46	13.630
543.80	12.838
544.14	12.016
544.48	13.391
544.82	12.782
545.16	13.730
545.50	13.818
545.84	13.173
546.18	13.475
546.52	13.338
546.86	12.365
547.20	13.376
547.54	13.074
547.88	13.179
548.22	12.821
548.56	13.127
548.90	12.129
549.24	13.017
549.58	13.470
549.92	12.366
550.26	13.846
550.60	13.309
550.94	12.771
551.28	13.369
551.62	13.615
551.96	13.609
552.30	13.450
552.64	12.271
552.98	13.572
553.32	12.767
553.66	12.046
554.00	12.190
554.34	13.516
554.68	12.611
555.02	12.426
555.36	12.865
555.69	13.480
556.03	12.705
556.37	12.883
556.71	12.996
557.05	13.199
557.39	13.086
557.73	13.418
558.07	12.821
558.41	13.629
558.75	13.250
559.08	12.924
559.42	12.698
559.76	12.250
560.10	13.379
560.44	13.105
560.78	14.126
561.12	12.976
561.45	13.633
561.79	13.305
562.13	12.420
562.47	12.446
562.81	13.184
563.15	12.623
563.48	12.801
563.82	13.246
564.16	13.928
564.50	13.176
564.84	14.324
565.17	13.146
565.51	13.730
565.85	13.306
566.19	12.401
566.52	12.601
566.86	13.111
567.20	12.889
567.54	12.956
567.88	13.064
568.21	13.348
568.55	12.554
568.89	13.552
569.23	13.048
569.56	12.040
569.90	12.586
570.24	12.281
570.57	12.582
570.91	12.583
571.25	11.970
571.59	11.990
571.92	12.207
572.26	11.836
572.60	12.124
572.93	12.143
573.27	12.100
573.61	12.023
573.95	12.152
574.28	11.891
574.62	11.798
574.96	11.967
575.29	11.964
575.63	11.972
575.97	11.494
576.30	12.061
576.64	11.868
576.98	12.432
577.31	12.141
577.65	11.995
577.98	12.151
578.32	11.825
578.66	11.799
578.99	11.933
579.33	11.541
579.67	11.809
580.00	12.051
580.34	11.990
580.67	11.350
581.01	12.008
581.35	11.886
581.68	11.927
582.02	11.525
582.35	11.922
582.69	11.843
583.02	11.686
583.36	12.042
583.70	12.201
584.03	12.232
584.37	12.140
584.70	12.335
585.04	11.736
585.37	12.211
585.71	12.071
586.04	11.926
586.38	12.243
586.72	12.367
587.05	12.334
587.39	12.189
587.72	12.657
588.06	12.372
588.39	12.219
588.73	12.149
589.06	12.459
589.40	12.582
589.73	12.924
590.07	12.764
590.40	13.119
590.73	13.262
591.07	12.299
591.40	12.823
591.74	12.851
592.07	13.451
592.41	13.163
592.74	12.585
593.08	13.133
593.41	12.685
593.75	12.627
594.08	12.393
594.41	12.664
594.75	12.519
595.08	13.016
595.42	12.403
595.75	12.692
596.09	12.588
596.42	12.815
596.75	13.099
597.09	12.255
597.42	13.279
597.75	12.964
598.09	12.811
598.42	12.319
598.76	12.741
599.09	12.901
599.42	12.694
599.76	12.904
600.09	12.217
600.42	13.002
600.76	11.887
601.09	12.977
601.42	12.221
601.76	12.823
602.09	12.830
602.42	12.932
602.76	12.479
603.09	12.791
603.42	13.002
603.76	12.218
604.09	12.677
604.42	13.156
604.76	13.040
605.09	12.569
605.42	13.093
605.75	12.434
606.09	12.654
606.42	12.594
606.75	13.420
607.09	13.231
607.42	12.583
607.75	12.833
608.08	12.399
608.42	12.654
608.75	12.771
609.08	12.506
609.41	12.893
609.75	13.054
610.08	12.881
610.41	13.043
610.74	12.725
611.07	13.075
611.41	12.818
611.74	13.753
612.07	12.473
612.40	13.567
612.73	12.938
613.07	13.048
613.40	13.184
613.73	13.430
614.06	13.745
614.39	13.988
614.72	12.773
615.06	12.682
615.39	13.701
615.72	12.917
616.05	13.017
616.38	12.194
616.71	12.661
617.05	13.280
617.38	13.765
617.71	13.774
618.04	13.587
618.37	13.997
618.70	13.729
619.03	14.792
619.36	13.314
619.69	13.950
620.03	13.367
620.36	13.877
620.69	14.276
621.02	13.761
621.35	14.523
621.68	14.031
622.01	14.333
622.34	14.525
622.67	14.511
623.00	14.319
623.33	14.024
623.66	13.388
623.99	13.918
624.32	13.992
624.65	13.759
624.99	14.898
625.32	12.661
625.65	15.082
625.98	14.182
626.31	13.799
626.64	14.645
626.97	13.962
627.30	14.886
627.63	14.385
627.96	14.555
628.29	13.599
628.62	15.438
628.95	15.130
629.28	15.323
629.61	14.058
629.94	14.663
630.26	15.514
630.59	15.921
630.92	14.256
631.25	13.333
631.58	15.198
631.91	13.487
632.24	15.711
632.57	15.114
632.90	15.658
633.23	14.824
633.56	14.106
633.89	14.427
634.22	15.309
634.55	15.375
634.88	15.709
635.20	14.872
635.53	15.333
635.86	12.354
636.19	16.171
636.52	15.179
636.85	14.764
637.18	14.088
637.51	16.226
637.83	14.323
638.16	15.143
638.49	13.215
638.82	14.737
639.15	14.247
639.48	14.443
639.81	16.457
640.13	14.141
640.46	16.764
640.79	15.464
641.12	13.885
641.45	15.616
641.77	17.333
642.10	14.850
642.43	14.148
642.76	16.007
643.09	15.509
643.41	15.372
643.74	16.474
644.07	15.435
644.40	15.878
644.73	16.462
645.05	16.107
645.38	15.873
645.71	15.248
646.04	14.722
646.36	15.248
646.69	18.885
647.02	16.068
647.35	14.179
647.67	15.174
648.00	19.030
648.33	16.041
648.66	14.237
648.98	14.908
649.31	15.207
649.64	15.071
649.96	14.100
650.29	15.843
650.62	17.949
650.94	15.556
651.27	14.339
651.60	14.775
651.92	15.559
652.25	15.275
652.58	15.167
652.90	19.726
653.23	15.798
653.56	14.890
653.88	15.636
654.21	12.259
654.54	16.638
654.86	16.129
655.19	14.766
655.52	14.009
655.84	11.901
656.17	13.259
656.49	17.804
656.82	18.825
657.15	14.280
657.47	10.740
657.80	7.933
658.13	7.700
658.45	11.836
658.78	11.797
659.10	11.925
659.43	13.092
659.75	12.383
660.08	13.172
660.41	14.505
660.73	16.713
661.06	14.211
661.38	15.460
661.71	14.374
662.03	15.880
662.36	16.264
662.68	14.602
663.01	17.467
663.33	17.633
663.66	13.953
663.98	14.186
664.31	16.418
664.63	14.286
664.96	13.478
665.28	13.466
665.61	16.883
665.93	16.304
666.26	17.570
666.58	17.450
666.91	14.588
667.23	17.925
667.56	16.588
667.88	16.547
668.21	18.138
668.53	18.676
668.86	17.217
669.18	16.038
669.50	15.981
669.83	17.209
670.15	17.249
670.48	17.225
670.80	16.820
671.13	18.121
671.45	16.667
671.77	17.382
672.10	17.624
672.42	14.045
672.75	16.163
673.07	16.995
673.39	15.229
673.72	13.807
674.04	15.208
674.37	19.703
674.69	16.702
675.01	18.667
675.34	14.189
675.66	17.130
675.98	15.743
676.31	17.890
676.63	14.014
676.95	15.455
677.28	18.353
677.60	18.072
677.92	14.908
678.25	15.098
678.57	14.502
678.89	14.496
679.22	14.094
679.54	13.655
679.86	15.308
680.18	15.340
680.51	16.288
680.83	14.911
681.15	18.600
681.48	15.164
681.80	16.322
682.12	17.137
682.44	12.971
682.77	18.543
683.09	16.705
683.41	17.273
683.73	16.129
684.06	16.814
684.38	13.548
684.70	13.943
685.02	14.523
685.34	15.217
685.67	15.572
685.99	16.637
686.31	15.044
686.63	14.286
686.96	15.779
687.28	13.737
687.60	13.878
687.92	16.364
688.24	15.927
688.56	15.721
688.89	15.179
689.21	17.778
689.53	14.849
689.85	13.953
690.17	15.179
690.49	14.657
690.82	15.291
691.14	12.619
691.46	15.888
691.78	13.739
692.10	14.624
692.42	15.152
692.74	16.026
693.06	16.216
693.39	12.670
693.71	15.837
694.03	13.857
694.35	13.785
694.67	17.677
694.99	15.927
695.31	19.321
695.63	16.500
695.95	13.131
696.27	15.285
696.59	18.611
696.91	14.846
697.23	13.882
697.56	12.129
697.88	18.280
698.20	16.856
698.52	15.059
698.84	13.876
699.16	15.250
699.48	16.792
699.80	15.136
700.12	15.633
700.44	19.048
700.76	16.570
701.08	13.939
701.40	15.060
701.72	22.222
702.04	18.152
702.36	17.391
702.68	16.216
703.00	19.091
703.32	14.663
703.64	13.842
703.96	15.652
704.28	16.871
704.60	15.873
704.91	16.404
705.23	13.621
705.55	16.961
705.87	17.690
706.19	15.556
706.51	17.182
706.83	18.971
707.15	12.461
707.47	15.406
707.79	15.365
708.11	13.000
708.43	14.500
708.74	16.796
709.06	18.028
709.38	19.266
709.70	14.201
710.02	16.879
710.34	19.195
710.66	14.423
710.98	14.901
711.29	19.016
711.61	17.627
711.93	19.544
712.25	19.244
712.57	17.582
712.89	12.687
713.20	20.069
713.52	17.422
713.84	17.747
714.16	14.089
714.48	15.161
714.80	16.026
715.11	19.453
715.43	12.226
715.75	9.667
716.07	17.608
716.39	19.128
716.70	14.760
717.02	12.595
717.34	19.028
717.66	19.469
717.97	15.652
718.29	16.736
718.61	19.291
718.93	16.279
719.24	18.251
719.56	18.876
719.88	20.619
720.20	17.045
720.51	14.943
720.83	18.147
721.15	15.126
721.46	15.323
721.78	12.253
722.10	18.216
722.42	12.448
722.73	18.367
723.05	21.224
723.37	19.915
723.68	24.324
724.00	17.949
724.32	14.667
724.63	13.636
724.95	18.777
725.27	17.512
725.58	21.186
725.90	13.095
726.22	17.761
726.53	19.322
726.85	17.603
727.16	16.604
727.48	14.575
727.80	20.648
728.11	17.373
728.43	17.255
728.74	14.113
729.06	20.800
729.38	19.549
729.69	13.147
730.01	13.462
730.32	16.045
730.64	19.435
730.96	15.472
731.27	14.667
731.59	17.966
731.90	15.605
732.22	19.243
732.53	17.608
732.85	15.957
733.16	22.222
733.48	5.396
733.80	13.043
734.11	11.186
734.43	16.838
734.74	18.485
735.06	13.355
735.37	16.012
735.69	16.162
736.00	14.983
736.32	14.430
736.63	15.141
736.95	16.724
737.26	14.591
737.58	10.738
737.89	12.454
738.21	17.669
738.52	18.107
738.83	15.284
739.15	13.537
739.46	16.535
739.78	14.652
740.09	12.418
740.41	20.652
740.72	16.535
741.04	14.980
741.35	16.170
741.66	19.431
741.98	16.837
742.29	16.832
742.61	21.466
742.92	12.796
743.23	14.815
743.55	17.647
743.86	17.225
744.18	16.746
744.49	14.362
744.80	10.870
745.12	27.807
745.43	12.195
745.74	17.188
746.06	17.561
746.37	16.230
746.68	14.218
747.00	13.830
747.31	19.900
747.62	10.680
747.94	20.096
748.25	16.832
748.56	14.754
748.88	14.136
749.19	20.213
749.50	16.749
749.82	9.906
750.13	15.138
750.44	18.421
750.75	21.269
751.07	21.168
751.38	14.943
751.69	11.765
752.01	17.442
752.32	17.131
752.63	9.486
752.94	15.948
753.26	20.921
753.57	14.027
753.88	16.814
754.19	13.333
754.51	14.876
754.82	18.623
755.13	16.250
755.44	19.758
755.75	14.453
756.07	14.786
756.38	13.208
756.69	9.579
757.00	15.667
757.31	17.647
757.63	13.720
757.94	14.444
758.25	13.699
758.56	13.032
758.87	11.048
759.18	17.134
759.50	11.636
759.81	17.057
760.12	13.548
760.43	14.545
760.74	14.815
761.05	16.615
761.36	14.205
761.67	14.545
761.99	15.646
762.30	12.364
762.61	17.391
762.92	15.837
763.23	12.613
763.54	10.748
763.85	14.407
764.16	18.672
764.47	13.306
764.78	15.385
765.10	18.519
765.41	14.826
765.72	12.381
766.03	10.526
766.34	16.423
766.65	21.514
766.96	16.162
767.27	18.617
767.58	16.092
767.89	16.312
768.20	12.500
768.51	18.132
768.82	19.212
769.13	7.834
769.44	11.588
769.75	11.872
770.06	18.966
770.37	15.385
770.68	17.259
770.99	14.480
771.30	13.725
771.61	14.027
771.92	18.103
772.23	18.227
772.54	18.280
772.85	16.049
773.16	19.663
773.47	18.954
773.78	13.725
774.09	18.563
774.39	15.333
774.70	21.019
775.01	27.586
775.32	15.000
775.63	8.264
775.94	16.031
776.25	19.685
776.56	14.167
776.87	12.500
777.18	11.111
777.48	13.793
777.79	17.391
778.10	14.286
778.41	25.225
778.72	21.429
779.03	17.293
779.34	24.823
779.65	15.068
779.95	8.219
780.26	11.724
780.57	13.821
780.88	12.598
781.19	11.207
781.50	17.054
781.80	14.201
782.11	7.547
782.42	13.077
782.73	9.353
783.04	18.519
783.34	16.667
783.65	3.419
783.96	18.033
784.27	16.552
784.57	16.260
784.88	21.094
785.19	19.000
785.50	26.000
785.81	32.759
786.11	18.966
786.42	18.447
786.73	22.727
787.04	18.367
787.34	22.321
787.65	11.429
787.96	7.965
788.26	21.818
788.57	19.658
788.88	25.000
789.19	18.254
789.49	11.304
789.80	5.102
790.11	24.242
790.41	12.727
790.72	25.000
791.03	19.318
791.33	27.500
791.64	15.000
791.95	11.628
792.25	21.277
792.56	22.472
792.87	12.329
793.17	23.188
793.48	28.000
793.79	12.500
794.09	30.000
794.40	16.981
794.70	22.330
795.01	20.325
795.32	9.402
795.62	22.857
795.93	19.608
796.23	13.208
796.54	18.750
796.85	25.000
797.15	19.718
797.46	15.278
797.76	30.303
798.07	26.744
798.37	30.263
798.68	1.515
798.99	16.049
799.29	27.143
799.60	11.594
799.90	21.333
800.21	22.951
800.51	9.231
800.82	28.814
801.12	34.783
801.43	14.754
801.73	31.746
802.04	28.000
802.34	11.940
802.65	40.385
802.95	0.000
803.26	13.462
803.56	29.412
803.87	4.348
804.17	24.000
804.48	26.984
804.78	16.667
805.09	23.913
805.39	22.222
805.70	24.074
806.00	-1.754
806.30	12.676
806.61	24.286
806.91	12.500
807.22	27.632
807.52	14.667
807.83	3.636
808.13	30.556
808.43	16.176
808.74	20.896
809.04	10.169
809.35	7.692
809.65	29.688
809.95	0.000
810.26	11.364
810.56	21.918
810.86	45.238
811.17	20.000
811.47	22.449
811.77	13.158
812.08	34.091
812.38	24.528
812.69	20.000
812.99	24.242
813.29	39.474
813.59	0.000
813.90	29.545
814.20	-15.385
814.50	25.000
814.81	16.981
815.11	12.766
815.41	28.814
815.72	19.048
816.02	37.255
816.32	39.583
816.62	56.098
816.93	0.000
817.23	40.000
817.53	54.167
817.84	4.348
818.14	11.538
818.44	-10.526
818.74	50.000
819.04	0.000
819.35	45.946
819.65	8.824
819.95	13.889
820.25	23.810
820.56	55.000
820.86	-27.586
821.16	52.500
821.46	46.809
821.76	52.500
822.07	30.233
822.37	-16.216
822.67	9.375
822.97	35.714
823.27	39.286
823.57	4.000
823.88	-14.815
824.18	28.571
824.48	35.294
824.78	29.032
825.08	21.739
825.38	42.424
825.69	16.667
825.99	18.421
826.29	16.667
826.59	53.333
826.89	19.048
827.19	23.913
827.49	32.500
827.79	48.571
828.09	75.000
828.39	15.152
828.70	43.243
829.00	35.714
829.30	-4.762
829.60	53.333
829.90	18.750
830.20	44.737
830.50	-7.407
830.80	21.739
831.10	18.182
831.40	33.333
831.70	19.355
832.00	-19.048
832.30	71.429
832.60	25.000
832.90	17.241
833.20	30.000
833.50	36.364
833.80	37.037
834.10	50.000
834.40	31.250
834.70	33.333
835.00	47.368
835.30	69.231
835.60	40.000
835.90	35.484
836.20	27.273
836.50	71.429
836.80	-15.385
837.10	35.714
837.40	0.000
837.70	54.545
838.00	36.364
838.30	21.739
838.60	38.462
838.90	81.818
839.19	39.286
839.49	33.333
839.79	30.769
840.09	-33.333
840.39	85.714
840.69	17.857
840.99	19.231
841.29	-36.842
841.59	-10.000
841.88	54.545
842.18	30.000
842.48	25.000
842.78	13.333
843.08	-3.704
843.38	-40.000
843.68	30.435
843.97	33.333
844.27	-26.667
844.57	15.000
844.87	44.444
845.17	-4.762
845.47	93.333
845.76	38.095
846.06	76.471
846.36	20.000
846.66	57.143
846.96	40.000
847.25	-37.500
847.55	78.571
847.85	100.000
848.15	36.364
848.44	-33.333
848.74	40.000
849.04	51.852
849.34	18.182
849.63	16.667
849.93	-140.000
850.23	27.778
850.53	140.000
850.82	92.308
851.12	33.333
851.42	33.333
851.71	-11.538
852.01	57.143
852.31	75.000
852.61	-9.091
852.90	50.000
853.20	78.947
853.50	16.667
853.79	34.783
854.09	41.667
854.39	-5.263
854.68	29.167
854.98	48.387
855.28	30.769
855.57	5.000
855.87	50.000
856.17	3.704
856.46	7.143
856.76	60.000
857.05	122.222
857.35	36.000
857.65	55.556
857.94	38.462
858.24	51.724
858.53	66.667
858.83	51.852
859.13	72.727
859.42	-8.696
859.72	125.000
860.01	-100.000
860.31	56.000
860.60	28.571
860.90	-66.667
861.20	0.000
861.49	-350.000
861.79	-26.667
862.08	30.000
862.38	120.000
862.67	60.000
862.97	-50.000
863.26	133.333
863.56	83.333
863.85	-366.667
864.15	27.778
864.44	50.000
864.74	107.143
865.03	175.000
865.33	-140.000
865.62	-100.000
865.92	33.333
866.21	16.667
866.51	50.000
866.80	0.000
867.10	100.000
867.39	133.333
867.69	0.000
867.98	7.692
868.27	33.333
868.57	40.000
868.86	33.333
869.16	7.692
869.45	53.333
869.75	400.000
870.04	0.000
870.33	-14.286
870.63	90.476
870.92	66.667
871.22	-20.000
871.51	200.000
871.80	133.333
872.10	400.000
>>>>>End Processed Spectral Data<<<<<
