SpectraSuite Data File
++++++++++++++++++++++++++++++++++++
Date: Fri May 15 17:05:59 PDT 2015
User: schluterlab
Dark Spectrum Present: Yes
Reference Spectrum Present: Yes
Number of Sampled Component Spectra: 1
Spectrometers: USB2E3373
Integration Time (usec): 3000 (USB2E3373)
Spectra Averaged: 3 (USB2E3373)
Boxcar Smoothing: 0 (USB2E3373)
Correct for Electrical Dark: No (USB2E3373)
Strobe/Lamp Enabled: No (USB2E3373)
Correct for Detector Non-linearity: No (USB2E3373)
Correct for Stray Light: No (USB2E3373)
Number of Pixels in Processed Spectrum: 2048
>>>>>Begin Processed Spectral Data<<<<<
178.53	0.000
178.91	0.000
179.29	150.000
179.67	150.000
180.04	-128.571
180.42	200.000
180.80	1100.000
181.18	-166.667
181.56	100.000
181.94	500.000
182.31	-700.000
182.69	20.000
183.07	233.333
183.45	100.000
183.83	-50.000
184.20	109.091
184.58	22.222
184.96	-300.000
185.34	-500.000
185.72	250.000
186.09	23.077
186.47	-100.000
186.85	33.333
187.23	44.444
187.61	-800.000
187.98	-166.667
188.36	88.889
188.74	233.333
189.12	88.235
189.49	38.889
189.87	0.000
190.25	114.286
190.63	500.000
191.00	200.000
191.38	21.053
191.76	400.000
192.14	-175.000
192.51	450.000
192.89	77.778
193.27	128.571
193.65	-183.333
194.02	-72.727
194.40	80.000
194.78	-125.000
195.15	75.000
195.53	37.500
195.91	75.000
196.29	175.000
196.66	23.077
197.04	-57.143
197.42	66.667
197.79	66.667
198.17	-15.385
198.55	600.000
198.92	-66.667
199.30	400.000
199.68	180.000
200.05	-66.667
200.43	0.000
200.81	233.333
201.18	133.333
201.56	-0.000
201.94	100.000
202.31	-333.333
202.69	-60.000
203.07	-50.000
203.44	1200.000
203.82	0.000
204.19	135.714
204.57	-33.333
204.95	125.000
205.32	120.000
205.70	228.571
206.08	100.000
206.45	233.333
206.83	92.857
207.20	57.143
207.58	-600.000
207.96	-133.333
208.33	60.000
208.71	525.000
209.08	-83.333
209.46	1300.000
209.84	20.000
210.21	-100.000
210.59	200.000
210.96	283.333
211.34	225.000
211.71	66.667
212.09	85.714
212.46	-1100.000
212.84	0.000
213.22	80.000
213.59	-100.000
213.97	92.308
214.34	81.818
214.72	83.333
215.09	75.000
215.47	38.462
215.84	18.182
216.22	400.000
216.59	100.000
216.97	250.000
217.34	25.000
217.72	0.000
218.09	225.000
218.47	-37.500
218.84	600.000
219.22	22.222
219.59	120.000
219.97	100.000
220.34	-50.000
220.72	114.286
221.09	75.000
221.47	450.000
221.84	50.000
222.22	50.000
222.59	45.455
222.97	100.000
223.34	300.000
223.72	107.143
224.09	57.143
224.46	46.429
224.84	-33.333
225.21	90.000
225.59	106.667
225.96	0.000
226.34	50.000
226.71	42.857
227.08	266.667
227.46	0.000
227.83	150.000
228.21	22.222
228.58	100.000
228.95	50.000
229.33	-30.000
229.70	87.500
230.08	0.000
230.45	57.143
230.82	114.286
231.20	33.333
231.57	85.714
231.95	228.571
232.32	30.000
232.69	107.143
233.07	466.667
233.44	0.000
233.81	100.000
234.19	133.333
234.56	-11.765
234.93	-250.000
235.31	25.000
235.68	-60.000
236.05	0.000
236.43	75.000
236.80	94.118
237.17	34.375
237.55	85.000
237.92	11.111
238.29	36.111
238.67	56.667
239.04	14.706
239.41	19.512
239.79	26.667
240.16	73.171
240.53	36.842
240.91	17.391
241.28	41.270
241.65	30.357
242.02	43.836
242.40	36.667
242.77	38.983
243.14	27.273
243.51	28.750
243.89	36.782
244.26	18.391
244.63	33.333
245.00	29.897
245.38	36.082
245.75	17.978
246.12	16.379
246.49	33.058
246.87	30.769
247.24	21.849
247.61	22.807
247.98	30.081
248.36	25.625
248.73	23.684
249.10	22.727
249.47	25.949
249.84	18.954
250.22	21.765
250.59	24.837
250.96	25.822
251.33	25.000
251.70	26.471
252.08	22.335
252.45	21.782
252.82	26.131
253.19	25.346
253.56	19.159
253.94	20.721
254.31	23.043
254.68	25.877
255.05	21.654
255.42	25.328
255.79	24.710
256.16	23.346
256.54	26.119
256.91	24.335
257.28	23.792
257.65	22.097
258.02	19.504
258.39	24.579
258.76	24.542
259.14	24.585
259.51	21.683
259.88	20.619
260.25	28.431
260.62	25.347
260.99	23.390
261.36	19.521
261.73	21.835
262.10	19.757
262.47	23.006
262.85	21.003
263.22	20.308
263.59	22.118
263.96	25.155
264.33	19.091
264.70	20.238
265.07	27.381
265.44	22.946
265.81	20.339
266.18	23.770
266.55	25.450
266.92	22.798
267.29	24.021
267.66	21.228
268.03	26.440
268.40	20.366
268.77	24.332
269.14	23.741
269.51	25.193
269.88	22.195
270.25	20.663
270.62	22.439
270.99	18.670
271.36	21.027
271.73	20.892
272.10	21.168
272.47	20.804
272.84	23.267
273.21	20.882
273.58	24.096
273.95	21.510
274.32	21.709
274.69	22.398
275.06	22.768
275.43	21.542
275.80	21.192
276.17	20.690
276.54	21.627
276.91	23.246
277.28	18.777
277.65	22.314
278.02	20.638
278.39	21.663
278.76	20.755
279.13	18.672
279.50	21.639
279.87	21.598
280.23	21.935
280.60	23.197
280.97	20.606
281.34	19.808
281.71	20.329
282.08	19.427
282.45	20.939
282.82	20.849
283.19	21.470
283.56	21.002
283.92	18.216
284.29	20.769
284.66	18.992
285.03	22.004
285.40	19.849
285.77	19.156
286.14	18.412
286.51	21.402
286.87	18.282
287.24	19.890
287.61	18.871
287.98	22.105
288.35	18.891
288.72	20.665
289.08	19.271
289.45	19.508
289.82	19.056
290.19	18.430
290.56	17.153
290.93	18.687
291.29	16.487
291.66	19.055
292.03	17.703
292.40	18.387
292.77	16.587
293.13	15.260
293.50	15.630
293.87	17.710
294.24	16.538
294.60	16.841
294.97	16.815
295.34	17.178
295.71	16.990
296.08	15.845
296.44	13.798
296.81	16.528
297.18	15.507
297.55	16.396
297.91	16.712
298.28	15.699
298.65	15.604
299.02	14.286
299.38	14.911
299.75	15.862
300.12	15.969
300.48	13.570
300.85	16.477
301.22	15.584
301.59	13.553
301.95	16.076
302.32	16.083
302.69	13.682
303.05	15.718
303.42	14.570
303.79	15.187
304.15	16.607
304.52	14.507
304.89	13.801
305.25	14.165
305.62	14.002
305.99	13.918
306.35	13.295
306.72	14.398
307.09	14.595
307.45	13.318
307.82	15.278
308.19	14.866
308.55	14.940
308.92	14.379
309.29	13.966
309.65	14.855
310.02	15.622
310.38	14.270
310.75	15.191
311.12	14.101
311.48	15.483
311.85	14.031
312.22	13.924
312.58	14.862
312.95	13.981
313.31	14.286
313.68	14.031
314.05	14.592
314.41	14.845
314.78	15.155
315.14	16.341
315.51	16.563
315.87	17.008
316.24	17.695
316.61	17.421
316.97	18.552
317.34	17.090
317.70	19.025
318.07	17.981
318.43	19.510
318.80	18.371
319.16	20.117
319.53	21.178
319.89	20.965
320.26	22.065
320.62	21.665
320.99	21.921
321.35	22.816
321.72	23.884
322.08	24.471
322.45	24.975
322.81	26.523
323.18	24.828
323.54	28.475
323.91	26.582
324.27	28.516
324.64	29.869
325.00	30.566
325.37	31.772
325.73	31.822
326.10	33.152
326.46	34.709
326.83	36.045
327.19	36.094
327.56	38.054
327.92	37.676
328.29	37.679
328.65	39.906
329.01	38.787
329.38	40.000
329.74	40.321
330.11	42.447
330.47	41.280
330.84	42.692
331.20	44.582
331.56	42.315
331.93	45.388
332.29	46.654
332.66	47.330
333.02	45.446
333.38	45.738
333.75	46.886
334.11	45.121
334.48	48.776
334.84	48.901
335.20	47.667
335.57	48.504
335.93	48.509
336.29	50.737
336.66	49.046
337.02	49.628
337.38	49.352
337.75	50.364
338.11	48.602
338.47	51.642
338.84	51.571
339.20	51.005
339.56	51.927
339.93	52.283
340.29	53.119
340.65	50.986
341.02	50.887
341.38	52.035
341.74	53.357
342.11	50.087
342.47	51.868
342.83	53.633
343.20	51.829
343.56	53.130
343.92	53.499
344.28	51.580
344.65	52.591
345.01	51.945
345.37	51.051
345.73	53.054
346.10	53.926
346.46	52.313
346.82	53.110
347.19	51.704
347.55	53.383
347.91	53.236
348.27	52.870
348.63	53.578
349.00	52.338
349.36	52.286
349.72	55.141
350.08	53.934
350.45	52.594
350.81	54.900
351.17	52.932
351.53	53.388
351.89	52.519
352.26	51.920
352.62	54.113
352.98	52.771
353.34	52.496
353.70	55.340
354.07	53.145
354.43	54.203
354.79	53.840
355.15	55.238
355.51	54.984
355.87	54.935
356.24	53.018
356.60	54.568
356.96	55.397
357.32	55.192
357.68	54.965
358.04	55.250
358.40	54.341
358.77	56.699
359.13	55.965
359.49	54.468
359.85	56.318
360.21	56.858
360.57	55.853
360.93	56.505
361.29	56.344
361.66	55.956
362.02	57.879
362.38	56.436
362.74	58.213
363.10	58.239
363.46	57.746
363.82	57.400
364.18	57.269
364.54	56.691
364.90	58.853
365.26	58.079
365.62	59.124
365.98	59.531
366.35	59.213
366.71	59.571
367.07	58.781
367.43	57.656
367.79	58.304
368.15	60.445
368.51	59.359
368.87	59.655
369.23	59.422
369.59	61.224
369.95	61.950
370.31	60.838
370.67	62.090
371.03	60.194
371.39	60.248
371.75	61.099
372.11	61.056
372.47	63.683
372.83	62.527
373.19	61.912
373.55	61.444
373.91	63.499
374.27	63.643
374.63	64.250
374.99	63.404
375.35	63.788
375.71	65.175
376.07	63.694
376.42	65.442
376.78	64.899
377.14	64.658
377.50	66.003
377.86	65.596
378.22	64.837
378.58	64.679
378.94	65.406
379.30	65.315
379.66	66.019
380.02	66.524
380.38	65.855
380.74	65.410
381.09	67.546
381.45	67.584
381.81	66.502
382.17	68.591
382.53	67.708
382.89	68.801
383.25	68.575
383.61	67.866
383.97	69.714
384.32	68.730
384.68	69.102
385.04	68.995
385.40	68.451
385.76	70.692
386.12	69.664
386.48	70.498
386.83	69.182
387.19	69.780
387.55	70.828
387.91	70.660
388.27	70.208
388.62	71.680
388.98	70.411
389.34	70.019
389.70	72.654
390.06	69.289
390.42	71.373
390.77	71.681
391.13	70.996
391.49	70.957
391.85	72.515
392.20	71.563
392.56	71.774
392.92	72.695
393.28	71.934
393.64	72.312
393.99	72.915
394.35	72.170
394.71	73.308
395.07	71.464
395.42	70.795
395.78	73.941
396.14	72.005
396.50	73.114
396.85	74.694
397.21	72.431
397.57	72.602
397.92	71.660
398.28	73.391
398.64	71.566
399.00	73.589
399.35	71.106
399.71	71.281
400.07	72.914
400.42	73.011
400.78	72.566
401.14	72.777
401.49	72.424
401.85	72.700
402.21	72.771
402.57	73.063
402.92	72.710
403.28	72.619
403.63	72.762
403.99	73.023
404.35	74.079
404.70	71.786
405.06	72.033
405.42	72.467
405.77	72.284
406.13	71.362
406.49	71.462
406.84	72.861
407.20	72.607
407.55	72.118
407.91	71.725
408.27	71.765
408.62	72.615
408.98	72.397
409.34	72.181
409.69	71.447
410.05	72.414
410.40	72.778
410.76	72.195
411.11	72.000
411.47	71.861
411.83	71.751
412.18	73.552
412.54	73.159
412.89	70.628
413.25	73.165
413.60	72.174
413.96	69.877
414.31	71.890
414.67	70.750
415.03	71.971
415.38	70.170
415.74	72.508
416.09	73.220
416.45	71.506
416.80	71.778
417.16	73.550
417.51	73.684
417.87	72.229
418.22	73.834
418.58	73.110
418.93	74.295
419.29	72.343
419.64	73.688
420.00	75.189
420.35	73.134
420.71	73.512
421.06	73.972
421.42	73.137
421.77	75.318
422.12	73.212
422.48	74.228
422.83	74.652
423.19	74.887
423.54	75.838
423.90	74.558
424.25	75.431
424.61	75.275
424.96	74.623
425.31	75.679
425.67	77.230
426.02	76.207
426.38	78.147
426.73	78.450
427.09	77.658
427.44	76.529
427.79	77.961
428.15	77.063
428.50	78.437
428.85	77.088
429.21	78.098
429.56	78.706
429.92	78.120
430.27	77.193
430.62	78.725
430.98	77.282
431.33	77.234
431.68	78.336
432.04	78.591
432.39	78.836
432.74	78.292
433.10	79.885
433.45	80.048
433.80	81.428
434.16	80.055
434.51	78.226
434.86	79.733
435.22	80.426
435.57	82.533
435.92	82.156
436.28	78.533
436.63	81.232
436.98	80.070
437.34	81.246
437.69	82.111
438.04	81.026
438.39	81.063
438.75	83.121
439.10	82.230
439.45	83.201
439.81	83.609
440.16	83.195
440.51	83.522
440.86	84.713
441.22	82.353
441.57	85.155
441.92	86.411
442.27	84.035
442.63	83.726
442.98	85.123
443.33	84.418
443.68	83.342
444.03	84.203
444.39	84.112
444.74	86.399
445.09	85.523
445.44	85.641
445.79	87.313
446.15	84.912
446.50	84.526
446.85	86.663
447.20	85.193
447.55	85.100
447.91	87.140
448.26	85.373
448.61	86.874
448.96	86.517
449.31	88.150
449.66	85.772
450.02	87.336
450.37	87.255
450.72	86.082
451.07	87.405
451.42	86.330
451.77	86.438
452.12	86.065
452.47	86.156
452.83	86.514
453.18	87.982
453.53	87.674
453.88	87.675
454.23	87.154
454.58	88.476
454.93	87.113
455.28	85.524
455.63	89.151
455.98	87.011
456.34	87.548
456.69	88.056
457.04	89.099
457.39	89.247
457.74	89.359
458.09	85.992
458.44	87.303
458.79	87.675
459.14	88.558
459.49	87.045
459.84	88.156
460.19	87.379
460.54	88.386
460.89	89.375
461.24	89.503
461.59	87.114
461.94	88.176
462.29	87.937
462.64	88.173
462.99	89.506
463.34	88.943
463.69	89.833
464.04	89.709
464.39	87.750
464.74	88.528
465.09	89.333
465.44	88.113
465.79	84.580
466.14	87.856
466.49	88.097
466.84	88.697
467.19	88.298
467.54	88.123
467.89	89.829
468.24	89.234
468.59	89.714
468.94	88.889
469.29	88.197
469.64	88.859
469.99	90.259
470.34	88.874
470.68	91.275
471.03	88.323
471.38	89.800
471.73	89.356
472.08	88.670
472.43	88.725
472.78	88.897
473.13	90.000
473.48	88.925
473.83	87.235
474.17	89.313
474.52	89.789
474.87	89.879
475.22	88.957
475.57	86.957
475.92	89.962
476.27	89.581
476.61	90.625
476.96	88.957
477.31	89.454
477.66	87.865
478.01	90.399
478.36	88.399
478.70	91.517
479.05	90.165
479.40	89.295
479.75	89.468
480.10	88.172
480.45	89.100
480.79	89.527
481.14	90.318
481.49	88.818
481.84	90.347
482.19	88.681
482.53	90.552
482.88	89.356
483.23	88.052
483.58	88.349
483.92	88.190
484.27	87.557
484.62	88.794
484.97	87.852
485.31	88.692
485.66	87.023
486.01	85.720
486.36	83.625
486.70	85.063
487.05	84.945
487.40	86.556
487.75	86.845
488.09	86.125
488.44	87.380
488.79	88.457
489.13	87.981
489.48	89.568
489.83	87.265
490.17	88.225
490.52	89.931
490.87	88.431
491.22	89.303
491.56	88.283
491.91	88.528
492.26	90.666
492.60	89.347
492.95	89.867
493.30	88.276
493.64	90.963
493.99	89.469
494.34	88.835
494.68	88.952
495.03	89.197
495.37	90.137
495.72	90.459
496.07	90.780
496.41	89.434
496.76	90.788
497.11	88.682
497.45	89.881
497.80	91.726
498.14	88.425
498.49	90.300
498.84	89.820
499.18	90.813
499.53	89.931
499.87	89.446
500.22	89.515
500.56	90.066
500.91	89.357
501.26	89.174
501.60	91.294
501.95	90.393
502.29	89.104
502.64	90.444
502.98	90.627
503.33	90.010
503.67	89.976
504.02	89.687
504.36	90.500
504.71	88.737
505.06	89.029
505.40	91.117
505.75	92.474
506.09	90.573
506.44	91.581
506.78	90.561
507.13	90.848
507.47	88.982
507.82	92.254
508.16	90.808
508.51	91.763
508.85	90.267
509.19	91.378
509.54	91.046
509.88	91.640
510.23	91.877
510.57	91.074
510.92	89.765
511.26	92.035
511.61	91.969
511.95	91.616
512.30	92.295
512.64	92.376
512.98	90.904
513.33	91.438
513.67	92.609
514.02	92.391
514.36	93.600
514.70	93.881
515.05	94.418
515.39	91.854
515.74	94.970
516.08	93.724
516.42	96.172
516.77	93.095
517.11	92.878
517.46	94.315
517.80	93.802
518.14	94.121
518.49	92.187
518.83	93.317
519.17	93.511
519.52	92.007
519.86	92.797
520.20	94.107
520.55	93.996
520.89	93.162
521.23	93.287
521.58	95.142
521.92	95.513
522.26	95.055
522.61	95.065
522.95	96.424
523.29	94.727
523.64	93.901
523.98	97.084
524.32	95.039
524.66	95.070
525.01	96.039
525.35	94.102
525.69	96.431
526.04	94.974
526.38	96.109
526.72	94.441
527.06	93.191
527.41	94.525
527.75	93.834
528.09	94.485
528.43	96.962
528.78	95.380
529.12	95.871
529.46	95.647
529.80	93.097
530.15	94.917
530.49	97.845
530.83	96.306
531.17	94.560
531.51	96.922
531.86	94.494
532.20	95.268
532.54	94.690
532.88	96.304
533.22	94.019
533.57	93.971
533.91	94.778
534.25	97.070
534.59	92.816
534.93	93.329
535.27	94.797
535.62	94.945
535.96	94.716
536.30	94.855
536.64	96.003
536.98	94.774
537.32	96.444
537.66	95.582
538.01	96.783
538.35	95.146
538.69	94.474
539.03	94.805
539.37	94.953
539.71	94.547
540.05	95.248
540.39	93.906
540.73	95.188
541.07	94.199
541.42	94.086
541.76	98.004
542.10	94.976
542.44	96.178
542.78	94.425
543.12	96.085
543.46	96.453
543.80	94.934
544.14	92.523
544.48	94.071
544.82	96.719
545.16	95.902
545.50	95.661
545.84	95.326
546.18	97.092
546.52	95.818
546.86	95.615
547.20	95.351
547.54	93.569
547.88	94.497
548.22	93.754
548.56	93.997
548.90	95.081
549.24	94.215
549.58	94.852
549.92	94.425
550.26	95.238
550.60	97.993
550.94	96.789
551.28	96.600
551.62	96.923
551.96	96.767
552.30	97.003
552.64	95.063
552.98	96.343
553.32	96.648
553.66	96.444
554.00	98.102
554.34	97.784
554.68	95.944
555.02	96.949
555.36	98.953
555.69	96.923
556.03	96.146
556.37	95.943
556.71	98.051
557.05	99.105
557.39	95.167
557.73	97.601
558.07	98.039
558.41	97.703
558.75	99.454
559.08	98.503
559.42	98.095
559.76	101.121
560.10	98.165
560.44	96.798
560.78	97.413
561.12	99.436
561.45	98.805
561.79	100.490
562.13	98.013
562.47	100.288
562.81	97.118
563.15	97.038
563.48	99.010
563.82	99.039
564.16	98.329
564.50	95.811
564.84	96.118
565.17	95.842
565.51	100.478
565.85	101.029
566.19	97.281
566.52	98.995
566.86	98.008
567.20	96.451
567.54	98.054
567.88	98.653
568.21	96.550
568.55	97.880
568.89	96.663
569.23	97.352
569.56	96.147
569.90	96.143
570.24	93.599
570.57	94.764
570.91	95.469
571.25	92.601
571.59	91.965
571.92	90.311
572.26	91.848
572.60	92.031
572.93	91.654
573.27	90.909
573.61	92.930
573.95	91.644
574.28	91.605
574.62	90.821
574.96	89.429
575.29	89.652
575.63	89.427
575.97	90.756
576.30	91.650
576.64	90.305
576.98	92.021
577.31	92.259
577.65	91.743
577.98	91.420
578.32	90.010
578.66	89.706
578.99	90.009
579.33	89.883
579.67	89.654
580.00	91.443
580.34	91.741
580.67	90.554
581.01	91.402
581.35	90.784
581.68	90.494
582.02	90.787
582.35	89.898
582.69	90.923
583.02	90.942
583.36	91.412
583.70	92.627
584.03	94.384
584.37	94.353
584.70	93.516
585.04	92.021
585.37	92.875
585.71	92.545
586.04	91.957
586.38	92.078
586.72	93.286
587.05	93.732
587.39	93.486
587.72	94.806
588.06	93.025
588.39	93.649
588.73	94.353
589.06	96.086
589.40	94.504
589.73	95.692
590.07	95.997
590.40	96.981
590.73	98.600
591.07	97.116
591.40	96.215
591.74	97.557
592.07	98.377
592.41	97.394
592.74	96.655
593.08	95.145
593.41	94.629
593.75	94.504
594.08	94.782
594.41	95.233
594.75	95.382
595.08	96.595
595.42	95.731
595.75	97.860
596.09	97.107
596.42	97.189
596.75	97.558
597.09	97.494
597.42	97.561
597.75	99.404
598.09	96.288
598.42	97.834
598.76	97.426
599.09	97.356
599.42	95.263
599.76	96.238
600.09	97.021
600.42	96.247
600.76	95.097
601.09	96.870
601.42	95.574
601.76	98.253
602.09	97.525
602.42	98.568
602.76	98.132
603.09	98.505
603.42	101.087
603.76	97.460
604.09	96.922
604.42	98.181
604.76	99.466
605.09	98.629
605.42	98.284
605.75	98.511
606.09	98.599
606.42	97.039
606.75	97.013
607.09	97.187
607.42	98.272
607.75	98.357
608.08	96.990
608.42	97.213
608.75	101.349
609.08	101.345
609.41	100.457
609.75	100.706
610.08	101.947
610.41	99.662
610.74	100.049
611.07	101.654
611.41	101.661
611.74	102.026
612.07	100.589
612.40	101.204
612.73	103.107
613.07	101.687
613.40	100.821
613.73	102.518
614.06	99.722
614.39	100.733
614.72	99.944
615.06	103.073
615.39	99.454
615.72	99.247
616.05	102.179
616.38	98.575
616.71	100.795
617.05	101.359
617.38	103.080
617.71	103.836
618.04	105.905
618.37	104.603
618.70	106.931
619.03	106.042
619.36	105.789
619.69	106.823
620.03	105.625
620.36	104.363
620.69	104.354
621.02	103.823
621.35	106.141
621.68	109.694
622.01	108.667
622.34	107.023
622.67	105.521
623.00	105.972
623.33	106.631
623.66	105.834
623.99	103.858
624.32	105.779
624.65	105.489
624.99	107.223
625.32	106.748
625.65	108.720
625.98	108.944
626.31	107.232
626.64	110.052
626.97	109.511
627.30	108.144
627.63	107.626
627.96	110.512
628.29	109.806
628.62	110.324
628.95	109.820
629.28	113.609
629.61	109.870
629.94	114.076
630.26	110.672
630.59	114.360
630.92	112.410
631.25	108.615
631.58	114.427
631.91	113.706
632.24	114.679
632.57	113.750
632.90	114.947
633.23	112.353
633.56	118.262
633.89	114.427
634.22	116.420
634.55	117.916
634.88	115.070
635.20	116.795
635.53	118.667
635.86	115.085
636.19	116.688
636.52	118.367
636.85	113.400
637.18	115.346
637.51	114.340
637.83	116.294
638.16	119.782
638.49	114.033
638.82	115.789
639.15	118.589
639.48	116.369
639.81	119.665
640.13	118.759
640.46	119.534
640.79	118.704
641.12	116.248
641.45	120.120
641.77	117.333
642.10	122.433
642.43	121.383
642.76	120.957
643.09	118.578
643.41	117.799
643.74	119.440
644.07	119.048
644.40	125.845
644.73	125.394
645.05	117.617
645.38	123.457
645.71	122.340
646.04	123.519
646.36	119.504
646.69	123.201
647.02	129.490
647.35	126.306
647.67	122.669
648.00	124.627
648.33	119.795
648.66	121.525
648.98	121.441
649.31	120.992
649.64	119.623
649.96	116.694
650.29	121.465
650.62	120.342
650.94	125.741
651.27	122.905
651.60	125.045
651.92	121.154
652.25	121.492
652.58	121.000
652.90	121.784
653.23	118.824
653.56	119.628
653.88	119.244
654.21	125.744
654.54	118.336
654.86	120.204
655.19	115.643
655.52	108.669
655.84	98.260
656.17	100.000
656.49	100.000
656.82	100.000
657.15	100.000
657.47	100.000
657.80	100.000
658.13	95.754
658.45	101.353
658.78	100.999
659.10	101.627
659.43	105.208
659.75	109.028
660.08	108.552
660.41	115.015
660.73	117.680
661.06	124.610
661.38	123.288
661.71	122.998
662.03	126.824
662.36	126.154
662.68	128.540
663.01	124.236
663.33	131.787
663.66	131.628
663.98	125.349
664.31	123.241
664.63	127.189
664.96	120.870
665.28	123.841
665.61	127.706
665.93	127.826
666.26	130.369
666.58	125.951
666.91	132.471
667.23	130.425
667.56	133.886
667.88	129.017
668.21	129.117
668.53	126.714
668.86	130.189
669.18	125.708
669.50	130.508
669.83	127.907
670.15	126.573
670.48	130.383
670.80	129.724
671.13	120.582
671.45	126.256
671.77	124.678
672.10	123.366
672.42	120.599
672.75	124.334
673.07	119.499
673.39	122.385
673.72	122.880
674.04	122.500
674.37	126.483
674.69	122.912
675.01	128.444
675.34	125.225
675.66	126.852
675.98	123.060
676.31	126.147
676.63	125.891
676.95	123.409
677.28	126.588
677.60	128.916
677.92	127.752
678.25	124.508
678.57	121.861
678.89	121.429
679.22	132.662
679.54	120.683
679.86	120.080
680.18	126.796
680.51	125.379
680.83	120.278
681.15	120.800
681.48	123.566
681.80	123.347
682.12	121.371
682.44	123.431
682.77	126.049
683.09	125.858
683.41	122.273
683.73	124.194
684.06	125.000
684.38	121.290
684.70	131.155
685.02	124.481
685.34	121.542
685.67	119.137
685.99	118.987
686.31	117.522
686.63	120.037
686.96	115.589
687.28	120.606
687.60	117.681
687.92	124.646
688.24	123.790
688.56	123.362
688.89	125.000
689.21	120.444
689.53	125.290
689.85	124.651
690.17	121.429
690.49	123.877
690.82	127.670
691.14	123.333
691.46	124.533
691.78	124.099
692.10	125.161
692.42	120.779
692.74	119.231
693.06	124.775
693.39	122.398
693.71	119.683
694.03	123.788
694.35	121.495
694.67	126.010
694.99	123.499
695.31	124.543
695.63	121.750
695.95	121.212
696.27	125.648
696.59	125.000
696.91	125.770
697.23	124.679
697.56	126.238
697.88	120.215
698.20	127.790
698.52	124.235
698.84	122.967
699.16	123.250
699.48	125.815
699.80	120.596
700.12	127.493
700.44	130.252
700.76	125.000
701.08	125.455
701.40	130.120
701.72	138.272
702.04	133.663
702.36	138.796
702.68	127.327
703.00	129.091
703.32	124.340
703.64	120.621
703.96	122.319
704.28	126.380
704.60	130.159
704.91	124.606
705.23	129.236
705.55	134.276
705.87	134.296
706.19	133.704
706.51	128.866
706.83	132.154
707.15	128.972
707.47	122.969
707.79	123.177
708.11	120.750
708.43	124.750
708.74	118.088
709.06	126.197
709.38	125.688
709.70	126.923
710.02	126.433
710.34	124.149
710.66	121.474
710.98	132.119
711.29	130.820
711.61	133.898
711.93	126.059
712.25	130.928
712.57	129.670
712.89	133.209
713.20	124.221
713.52	122.648
713.84	123.891
714.16	128.522
714.48	125.161
714.80	124.038
715.11	124.012
715.43	123.511
715.75	128.333
716.07	122.924
716.39	125.503
716.70	134.317
717.02	125.191
717.34	130.769
717.66	143.805
717.97	134.783
718.29	134.728
718.61	126.772
718.93	131.008
719.24	127.376
719.56	136.145
719.88	124.055
720.20	128.788
720.51	124.521
720.83	133.591
721.15	134.874
721.46	130.242
721.78	126.877
722.10	120.446
722.42	129.461
722.73	128.980
723.05	135.510
723.37	128.814
723.68	132.432
724.00	132.906
724.32	127.556
724.63	129.545
724.95	133.624
725.27	136.406
725.58	133.475
725.90	126.587
726.22	122.008
726.53	116.610
726.85	124.345
727.16	127.170
727.48	130.769
727.80	131.579
728.11	132.203
728.43	117.647
728.74	125.000
729.06	124.000
729.38	122.180
729.69	128.287
730.01	126.154
730.32	122.015
730.64	121.555
730.96	131.698
731.27	116.667
731.59	128.136
731.90	119.745
732.22	118.297
732.53	123.588
732.85	126.596
733.16	123.569
733.48	122.662
733.80	130.435
734.11	124.068
734.43	125.430
734.74	120.909
735.06	121.824
735.37	120.242
735.69	123.232
736.00	120.209
736.32	116.107
736.63	125.352
736.95	120.819
737.26	120.641
737.58	113.423
737.89	126.740
738.21	127.820
738.52	135.391
738.83	137.991
739.15	131.004
739.46	125.591
739.78	119.780
740.09	113.725
740.41	126.812
740.72	129.528
741.04	125.506
741.35	121.702
741.66	128.910
741.98	134.184
742.29	127.228
742.61	130.890
742.92	118.009
743.23	118.056
743.55	127.149
743.86	131.100
744.18	124.880
744.49	125.532
744.80	132.065
745.12	142.246
745.43	120.488
745.74	133.854
746.06	130.732
746.37	131.937
746.68	124.645
747.00	131.383
747.31	133.333
747.62	133.495
747.94	131.579
748.25	131.188
748.56	142.623
748.88	132.461
749.19	141.489
749.50	124.138
749.82	125.943
750.13	130.275
750.44	120.677
750.75	125.373
751.07	125.547
751.38	124.521
751.69	123.137
752.01	122.868
752.32	127.490
752.63	121.344
752.94	129.741
753.26	130.126
753.57	128.507
753.88	124.779
754.19	126.667
754.51	121.074
754.82	119.433
755.13	129.583
755.44	122.984
755.75	125.781
756.07	126.070
756.38	116.981
756.69	122.605
757.00	115.333
757.31	116.667
757.63	108.232
757.94	110.833
758.25	110.959
758.56	118.085
758.87	110.198
759.18	113.707
759.50	121.818
759.81	117.726
760.12	118.710
760.43	109.697
760.74	120.679
761.05	116.923
761.36	108.523
761.67	119.697
761.99	121.429
762.30	116.364
762.61	120.949
762.92	126.244
763.23	121.622
763.54	130.841
763.85	118.644
764.16	127.801
764.47	118.952
764.78	109.158
765.10	115.488
765.41	111.987
765.72	116.190
766.03	122.180
766.34	115.693
766.65	118.327
766.96	134.848
767.27	124.468
767.58	125.862
767.89	147.518
768.20	114.205
768.51	117.582
768.82	108.867
769.13	118.433
769.44	114.163
769.75	119.635
770.06	114.655
770.37	122.596
770.68	123.858
770.99	110.407
771.30	122.549
771.61	120.814
771.92	121.552
772.23	123.645
772.54	121.505
772.85	133.333
773.16	121.348
773.47	133.333
773.78	132.026
774.09	112.575
774.39	124.000
774.70	112.739
775.01	122.759
775.32	121.429
775.63	137.190
775.94	119.847
776.25	127.559
776.56	122.500
776.87	138.462
777.18	116.239
777.48	125.000
777.79	129.565
778.10	119.048
778.41	125.225
778.72	122.222
779.03	124.060
779.34	129.078
779.65	126.027
779.95	109.589
780.26	118.621
780.57	125.203
780.88	111.024
781.19	130.172
781.50	122.481
781.80	108.876
782.11	119.497
782.42	134.615
782.73	123.741
783.04	131.111
783.34	114.583
783.65	121.368
783.96	127.869
784.27	111.724
784.57	126.829
784.88	110.937
785.19	130.000
785.50	134.000
785.81	123.276
786.11	106.897
786.42	127.184
786.73	130.909
787.04	133.673
787.34	110.714
787.65	121.905
787.96	120.354
788.26	130.000
788.57	117.949
788.88	126.563
789.19	110.317
789.49	120.870
789.80	131.633
790.11	124.242
790.41	106.364
790.72	127.174
791.03	123.864
791.33	140.000
791.64	126.250
791.95	120.930
792.25	117.021
792.56	122.472
792.87	132.877
793.17	137.681
793.48	122.667
793.79	117.500
794.09	126.250
794.40	116.981
794.70	124.272
795.01	107.317
795.32	113.675
795.62	110.476
795.93	121.569
796.23	119.811
796.54	110.417
796.85	132.353
797.15	126.761
797.46	125.000
797.76	125.758
798.07	106.977
798.37	122.368
798.68	121.212
798.99	114.815
799.29	112.857
799.60	121.739
799.90	105.333
800.21	147.541
800.51	118.462
800.82	116.949
801.12	120.290
801.43	118.033
801.73	139.683
802.04	148.000
802.34	110.448
802.65	130.769
802.95	103.571
803.26	138.462
803.56	129.412
803.87	115.217
804.17	94.667
804.48	120.635
804.78	144.444
805.09	145.652
805.39	151.111
805.70	116.667
806.00	110.526
806.30	111.268
806.61	122.857
806.91	97.222
807.22	126.316
807.52	128.000
807.83	101.818
808.13	109.722
808.43	132.353
808.74	126.866
809.04	106.780
809.35	163.462
809.65	106.250
809.95	159.459
810.26	154.545
810.56	93.151
810.86	150.000
811.17	126.000
811.47	140.816
811.77	150.000
812.08	145.455
812.38	120.755
812.69	127.500
812.99	151.515
813.29	115.789
813.59	108.571
813.90	118.182
814.20	133.333
814.50	125.000
814.81	124.528
815.11	129.787
815.41	101.695
815.72	107.143
816.02	109.804
816.32	97.917
816.62	126.829
816.93	118.919
817.23	122.857
817.53	129.167
817.84	134.783
818.14	98.077
818.44	123.684
818.74	108.696
819.04	67.500
819.35	135.135
819.65	123.529
819.95	105.556
820.25	107.143
820.56	137.500
820.86	89.655
821.16	155.000
821.46	110.638
821.76	157.500
822.07	125.581
822.37	113.514
822.67	118.750
822.97	130.952
823.27	142.857
823.57	152.000
823.88	107.407
824.18	132.143
824.48	132.353
824.78	119.355
825.08	200.000
825.38	93.939
825.69	108.333
825.99	92.105
826.29	102.778
826.59	220.000
826.89	171.429
827.19	78.261
827.49	107.500
827.79	97.143
828.09	171.429
828.39	151.515
828.70	127.027
829.00	110.714
829.30	171.429
829.60	126.667
829.90	128.125
830.20	94.737
830.50	129.630
830.80	104.348
831.10	127.273
831.40	118.182
831.70	109.677
832.00	190.476
832.30	119.048
832.60	150.000
832.90	58.621
833.20	115.000
833.50	87.879
833.80	159.259
834.10	126.923
834.40	121.875
834.70	344.444
835.00	131.579
835.30	138.462
835.60	220.000
835.90	141.935
836.20	109.091
836.50	132.143
836.80	100.000
837.10	85.714
837.40	633.333
837.70	109.091
838.00	263.636
838.30	113.043
838.60	107.692
838.90	127.273
839.19	78.571
839.49	93.333
839.79	176.923
840.09	141.667
840.39	164.286
840.69	103.571
840.99	76.923
841.29	100.000
841.59	150.000
841.88	136.364
842.18	230.000
842.48	143.750
842.78	200.000
843.08	100.000
843.38	100.000
843.68	100.000
843.97	180.000
844.27	40.000
844.57	95.000
844.87	144.444
845.17	85.714
845.47	146.667
845.76	76.190
846.06	164.706
846.36	240.000
846.66	135.714
846.96	173.333
847.25	112.500
847.55	200.000
847.85	225.000
848.15	72.727
848.44	533.333
848.74	120.000
849.04	85.185
849.34	227.273
849.63	150.000
849.93	40.000
850.23	105.556
850.53	240.000
850.82	115.385
851.12	200.000
851.42	126.667
851.71	84.615
852.01	135.714
852.31	275.000
852.61	136.364
852.90	70.000
853.20	173.684
853.50	191.667
853.79	121.739
854.09	133.333
854.39	126.316
854.68	104.167
854.98	106.452
855.28	100.000
855.57	95.000
855.87	100.000
856.17	107.407
856.46	200.000
856.76	126.667
857.05	422.222
857.35	112.000
857.65	155.556
857.94	176.923
858.24	79.310
858.53	122.222
858.83	118.519
859.13	109.091
859.42	65.217
859.72	425.000
860.01	166.667
860.31	84.000
860.60	100.000
860.90	600.000
861.20	73.333
861.49	700.000
861.79	60.000
862.08	75.000
862.38	153.333
862.67	160.000
862.97	83.333
863.26	175.000
863.56	111.111
863.85	100.000
864.15	133.333
864.44	90.000
864.74	157.143
865.03	-100.000
865.33	100.000
865.62	416.667
865.92	125.000
866.21	116.667
866.51	118.750
866.80	181.818
867.10	450.000
867.39	133.333
867.69	0.000
867.98	130.769
868.27	-100.000
868.57	93.333
868.86	144.444
869.16	38.462
869.45	113.333
869.75	900.000
870.04	0.000
870.33	28.571
870.63	90.476
870.92	-133.333
871.22	140.000
871.51	1100.000
871.80	266.667
872.10	266.667
>>>>>End Processed Spectral Data<<<<<
