SpectraSuite Data File
++++++++++++++++++++++++++++++++++++
Date: Fri May 15 17:25:31 PDT 2015
User: schluterlab
Dark Spectrum Present: Yes
Reference Spectrum Present: Yes
Number of Sampled Component Spectra: 1
Spectrometers: USB2E3373
Integration Time (usec): 3000 (USB2E3373)
Spectra Averaged: 3 (USB2E3373)
Boxcar Smoothing: 0 (USB2E3373)
Correct for Electrical Dark: No (USB2E3373)
Strobe/Lamp Enabled: No (USB2E3373)
Correct for Detector Non-linearity: No (USB2E3373)
Correct for Stray Light: No (USB2E3373)
Number of Pixels in Processed Spectrum: 2048
>>>>>Begin Processed Spectral Data<<<<<
178.53	0.000
178.91	0.000
179.29	100.000
179.67	150.000
180.04	-0.000
180.42	25.000
180.80	-800.000
181.18	333.333
181.56	-50.000
181.94	250.000
182.31	-1000.000
182.69	40.000
183.07	0.000
183.45	20.000
183.83	133.333
184.20	27.273
184.58	188.889
184.96	-100.000
185.34	-100.000
185.72	-100.000
186.09	100.000
186.47	-800.000
186.85	16.667
187.23	66.667
187.61	-200.000
187.98	-100.000
188.36	100.000
188.74	-133.333
189.12	76.471
189.49	44.444
189.87	0.000
190.25	78.571
190.63	-150.000
191.00	33.333
191.38	15.789
191.76	300.000
192.14	-50.000
192.51	150.000
192.89	-133.333
193.27	-42.857
193.65	-116.667
194.02	9.091
194.40	90.000
194.78	12.500
195.15	-50.000
195.53	25.000
195.91	200.000
196.29	-175.000
196.66	161.538
197.04	-28.571
197.42	-144.444
197.79	-366.667
198.17	-46.154
198.55	500.000
198.92	-100.000
199.30	500.000
199.68	-100.000
200.05	-66.667
200.43	0.000
200.81	66.667
201.18	200.000
201.56	600.000
201.94	100.000
202.31	-33.333
202.69	-200.000
203.07	125.000
203.44	900.000
203.82	0.000
204.19	21.429
204.57	-466.667
204.95	112.500
205.32	40.000
205.70	157.143
206.08	25.000
206.45	122.222
206.83	92.857
207.20	-57.143
207.58	200.000
207.96	-33.333
208.33	-70.000
208.71	-100.000
209.08	-150.000
209.46	-300.000
209.84	0.000
210.21	-800.000
210.59	85.714
210.96	116.667
211.34	75.000
211.71	60.000
212.09	14.286
212.46	-1600.000
212.84	0.000
213.22	90.000
213.59	300.000
213.97	23.077
214.34	-45.455
214.72	-33.333
215.09	325.000
215.47	-15.385
215.84	27.273
216.22	166.667
216.59	0.000
216.97	-100.000
217.34	150.000
217.72	-20.000
218.09	-25.000
218.47	75.000
218.84	200.000
219.22	-33.333
219.59	20.000
219.97	-33.333
220.34	300.000
220.72	14.286
221.09	-125.000
221.47	250.000
221.84	-150.000
222.22	-650.000
222.59	109.091
222.97	50.000
223.34	-66.667
223.72	14.286
224.09	33.333
224.46	53.571
224.84	66.667
225.21	40.000
225.59	113.333
225.96	-150.000
226.34	200.000
226.71	0.000
227.08	166.667
227.46	225.000
227.83	0.000
228.21	55.556
228.58	27.273
228.95	12.500
229.33	20.000
229.70	-18.750
230.08	-12.500
230.45	42.857
230.82	100.000
231.20	20.000
231.57	78.571
231.95	200.000
232.32	60.000
232.69	35.714
233.07	-33.333
233.44	-20.000
233.81	0.000
234.19	-11.111
234.56	-29.412
234.93	200.000
235.31	125.000
235.68	-180.000
236.05	7.692
236.43	-35.000
236.80	29.412
237.17	68.750
237.55	25.000
237.92	11.111
238.29	38.889
238.67	50.000
239.04	35.294
239.41	4.878
239.79	6.667
240.16	46.341
240.53	23.684
240.91	19.565
241.28	26.984
241.65	10.714
242.02	34.247
242.40	38.333
242.77	22.034
243.14	18.182
243.51	23.750
243.89	34.483
244.26	28.736
244.63	28.571
245.00	18.557
245.38	24.742
245.75	19.101
246.12	25.000
246.49	33.058
246.87	40.385
247.24	18.487
247.61	35.965
247.98	35.772
248.36	25.625
248.73	30.921
249.10	24.026
249.47	26.582
249.84	24.837
250.22	31.765
250.59	24.183
250.96	31.925
251.33	27.326
251.70	29.412
252.08	29.442
252.45	20.297
252.82	34.673
253.19	32.719
253.56	21.028
253.94	30.631
254.31	26.522
254.68	32.018
255.05	24.409
255.42	29.258
255.79	27.027
256.16	29.961
256.54	29.478
256.91	30.798
257.28	28.253
257.65	27.341
258.02	25.177
258.39	27.946
258.76	28.938
259.14	31.561
259.51	28.803
259.88	29.553
260.25	24.837
260.62	31.944
260.99	27.119
261.36	25.685
261.73	28.797
262.10	27.660
262.47	27.914
262.85	26.959
263.22	28.923
263.59	28.972
263.96	29.193
264.33	30.606
264.70	29.464
265.07	28.571
265.44	28.612
265.81	30.791
266.18	24.317
266.55	30.077
266.92	27.979
267.29	28.198
267.66	26.854
268.03	27.487
268.40	28.721
268.77	31.016
269.14	26.859
269.51	29.306
269.88	25.436
270.25	30.357
270.62	26.829
270.99	24.808
271.36	25.428
271.73	28.404
272.10	26.521
272.47	27.423
272.84	27.723
273.21	29.002
273.58	29.157
273.95	26.773
274.32	26.097
274.69	23.982
275.06	27.902
275.43	28.118
275.80	27.373
276.17	27.816
276.54	24.625
276.91	26.535
277.28	27.948
277.65	28.099
278.02	29.362
278.39	27.133
278.76	27.254
279.13	25.934
279.50	26.050
279.87	27.862
280.23	27.097
280.60	27.290
280.97	28.081
281.34	24.615
281.71	27.310
282.08	24.744
282.45	24.070
282.82	25.483
283.19	27.853
283.56	25.241
283.92	24.858
284.29	26.154
284.66	24.419
285.03	26.130
285.40	23.819
285.77	21.793
286.14	25.451
286.51	26.384
286.87	22.303
287.24	25.967
287.61	23.633
287.98	27.018
288.35	24.263
288.72	25.219
289.08	24.653
289.45	25.483
289.82	25.524
290.19	23.038
290.56	24.700
290.93	22.391
291.29	20.955
291.66	21.732
292.03	21.691
292.40	22.903
292.77	22.648
293.13	21.591
293.50	20.182
293.87	22.137
294.24	21.020
294.60	20.566
294.97	20.089
295.34	21.779
295.71	21.461
296.08	20.030
296.44	20.341
296.81	20.278
297.18	20.290
297.55	20.325
297.91	19.315
298.28	19.657
298.65	18.860
299.02	18.733
299.38	18.331
299.75	17.793
300.12	18.848
300.48	17.918
300.85	17.997
301.22	18.182
301.59	18.553
301.95	19.873
302.32	19.715
302.69	18.657
303.05	18.441
303.42	18.929
303.79	18.925
304.15	17.563
304.52	17.122
304.89	16.140
305.25	17.433
305.62	15.519
305.99	17.310
306.35	16.879
306.72	17.548
307.09	17.788
307.45	19.173
307.82	18.287
308.19	18.351
308.55	17.230
308.92	19.172
309.29	16.983
309.65	17.330
310.02	17.602
310.38	17.563
310.75	17.377
311.12	17.330
311.48	16.013
311.85	16.545
312.22	16.139
312.58	17.197
312.95	15.368
313.31	16.253
313.68	15.812
314.05	16.224
314.41	17.113
314.78	16.186
315.14	17.266
315.51	17.391
315.87	16.598
316.24	18.099
316.61	17.815
316.97	17.857
317.34	18.164
317.70	17.304
318.07	16.731
318.43	17.843
318.80	16.667
319.16	18.359
319.53	19.563
319.89	18.504
320.26	17.611
320.62	19.559
320.99	18.580
321.35	19.322
321.72	20.872
322.08	20.242
322.45	21.624
322.81	22.004
323.18	21.295
323.54	22.008
323.91	22.298
324.27	24.219
324.64	24.064
325.00	25.547
325.37	26.722
325.73	26.383
326.10	28.792
326.46	28.430
326.83	30.271
327.19	29.207
327.56	31.798
327.92	31.866
328.29	32.232
328.65	33.868
329.01	33.088
329.38	35.300
329.74	36.733
330.11	35.403
330.47	38.219
330.84	38.750
331.20	41.350
331.56	39.907
331.93	41.918
332.29	41.522
332.66	41.538
333.02	43.959
333.38	43.080
333.75	44.872
334.11	44.047
334.48	45.694
334.84	46.612
335.20	47.301
335.57	47.779
335.93	47.967
336.29	48.158
336.66	48.865
337.02	48.978
337.38	49.722
337.75	50.000
338.11	51.217
338.47	52.372
338.84	51.848
339.20	51.097
339.56	51.835
339.93	51.746
340.29	52.202
340.65	51.523
341.02	52.305
341.38	52.035
341.74	50.883
342.11	50.433
342.47	52.669
342.83	52.682
343.20	51.045
343.56	51.913
343.92	53.233
344.28	55.167
344.65	53.282
345.01	53.933
345.37	53.238
345.73	52.636
346.10	55.651
346.46	54.500
346.82	52.128
347.19	54.032
347.55	53.885
347.91	54.126
348.27	53.274
348.63	55.537
349.00	54.225
349.36	54.115
349.72	56.882
350.08	56.148
350.45	55.866
350.81	53.904
351.17	54.642
351.53	55.184
351.89	54.253
352.26	55.440
352.62	55.403
352.98	54.618
353.34	54.992
353.70	55.178
354.07	54.113
354.43	54.764
354.79	54.913
355.15	56.270
355.51	54.747
355.87	55.906
356.24	55.302
356.60	55.780
356.96	57.222
357.32	56.230
357.68	56.294
358.04	55.493
358.40	55.386
358.77	57.576
359.13	56.045
359.49	55.701
359.85	56.630
360.21	58.054
360.57	56.312
360.93	56.127
361.29	55.514
361.66	57.288
362.02	56.667
362.38	58.949
362.74	58.441
363.10	57.412
363.46	58.784
363.82	58.527
364.18	57.786
364.54	57.500
364.90	58.136
365.26	56.914
365.62	60.292
365.98	59.311
366.35	60.379
366.71	60.310
367.07	60.377
367.43	58.807
367.79	58.799
368.15	57.574
368.51	60.670
368.87	59.512
369.23	59.278
369.59	61.443
369.95	60.630
370.31	62.066
370.67	61.194
371.03	61.090
371.39	59.008
371.75	61.245
372.11	60.699
372.47	62.056
372.83	61.391
373.19	61.127
373.55	60.289
373.91	59.827
374.27	63.572
374.63	61.953
374.99	60.851
375.35	62.604
375.71	62.797
376.07	62.851
376.42	63.741
376.78	63.221
377.14	63.575
377.50	62.351
377.86	63.253
378.22	62.731
378.58	63.077
378.94	62.949
379.30	62.944
379.66	65.517
380.02	64.684
380.38	64.090
380.74	64.213
381.09	65.828
381.45	65.627
381.81	65.083
382.17	65.102
382.53	64.897
382.89	65.913
383.25	65.837
383.61	65.488
383.97	66.667
384.32	65.604
384.68	66.749
385.04	65.380
385.40	65.028
385.76	68.553
386.12	67.206
386.48	66.539
386.83	66.709
387.19	66.300
387.55	68.068
387.91	67.726
388.27	67.155
388.62	67.149
388.98	66.667
389.34	68.270
389.70	68.117
390.06	66.709
390.42	68.329
390.77	67.430
391.13	67.276
391.49	67.982
391.85	69.591
392.20	66.981
392.56	68.214
392.92	67.704
393.28	67.807
393.64	67.688
393.99	70.157
394.35	68.564
394.71	70.370
395.07	67.568
395.42	68.427
395.78	69.121
396.14	68.789
396.50	69.119
396.85	68.577
397.21	69.298
397.57	68.715
397.92	68.185
398.28	70.000
398.64	67.651
399.00	68.172
399.35	68.284
399.71	67.318
400.07	68.984
400.42	67.442
400.78	67.851
401.14	67.211
401.49	68.553
401.85	68.129
402.21	67.711
402.57	68.500
402.92	68.632
403.28	68.860
403.63	68.979
403.99	67.793
404.35	69.519
404.70	66.548
405.06	66.921
405.42	66.252
405.77	66.938
406.13	67.753
406.49	66.489
406.84	68.093
407.20	67.911
407.55	67.418
407.91	67.513
408.27	66.730
408.62	67.815
408.98	67.283
409.34	67.968
409.69	66.860
410.05	66.502
410.40	66.728
410.76	67.310
411.11	68.062
411.47	66.930
411.83	65.913
412.18	68.983
412.54	68.414
412.89	65.764
413.25	65.884
413.60	67.391
413.96	63.742
414.31	66.098
414.67	66.581
415.03	66.378
415.38	65.992
415.74	66.515
416.09	67.015
416.45	67.319
416.80	66.755
417.16	67.749
417.51	66.889
417.87	67.471
418.22	68.847
418.58	67.559
418.93	68.339
419.29	66.325
419.64	68.244
420.00	69.270
420.35	67.104
420.71	68.044
421.06	68.324
421.42	69.050
421.77	69.306
422.12	68.445
422.48	69.843
422.83	69.374
423.19	67.777
423.54	69.195
423.90	69.552
424.25	69.518
424.61	70.196
424.96	69.280
425.31	70.422
425.67	69.894
426.02	71.496
426.38	71.008
426.73	70.460
427.09	71.962
427.44	71.000
427.79	71.302
428.15	70.692
428.50	71.775
428.85	69.472
429.21	71.364
429.56	72.022
429.92	69.954
430.27	70.627
430.62	70.727
430.98	70.435
431.33	71.293
431.68	71.010
432.04	71.045
432.39	70.508
432.74	71.016
433.10	72.414
433.45	72.700
433.80	72.200
434.16	71.524
434.51	72.634
434.86	73.461
435.22	72.462
435.57	73.487
435.92	72.934
436.28	71.497
436.63	72.618
436.98	71.669
437.34	72.837
437.69	75.313
438.04	73.903
438.39	72.327
438.75	74.681
439.10	73.231
439.45	73.585
439.81	74.190
440.16	75.534
440.51	74.567
440.86	75.952
441.22	73.133
441.57	76.435
441.92	76.443
442.27	77.605
442.63	76.713
442.98	74.325
443.33	74.847
443.68	76.180
444.03	75.211
444.39	75.357
444.74	77.035
445.09	76.615
445.44	76.011
445.79	78.030
446.15	73.733
446.50	76.206
446.85	77.311
447.20	75.704
447.55	75.781
447.91	76.819
448.26	76.836
448.61	77.029
448.96	76.477
449.31	76.532
449.66	74.855
450.02	75.414
450.37	76.882
450.72	76.346
451.07	76.203
451.42	75.468
451.77	75.588
452.12	75.778
452.47	75.918
452.83	76.678
453.18	76.281
453.53	75.917
453.88	77.110
454.23	76.030
454.58	75.882
454.93	76.482
455.28	75.492
455.63	76.131
455.98	76.609
456.34	76.564
456.69	76.366
457.04	77.379
457.39	77.035
457.74	76.602
458.09	75.927
458.44	76.770
458.79	77.087
459.14	77.746
459.49	77.910
459.84	77.665
460.19	76.274
460.54	77.139
460.89	76.932
461.24	77.329
461.59	77.494
461.94	77.296
462.29	76.176
462.64	76.944
462.99	76.439
463.34	76.773
463.69	75.547
464.04	77.119
464.39	76.107
464.74	76.258
465.09	77.230
465.44	77.900
465.79	76.474
466.14	77.252
466.49	76.941
466.84	76.443
467.19	77.159
467.54	75.287
467.89	76.500
468.24	75.182
468.59	75.429
468.94	74.984
469.29	76.066
469.64	75.393
469.99	77.295
470.34	75.768
470.68	76.585
471.03	74.452
471.38	76.248
471.73	74.440
472.08	74.423
472.43	74.899
472.78	75.874
473.13	77.211
473.48	75.114
473.83	74.159
474.17	75.842
474.52	76.133
474.87	76.485
475.22	75.473
475.57	75.833
475.92	75.535
476.27	75.553
476.61	75.231
476.96	74.066
477.31	75.554
477.66	73.708
478.01	75.407
478.36	74.837
478.70	75.639
479.05	76.374
479.40	75.782
479.75	74.713
480.10	75.627
480.45	76.300
480.79	76.636
481.14	78.176
481.49	74.236
481.84	76.255
482.19	76.473
482.53	76.595
482.88	74.224
483.23	74.616
483.58	74.953
483.92	74.347
484.27	74.339
484.62	75.034
484.97	75.207
485.31	75.939
485.66	77.270
486.01	79.749
486.36	80.404
486.70	78.559
487.05	78.289
487.40	76.706
487.75	75.606
488.09	74.722
488.44	74.587
488.79	74.598
489.13	73.958
489.48	74.348
489.83	74.081
490.17	73.843
490.52	74.365
490.87	72.744
491.22	74.403
491.56	73.197
491.91	73.184
492.26	74.429
492.60	73.896
492.95	74.717
493.30	72.594
493.64	74.656
493.99	74.879
494.34	73.835
494.68	74.381
495.03	73.041
495.37	73.651
495.72	73.700
496.07	74.244
496.41	74.198
496.76	75.035
497.11	72.986
497.45	73.986
497.80	73.966
498.14	72.727
498.49	73.641
498.84	73.054
499.18	74.197
499.53	73.958
499.87	73.881
500.22	73.640
500.56	73.878
500.91	73.143
501.26	72.714
501.60	73.979
501.95	74.624
502.29	73.269
502.64	74.083
502.98	74.988
503.33	73.151
503.67	72.675
504.02	74.194
504.36	74.072
504.71	73.687
505.06	72.974
505.40	72.741
505.75	74.536
506.09	73.087
506.44	73.922
506.78	73.571
507.13	73.992
507.47	72.376
507.82	73.397
508.16	72.319
508.51	73.137
508.85	74.045
509.19	72.272
509.54	73.083
509.88	72.708
510.23	73.857
510.57	72.528
510.92	71.855
511.26	73.213
511.61	73.817
511.95	72.877
512.30	72.727
512.64	71.953
512.98	70.354
513.33	72.412
513.67	71.859
514.02	72.883
514.36	72.629
514.70	72.494
515.05	74.031
515.39	71.783
515.74	73.653
516.08	73.222
516.42	72.320
516.77	72.557
517.11	73.769
517.46	72.292
517.80	71.275
518.14	73.117
518.49	70.853
518.83	70.535
519.17	71.862
519.52	71.758
519.86	71.609
520.20	71.203
520.55	71.169
520.89	71.079
521.23	71.628
521.58	72.177
521.92	71.603
522.26	72.479
522.61	71.818
522.95	72.848
523.29	71.093
523.64	71.728
523.98	72.975
524.32	72.358
524.66	71.511
525.01	72.078
525.35	70.966
525.69	71.650
526.04	70.569
526.38	72.179
526.72	70.700
527.06	69.974
527.41	70.976
527.75	68.901
528.09	71.096
528.43	72.586
528.78	70.825
529.12	71.935
529.46	72.580
529.80	71.121
530.15	72.079
530.49	70.774
530.83	72.914
531.17	71.592
531.51	71.272
531.86	71.040
532.20	70.981
532.54	71.818
532.88	72.348
533.22	72.581
533.57	71.429
533.91	73.042
534.25	72.852
534.59	72.226
534.93	70.799
535.27	71.383
535.62	70.706
535.96	70.907
536.30	72.164
536.64	71.950
536.98	70.523
537.32	72.475
537.66	72.230
538.01	71.259
538.35	71.706
538.69	72.170
539.03	72.591
539.37	73.149
539.71	71.575
540.05	70.876
540.39	72.507
540.73	71.618
541.07	71.685
541.42	72.379
541.76	72.264
542.10	71.851
542.44	72.203
542.78	71.163
543.12	71.291
543.46	72.531
543.80	73.213
544.14	71.095
544.48	73.284
544.82	72.522
545.16	74.454
545.50	72.163
545.84	72.663
546.18	72.766
546.52	71.377
546.86	71.963
547.20	71.960
547.54	72.650
547.88	72.758
548.22	72.847
548.56	71.240
548.90	72.709
549.24	71.694
549.58	70.592
549.92	69.693
550.26	71.575
550.60	72.937
550.94	73.040
551.28	72.566
551.62	72.154
551.96	72.707
552.30	72.442
552.64	70.804
552.98	71.660
553.32	72.325
553.66	71.626
554.00	72.701
554.34	71.640
554.68	71.313
555.02	72.768
555.36	71.279
555.69	72.894
556.03	72.305
556.37	72.242
556.71	72.563
557.05	72.856
557.39	71.747
557.73	73.013
558.07	73.303
558.41	73.124
558.75	73.110
559.08	71.474
559.42	73.016
559.76	73.579
560.10	72.095
560.44	71.184
560.78	71.189
561.12	73.907
561.45	74.701
561.79	74.230
562.13	73.669
562.47	72.086
562.81	72.911
563.15	72.144
563.48	73.904
563.82	72.752
564.16	75.139
564.50	72.500
564.84	74.163
565.17	73.709
565.51	76.161
565.85	75.034
566.19	73.541
566.52	74.263
566.86	75.643
567.20	74.284
567.54	76.095
567.88	77.622
568.21	75.509
568.55	76.902
568.89	78.080
569.23	78.767
569.56	79.860
569.90	81.405
570.24	79.047
570.57	80.655
570.91	81.318
571.25	79.349
571.59	79.228
571.92	79.081
572.26	79.982
572.60	78.977
572.93	78.224
573.27	78.401
573.61	80.012
573.95	79.929
574.28	80.217
574.62	79.049
574.96	79.257
575.29	79.758
575.63	77.533
575.97	78.693
576.30	78.718
576.64	78.649
576.98	81.236
577.31	80.954
577.65	81.170
577.98	80.811
578.32	81.043
578.66	79.669
578.99	79.364
579.33	78.541
579.67	78.072
580.00	79.139
580.34	79.776
580.67	78.956
581.01	80.451
581.35	80.663
581.68	81.106
582.02	82.419
582.35	82.396
582.69	81.515
583.02	79.876
583.36	79.868
583.70	80.685
584.03	79.983
584.37	80.011
584.70	79.945
585.04	79.404
585.37	79.066
585.71	80.597
586.04	81.165
586.38	79.648
586.72	80.832
587.05	81.514
587.39	81.828
587.72	82.832
588.06	80.985
588.39	80.376
588.73	80.525
589.06	80.789
589.40	80.055
589.73	79.153
590.07	79.985
590.40	81.037
590.73	81.096
591.07	79.856
591.40	80.588
591.74	79.321
592.07	79.777
592.41	79.638
592.74	80.526
593.08	81.104
593.41	82.208
593.75	81.158
594.08	80.364
594.41	80.750
594.75	80.000
595.08	80.817
595.42	81.524
595.75	81.712
596.09	80.610
596.42	79.868
596.75	79.707
597.09	79.772
597.42	78.952
597.75	81.310
598.09	79.040
598.42	78.159
598.76	80.438
599.09	80.208
599.42	80.182
599.76	79.947
600.09	80.053
600.42	80.553
600.76	79.681
601.09	80.878
601.42	80.180
601.76	80.548
602.09	80.899
602.42	81.719
602.76	80.688
603.09	80.316
603.42	84.281
603.76	80.887
604.09	81.126
604.42	80.203
604.76	80.908
605.09	80.302
605.42	79.910
605.75	81.261
606.09	80.382
606.42	78.982
606.75	79.481
607.09	80.835
607.42	79.265
607.75	79.840
608.08	78.841
608.42	77.387
608.75	81.157
609.08	79.273
609.41	78.934
609.75	79.940
610.08	80.379
610.41	79.420
610.74	80.449
611.07	81.499
611.41	81.681
611.74	80.864
612.07	79.336
612.40	79.978
612.73	80.452
613.07	79.021
613.40	80.197
613.73	81.030
614.06	80.301
614.39	80.767
614.72	78.599
615.06	79.665
615.39	78.603
615.72	80.194
616.05	80.447
616.38	77.721
616.71	78.410
617.05	80.914
617.38	79.384
617.71	80.063
618.04	81.333
618.37	81.021
618.70	80.726
619.03	78.889
619.36	76.700
619.69	80.212
620.03	79.839
620.36	77.969
620.69	77.873
621.02	78.058
621.35	79.834
621.68	79.762
622.01	78.417
622.34	77.334
622.67	79.574
623.00	77.871
623.33	78.430
623.66	78.384
623.99	78.215
624.32	79.544
624.65	79.173
624.99	79.082
625.32	78.544
625.65	78.319
625.98	79.371
626.31	76.725
626.64	77.123
626.97	76.527
627.30	78.196
627.63	76.950
627.96	79.335
628.29	77.336
628.62	76.500
628.95	75.351
629.28	79.536
629.61	76.770
629.94	76.442
630.26	75.889
630.59	80.125
630.92	77.231
631.25	74.872
631.58	76.211
631.91	77.083
632.24	76.835
632.57	74.773
632.90	75.563
633.23	74.824
633.56	74.811
633.89	75.092
634.22	76.049
634.55	76.747
634.88	74.713
635.20	71.667
635.53	78.000
635.86	76.333
636.19	75.809
636.52	75.128
636.85	73.821
637.18	75.346
637.51	74.088
637.83	74.770
638.16	76.535
638.49	72.207
638.82	73.816
639.15	74.627
639.48	74.828
639.81	75.314
640.13	75.469
640.46	74.198
640.79	72.754
641.12	72.821
641.45	73.574
641.77	73.185
642.10	73.776
642.43	74.759
642.76	74.092
643.09	72.375
643.41	72.816
643.74	70.181
644.07	72.578
644.40	71.622
644.73	73.205
645.05	70.973
645.38	70.018
645.71	74.291
646.04	74.865
646.36	74.113
646.69	73.022
647.02	72.590
647.35	75.373
647.67	73.126
648.00	76.119
648.33	73.379
648.66	74.915
648.98	75.209
649.31	73.554
649.64	74.882
649.96	74.554
650.29	75.298
650.62	71.966
650.94	73.519
651.27	72.998
651.60	70.811
651.92	73.077
652.25	72.824
652.58	74.667
652.90	75.129
653.23	73.109
653.56	72.927
653.88	71.649
654.21	71.454
654.54	74.533
654.86	76.401
655.19	75.146
655.52	88.080
655.84	93.010
656.17	100.000
656.49	100.000
656.82	100.000
657.15	100.000
657.47	100.000
657.80	100.000
658.13	60.203
658.45	83.310
658.78	80.748
659.10	78.255
659.43	77.251
659.75	76.714
660.08	74.828
660.41	73.749
660.73	71.961
661.06	72.444
661.38	70.059
661.71	69.199
662.03	72.961
662.36	71.648
662.68	70.796
663.01	73.144
663.33	71.926
663.66	69.767
663.98	73.256
664.31	71.002
664.63	71.889
664.96	69.348
665.28	71.523
665.61	71.861
665.93	71.957
666.26	73.970
666.58	72.931
666.91	73.882
667.23	72.642
667.56	71.564
667.88	69.784
668.21	73.270
668.53	72.577
668.86	74.764
669.18	71.698
669.50	69.492
669.83	70.930
670.15	69.231
670.48	74.880
670.80	69.355
671.13	68.009
671.45	69.863
671.77	72.961
672.10	72.871
672.42	74.157
672.75	75.666
673.07	76.029
673.39	75.596
673.72	70.809
674.04	69.167
674.37	74.788
674.69	72.805
675.01	74.000
675.34	71.847
675.66	72.454
675.98	70.510
676.31	71.330
676.63	72.209
676.95	70.909
677.28	72.706
677.60	75.181
677.92	73.853
678.25	76.149
678.57	76.840
678.89	75.000
679.22	78.300
679.54	69.277
679.86	74.553
680.18	77.087
680.51	75.758
680.83	74.155
681.15	73.600
681.48	78.279
681.80	75.826
682.12	78.024
682.44	75.732
682.77	75.276
683.09	73.227
683.41	70.909
683.73	75.346
684.06	74.558
684.38	73.978
684.70	80.174
685.02	77.801
685.34	75.099
685.67	77.111
685.99	78.119
686.31	77.522
686.63	77.922
686.96	72.814
687.28	74.949
687.60	75.095
687.92	78.384
688.24	78.226
688.56	77.511
688.89	78.125
689.21	75.556
689.53	72.622
689.85	74.186
690.17	72.768
690.49	73.286
690.82	75.728
691.14	75.238
691.46	75.467
691.78	78.153
692.10	75.699
692.42	72.944
692.74	73.504
693.06	74.550
693.39	75.566
693.71	74.434
694.03	75.520
694.35	75.935
694.67	77.525
694.99	71.279
695.31	77.546
695.63	74.000
695.95	72.475
696.27	72.798
696.59	75.278
696.91	71.709
697.23	73.008
697.56	78.960
697.88	77.849
698.20	75.854
698.52	76.941
698.84	74.402
699.16	75.000
699.48	75.188
699.80	73.449
700.12	73.046
700.44	74.790
700.76	72.674
701.08	73.939
701.40	68.976
701.72	74.074
702.04	76.238
702.36	81.605
702.68	76.577
703.00	78.485
703.32	74.194
703.64	68.927
703.96	73.333
704.28	76.074
704.60	73.333
704.91	70.347
705.23	71.096
705.55	79.505
705.87	74.368
706.19	73.333
706.51	73.196
706.83	71.383
707.15	75.701
707.47	81.793
707.79	76.823
708.11	77.250
708.43	77.000
708.74	78.036
709.06	82.817
709.38	75.841
709.70	72.485
710.02	76.433
710.34	68.731
710.66	66.346
710.98	76.159
711.29	76.721
711.61	79.322
711.93	76.873
712.25	77.320
712.57	74.725
712.89	77.239
713.20	71.626
713.52	77.003
713.84	75.427
714.16	76.289
714.48	77.742
714.80	84.936
715.11	79.331
715.43	74.295
715.75	76.667
716.07	73.422
716.39	73.826
716.70	71.956
717.02	67.939
717.34	76.923
717.66	72.566
717.97	72.174
718.29	75.732
718.61	78.346
718.93	75.194
719.24	76.426
719.56	79.920
719.88	67.354
720.20	79.545
720.51	73.563
720.83	76.834
721.15	81.092
721.46	78.629
721.78	73.123
722.10	72.862
722.42	75.934
722.73	80.000
723.05	77.959
723.37	76.695
723.68	78.378
724.00	77.778
724.32	75.111
724.63	75.455
724.95	72.926
725.27	83.871
725.58	76.271
725.90	73.016
726.22	74.903
726.53	75.254
726.85	74.532
727.16	83.019
727.48	74.899
727.80	72.065
728.11	76.695
728.43	77.647
728.74	76.210
729.06	83.200
729.38	79.699
729.69	77.689
730.01	77.308
730.32	79.104
730.64	77.739
730.96	84.906
731.27	75.000
731.59	80.339
731.90	81.210
732.22	77.287
732.53	82.392
732.85	80.496
733.16	77.778
733.48	81.295
733.80	84.058
734.11	82.034
734.43	84.536
734.74	80.303
735.06	89.577
735.37	83.082
735.69	83.838
736.00	83.972
736.32	81.208
736.63	80.634
736.95	83.618
737.26	80.783
737.58	78.188
737.89	78.755
738.21	77.820
738.52	84.774
738.83	81.659
739.15	80.786
739.46	81.102
739.78	83.516
740.09	77.778
740.41	81.884
740.72	78.346
741.04	80.972
741.35	80.426
741.66	80.569
741.98	72.959
742.29	81.683
742.61	77.487
742.92	72.512
743.23	69.907
743.55	80.543
743.86	76.555
744.18	68.421
744.49	74.468
744.80	84.783
745.12	87.701
745.43	75.122
745.74	78.125
746.06	73.659
746.37	76.963
746.68	77.725
747.00	77.128
747.31	84.577
747.62	72.330
747.94	74.641
748.25	85.644
748.56	89.617
748.88	72.251
749.19	79.255
749.50	78.325
749.82	79.245
750.13	83.028
750.44	84.211
750.75	83.955
751.07	83.212
751.38	84.291
751.69	79.608
752.01	83.333
752.32	80.478
752.63	78.261
752.94	83.621
753.26	80.335
753.57	78.733
753.88	79.204
754.19	83.750
754.51	82.231
754.82	76.923
755.13	82.083
755.44	85.081
755.75	76.172
756.07	85.214
756.38	81.509
756.69	82.375
757.00	76.667
757.31	83.333
757.63	83.537
757.94	81.944
758.25	80.548
758.56	79.787
758.87	80.170
759.18	76.324
759.50	76.364
759.81	83.278
760.12	82.581
760.43	82.121
760.74	86.111
761.05	87.385
761.36	84.659
761.67	83.333
761.99	84.354
762.30	76.364
762.61	78.261
762.92	80.090
763.23	76.126
763.54	82.243
763.85	82.203
764.16	79.668
764.47	80.645
764.78	81.685
765.10	88.215
765.41	83.281
765.72	82.222
766.03	78.195
766.34	78.467
766.65	82.470
766.96	79.293
767.27	77.660
767.58	74.713
767.89	84.397
768.20	76.705
768.51	80.220
768.82	78.818
769.13	82.488
769.44	79.828
769.75	80.822
770.06	74.138
770.37	79.327
770.68	76.650
770.99	74.661
771.30	89.216
771.61	86.878
771.92	86.207
772.23	90.640
772.54	79.570
772.85	77.160
773.16	81.461
773.47	92.157
773.78	83.007
774.09	76.048
774.39	78.000
774.70	74.522
775.01	77.931
775.32	75.000
775.63	89.256
775.94	70.229
776.25	70.079
776.56	75.000
776.87	85.577
777.18	70.085
777.48	85.345
777.79	82.609
778.10	78.095
778.41	80.180
778.72	73.016
779.03	74.436
779.34	80.142
779.65	90.411
779.95	73.973
780.26	78.621
780.57	69.919
780.88	73.228
781.19	70.690
781.50	95.349
781.80	75.740
782.11	80.503
782.42	96.154
782.73	75.540
783.04	81.481
783.34	79.861
783.65	75.214
783.96	93.443
784.27	69.655
784.57	80.488
784.88	71.875
785.19	85.000
785.50	81.000
785.81	75.862
786.11	78.448
786.42	79.612
786.73	74.545
787.04	75.510
787.34	76.786
787.65	73.333
787.96	74.336
788.26	80.000
788.57	74.359
788.88	78.125
789.19	70.635
789.49	81.739
789.80	88.776
790.11	73.737
790.41	59.091
790.72	69.565
791.03	79.545
791.33	97.500
791.64	60.000
791.95	76.744
792.25	65.957
792.56	61.798
792.87	64.384
793.17	69.565
793.48	69.333
793.79	71.250
794.09	83.750
794.40	83.962
794.70	80.583
795.01	65.854
795.32	76.068
795.62	67.619
795.93	79.412
796.23	68.868
796.54	70.833
796.85	94.118
797.15	59.155
797.46	72.222
797.76	66.667
798.07	56.977
798.37	61.842
798.68	69.697
798.99	64.198
799.29	77.143
799.60	63.768
799.90	57.333
800.21	80.328
800.51	70.769
800.82	74.576
801.12	75.362
801.43	88.525
801.73	68.254
802.04	72.000
802.34	47.761
802.65	78.846
802.95	53.571
803.26	61.538
803.56	100.000
803.87	63.043
804.17	69.333
804.48	80.952
804.78	81.481
805.09	78.261
805.39	55.556
805.70	96.296
806.00	52.632
806.30	66.197
806.61	78.571
806.91	72.222
807.22	93.421
807.52	94.667
807.83	70.909
808.13	65.278
808.43	80.882
808.74	85.075
809.04	74.576
809.35	88.462
809.65	76.563
809.95	43.243
810.26	86.364
810.56	49.315
810.86	69.048
811.17	62.000
811.47	73.469
811.77	73.684
812.08	79.545
812.38	58.491
812.69	65.000
812.99	66.667
813.29	97.368
813.59	48.571
813.90	54.545
814.20	64.103
814.50	82.692
814.81	69.811
815.11	63.830
815.41	66.102
815.72	57.143
816.02	80.392
816.32	50.000
816.62	63.415
816.93	35.135
817.23	48.571
817.53	47.917
817.84	52.174
818.14	65.385
818.44	73.684
818.74	65.217
819.04	30.000
819.35	59.459
819.65	41.176
819.95	58.333
820.25	38.095
820.56	75.000
820.86	72.414
821.16	82.500
821.46	63.830
821.76	67.500
822.07	72.093
822.37	40.541
822.67	46.875
822.97	85.714
823.27	39.286
823.57	44.000
823.88	22.222
824.18	110.714
824.48	76.471
824.78	45.161
825.08	60.870
825.38	60.606
825.69	58.333
825.99	78.947
826.29	66.667
826.59	120.000
826.89	57.143
827.19	58.696
827.49	50.000
827.79	80.000
828.09	103.571
828.39	48.485
828.70	70.270
829.00	46.429
829.30	57.143
829.60	96.667
829.90	78.125
830.20	50.000
830.50	40.741
830.80	52.174
831.10	72.727
831.40	63.636
831.70	80.645
832.00	42.857
832.30	19.048
832.60	33.333
832.90	65.517
833.20	45.000
833.50	69.697
833.80	62.963
834.10	26.923
834.40	56.250
834.70	188.889
835.00	105.263
835.30	92.308
835.60	93.333
835.90	45.161
836.20	90.909
836.50	110.714
836.80	-11.538
837.10	42.857
837.40	166.667
837.70	59.091
838.00	27.273
838.30	34.783
838.60	100.000
838.90	77.273
839.19	17.857
839.49	30.000
839.79	61.538
840.09	58.333
840.39	67.857
840.69	71.429
840.99	61.538
841.29	26.316
841.59	30.000
841.88	145.455
842.18	160.000
842.48	62.500
842.78	80.000
843.08	18.519
843.38	20.000
843.68	69.565
843.97	66.667
844.27	-6.667
844.57	5.000
844.87	-5.556
845.17	-4.762
845.47	60.000
845.76	71.429
846.06	41.176
846.36	210.000
846.66	57.143
846.96	6.667
847.25	62.500
847.55	100.000
847.85	50.000
848.15	9.091
848.44	-133.333
848.74	85.000
849.04	77.778
849.34	90.909
849.63	-50.000
849.93	20.000
850.23	5.556
850.53	90.000
850.82	84.615
851.12	0.000
851.42	53.333
851.71	53.846
852.01	14.286
852.31	25.000
852.61	81.818
852.90	-5.000
853.20	68.421
853.50	116.667
853.79	52.174
854.09	87.500
854.39	68.421
854.68	62.500
854.98	58.065
855.28	69.231
855.57	105.000
855.87	66.667
856.17	55.556
856.46	42.857
856.76	100.000
857.05	222.222
857.35	44.000
857.65	72.222
857.94	69.231
858.24	55.172
858.53	66.667
858.83	7.407
859.13	59.091
859.42	26.087
859.72	50.000
860.01	100.000
860.31	64.000
860.60	28.571
860.90	-66.667
861.20	26.667
861.49	-200.000
861.79	6.667
862.08	65.000
862.38	180.000
862.67	-20.000
862.97	0.000
863.26	83.333
863.56	27.778
863.85	-33.333
864.15	116.667
864.44	20.000
864.74	35.714
865.03	125.000
865.33	-60.000
865.62	16.667
865.92	75.000
866.21	83.333
866.51	131.250
866.80	54.545
867.10	-750.000
867.39	158.333
867.69	0.000
867.98	76.923
868.27	-33.333
868.57	46.667
868.86	61.111
869.16	-15.385
869.45	46.667
869.75	500.000
870.04	0.000
870.33	-57.143
870.63	38.095
870.92	-33.333
871.22	-80.000
871.51	-200.000
871.80	122.222
872.10	-33.333
>>>>>End Processed Spectral Data<<<<<
