SpectraSuite Data File
++++++++++++++++++++++++++++++++++++
Date: Fri May 15 17:13:06 PDT 2015
User: schluterlab
Dark Spectrum Present: Yes
Reference Spectrum Present: Yes
Number of Sampled Component Spectra: 1
Spectrometers: USB2E3373
Integration Time (usec): 3000 (USB2E3373)
Spectra Averaged: 3 (USB2E3373)
Boxcar Smoothing: 0 (USB2E3373)
Correct for Electrical Dark: No (USB2E3373)
Strobe/Lamp Enabled: No (USB2E3373)
Correct for Detector Non-linearity: No (USB2E3373)
Correct for Stray Light: No (USB2E3373)
Number of Pixels in Processed Spectrum: 2048
>>>>>Begin Processed Spectral Data<<<<<
178.53	0.000
178.91	0.000
179.29	162.500
179.67	-50.000
180.04	-185.714
180.42	300.000
180.80	-300.000
181.18	-200.000
181.56	50.000
181.94	0.000
182.31	-400.000
182.69	40.000
183.07	-66.667
183.45	20.000
183.83	133.333
184.20	90.909
184.58	66.667
184.96	-275.000
185.34	-366.667
185.72	-50.000
186.09	69.231
186.47	-200.000
186.85	33.333
187.23	22.222
187.61	-300.000
187.98	-66.667
188.36	66.667
188.74	333.333
189.12	64.706
189.49	50.000
189.87	0.000
190.25	57.143
190.63	650.000
191.00	-100.000
191.38	26.316
191.76	600.000
192.14	-100.000
192.51	150.000
192.89	-22.222
193.27	142.857
193.65	116.667
194.02	72.727
194.40	60.000
194.78	-125.000
195.15	8.333
195.53	50.000
195.91	75.000
196.29	125.000
196.66	7.692
197.04	42.857
197.42	-66.667
197.79	-33.333
198.17	-53.846
198.55	500.000
198.92	-133.333
199.30	0.000
199.68	40.000
200.05	-33.333
200.43	0.000
200.81	66.667
201.18	100.000
201.56	800.000
201.94	-500.000
202.31	-233.333
202.69	-60.000
203.07	25.000
203.44	600.000
203.82	0.000
204.19	114.286
204.57	-200.000
204.95	12.500
205.32	30.000
205.70	200.000
206.08	275.000
206.45	233.333
206.83	85.714
207.20	-128.571
207.58	-0.000
207.96	0.000
208.33	-70.000
208.71	400.000
209.08	0.000
209.46	100.000
209.84	120.000
210.21	1000.000
210.59	42.857
210.96	100.000
211.34	25.000
211.71	53.333
212.09	14.286
212.46	-600.000
212.84	0.000
213.22	170.000
213.59	-50.000
213.97	61.538
214.34	181.818
214.72	16.667
215.09	150.000
215.47	-7.692
215.84	54.545
216.22	66.667
216.59	25.000
216.97	650.000
217.34	0.000
217.72	120.000
218.09	125.000
218.47	50.000
218.84	-200.000
219.22	-22.222
219.59	160.000
219.97	266.667
220.34	75.000
220.72	85.714
221.09	100.000
221.47	-550.000
221.84	-300.000
222.22	-350.000
222.59	63.636
222.97	41.667
223.34	166.667
223.72	21.429
224.09	4.762
224.46	17.857
224.84	-100.000
225.21	100.000
225.59	126.667
225.96	-100.000
226.34	200.000
226.71	28.571
227.08	50.000
227.46	62.500
227.83	250.000
228.21	100.000
228.58	90.909
228.95	-25.000
229.33	20.000
229.70	118.750
230.08	12.500
230.45	57.143
230.82	142.857
231.20	20.000
231.57	-14.286
231.95	142.857
232.32	40.000
232.69	121.429
233.07	233.333
233.44	20.000
233.81	-20.000
234.19	233.333
234.56	29.412
234.93	-50.000
235.31	100.000
235.68	20.000
236.05	0.000
236.43	35.000
236.80	29.412
237.17	6.250
237.55	-10.000
237.92	-14.815
238.29	27.778
238.67	23.333
239.04	26.471
239.41	-4.878
239.79	-23.333
240.16	43.902
240.53	31.579
240.91	17.391
241.28	22.222
241.65	25.000
242.02	17.808
242.40	26.667
242.77	1.695
243.14	9.091
243.51	17.500
243.89	35.632
244.26	12.644
244.63	14.286
245.00	17.526
245.38	14.433
245.75	8.989
246.12	3.448
246.49	19.008
246.87	14.423
247.24	5.882
247.61	10.526
247.98	7.317
248.36	16.250
248.73	11.184
249.10	12.987
249.47	9.494
249.84	10.458
250.22	11.765
250.59	11.765
250.96	9.859
251.33	7.558
251.70	17.059
252.08	6.091
252.45	10.396
252.82	7.538
253.19	7.834
253.56	7.944
253.94	17.568
254.31	12.609
254.68	10.526
255.05	6.299
255.42	12.227
255.79	15.058
256.16	11.673
256.54	13.433
256.91	11.407
257.28	10.781
257.65	8.989
258.02	7.801
258.39	14.478
258.76	9.524
259.14	12.292
259.51	13.269
259.88	12.371
260.25	7.190
260.62	13.889
260.99	9.153
261.36	10.274
261.73	7.278
262.10	10.334
262.47	8.896
262.85	9.404
263.22	11.692
263.59	10.280
263.96	10.248
264.33	9.394
264.70	10.119
265.07	10.119
265.44	14.448
265.81	12.147
266.18	10.656
266.55	11.825
266.92	11.140
267.29	14.099
267.66	8.184
268.03	8.639
268.40	8.616
268.77	10.428
269.14	10.072
269.51	8.226
269.88	8.229
270.25	9.184
270.62	8.780
270.99	6.650
271.36	9.780
271.73	10.329
272.10	9.976
272.47	12.293
272.84	8.168
273.21	11.601
273.58	10.361
273.95	10.297
274.32	6.467
274.69	11.538
275.06	9.598
275.43	11.565
275.80	9.492
276.17	11.494
276.54	9.850
276.91	11.623
277.28	8.297
277.65	11.157
278.02	9.574
278.39	9.409
278.76	7.966
279.13	9.544
279.50	11.555
279.87	12.095
280.23	8.387
280.60	11.306
280.97	10.707
281.34	7.308
281.71	11.088
282.08	8.793
282.45	10.372
282.82	7.915
283.19	8.511
283.56	7.129
283.92	9.677
284.29	10.192
284.66	9.109
285.03	9.037
285.40	8.507
285.77	6.854
286.14	7.942
286.51	12.731
286.87	9.506
287.24	8.471
287.61	11.464
287.98	11.053
288.35	9.532
288.72	9.807
289.08	7.986
289.45	9.490
289.82	8.392
290.19	8.703
290.56	7.376
290.93	8.586
291.29	7.396
291.66	8.819
292.03	8.612
292.40	8.548
292.77	9.410
293.13	6.494
293.50	6.677
293.87	7.634
294.24	8.501
294.60	8.644
294.97	9.077
295.34	8.282
295.71	5.812
296.08	7.623
296.44	6.970
296.81	7.500
297.18	8.551
297.55	8.266
297.91	7.260
298.28	8.971
298.65	7.191
299.02	7.412
299.38	5.472
299.75	8.000
300.12	6.021
300.48	7.905
300.85	7.351
301.22	7.403
301.59	6.447
301.95	8.861
302.32	7.263
302.69	7.090
303.05	6.931
303.42	6.974
303.79	7.710
304.15	8.124
304.52	5.707
304.89	5.965
305.25	6.659
305.62	6.301
305.99	6.316
306.35	7.283
306.72	5.512
307.09	6.842
307.45	6.085
307.82	6.134
308.19	6.969
308.55	6.325
308.92	7.516
309.29	5.698
309.65	6.136
310.02	6.491
310.38	6.476
310.75	6.995
311.12	6.243
311.48	6.999
311.85	6.492
312.22	6.435
312.58	6.157
312.95	6.403
313.31	5.487
313.68	5.236
314.05	5.816
314.41	6.907
314.78	6.392
315.14	7.605
315.51	6.315
315.87	6.557
316.24	7.381
316.61	6.988
316.97	7.639
317.34	7.910
317.70	7.170
318.07	6.827
318.43	6.863
318.80	7.481
319.16	8.691
319.53	8.262
319.89	8.760
320.26	9.312
320.62	11.033
320.99	8.768
321.35	9.866
321.72	10.592
322.08	10.876
322.45	10.660
322.81	11.395
323.18	10.206
323.54	11.004
323.91	11.977
324.27	13.184
324.64	13.015
325.00	14.325
325.37	16.253
325.73	14.234
326.10	15.985
326.46	17.848
326.83	17.935
327.19	18.309
327.56	20.070
327.92	20.599
328.29	19.196
328.65	21.321
329.01	22.426
329.38	22.949
329.74	22.852
330.11	24.745
330.47	24.583
330.84	26.923
331.20	28.897
331.56	27.778
331.93	29.680
332.29	27.956
332.66	29.050
333.02	29.554
333.38	29.973
333.75	32.418
334.11	30.081
334.48	31.460
334.84	31.319
335.20	31.839
335.57	32.820
335.93	33.153
336.29	33.517
336.66	33.878
337.02	33.178
337.38	34.630
337.75	34.364
338.11	35.437
338.47	36.588
338.84	36.506
339.20	35.375
339.56	36.422
339.93	36.258
340.29	36.239
340.65	36.470
341.02	36.082
341.38	37.168
341.74	36.396
342.11	35.702
342.47	38.078
342.83	36.765
343.20	36.150
343.56	37.826
343.92	36.758
344.28	37.831
344.65	37.047
345.01	36.560
345.37	37.006
345.73	38.159
346.10	38.481
346.46	36.585
346.82	37.561
347.19	35.993
347.55	37.093
347.91	37.136
348.27	37.348
348.63	39.438
349.00	37.982
349.36	38.155
349.72	38.474
350.08	37.459
350.45	38.228
350.81	36.960
351.17	37.296
351.53	39.020
351.89	38.150
352.26	38.480
352.62	38.145
352.98	37.269
353.34	38.325
353.70	39.239
354.07	37.258
354.43	38.110
354.79	39.637
355.15	37.619
355.51	38.054
355.87	38.916
356.24	38.254
356.60	37.672
356.96	39.921
357.32	39.137
357.68	39.406
358.04	39.661
358.40	39.550
358.77	38.676
359.13	40.192
359.49	38.213
359.85	39.548
360.21	40.032
360.57	38.332
360.93	39.939
361.29	39.426
361.66	41.223
362.02	39.773
362.38	41.127
362.74	40.424
363.10	41.911
363.46	41.660
363.82	40.346
364.18	41.328
364.54	39.926
364.90	41.935
365.26	40.902
365.62	42.409
365.98	40.689
366.35	42.389
366.71	42.498
367.07	42.453
367.43	42.991
367.79	41.060
368.15	41.709
368.51	41.879
368.87	42.570
369.23	42.527
369.59	43.732
369.95	42.229
370.31	43.353
370.67	44.776
371.03	44.361
371.39	43.253
371.75	43.883
372.11	45.292
372.47	44.527
372.83	44.713
373.19	44.294
373.55	43.827
373.91	43.844
374.27	45.641
374.63	45.729
374.99	44.681
375.35	45.822
375.71	46.853
376.07	46.138
376.42	47.075
376.78	47.181
377.14	46.310
377.50	47.012
377.86	48.260
378.22	46.650
378.58	48.269
378.94	47.826
379.30	47.785
379.66	48.903
380.02	48.253
380.38	47.900
380.74	49.192
381.09	50.307
381.45	49.725
381.81	49.414
382.17	50.254
382.53	48.969
382.89	50.785
383.25	51.151
383.61	51.098
383.97	50.730
384.32	51.970
384.68	51.084
385.04	51.409
385.40	50.404
385.76	53.145
386.12	51.876
386.48	53.640
386.83	53.075
387.19	53.663
387.55	53.450
387.91	54.340
388.27	53.846
388.62	54.751
388.98	54.205
389.34	54.279
389.70	55.376
390.06	53.807
390.42	54.793
390.77	55.526
391.13	54.477
391.49	55.175
391.85	56.595
392.20	55.430
392.56	56.008
392.92	55.960
393.28	55.837
393.64	56.276
393.99	57.618
394.35	57.306
394.71	57.854
395.07	55.877
395.42	56.709
395.78	57.524
396.14	57.440
396.50	58.909
396.85	58.789
397.21	58.208
397.57	58.307
397.92	56.081
398.28	58.506
398.64	57.229
399.00	58.465
399.35	56.321
399.71	57.381
400.07	58.827
400.42	57.466
400.78	58.236
401.14	57.290
401.49	57.296
401.85	58.074
402.21	56.807
402.57	59.000
402.92	57.779
403.28	58.897
403.63	58.890
403.99	60.077
404.35	59.838
404.70	57.738
405.06	58.696
405.42	58.794
405.77	58.396
406.13	59.139
406.49	58.022
406.84	59.535
407.20	58.639
407.55	58.339
407.91	58.757
408.27	59.082
408.62	59.508
408.98	59.458
409.34	58.612
409.69	59.302
410.05	58.313
410.40	58.704
410.76	59.409
411.11	59.000
411.47	59.895
411.83	59.510
412.18	60.618
412.54	59.301
412.89	58.682
413.25	58.724
413.60	60.124
413.96	59.202
414.31	59.085
414.67	58.627
415.03	59.188
415.38	59.987
415.74	60.651
416.09	60.614
416.45	59.824
416.80	60.608
417.16	61.395
417.51	60.160
417.87	59.909
418.22	62.435
418.58	61.070
418.93	60.313
419.29	58.195
419.64	60.661
420.00	61.902
420.35	60.060
420.71	60.571
421.06	62.124
421.42	60.637
421.77	59.827
422.12	60.897
422.48	60.693
422.83	60.325
423.19	61.343
423.54	61.611
423.90	60.306
424.25	61.711
424.61	61.628
424.96	61.092
425.31	62.796
425.67	63.028
426.02	62.721
426.38	63.431
426.73	62.893
427.09	63.861
427.44	63.118
427.79	61.402
428.15	63.167
428.50	62.568
428.85	62.101
429.21	62.649
429.56	63.127
429.92	61.531
430.27	61.604
430.62	61.945
430.98	63.270
431.33	61.777
431.68	63.108
432.04	62.437
432.39	63.149
432.74	62.057
433.10	64.195
433.45	62.963
433.80	64.423
434.16	63.823
434.51	62.473
434.86	64.402
435.22	63.545
435.57	63.880
435.92	64.551
436.28	63.626
436.63	64.119
436.98	64.137
437.34	64.428
437.69	65.534
438.04	63.647
438.39	63.836
438.75	65.392
439.10	64.403
439.45	65.612
439.81	63.976
440.16	67.162
440.51	66.985
440.86	66.526
441.22	63.857
441.57	66.004
441.92	65.792
442.27	66.685
442.63	65.792
442.98	64.848
443.33	64.441
443.68	65.889
444.03	65.673
444.39	64.879
444.74	66.332
445.09	67.149
445.44	65.527
445.79	67.303
446.15	65.419
446.50	66.500
446.85	66.100
447.20	66.058
447.55	66.350
447.91	66.328
448.26	66.762
448.61	65.746
448.96	66.093
449.31	66.301
449.66	66.028
450.02	66.971
450.37	67.279
450.72	66.380
451.07	67.025
451.42	66.729
451.77	67.089
452.12	66.328
452.47	66.323
452.83	66.431
453.18	66.667
453.53	67.004
453.88	67.760
454.23	66.318
454.58	67.821
454.93	65.851
455.28	65.143
455.63	66.770
455.98	67.048
456.34	65.645
456.69	67.217
457.04	66.856
457.39	66.403
457.74	66.445
458.09	65.274
458.44	66.004
458.79	66.835
459.14	67.220
459.49	67.940
459.84	66.159
460.19	65.534
460.54	66.993
460.89	67.500
461.24	67.267
461.59	66.449
461.94	66.038
462.29	67.250
462.64	68.173
462.99	67.163
463.34	68.150
463.69	66.731
464.04	66.768
464.39	67.192
464.74	66.748
465.09	66.625
465.44	66.301
465.79	64.399
466.14	66.819
466.49	64.807
466.84	66.627
467.19	65.144
467.54	66.411
467.89	66.582
468.24	65.937
468.59	68.825
468.94	65.270
469.29	66.951
469.64	66.165
469.99	67.905
470.34	66.894
470.68	68.531
471.03	67.799
471.38	68.616
471.73	67.227
472.08	67.300
472.43	67.450
472.78	66.552
473.13	68.231
473.48	66.906
473.83	65.006
474.17	67.487
474.52	65.795
474.87	66.667
475.22	67.114
475.57	66.911
475.92	68.294
476.27	67.055
476.61	68.171
476.96	65.142
477.31	66.685
477.66	67.865
478.01	66.929
478.36	65.523
478.70	68.026
479.05	66.923
479.40	67.144
479.75	65.902
480.10	66.564
480.45	66.750
480.79	67.372
481.14	67.674
481.49	66.108
481.84	67.375
482.19	66.417
482.53	66.667
482.88	66.348
483.23	67.802
483.58	66.509
483.92	65.973
484.27	66.180
484.62	65.979
484.97	66.418
485.31	64.957
485.66	63.595
486.01	64.447
486.36	64.063
486.70	64.432
487.05	65.267
487.40	64.969
487.75	64.930
488.09	65.019
488.44	65.887
488.79	66.156
489.13	66.907
489.48	66.481
489.83	65.112
490.17	66.292
490.52	65.266
490.87	66.173
491.22	67.670
491.56	66.746
491.91	65.296
492.26	66.505
492.60	65.355
492.95	67.044
493.30	66.243
493.64	66.749
493.99	66.280
494.34	65.825
494.68	65.619
495.03	66.326
495.37	66.683
495.72	66.835
496.07	66.976
496.41	66.934
496.76	66.467
497.11	65.999
497.45	67.064
497.80	66.902
498.14	66.468
498.49	66.582
498.84	66.517
499.18	66.215
499.53	66.022
499.87	65.418
500.22	65.875
500.56	66.818
500.91	65.211
501.26	66.337
501.60	66.699
501.95	65.648
502.29	65.811
502.64	66.795
502.98	66.601
503.33	65.370
503.67	66.072
504.02	66.227
504.36	65.908
504.71	64.697
505.06	65.526
505.40	67.817
505.75	67.165
506.09	65.028
506.44	67.762
506.78	66.020
507.13	67.735
507.47	65.640
507.82	66.346
508.16	67.195
508.51	66.894
508.85	67.190
509.19	66.951
509.54	67.292
509.88	66.936
510.23	67.725
510.57	67.290
510.92	65.672
511.26	66.612
511.61	67.712
511.95	67.342
512.30	66.907
512.64	67.446
512.98	67.996
513.33	66.872
513.67	66.686
514.02	67.963
514.36	69.029
514.70	68.415
515.05	67.920
515.39	67.769
515.74	67.904
516.08	69.815
516.42	68.492
516.77	68.929
517.11	68.665
517.46	68.163
517.80	67.878
518.14	67.728
518.49	66.947
518.83	68.712
519.17	66.889
519.52	68.088
519.86	66.747
520.20	67.740
520.55	67.230
520.89	67.440
521.23	68.778
521.58	68.896
521.92	68.590
522.26	68.445
522.61	69.935
522.95	69.338
523.29	68.869
523.64	67.916
523.98	68.957
524.32	67.590
524.66	68.566
525.01	69.156
525.35	69.540
525.69	69.024
526.04	69.312
526.38	70.039
526.72	68.018
527.06	67.575
527.41	68.931
527.75	68.633
528.09	68.771
528.43	71.101
528.78	69.901
529.12	68.645
529.46	70.110
529.80	67.258
530.15	68.515
530.49	69.428
530.83	70.793
531.17	68.368
531.51	68.536
531.86	67.573
532.20	68.198
532.54	68.890
532.88	68.583
533.22	69.288
533.57	68.807
533.91	68.603
534.25	69.792
534.59	67.672
534.93	67.275
535.27	67.132
535.62	67.920
535.96	68.689
536.30	68.140
536.64	69.194
536.98	67.805
537.32	69.630
537.66	68.864
538.01	70.070
538.35	70.180
538.69	68.642
539.03	67.601
539.37	69.044
539.71	68.507
540.05	67.821
540.39	68.975
540.73	69.526
541.07	69.406
541.42	67.608
541.76	70.062
542.10	67.653
542.44	70.605
542.78	66.896
543.12	68.819
543.46	69.680
543.80	67.870
544.14	66.355
544.48	67.888
544.82	67.396
545.16	68.716
545.50	69.626
545.84	67.705
546.18	68.865
546.52	68.637
546.86	68.009
547.20	69.814
547.54	67.915
547.88	68.410
548.22	67.193
548.56	67.414
548.90	68.261
549.24	67.424
549.58	68.265
549.92	68.120
550.26	68.278
550.60	69.665
550.94	67.662
551.28	68.702
551.62	70.923
551.96	69.248
552.30	69.371
552.64	66.925
552.98	68.636
553.32	69.116
553.66	68.723
554.00	70.949
554.34	69.276
554.68	67.552
555.02	68.899
555.36	69.634
555.69	68.205
556.03	68.380
556.37	67.972
556.71	68.953
557.05	70.321
557.39	67.881
557.73	68.591
558.07	70.287
558.41	69.755
558.75	69.758
559.08	69.425
559.42	69.762
559.76	70.616
560.10	69.113
560.44	68.801
560.78	68.601
561.12	68.618
561.45	69.782
561.79	68.908
562.13	69.198
562.47	69.065
562.81	69.164
563.15	67.348
563.48	69.024
563.82	68.497
564.16	69.847
564.50	68.919
564.84	69.009
565.17	68.142
565.51	69.536
565.85	70.165
566.19	68.435
566.52	70.442
566.86	68.059
567.20	67.497
567.54	68.674
567.88	68.483
568.21	69.287
568.55	67.609
568.89	67.967
569.23	67.646
569.56	66.462
569.90	66.991
570.24	63.900
570.57	67.891
570.91	66.713
571.25	65.044
571.59	63.781
571.92	63.496
572.26	64.946
572.60	64.403
572.93	65.014
573.27	63.887
573.61	64.588
573.95	64.528
574.28	63.851
574.62	64.150
574.96	63.301
575.29	63.327
575.63	62.685
575.97	63.378
576.30	63.846
576.64	63.338
576.98	63.861
577.31	63.947
577.65	64.197
577.98	64.138
578.32	63.816
578.66	63.292
578.99	63.173
579.33	63.402
579.67	63.184
580.00	63.949
580.34	63.532
580.67	63.155
581.01	63.785
581.35	63.243
581.68	63.137
582.02	63.388
582.35	63.565
582.69	64.336
583.02	63.128
583.36	63.875
583.70	64.356
584.03	66.166
584.37	65.274
584.70	64.313
585.04	63.731
585.37	63.047
585.71	64.132
586.04	63.817
586.38	63.030
586.72	64.161
587.05	64.385
587.39	65.082
587.72	65.528
588.06	64.849
588.39	64.654
588.73	64.469
589.06	65.688
589.40	64.984
589.73	65.425
590.07	65.899
590.40	66.254
590.73	66.392
591.07	66.539
591.40	66.207
591.74	65.928
592.07	66.929
592.41	66.343
592.74	65.472
593.08	64.094
593.41	64.349
593.75	63.952
594.08	64.710
594.41	64.338
594.75	65.038
595.08	64.548
595.42	65.477
595.75	65.490
596.09	65.520
596.42	65.523
596.75	66.119
597.09	65.831
597.42	66.079
597.75	66.880
598.09	64.962
598.42	64.892
598.76	64.522
599.09	64.223
599.42	63.698
599.76	63.582
600.09	64.367
600.42	64.746
600.76	63.410
601.09	64.656
601.42	63.416
601.76	64.867
602.09	64.398
602.42	65.796
602.76	65.450
603.09	65.947
603.42	66.973
603.76	65.968
604.09	65.087
604.42	66.117
604.76	66.088
605.09	67.002
605.42	66.140
605.75	65.630
606.09	65.902
606.42	64.178
606.75	66.494
607.09	65.275
607.42	64.776
607.75	64.387
608.08	64.331
608.42	64.504
608.75	66.506
609.08	66.069
609.41	66.599
609.75	65.272
610.08	65.602
610.41	65.942
610.74	65.480
611.07	66.873
611.41	67.462
611.74	65.778
612.07	65.471
612.40	66.466
612.73	66.667
613.07	66.423
613.40	66.685
613.73	66.256
614.06	65.442
614.39	67.061
614.72	66.723
615.06	66.872
615.39	64.574
615.72	65.339
616.05	66.369
616.38	65.071
616.71	67.034
617.05	67.820
617.38	66.562
617.71	68.365
618.04	67.492
618.37	68.348
618.70	68.317
619.03	68.403
619.36	68.162
619.69	70.508
620.03	69.540
620.36	67.525
620.69	67.380
621.02	69.343
621.35	69.129
621.68	71.088
622.01	69.583
622.34	69.912
622.67	69.164
623.00	68.224
623.33	70.198
623.66	67.988
623.99	67.927
624.32	69.278
624.65	67.293
624.99	69.300
625.32	68.234
625.65	69.128
625.98	69.782
626.31	71.072
626.64	70.537
626.97	69.197
627.30	70.841
627.63	68.458
627.96	72.686
628.29	71.970
628.62	70.501
628.95	70.441
629.28	70.464
629.61	70.090
629.94	72.434
630.26	71.739
630.59	73.569
630.92	71.795
631.25	69.949
631.58	72.357
631.91	72.478
632.24	72.706
632.57	73.068
632.90	72.598
633.23	72.000
633.56	73.929
633.89	71.147
634.22	74.691
634.55	73.571
634.88	72.925
635.20	70.513
635.53	74.800
635.86	72.042
636.19	73.739
636.52	74.107
636.85	72.208
637.18	73.333
637.51	71.824
637.83	74.770
638.16	74.352
638.49	70.981
638.82	75.000
639.15	73.541
639.48	73.177
639.81	73.640
640.13	76.768
640.46	77.114
640.79	75.994
641.12	73.264
641.45	73.423
641.77	73.926
642.10	76.619
642.43	76.367
642.76	74.752
643.09	74.637
643.41	75.405
643.74	75.453
644.07	75.534
644.40	74.155
644.73	77.233
645.05	74.329
645.38	77.425
645.71	74.645
646.04	80.251
646.36	76.418
646.69	75.899
647.02	77.316
647.35	77.425
647.67	73.857
648.00	76.866
648.33	72.184
648.66	76.441
648.98	73.869
649.31	74.215
649.64	73.155
649.96	73.906
650.29	74.276
650.62	74.530
650.94	79.815
651.27	76.909
651.60	77.838
651.92	72.727
652.25	77.265
652.58	74.000
652.90	78.216
653.23	73.950
653.56	73.266
653.88	73.196
654.21	74.431
654.54	72.835
654.86	76.061
655.19	72.222
655.52	67.647
655.84	61.709
656.17	69.241
656.49	92.548
656.82	96.048
657.15	74.670
657.47	55.924
657.80	42.007
658.13	41.561
658.45	64.512
658.78	64.468
659.10	64.590
659.43	65.425
659.75	68.574
660.08	69.034
660.41	71.706
660.73	73.757
661.06	74.697
661.38	75.147
661.71	74.127
662.03	77.682
662.36	77.582
662.68	78.761
663.01	76.856
663.33	77.030
663.66	77.209
663.98	77.674
664.31	75.267
664.63	75.806
664.96	74.348
665.28	75.055
665.61	79.221
665.93	76.522
666.26	75.705
666.58	71.588
666.91	74.824
667.23	77.594
667.56	81.754
667.88	81.055
668.21	76.134
668.53	78.487
668.86	75.943
669.18	75.943
669.50	74.092
669.83	75.581
670.15	79.953
670.48	79.426
670.80	75.346
671.13	75.168
671.45	76.256
671.77	72.961
672.10	72.871
672.42	72.285
672.75	71.226
673.07	75.850
673.39	73.578
673.72	70.611
674.04	74.167
674.37	76.695
674.69	74.946
675.01	76.222
675.34	75.676
675.66	77.315
675.98	73.392
676.31	73.394
676.63	76.960
676.95	71.364
677.28	78.353
677.60	76.867
677.92	75.229
678.25	75.711
678.57	73.160
678.89	75.630
679.22	80.313
679.54	73.494
679.86	72.763
680.18	73.786
680.51	71.402
680.83	72.167
681.15	73.400
681.48	73.361
681.80	71.901
682.12	72.379
682.44	72.176
682.77	75.276
683.09	75.515
683.41	77.500
683.73	73.272
684.06	72.345
684.38	72.258
684.70	77.778
685.02	69.710
685.34	71.542
685.67	73.546
685.99	71.609
686.31	70.265
686.63	71.614
686.96	69.582
687.28	71.111
687.60	69.772
687.92	73.737
688.24	71.976
688.56	76.419
688.89	72.098
689.21	72.000
689.53	73.782
689.85	73.721
690.17	74.107
690.49	76.123
690.82	74.029
691.14	73.810
691.46	74.766
691.78	69.369
692.10	75.054
692.42	71.861
692.74	72.436
693.06	74.324
693.39	71.493
693.71	73.303
694.03	75.520
694.35	75.467
694.67	75.253
694.99	73.629
695.31	75.979
695.63	72.000
695.95	72.980
696.27	73.575
696.59	79.444
696.91	76.471
697.23	73.265
697.56	74.010
697.88	70.968
698.20	72.665
698.52	73.647
698.84	70.574
699.16	72.500
699.48	75.188
699.80	72.953
700.12	75.202
700.44	77.031
700.76	74.419
701.08	76.667
701.40	71.988
701.72	79.630
702.04	77.888
702.36	85.284
702.68	74.775
703.00	77.273
703.32	76.246
703.64	68.927
703.96	70.435
704.28	76.074
704.60	78.413
704.91	75.394
705.23	75.415
705.55	81.625
705.87	81.227
706.19	76.667
706.51	79.381
706.83	77.492
707.15	72.897
707.47	74.790
707.79	72.917
708.11	71.750
708.43	71.250
708.74	71.318
709.06	75.775
709.38	77.064
709.70	72.781
710.02	72.611
710.34	73.684
710.66	74.679
710.98	73.179
711.29	78.689
711.61	83.390
711.93	74.593
712.25	76.632
712.57	73.260
712.89	77.612
713.20	73.356
713.52	69.338
713.84	73.038
714.16	74.227
714.48	78.065
714.80	77.244
715.11	73.252
715.43	70.219
715.75	76.333
716.07	70.100
716.39	74.497
716.70	75.277
717.02	78.626
717.34	79.757
717.66	76.106
717.97	76.957
718.29	78.661
718.61	77.953
718.93	79.070
719.24	74.905
719.56	77.108
719.88	73.196
720.20	73.106
720.51	72.797
720.83	74.131
721.15	77.731
721.46	74.194
721.78	74.704
722.10	72.119
722.42	75.934
722.73	77.959
723.05	77.551
723.37	78.814
723.68	78.378
724.00	72.650
724.32	72.889
724.63	81.364
724.95	76.419
725.27	75.115
725.58	80.085
725.90	73.810
726.22	68.340
726.53	69.153
726.85	70.037
727.16	78.868
727.48	74.494
727.80	72.065
728.11	72.881
728.43	74.902
728.74	71.371
729.06	76.000
729.38	79.323
729.69	68.526
730.01	71.538
730.32	75.373
730.64	75.265
730.96	76.981
731.27	65.667
731.59	70.508
731.90	69.108
732.22	67.823
732.53	76.412
732.85	73.404
733.16	74.747
733.48	69.784
733.80	77.899
734.11	68.475
734.43	74.570
734.74	71.515
735.06	75.244
735.37	73.112
735.69	76.431
736.00	66.202
736.32	69.128
736.63	73.944
736.95	72.696
737.26	71.530
737.58	65.772
737.89	75.824
738.21	71.805
738.52	77.366
738.83	73.362
739.15	75.546
739.46	71.260
739.78	63.736
740.09	67.974
740.41	67.391
740.72	67.323
741.04	68.016
741.35	75.319
741.66	71.564
741.98	78.571
742.29	75.248
742.61	74.869
742.92	72.038
743.23	68.519
743.55	79.186
743.86	70.335
744.18	72.249
744.49	78.723
744.80	83.696
745.12	83.957
745.43	64.878
745.74	81.250
746.06	75.122
746.37	78.534
746.68	72.986
747.00	78.191
747.31	74.627
747.62	74.272
747.94	76.077
748.25	73.762
748.56	81.421
748.88	80.628
749.19	88.298
749.50	76.355
749.82	65.566
750.13	80.275
750.44	72.180
750.75	74.254
751.07	72.993
751.38	68.966
751.69	71.373
752.01	74.031
752.32	72.112
752.63	67.984
752.94	69.828
753.26	75.314
753.57	72.398
753.88	72.124
754.19	74.167
754.51	72.727
754.82	69.636
755.13	75.417
755.44	73.387
755.75	69.531
756.07	71.206
756.38	69.434
756.69	68.966
757.00	69.000
757.31	64.052
757.63	69.512
757.94	66.111
758.25	61.644
758.56	64.362
758.87	66.856
759.18	62.928
759.50	70.545
759.81	69.231
760.12	68.710
760.43	65.455
760.74	69.753
761.05	68.000
761.36	65.341
761.67	69.091
761.99	69.388
762.30	67.636
762.61	66.798
762.92	72.851
763.23	71.622
763.54	73.832
763.85	65.254
764.16	65.975
764.47	67.339
764.78	64.835
765.10	69.360
765.41	64.984
765.72	65.397
766.03	70.301
766.34	64.964
766.65	69.323
766.96	76.768
767.27	68.617
767.58	71.839
767.89	80.142
768.20	68.182
768.51	73.077
768.82	69.458
769.13	64.977
769.44	63.519
769.75	67.123
770.06	65.517
770.37	67.308
770.68	68.528
770.99	65.611
771.30	71.078
771.61	65.158
771.92	72.414
772.23	76.847
772.54	72.043
772.85	73.457
773.16	71.910
773.47	78.431
773.78	76.471
774.09	67.066
774.39	67.333
774.70	70.701
775.01	76.552
775.32	76.429
775.63	70.248
775.94	71.756
776.25	69.291
776.56	70.000
776.87	74.038
777.18	70.085
777.48	67.241
777.79	71.304
778.10	68.571
778.41	69.369
778.72	69.048
779.03	68.421
779.34	74.468
779.65	72.603
779.95	69.178
780.26	75.172
780.57	63.415
780.88	74.016
781.19	66.379
781.50	71.318
781.80	62.130
782.11	60.377
782.42	76.154
782.73	73.381
783.04	78.519
783.34	63.194
783.65	56.410
783.96	69.672
784.27	76.552
784.57	79.675
784.88	66.406
785.19	80.000
785.50	80.000
785.81	73.276
786.11	70.690
786.42	67.961
786.73	88.182
787.04	83.673
787.34	68.750
787.65	73.333
787.96	66.372
788.26	76.364
788.57	73.504
788.88	67.969
789.19	61.111
789.49	63.478
789.80	70.408
790.11	73.737
790.41	68.182
790.72	69.565
791.03	82.955
791.33	77.500
791.64	81.250
791.95	58.140
792.25	70.213
792.56	66.292
792.87	69.863
793.17	85.507
793.48	54.667
793.79	57.500
794.09	76.250
794.40	66.038
794.70	79.612
795.01	60.163
795.32	70.085
795.62	62.857
795.93	69.608
796.23	65.094
796.54	65.625
796.85	91.176
797.15	56.338
797.46	75.000
797.76	74.242
798.07	59.302
798.37	65.789
798.68	74.242
798.99	58.025
799.29	70.000
799.60	71.014
799.90	86.667
800.21	83.607
800.51	72.308
800.82	76.271
801.12	68.116
801.43	83.607
801.73	82.540
802.04	82.000
802.34	77.612
802.65	96.154
802.95	48.214
803.26	90.385
803.56	70.588
803.87	71.739
804.17	66.667
804.48	87.302
804.78	85.185
805.09	60.870
805.39	48.889
805.70	75.926
806.00	61.404
806.30	60.563
806.61	72.857
806.91	59.722
807.22	72.368
807.52	69.333
807.83	67.273
808.13	69.444
808.43	83.824
808.74	59.701
809.04	55.932
809.35	55.769
809.65	78.125
809.95	75.676
810.26	56.818
810.56	54.795
810.86	85.714
811.17	68.000
811.47	65.306
811.77	73.684
812.08	75.000
812.38	58.491
812.69	60.000
812.99	96.970
813.29	71.053
813.59	62.857
813.90	72.727
814.20	71.795
814.50	73.077
814.81	86.792
815.11	34.043
815.41	52.542
815.72	73.810
816.02	80.392
816.32	47.917
816.62	56.098
816.93	59.459
817.23	62.857
817.53	87.500
817.84	82.609
818.14	50.000
818.44	55.263
818.74	67.391
819.04	55.000
819.35	81.081
819.65	76.471
819.95	72.222
820.25	73.810
820.56	75.000
820.86	48.276
821.16	97.500
821.46	65.957
821.76	75.000
822.07	67.442
822.37	37.838
822.67	96.875
822.97	83.333
823.27	78.571
823.57	56.000
823.88	74.074
824.18	67.857
824.48	47.059
824.78	61.290
825.08	69.565
825.38	54.545
825.69	58.333
825.99	52.632
826.29	63.889
826.59	120.000
826.89	42.857
827.19	67.391
827.49	72.500
827.79	68.571
828.09	114.286
828.39	69.697
828.70	91.892
829.00	64.286
829.30	66.667
829.60	66.667
829.90	56.250
830.20	36.842
830.50	59.259
830.80	95.652
831.10	77.273
831.40	81.818
831.70	87.097
832.00	90.476
832.30	61.905
832.60	125.000
832.90	72.414
833.20	30.000
833.50	45.455
833.80	62.963
834.10	88.462
834.40	65.625
834.70	-11.111
835.00	121.053
835.30	153.846
835.60	193.333
835.90	77.419
836.20	36.364
836.50	75.000
836.80	65.385
837.10	50.000
837.40	566.667
837.70	54.545
838.00	109.091
838.30	78.261
838.60	53.846
838.90	86.364
839.19	50.000
839.49	66.667
839.79	92.308
840.09	41.667
840.39	110.714
840.69	46.429
840.99	26.923
841.29	47.368
841.59	-30.000
841.88	145.455
842.18	150.000
842.48	37.500
842.78	106.667
843.08	85.185
843.38	120.000
843.68	69.565
843.97	33.333
844.27	40.000
844.57	50.000
844.87	72.222
845.17	61.905
845.47	73.333
845.76	47.619
846.06	88.235
846.36	170.000
846.66	28.571
846.96	40.000
847.25	0.000
847.55	85.714
847.85	-12.500
848.15	36.364
848.44	-233.333
848.74	75.000
849.04	114.815
849.34	127.273
849.63	116.667
849.93	80.000
850.23	72.222
850.53	100.000
850.82	38.462
851.12	111.111
851.42	93.333
851.71	57.692
852.01	42.857
852.31	325.000
852.61	-9.091
852.90	55.000
853.20	78.947
853.50	83.333
853.79	82.609
854.09	58.333
854.39	68.421
854.68	79.167
854.98	80.645
855.28	92.308
855.57	60.000
855.87	105.556
856.17	59.259
856.46	92.857
856.76	46.667
857.05	200.000
857.35	80.000
857.65	50.000
857.94	76.923
858.24	58.621
858.53	55.556
858.83	114.815
859.13	45.455
859.42	60.870
859.72	325.000
860.01	66.667
860.31	40.000
860.60	61.905
860.90	400.000
861.20	66.667
861.49	-300.000
861.79	26.667
862.08	45.000
862.38	153.333
862.67	40.000
862.97	133.333
863.26	100.000
863.56	122.222
863.85	66.667
864.15	83.333
864.44	0.000
864.74	100.000
865.03	50.000
865.33	80.000
865.62	0.000
865.92	116.667
866.21	-133.333
866.51	31.250
866.80	-9.091
867.10	-300.000
867.39	133.333
867.69	0.000
867.98	76.923
868.27	66.667
868.57	53.333
868.86	61.111
869.16	61.538
869.45	126.667
869.75	100.000
870.04	0.000
870.33	100.000
870.63	52.381
870.92	33.333
871.22	100.000
871.51	600.000
871.80	166.667
872.10	66.667
>>>>>End Processed Spectral Data<<<<<
