SpectraSuite Data File
++++++++++++++++++++++++++++++++++++
Date: Fri May 15 20:07:05 PDT 2015
User: schluterlab
Dark Spectrum Present: Yes
Reference Spectrum Present: Yes
Number of Sampled Component Spectra: 1
Spectrometers: USB2E3373
Integration Time (usec): 3000 (USB2E3373)
Spectra Averaged: 3 (USB2E3373)
Boxcar Smoothing: 0 (USB2E3373)
Correct for Electrical Dark: No (USB2E3373)
Strobe/Lamp Enabled: No (USB2E3373)
Correct for Detector Non-linearity: No (USB2E3373)
Correct for Stray Light: No (USB2E3373)
Number of Pixels in Processed Spectrum: 2048
>>>>>Begin Processed Spectral Data<<<<<
178.53	0.000
178.91	0.000
179.29	137.500
179.67	-250.000
180.04	-28.571
180.42	400.000
180.80	300.000
181.18	100.000
181.56	150.000
181.94	-250.000
182.31	100.000
182.69	-60.000
183.07	-33.333
183.45	-40.000
183.83	250.000
184.20	27.273
184.58	66.667
184.96	-225.000
185.34	-133.333
185.72	-100.000
186.09	53.846
186.47	-300.000
186.85	50.000
187.23	133.333
187.61	700.000
187.98	66.667
188.36	88.889
188.74	-166.667
189.12	64.706
189.49	5.556
189.87	0.000
190.25	50.000
190.63	-200.000
191.00	-66.667
191.38	-5.263
191.76	950.000
192.14	50.000
192.51	200.000
192.89	55.556
193.27	-14.286
193.65	100.000
194.02	127.273
194.40	100.000
194.78	-37.500
195.15	-16.667
195.53	-12.500
195.91	275.000
196.29	-75.000
196.66	100.000
197.04	28.571
197.42	-77.778
197.79	-533.333
198.17	-53.846
198.55	1900.000
198.92	-300.000
199.30	100.000
199.68	-120.000
200.05	-300.000
200.43	0.000
200.81	-33.333
201.18	0.000
201.56	1600.000
201.94	-250.000
202.31	200.000
202.69	-120.000
203.07	250.000
203.44	1400.000
203.82	0.000
204.19	42.857
204.57	-666.667
204.95	25.000
205.32	20.000
205.70	0.000
206.08	-75.000
206.45	133.333
206.83	50.000
207.20	-71.429
207.58	1100.000
207.96	-200.000
208.33	-80.000
208.71	50.000
209.08	-50.000
209.46	0.000
209.84	-120.000
210.21	-800.000
210.59	142.857
210.96	83.333
211.34	150.000
211.71	33.333
212.09	-71.429
212.46	-1200.000
212.84	0.000
213.22	130.000
213.59	600.000
213.97	38.462
214.34	-18.182
214.72	-83.333
215.09	375.000
215.47	15.385
215.84	18.182
216.22	33.333
216.59	0.000
216.97	350.000
217.34	-200.000
217.72	-160.000
218.09	62.500
218.47	62.500
218.84	-1300.000
219.22	-66.667
219.59	-300.000
219.97	733.333
220.34	125.000
220.72	14.286
221.09	-75.000
221.47	-450.000
221.84	-400.000
222.22	-850.000
222.59	27.273
222.97	-8.333
223.34	-366.667
223.72	57.143
224.09	38.095
224.46	25.000
224.84	466.667
225.21	70.000
225.59	-6.667
225.96	-250.000
226.34	425.000
226.71	-71.429
227.08	-216.667
227.46	-37.500
227.83	-600.000
228.21	-11.111
228.58	-9.091
228.95	-100.000
229.33	80.000
229.70	56.250
230.08	-125.000
230.45	-71.429
230.82	85.714
231.20	-6.667
231.57	114.286
231.95	0.000
232.32	-100.000
232.69	28.571
233.07	66.667
233.44	-80.000
233.81	-60.000
234.19	-11.111
234.56	41.176
234.93	300.000
235.31	0.000
235.68	-260.000
236.05	-30.769
236.43	-85.000
236.80	-58.824
237.17	18.750
237.55	-15.000
237.92	7.407
238.29	-22.222
238.67	13.333
239.04	14.706
239.41	-31.707
239.79	-6.667
240.16	14.634
240.53	0.000
240.91	-2.174
241.28	14.286
241.65	21.429
242.02	23.288
242.40	18.333
242.77	-1.695
243.14	4.545
243.51	7.500
243.89	22.989
244.26	10.345
244.63	2.381
245.00	11.340
245.38	12.371
245.75	3.371
246.12	6.897
246.49	14.876
246.87	13.462
247.24	10.084
247.61	2.632
247.98	14.634
248.36	10.000
248.73	9.868
249.10	4.545
249.47	12.025
249.84	13.072
250.22	11.765
250.59	12.418
250.96	15.962
251.33	5.233
251.70	17.059
252.08	6.599
252.45	11.881
252.82	7.035
253.19	12.903
253.56	7.009
253.94	11.261
254.31	14.783
254.68	14.035
255.05	8.661
255.42	12.664
255.79	11.969
256.16	12.451
256.54	13.806
256.91	11.787
257.28	11.152
257.65	11.985
258.02	8.156
258.39	14.141
258.76	13.919
259.14	12.957
259.51	14.563
259.88	9.622
260.25	11.111
260.62	11.458
260.99	10.847
261.36	6.849
261.73	9.810
262.10	6.991
262.47	9.202
262.85	9.718
263.22	12.000
263.59	15.888
263.96	13.354
264.33	10.909
264.70	11.607
265.07	8.631
265.44	13.314
265.81	12.147
266.18	11.202
266.55	14.910
266.92	13.472
267.29	13.577
267.66	10.486
268.03	13.613
268.40	13.838
268.77	14.439
269.14	11.271
269.51	11.825
269.88	8.728
270.25	13.010
270.62	9.512
270.99	9.463
271.36	11.736
271.73	11.737
272.10	12.895
272.47	12.057
272.84	12.129
273.21	14.849
273.58	11.084
273.95	10.984
274.32	10.855
274.69	8.824
275.06	13.616
275.43	10.658
275.80	12.362
276.17	11.494
276.54	10.921
276.91	13.596
277.28	10.917
277.65	11.983
278.02	11.064
278.39	10.066
278.76	10.482
279.13	8.299
279.50	10.294
279.87	11.879
280.23	10.108
280.60	13.255
280.97	10.909
281.34	9.808
281.71	13.552
282.08	9.611
282.45	9.589
282.82	12.548
283.19	11.992
283.56	12.524
283.92	9.298
284.29	12.115
284.66	9.884
285.03	10.806
285.40	10.019
285.77	8.787
286.14	11.191
286.51	11.993
286.87	8.410
287.24	9.208
287.61	10.406
287.98	10.000
288.35	10.225
288.72	10.683
289.08	10.590
289.45	9.666
289.82	9.790
290.19	9.215
290.56	10.120
290.93	10.606
291.29	9.553
291.66	10.551
292.03	10.048
292.40	9.355
292.77	8.931
293.13	7.468
293.50	7.891
293.87	10.840
294.24	9.274
294.60	10.134
294.97	8.780
295.34	8.589
295.71	8.048
296.08	7.922
296.44	6.117
296.81	8.194
297.18	10.435
297.55	8.943
297.91	8.356
298.28	9.631
298.65	8.005
299.02	8.221
299.38	6.977
299.75	9.103
300.12	8.246
300.48	7.510
300.85	8.238
301.22	8.182
301.59	7.500
301.95	8.734
302.32	8.560
302.69	8.333
303.05	6.683
303.42	8.593
303.79	8.995
304.15	9.916
304.52	6.421
304.89	6.433
305.25	7.748
305.62	7.701
305.99	8.070
306.35	7.977
306.72	6.749
307.09	6.613
307.45	6.774
307.82	7.755
308.19	7.317
308.55	8.070
308.92	10.131
309.29	7.151
309.65	8.181
310.02	7.701
310.38	7.794
310.75	8.743
311.12	6.781
311.48	7.635
311.85	7.225
312.22	8.122
312.58	8.705
312.95	7.150
313.31	7.453
313.68	6.387
314.05	7.653
314.41	8.660
314.78	7.835
315.14	10.175
315.51	8.696
315.87	8.402
316.24	8.291
316.61	8.563
316.97	9.722
317.34	8.203
317.70	7.361
318.07	8.558
318.43	9.118
318.80	9.280
319.16	9.277
319.53	9.687
319.89	7.972
320.26	9.413
320.62	9.930
320.99	7.933
321.35	9.558
321.72	9.657
322.08	10.070
322.45	10.761
322.81	10.904
323.18	9.715
323.54	9.749
323.91	9.348
324.27	9.082
324.64	10.206
325.00	11.131
325.37	12.121
325.73	11.333
326.10	11.172
326.46	12.108
326.83	11.724
327.19	11.595
327.56	12.424
327.92	12.588
328.29	11.964
328.65	12.358
329.01	12.592
329.38	13.456
329.74	11.331
330.11	13.994
330.47	12.616
330.84	13.654
331.20	15.209
331.56	13.796
331.93	13.516
332.29	14.207
332.66	13.394
333.02	14.684
333.38	13.291
333.75	14.560
334.11	13.876
334.48	15.231
334.84	14.377
335.20	14.364
335.57	14.506
335.93	15.086
336.29	15.470
336.66	14.532
337.02	13.941
337.38	13.611
337.75	15.545
338.11	15.329
338.47	15.420
338.84	14.048
339.20	15.539
339.56	13.945
339.93	14.682
340.29	15.780
340.65	14.695
341.02	14.894
341.38	16.283
341.74	13.781
342.11	13.865
342.47	15.658
342.83	14.446
343.20	14.983
343.56	15.130
343.92	14.526
344.28	17.165
344.65	15.630
345.01	15.990
345.37	15.223
345.73	16.318
346.10	16.825
346.46	15.559
346.82	15.466
347.19	15.129
347.55	16.291
347.91	15.615
348.27	15.198
348.63	16.014
349.00	16.079
349.36	15.628
349.72	16.998
350.08	16.148
350.45	15.323
350.81	15.365
351.17	15.309
351.53	16.408
351.89	15.690
352.26	15.120
352.62	15.645
352.98	15.663
353.34	16.103
353.70	16.586
354.07	16.048
354.43	15.773
354.79	15.277
355.15	17.778
355.51	16.535
355.87	16.343
356.24	14.845
356.60	16.087
356.96	17.063
357.32	16.294
357.68	16.341
358.04	15.509
358.40	16.238
358.77	17.544
359.13	15.132
359.49	15.871
359.85	16.615
360.21	16.826
360.57	16.220
360.93	17.171
361.29	15.559
361.66	16.536
362.02	16.212
362.38	17.746
362.74	16.805
363.10	17.381
363.46	16.012
363.82	18.482
364.18	16.458
364.54	17.353
364.90	16.918
365.26	17.322
365.62	17.810
365.98	17.962
366.35	19.009
366.71	17.295
367.07	17.925
367.43	17.110
367.79	16.466
368.15	18.880
368.51	18.718
368.87	17.803
369.23	17.978
369.59	17.201
369.95	18.475
370.31	18.353
370.67	17.239
371.03	18.148
371.39	17.870
371.75	18.168
372.11	18.474
372.47	18.491
372.83	18.737
373.19	18.973
373.55	18.051
373.91	19.510
374.27	19.348
374.63	18.737
374.99	18.652
375.35	18.175
375.71	20.070
376.07	18.961
376.42	18.231
376.78	18.859
377.14	20.311
377.50	19.522
377.86	20.214
378.22	18.953
378.58	19.679
378.94	19.786
379.30	20.337
379.66	19.624
380.02	19.375
380.38	19.294
380.74	19.988
381.09	20.736
381.45	19.388
381.81	20.666
382.17	20.114
382.53	19.800
382.89	19.711
383.25	20.100
383.61	20.915
383.97	19.746
384.32	20.200
384.68	20.929
385.04	20.159
385.40	20.411
385.76	21.635
386.12	20.699
386.48	21.648
386.83	20.926
387.19	20.940
387.55	22.208
387.91	21.883
388.27	20.574
388.62	21.838
388.98	21.608
389.34	21.861
389.70	22.188
390.06	20.894
390.42	21.826
390.77	21.714
391.13	22.068
391.49	22.445
391.85	22.417
392.20	22.536
392.56	22.060
392.92	22.490
393.28	22.583
393.64	21.922
393.99	22.696
394.35	21.252
394.71	23.627
395.07	22.502
395.42	21.615
395.78	22.671
396.14	21.942
396.50	23.082
396.85	22.344
397.21	22.556
397.57	22.821
397.92	22.588
398.28	22.356
398.64	22.169
399.00	22.630
399.35	22.348
399.71	23.033
400.07	23.035
400.42	22.521
400.78	23.821
401.14	23.533
401.49	23.645
401.85	22.121
402.21	22.410
402.57	23.312
402.92	22.585
403.28	23.308
403.63	22.446
403.99	23.023
404.35	23.985
404.70	22.262
405.06	22.620
405.42	23.058
405.77	22.777
406.13	22.817
406.49	22.202
406.84	23.655
407.20	23.119
407.55	23.052
407.91	22.660
408.27	23.837
408.62	24.677
408.98	23.167
409.34	23.110
409.69	23.062
410.05	22.906
410.40	24.012
410.76	23.462
411.11	22.937
411.47	23.734
411.83	23.101
412.18	23.359
412.54	22.409
412.89	23.030
413.25	23.646
413.60	23.665
413.96	22.883
414.31	23.598
414.67	23.220
415.03	23.569
415.38	22.258
415.74	24.169
416.09	24.233
416.45	23.903
416.80	24.389
417.16	24.102
417.51	24.450
417.87	23.664
418.22	23.510
418.58	23.612
418.93	24.514
419.29	22.855
419.64	23.526
420.00	25.315
420.35	24.179
420.71	23.998
421.06	23.327
421.42	23.738
421.77	23.353
422.12	23.893
422.48	24.201
422.83	24.710
423.19	24.210
423.54	23.692
423.90	23.439
424.25	25.144
424.61	24.725
424.96	24.506
425.31	25.014
425.67	25.293
426.02	24.441
426.38	25.485
426.73	25.424
427.09	25.759
427.44	24.765
427.79	24.632
428.15	25.303
428.50	24.652
428.85	24.570
429.21	24.788
429.56	25.337
429.92	25.629
430.27	24.712
430.62	23.523
430.98	24.204
431.33	25.131
431.68	23.967
432.04	25.321
432.39	24.758
432.74	24.775
433.10	25.862
433.45	25.090
433.80	25.015
434.16	23.934
434.51	24.677
434.86	24.623
435.22	25.014
435.57	25.016
435.92	25.868
436.28	24.747
436.63	24.415
436.98	24.739
437.34	25.348
437.69	26.178
438.04	25.128
438.39	25.229
438.75	25.076
439.10	24.618
439.45	25.806
439.81	24.893
440.16	26.128
440.51	26.985
440.86	25.801
441.22	24.661
441.57	25.552
441.92	25.918
442.27	25.998
442.63	26.124
442.98	25.732
443.33	25.431
443.68	25.146
444.03	26.130
444.39	25.824
444.74	26.143
445.09	25.612
445.44	26.211
445.79	26.457
446.15	26.211
446.50	25.568
446.85	26.567
447.20	25.965
447.55	27.009
447.91	25.324
448.26	26.010
448.61	25.619
448.96	25.990
449.31	26.012
449.66	26.597
450.02	26.127
450.37	26.556
450.72	25.830
451.07	26.962
451.42	26.592
451.77	25.618
452.12	25.658
452.47	25.757
452.83	26.207
453.18	25.237
453.53	26.865
453.88	26.290
454.23	26.490
454.58	25.882
454.93	25.838
455.28	24.889
455.63	26.720
455.98	26.037
456.34	25.926
456.69	26.747
457.04	26.465
457.39	26.488
457.74	25.333
458.09	25.250
458.44	25.395
458.79	24.874
459.14	26.831
459.49	26.627
459.84	26.960
460.19	25.850
460.54	27.567
460.89	26.989
461.24	27.143
461.59	26.841
461.94	26.038
462.29	27.201
462.64	27.641
462.99	27.488
463.34	25.800
463.69	26.255
464.04	27.361
464.39	26.622
464.74	26.135
465.09	26.263
465.44	26.255
465.79	25.567
466.14	26.739
466.49	26.337
466.84	27.008
467.19	27.034
467.54	26.820
467.89	26.153
468.24	26.399
468.59	27.746
468.94	26.857
469.29	27.016
469.64	26.931
469.99	27.680
470.34	27.167
470.68	27.964
471.03	27.884
471.38	27.461
471.73	27.381
472.08	26.934
472.43	27.114
472.78	27.005
473.13	27.007
473.48	26.710
473.83	26.775
474.17	27.396
474.52	27.058
474.87	27.091
475.22	27.639
475.57	27.273
475.92	26.714
476.27	27.823
476.61	27.778
476.96	26.548
477.31	27.745
477.66	26.798
478.01	26.390
478.36	26.144
478.70	27.461
479.05	27.802
479.40	27.133
479.75	25.860
480.10	25.960
480.45	26.550
480.79	27.895
481.14	27.818
481.49	26.207
481.84	28.234
482.19	27.081
482.53	27.002
482.88	27.637
483.23	27.591
483.58	26.274
483.92	26.960
484.27	26.572
484.62	27.028
484.97	26.866
485.31	26.192
485.66	25.013
486.01	24.101
486.36	24.069
486.70	24.793
487.05	25.597
487.40	26.163
487.75	26.085
488.09	26.452
488.44	27.132
488.79	27.867
489.13	28.566
489.48	27.448
489.83	27.623
490.17	27.371
490.52	27.760
490.87	27.348
491.22	27.937
491.56	27.751
491.91	28.633
492.26	26.689
492.60	27.879
492.95	28.578
493.30	26.771
493.64	28.291
493.99	27.923
494.34	27.524
494.68	28.238
495.03	27.494
495.37	27.821
495.72	28.319
496.07	27.902
496.41	27.877
496.76	27.821
497.11	28.039
497.45	29.117
497.80	29.062
498.14	28.117
498.49	26.917
498.84	28.493
499.18	28.514
499.53	27.728
499.87	27.432
500.22	27.893
500.56	27.988
500.91	27.460
501.26	26.891
501.60	28.185
501.95	28.724
502.29	28.184
502.64	28.523
502.98	29.107
503.33	27.426
503.67	27.566
504.02	28.152
504.36	29.144
504.71	27.677
505.06	28.837
505.40	27.817
505.75	29.227
506.09	28.586
506.44	29.363
506.78	28.520
507.13	28.697
507.47	28.512
507.82	28.205
508.16	28.843
508.51	29.381
508.85	29.880
509.19	28.579
509.54	29.651
509.88	29.288
510.23	29.155
510.57	29.236
510.92	28.518
511.26	29.078
511.61	29.868
511.95	30.575
512.30	28.991
512.64	29.494
512.98	29.422
513.33	30.274
513.67	29.051
514.02	30.320
514.36	30.800
514.70	30.594
515.05	30.200
515.39	30.638
515.74	30.599
516.08	30.604
516.42	31.625
516.77	30.486
517.11	30.801
517.46	29.743
517.80	31.466
518.14	30.496
518.49	29.507
518.83	31.106
519.17	30.261
519.52	30.787
519.86	30.312
520.20	30.802
520.55	30.206
520.89	31.430
521.23	31.476
521.58	32.240
521.92	31.474
522.26	31.230
522.61	32.273
522.95	32.318
523.29	31.004
523.64	31.512
523.98	31.756
524.32	30.928
524.66	32.522
525.01	31.364
525.35	32.145
525.69	31.044
526.04	31.283
526.38	33.268
526.72	31.720
527.06	31.258
527.41	31.794
527.75	31.166
528.09	30.565
528.43	33.356
528.78	31.353
529.12	31.806
529.46	30.799
529.80	31.412
530.15	33.531
530.49	31.650
530.83	33.105
531.17	32.304
531.51	31.532
531.86	31.951
532.20	32.220
532.54	31.995
532.88	32.786
533.22	32.997
533.57	31.651
533.91	31.789
534.25	31.836
534.59	30.981
534.93	30.711
535.27	31.155
535.62	31.043
535.96	31.050
536.30	32.454
536.64	32.047
536.98	32.822
537.32	32.859
537.66	34.292
538.01	32.308
538.35	31.553
538.69	31.625
539.03	31.442
539.37	32.100
539.71	32.038
540.05	31.500
540.39	32.133
540.73	33.124
541.07	31.906
541.42	32.460
541.76	33.310
542.10	32.829
542.44	32.592
542.78	29.869
543.12	31.387
543.46	32.615
543.80	31.922
544.14	31.308
544.48	32.645
544.82	33.288
545.16	33.333
545.50	32.510
545.84	32.578
546.18	32.695
546.52	32.949
546.86	33.285
547.20	33.906
547.54	30.742
547.88	32.473
548.22	31.361
548.56	30.673
548.90	32.884
549.24	31.887
549.58	32.793
549.92	31.737
550.26	32.527
550.60	33.086
550.94	33.532
551.28	34.235
551.62	33.846
551.96	33.308
552.30	33.041
552.64	32.158
552.98	33.474
553.32	32.668
553.66	33.091
554.00	33.504
554.34	33.013
554.68	32.375
555.02	33.854
555.36	33.358
555.69	33.553
556.03	32.405
556.37	31.744
556.71	33.357
557.05	34.303
557.39	32.639
557.73	34.333
558.07	34.314
558.41	34.686
558.75	33.203
559.08	34.200
559.42	35.556
559.76	33.227
560.10	34.021
560.44	33.358
560.78	33.217
561.12	33.075
561.45	33.240
561.79	33.824
562.13	33.712
562.47	33.094
562.81	33.357
563.15	33.286
563.48	33.451
563.82	33.150
564.16	32.939
564.50	32.568
564.84	32.865
565.17	32.327
565.51	34.085
565.85	33.608
566.19	31.897
566.52	32.306
566.86	33.033
567.20	32.130
567.54	31.813
567.88	33.040
568.21	32.353
568.55	30.761
568.89	31.314
569.23	31.054
569.56	29.991
569.90	30.410
570.24	28.880
570.57	29.200
570.91	29.313
571.25	28.412
571.59	28.216
571.92	27.911
572.26	27.989
572.60	28.589
572.93	28.961
573.27	27.994
573.61	28.789
573.95	28.345
574.28	27.622
574.62	27.282
574.96	27.375
575.29	27.713
575.63	27.313
575.97	27.785
576.30	28.451
576.64	27.815
576.98	28.005
577.31	27.378
577.65	27.729
577.98	27.092
578.32	27.362
578.66	27.144
578.99	27.562
579.33	27.504
579.67	27.429
580.00	28.000
580.34	28.010
580.67	27.498
581.01	27.233
581.35	27.218
581.68	27.101
582.02	26.904
582.35	26.741
582.69	27.191
583.02	27.644
583.36	27.845
583.70	28.167
584.03	28.969
584.37	29.701
584.70	28.764
585.04	27.746
585.37	27.617
585.71	27.722
586.04	27.358
586.38	27.661
586.72	28.207
587.05	28.307
587.39	27.845
587.72	28.486
588.06	28.813
588.39	28.596
588.73	29.090
589.06	29.778
589.40	29.347
589.73	30.047
590.07	30.287
590.40	30.302
590.73	30.313
591.07	30.958
591.40	30.276
591.74	30.226
592.07	30.519
592.41	30.875
592.74	29.869
593.08	28.222
593.41	28.501
593.75	28.623
594.08	28.321
594.41	29.949
594.75	28.779
595.08	29.171
595.42	29.481
595.75	29.178
596.09	30.063
596.42	30.839
596.75	31.483
597.09	30.478
597.42	30.623
597.75	30.967
598.09	30.149
598.42	30.641
598.76	29.816
599.09	30.248
599.42	28.685
599.76	29.044
600.09	28.997
600.42	28.923
600.76	28.343
601.09	29.389
601.42	29.495
601.76	29.536
602.09	30.569
602.42	30.666
602.76	30.178
603.09	30.606
603.42	30.978
603.76	29.798
604.09	29.769
604.42	30.753
604.76	31.197
605.09	31.124
605.42	30.745
605.75	30.166
606.09	30.021
606.42	29.983
606.75	29.784
607.09	31.165
607.42	30.084
607.75	29.618
608.08	30.413
608.42	30.745
608.75	31.325
609.08	31.589
609.41	32.183
609.75	31.603
610.08	31.453
610.41	30.870
610.74	30.570
611.07	30.853
611.41	32.122
611.74	32.569
612.07	30.996
612.40	32.057
612.73	32.712
613.07	31.834
613.40	32.495
613.73	32.513
614.06	32.610
614.39	32.092
614.72	32.157
615.06	32.123
615.39	31.059
615.72	31.109
616.05	32.793
616.38	31.738
616.71	32.294
617.05	33.292
617.38	32.370
617.71	33.208
618.04	34.159
618.37	33.607
618.70	33.663
619.03	34.653
619.36	33.502
619.69	35.027
620.03	35.573
620.36	33.977
620.69	34.832
621.02	34.862
621.35	36.432
621.68	37.245
622.01	36.583
622.34	36.153
622.67	33.675
623.00	34.763
623.33	35.137
623.66	34.630
623.99	34.418
624.32	35.437
624.65	33.459
624.99	34.688
625.32	34.420
625.65	35.192
625.98	35.052
626.31	35.328
626.64	37.435
626.97	37.173
627.30	37.040
627.63	36.395
627.96	35.939
628.29	37.280
628.62	38.840
628.95	38.878
629.28	39.718
629.61	37.288
629.94	37.634
630.26	38.834
630.59	40.166
630.92	37.538
631.25	38.564
631.58	39.207
631.91	39.035
632.24	38.188
632.57	39.773
632.90	39.383
633.23	39.059
633.56	40.428
633.89	39.704
634.22	42.346
634.55	41.042
634.88	41.635
635.20	40.256
635.53	40.667
635.86	39.922
636.19	41.397
636.52	41.327
636.85	38.710
637.18	39.371
637.51	42.390
637.83	40.210
638.16	43.383
638.49	38.828
638.82	41.842
639.15	40.570
639.48	41.541
639.81	42.817
640.13	41.414
640.46	41.545
640.79	41.090
641.12	42.984
641.45	40.240
641.77	41.778
642.10	41.706
642.43	44.051
642.76	44.389
643.09	44.750
643.41	42.071
643.74	42.834
644.07	46.305
644.40	47.466
644.73	46.235
645.05	42.450
645.38	45.326
645.71	42.199
646.04	44.704
646.36	45.390
646.69	46.942
647.02	45.747
647.35	45.149
647.67	45.338
648.00	44.030
648.33	43.686
648.66	44.915
648.98	41.541
649.31	41.653
649.64	41.758
649.96	41.005
650.29	43.101
650.62	42.564
650.94	45.185
651.27	46.369
651.60	45.225
651.92	44.406
652.25	42.806
652.58	43.333
652.90	44.597
653.23	43.361
653.56	42.640
653.88	42.612
654.21	40.280
654.54	42.445
654.86	45.840
655.19	40.058
655.52	34.985
655.84	26.313
656.17	28.144
656.49	38.037
656.82	40.716
657.15	32.598
657.47	24.776
657.80	19.112
658.13	19.170
658.45	30.794
658.78	31.863
659.10	33.137
659.43	34.105
659.75	35.323
660.08	36.414
660.41	40.858
660.73	42.127
661.06	44.367
661.38	44.618
661.71	43.326
662.03	46.781
662.36	46.593
662.68	46.681
663.01	50.000
663.33	46.404
663.66	46.744
663.98	47.674
664.31	46.695
664.63	45.853
664.96	44.130
665.28	44.150
665.61	45.238
665.93	48.043
666.26	44.902
666.58	49.664
666.91	48.471
667.23	48.585
667.56	47.156
667.88	49.880
668.21	45.585
668.53	49.882
668.86	47.406
669.18	44.575
669.50	46.489
669.83	44.186
670.15	46.620
670.48	47.129
670.80	47.005
671.13	46.532
671.45	43.836
671.77	48.283
672.10	43.168
672.42	40.637
672.75	41.741
673.07	41.145
673.39	42.385
673.72	40.237
674.04	43.125
674.37	43.432
674.69	41.756
675.01	47.778
675.34	45.721
675.66	48.611
675.98	46.341
676.31	46.101
676.63	44.418
676.95	44.318
677.28	47.765
677.60	46.747
677.92	43.119
678.25	43.764
678.57	45.022
678.89	43.277
679.22	45.861
679.54	41.968
679.86	40.755
680.18	43.301
680.51	42.235
680.83	43.738
681.15	40.400
681.48	46.721
681.80	39.876
682.12	44.556
682.44	43.933
682.77	45.033
683.09	47.368
683.41	45.000
683.73	45.853
684.06	42.920
684.38	42.581
684.70	44.444
685.02	43.361
685.34	40.316
685.67	43.527
685.99	40.687
686.31	41.593
686.63	41.002
686.96	40.875
687.28	40.606
687.60	40.114
687.92	43.636
688.24	43.145
688.56	44.760
688.89	44.643
689.21	46.444
689.53	46.868
689.85	41.628
690.17	44.420
690.49	44.208
690.82	42.233
691.14	44.286
691.46	42.523
691.78	42.342
692.10	40.430
692.42	43.074
692.74	43.590
693.06	41.216
693.39	42.308
693.71	40.271
694.03	43.187
694.35	46.028
694.67	41.414
694.99	42.298
695.31	45.431
695.63	44.500
695.95	42.424
696.27	45.078
696.59	50.000
696.91	41.457
697.23	41.645
697.56	42.822
697.88	43.011
698.20	41.230
698.52	45.647
698.84	40.191
699.16	40.750
699.48	45.614
699.80	43.176
700.12	45.013
700.44	46.218
700.76	43.314
701.08	44.545
701.40	45.482
701.72	49.074
702.04	48.845
702.36	48.495
702.68	43.243
703.00	43.030
703.32	43.695
703.64	42.373
703.96	45.797
704.28	41.718
704.60	43.492
704.91	41.325
705.23	43.522
705.55	48.410
705.87	49.458
706.19	50.000
706.51	50.515
706.83	49.196
707.15	43.614
707.47	43.697
707.79	42.188
708.11	44.000
708.43	40.250
708.74	41.344
709.06	45.070
709.38	39.755
709.70	43.195
710.02	43.312
710.34	42.105
710.66	37.821
710.98	43.046
711.29	46.230
711.61	46.780
711.93	41.042
712.25	48.797
712.57	46.886
712.89	42.910
713.20	43.599
713.52	44.948
713.84	46.416
714.16	41.924
714.48	40.968
714.80	42.949
715.11	39.210
715.43	42.633
715.75	43.333
716.07	46.179
716.39	41.946
716.70	43.911
717.02	43.511
717.34	49.798
717.66	46.018
717.97	46.957
718.29	48.117
718.61	46.457
718.93	41.473
719.24	43.726
719.56	45.783
719.88	43.299
720.20	44.697
720.51	42.912
720.83	45.946
721.15	38.655
721.46	41.935
721.78	40.711
722.10	40.892
722.42	37.759
722.73	46.122
723.05	48.163
723.37	44.915
723.68	48.649
724.00	45.299
724.32	42.222
724.63	41.364
724.95	44.978
725.27	42.396
725.58	44.068
725.90	48.016
726.22	39.768
726.53	42.373
726.85	39.326
727.16	48.302
727.48	40.081
727.80	48.178
728.11	44.492
728.43	40.392
728.74	41.532
729.06	40.400
729.38	46.617
729.69	41.833
730.01	41.154
730.32	42.537
730.64	39.223
730.96	38.868
731.27	41.333
731.59	38.644
731.90	42.994
732.22	42.587
732.53	38.206
732.85	40.780
733.16	41.414
733.48	36.691
733.80	39.130
734.11	37.966
734.43	40.206
734.74	36.970
735.06	34.202
735.37	38.671
735.69	41.414
736.00	39.373
736.32	40.604
736.63	35.211
736.95	36.519
737.26	33.808
737.58	35.235
737.89	33.700
738.21	37.970
738.52	43.210
738.83	44.978
739.15	41.921
739.46	42.520
739.78	39.927
740.09	36.601
740.41	38.043
740.72	35.433
741.04	38.462
741.35	44.255
741.66	39.810
741.98	44.388
742.29	43.564
742.61	48.168
742.92	38.863
743.23	37.037
743.55	46.154
743.86	41.627
744.18	46.411
744.49	37.234
744.80	51.630
745.12	43.850
745.43	42.439
745.74	47.917
746.06	42.439
746.37	44.503
746.68	46.445
747.00	44.681
747.31	41.294
747.62	38.350
747.94	41.627
748.25	38.119
748.56	46.995
748.88	45.026
749.19	45.745
749.50	44.335
749.82	36.321
750.13	40.826
750.44	40.226
750.75	42.164
751.07	42.336
751.38	38.697
751.69	35.294
752.01	39.922
752.32	39.442
752.63	39.921
752.94	40.086
753.26	44.351
753.57	42.081
753.88	40.265
754.19	43.750
754.51	35.950
754.82	33.198
755.13	43.333
755.44	41.532
755.75	42.187
756.07	36.965
756.38	36.981
756.69	40.996
757.00	34.000
757.31	37.255
757.63	37.500
757.94	33.611
758.25	31.507
758.56	32.181
758.87	33.711
759.18	38.318
759.50	39.636
759.81	40.803
760.12	37.419
760.43	35.758
760.74	34.259
761.05	34.154
761.36	34.659
761.67	39.394
761.99	41.156
762.30	37.091
762.61	36.759
762.92	37.557
763.23	39.189
763.54	33.645
763.85	40.678
764.16	35.685
764.47	39.113
764.78	36.264
765.10	35.690
765.41	38.170
765.72	34.603
766.03	31.203
766.34	35.036
766.65	36.653
766.96	37.879
767.27	41.489
767.58	37.931
767.89	40.426
768.20	40.341
768.51	37.912
768.82	37.438
769.13	37.788
769.44	35.193
769.75	35.616
770.06	35.345
770.37	37.019
770.68	37.056
770.99	33.937
771.30	46.078
771.61	38.009
771.92	39.655
772.23	38.916
772.54	41.398
772.85	40.741
773.16	34.831
773.47	47.059
773.78	45.098
774.09	37.725
774.39	40.000
774.70	33.758
775.01	46.897
775.32	40.000
775.63	40.496
775.94	37.405
776.25	44.882
776.56	40.000
776.87	41.346
777.18	47.009
777.48	41.379
777.79	35.652
778.10	41.905
778.41	46.847
778.72	38.889
779.03	40.602
779.34	43.972
779.65	38.356
779.95	39.041
780.26	40.000
780.57	33.333
780.88	38.583
781.19	42.241
781.50	36.434
781.80	30.178
782.11	33.333
782.42	38.462
782.73	33.813
783.04	32.593
783.34	36.111
783.65	39.316
783.96	42.623
784.27	40.690
784.57	39.024
784.88	41.406
785.19	46.000
785.50	46.000
785.81	36.207
786.11	44.828
786.42	41.748
786.73	36.364
787.04	42.857
787.34	37.500
787.65	47.619
787.96	31.858
788.26	48.182
788.57	41.880
788.88	36.719
789.19	42.063
789.49	34.783
789.80	52.041
790.11	40.404
790.41	33.636
790.72	50.000
791.03	53.409
791.33	53.750
791.64	32.500
791.95	41.860
792.25	42.553
792.56	44.944
792.87	26.027
793.17	34.783
793.48	36.000
793.79	46.250
794.09	40.000
794.40	37.736
794.70	34.951
795.01	19.512
795.32	30.769
795.62	35.238
795.93	32.353
796.23	44.340
796.54	40.625
796.85	47.059
797.15	28.169
797.46	48.611
797.76	48.485
798.07	40.698
798.37	35.526
798.68	25.758
798.99	33.333
799.29	41.429
799.60	37.681
799.90	38.667
800.21	47.541
800.51	29.231
800.82	30.508
801.12	47.826
801.43	26.230
801.73	42.857
802.04	42.000
802.34	28.358
802.65	55.769
802.95	19.643
803.26	48.077
803.56	49.020
803.87	21.739
804.17	34.667
804.48	49.206
804.78	27.778
805.09	36.957
805.39	17.778
805.70	53.704
806.00	19.298
806.30	52.113
806.61	34.286
806.91	34.722
807.22	50.000
807.52	40.000
807.83	20.000
808.13	33.333
808.43	54.412
808.74	38.806
809.04	32.203
809.35	13.462
809.65	26.563
809.95	5.405
810.26	31.818
810.56	42.466
810.86	42.857
811.17	44.000
811.47	53.061
811.77	31.579
812.08	36.364
812.38	41.509
812.69	32.500
812.99	51.515
813.29	44.737
813.59	20.000
813.90	27.273
814.20	2.564
814.50	15.385
814.81	33.962
815.11	21.277
815.41	38.983
815.72	14.286
816.02	31.373
816.32	27.083
816.62	39.024
816.93	48.649
817.23	37.143
817.53	39.583
817.84	13.043
818.14	42.308
818.44	31.579
818.74	41.304
819.04	5.000
819.35	48.649
819.65	47.059
819.95	33.333
820.25	21.429
820.56	57.500
820.86	-3.448
821.16	57.500
821.46	38.298
821.76	52.500
822.07	39.535
822.37	8.108
822.67	40.625
822.97	80.952
823.27	-3.571
823.57	24.000
823.88	11.111
824.18	75.000
824.48	35.294
824.78	41.935
825.08	43.478
825.38	39.394
825.69	8.333
825.99	44.737
826.29	47.222
826.59	33.333
826.89	-9.524
827.19	19.565
827.49	17.500
827.79	25.714
828.09	35.714
828.39	60.606
828.70	78.378
829.00	7.143
829.30	14.286
829.60	-10.000
829.90	31.250
830.20	-5.263
830.50	11.111
830.80	4.348
831.10	68.182
831.40	57.576
831.70	32.258
832.00	66.667
832.30	23.810
832.60	91.667
832.90	27.586
833.20	-20.000
833.50	9.091
833.80	18.519
834.10	57.692
834.40	50.000
834.70	11.111
835.00	26.316
835.30	76.923
835.60	93.333
835.90	22.581
836.20	36.364
836.50	53.571
836.80	3.846
837.10	21.429
837.40	33.333
837.70	13.636
838.00	118.182
838.30	8.696
838.60	53.846
838.90	86.364
839.19	32.143
839.49	60.000
839.79	15.385
840.09	-116.667
840.39	57.143
840.69	42.857
840.99	19.231
841.29	21.053
841.59	-100.000
841.88	18.182
842.18	110.000
842.48	93.750
842.78	46.667
843.08	-3.704
843.38	-20.000
843.68	34.783
843.97	13.333
844.27	-20.000
844.57	70.000
844.87	116.667
845.17	4.762
845.47	86.667
845.76	9.524
846.06	23.529
846.36	-10.000
846.66	0.000
846.96	80.000
847.25	25.000
847.55	71.429
847.85	62.500
848.15	27.273
848.44	-166.667
848.74	85.000
849.04	55.556
849.34	45.455
849.63	-66.667
849.93	-160.000
850.23	11.111
850.53	120.000
850.82	-7.692
851.12	44.444
851.42	100.000
851.71	34.615
852.01	-57.143
852.31	25.000
852.61	45.455
852.90	15.000
853.20	0.000
853.50	-50.000
853.79	56.522
854.09	20.833
854.39	52.632
854.68	-20.833
854.98	32.258
855.28	46.154
855.57	55.000
855.87	11.111
856.17	14.815
856.46	114.286
856.76	0.000
857.05	66.667
857.35	32.000
857.65	27.778
857.94	53.846
858.24	44.828
858.53	77.778
858.83	44.444
859.13	27.273
859.42	4.348
859.72	-50.000
860.01	33.333
860.31	12.000
860.60	14.286
860.90	133.333
861.20	-60.000
861.49	-200.000
861.79	40.000
862.08	5.000
862.38	80.000
862.67	-220.000
862.97	0.000
863.26	41.667
863.56	-5.556
863.85	-266.667
864.15	5.556
864.44	-20.000
864.74	57.143
865.03	175.000
865.33	-140.000
865.62	216.667
865.92	41.667
866.21	-100.000
866.51	31.250
866.80	18.182
867.10	-100.000
867.39	75.000
867.69	0.000
867.98	23.077
868.27	-433.333
868.57	-33.333
868.86	33.333
869.16	-15.385
869.45	66.667
869.75	-1600.000
870.04	0.000
870.33	-57.143
870.63	14.286
870.92	166.667
871.22	-240.000
871.51	0.000
871.80	122.222
872.10	266.667
>>>>>End Processed Spectral Data<<<<<
