SpectraSuite Data File
++++++++++++++++++++++++++++++++++++
Date: Fri May 15 17:26:47 PDT 2015
User: schluterlab
Dark Spectrum Present: Yes
Reference Spectrum Present: Yes
Number of Sampled Component Spectra: 1
Spectrometers: USB2E3373
Integration Time (usec): 3000 (USB2E3373)
Spectra Averaged: 3 (USB2E3373)
Boxcar Smoothing: 0 (USB2E3373)
Correct for Electrical Dark: No (USB2E3373)
Strobe/Lamp Enabled: No (USB2E3373)
Correct for Detector Non-linearity: No (USB2E3373)
Correct for Stray Light: No (USB2E3373)
Number of Pixels in Processed Spectrum: 2048
>>>>>Begin Processed Spectral Data<<<<<
178.53	0.000
178.91	0.000
179.29	137.500
179.67	-150.000
180.04	-157.143
180.42	375.000
180.80	-200.000
181.18	100.000
181.56	-100.000
181.94	400.000
182.31	700.000
182.69	40.000
183.07	-133.333
183.45	-20.000
183.83	66.667
184.20	45.455
184.58	177.778
184.96	-150.000
185.34	-166.667
185.72	200.000
186.09	92.308
186.47	-200.000
186.85	-0.000
187.23	144.444
187.61	100.000
187.98	-300.000
188.36	33.333
188.74	-100.000
189.12	23.529
189.49	55.556
189.87	0.000
190.25	35.714
190.63	400.000
191.00	66.667
191.38	21.053
191.76	450.000
192.14	200.000
192.51	200.000
192.89	-88.889
193.27	-28.571
193.65	233.333
194.02	72.727
194.40	130.000
194.78	-25.000
195.15	0.000
195.53	-125.000
195.91	175.000
196.29	50.000
196.66	115.385
197.04	28.571
197.42	11.111
197.79	-333.333
198.17	-84.615
198.55	1200.000
198.92	-133.333
199.30	-900.000
199.68	-20.000
200.05	-133.333
200.43	0.000
200.81	200.000
201.18	0.000
201.56	700.000
201.94	-200.000
202.31	-166.667
202.69	-60.000
203.07	150.000
203.44	900.000
203.82	0.000
204.19	100.000
204.57	-266.667
204.95	25.000
205.32	50.000
205.70	-14.286
206.08	50.000
206.45	88.889
206.83	150.000
207.20	-71.429
207.58	-400.000
207.96	-533.333
208.33	-20.000
208.71	225.000
209.08	-50.000
209.46	-700.000
209.84	-140.000
210.21	-1200.000
210.59	85.714
210.96	183.333
211.34	0.000
211.71	86.667
212.09	-100.000
212.46	-700.000
212.84	0.000
213.22	130.000
213.59	400.000
213.97	7.692
214.34	36.364
214.72	-100.000
215.09	150.000
215.47	-46.154
215.84	63.636
216.22	-66.667
216.59	-62.500
216.97	250.000
217.34	-175.000
217.72	-200.000
218.09	75.000
218.47	112.500
218.84	-1000.000
219.22	-66.667
219.59	20.000
219.97	33.333
220.34	100.000
220.72	14.286
221.09	-50.000
221.47	250.000
221.84	-50.000
222.22	-300.000
222.59	45.455
222.97	100.000
223.34	-266.667
223.72	-21.429
224.09	19.048
224.46	64.286
224.84	333.333
225.21	-30.000
225.59	100.000
225.96	50.000
226.34	225.000
226.71	14.286
227.08	50.000
227.46	-37.500
227.83	-250.000
228.21	55.556
228.58	18.182
228.95	-12.500
229.33	-0.000
229.70	50.000
230.08	-37.500
230.45	-57.143
230.82	128.571
231.20	-33.333
231.57	100.000
231.95	128.571
232.32	70.000
232.69	85.714
233.07	-33.333
233.44	-140.000
233.81	-100.000
234.19	11.111
234.56	-23.529
234.93	50.000
235.31	425.000
235.68	-40.000
236.05	0.000
236.43	-40.000
236.80	11.765
237.17	-3.125
237.55	35.000
237.92	33.333
238.29	25.000
238.67	26.667
239.04	11.765
239.41	-7.317
239.79	-3.333
240.16	19.512
240.53	23.684
240.91	6.522
241.28	12.698
241.65	17.857
242.02	26.027
242.40	25.000
242.77	23.729
243.14	27.273
243.51	8.750
243.89	14.943
244.26	13.793
244.63	9.524
245.00	27.835
245.38	19.588
245.75	11.236
246.12	22.414
246.49	21.488
246.87	18.269
247.24	16.807
247.61	9.649
247.98	13.821
248.36	15.625
248.73	10.526
249.10	13.636
249.47	17.722
249.84	18.954
250.22	17.059
250.59	16.993
250.96	22.066
251.33	8.140
251.70	21.765
252.08	22.843
252.45	15.842
252.82	23.618
253.19	16.129
253.56	12.150
253.94	19.820
254.31	17.391
254.68	18.421
255.05	17.717
255.42	17.904
255.79	19.691
256.16	18.677
256.54	18.657
256.91	19.011
257.28	15.985
257.65	17.228
258.02	14.539
258.39	19.529
258.76	20.879
259.14	17.276
259.51	19.741
259.88	18.213
260.25	15.359
260.62	21.528
260.99	11.525
261.36	16.781
261.73	17.722
262.10	16.717
262.47	16.564
262.85	14.420
263.22	16.923
263.59	16.199
263.96	19.565
264.33	18.485
264.70	16.071
265.07	16.964
265.44	21.813
265.81	17.797
266.18	19.399
266.55	20.308
266.92	14.249
267.29	17.755
267.66	20.460
268.03	20.681
268.40	18.277
268.77	19.786
269.14	17.266
269.51	17.995
269.88	15.960
270.25	15.816
270.62	19.024
270.99	18.670
271.36	16.870
271.73	20.188
272.10	16.788
272.47	19.858
272.84	19.059
273.21	20.186
273.58	21.446
273.95	16.705
274.32	16.628
274.69	17.647
275.06	14.063
275.43	13.152
275.80	18.102
276.17	16.322
276.54	15.418
276.91	16.886
277.28	15.502
277.65	18.182
278.02	16.809
278.39	16.849
278.76	16.771
279.13	16.598
279.50	16.807
279.87	18.143
280.23	14.839
280.60	18.908
280.97	17.374
281.34	14.423
281.71	18.891
282.08	17.178
282.45	17.025
282.82	15.637
283.19	18.956
283.56	15.800
283.92	15.180
284.29	15.577
284.66	19.574
285.03	16.110
285.40	17.202
285.77	16.344
286.14	14.801
286.51	16.605
286.87	17.550
287.24	14.365
287.61	17.460
287.98	17.895
288.35	16.291
288.72	15.236
289.08	14.236
289.45	16.520
289.82	14.685
290.19	14.505
290.56	14.751
290.93	14.646
291.29	14.022
291.66	15.433
292.03	15.630
292.40	15.000
292.77	13.876
293.13	13.799
293.50	13.809
293.87	14.351
294.24	14.065
294.60	14.605
294.97	13.393
295.34	12.730
295.71	12.221
296.08	13.303
296.44	11.664
296.81	14.167
297.18	13.188
297.55	14.363
297.91	14.384
298.28	14.380
298.65	13.297
299.02	11.995
299.38	10.944
299.75	12.138
300.12	12.827
300.48	13.175
300.85	12.801
301.22	12.857
301.59	12.105
301.95	12.658
302.32	12.581
302.69	12.438
303.05	12.252
303.42	12.578
303.79	11.332
304.15	12.186
304.52	10.820
304.89	11.111
305.25	11.380
305.62	9.568
305.99	12.164
306.35	12.254
306.72	11.136
307.09	11.745
307.45	11.940
307.82	12.847
308.19	11.498
308.55	11.014
308.92	11.438
309.29	11.061
309.65	11.195
310.02	10.671
310.38	11.745
310.75	12.131
311.12	11.087
311.48	10.817
311.85	11.414
312.22	10.127
312.58	9.873
312.95	9.925
313.31	9.731
313.68	10.681
314.05	10.408
314.41	12.680
314.78	10.000
315.14	13.052
315.51	11.594
315.87	11.066
316.24	12.133
316.61	12.106
316.97	12.103
317.34	11.621
317.70	11.568
318.07	11.827
318.43	12.059
318.80	11.742
319.16	12.207
319.53	13.010
319.89	12.795
320.26	13.158
320.62	14.443
320.99	11.795
321.35	13.052
321.72	13.188
322.08	14.099
322.45	14.010
322.81	14.244
323.18	13.935
323.54	13.417
323.91	14.021
324.27	15.039
324.64	15.075
325.00	15.967
325.37	16.713
325.73	16.047
326.10	15.985
326.46	17.220
326.83	17.498
327.19	18.396
327.56	18.158
327.92	18.574
328.29	18.661
328.65	19.623
329.01	18.842
329.38	18.525
329.74	19.358
330.11	20.019
330.47	19.388
330.84	18.558
331.20	22.433
331.56	20.370
331.93	22.192
332.29	21.723
332.66	21.176
333.02	21.283
333.38	21.723
333.75	22.802
334.11	21.934
334.48	22.303
334.84	22.527
335.20	22.507
335.57	22.575
335.93	23.487
336.29	23.389
336.66	23.342
337.02	23.048
337.38	21.944
337.75	24.182
338.11	25.428
338.47	23.631
338.84	24.861
339.20	23.400
339.56	24.587
339.93	25.604
340.29	24.679
340.65	25.448
341.02	25.089
341.38	25.221
341.74	24.823
342.11	24.610
342.47	24.911
342.83	25.260
343.20	25.174
343.56	25.478
343.92	26.129
344.28	26.217
344.65	24.870
345.01	25.238
345.37	25.652
345.73	26.611
346.10	25.626
346.46	26.325
346.82	24.959
347.19	24.771
347.55	25.564
347.91	26.294
348.27	26.112
348.63	25.468
349.00	25.267
349.36	25.187
349.72	25.954
350.08	26.148
350.45	27.534
350.81	26.495
351.17	26.221
351.53	26.041
351.89	25.268
352.26	26.720
352.62	27.016
352.98	26.908
353.34	25.765
353.70	28.641
354.07	26.532
354.43	27.382
354.79	27.333
355.15	27.302
355.51	27.532
355.87	27.994
356.24	26.591
356.60	27.567
356.96	28.492
357.32	27.716
357.68	27.912
358.04	27.868
358.40	27.814
358.77	27.671
359.13	28.022
359.49	28.814
359.85	29.251
360.21	28.309
360.57	27.850
360.93	28.971
361.29	27.795
361.66	29.545
362.02	29.773
362.38	30.008
362.74	29.977
363.10	29.947
363.46	29.429
363.82	29.677
364.18	29.815
364.54	29.926
364.90	29.176
365.26	30.713
365.62	30.511
365.98	30.499
366.35	31.318
366.71	31.042
367.07	29.898
367.43	30.482
367.79	30.954
368.15	31.802
368.51	30.663
368.87	30.079
369.23	31.552
369.59	31.050
369.95	30.718
370.31	31.214
370.67	32.388
371.03	31.516
371.39	31.072
371.75	32.161
372.11	31.526
372.47	32.322
372.83	32.647
373.19	31.954
373.55	31.986
373.91	32.685
374.27	32.672
374.63	33.238
374.99	32.908
375.35	33.635
375.71	34.266
376.07	33.778
376.42	33.265
376.78	34.497
377.14	33.852
377.50	33.466
377.86	34.070
378.22	34.205
378.58	33.846
378.94	35.098
379.30	34.186
379.66	35.423
380.02	34.396
380.38	34.997
380.74	35.727
381.09	36.196
381.45	35.046
381.81	36.459
382.17	35.660
382.53	36.540
382.89	37.351
383.25	36.590
383.61	37.317
383.97	37.079
384.32	36.460
384.68	36.533
385.04	37.071
385.40	37.648
385.76	38.491
386.12	38.680
386.48	38.697
386.83	36.779
387.19	38.278
387.55	40.088
387.91	38.875
388.27	37.973
388.62	39.459
388.98	38.858
389.34	39.288
389.70	38.844
390.06	39.081
390.42	40.415
390.77	40.353
391.13	38.272
391.49	40.298
391.85	41.001
392.20	40.804
392.56	40.496
392.92	39.812
393.28	39.741
393.64	40.240
393.99	41.505
394.35	40.923
394.71	41.252
395.07	40.855
395.42	41.834
395.78	40.651
396.14	41.803
396.50	41.598
396.85	42.498
397.21	41.040
397.57	41.129
397.92	40.683
398.28	42.356
398.64	41.205
399.00	42.099
399.35	41.479
399.71	41.528
400.07	43.289
400.42	42.289
400.78	43.233
401.14	42.831
401.49	42.228
401.85	41.012
402.21	42.410
402.57	43.500
402.92	41.782
403.28	42.794
403.63	43.506
403.99	42.793
404.35	43.473
404.70	41.369
405.06	41.481
405.42	41.827
405.77	42.592
406.13	43.248
406.49	44.287
406.84	44.499
407.20	45.455
407.55	42.627
407.91	42.313
408.27	43.595
408.62	44.185
408.98	42.391
409.34	43.866
409.69	42.442
410.05	41.749
410.40	43.642
410.76	44.632
411.11	44.500
411.47	44.444
411.83	42.938
412.18	43.629
412.54	43.508
412.89	43.904
413.25	44.284
413.60	43.665
413.96	44.049
414.31	43.841
414.67	44.644
415.03	44.274
415.38	43.995
415.74	44.365
416.09	44.546
416.45	45.645
416.80	43.952
417.16	45.994
417.51	44.437
417.87	43.546
418.22	45.920
418.58	44.749
418.93	46.082
419.29	44.110
419.64	45.237
420.00	45.970
420.35	44.776
420.71	44.411
421.06	45.181
421.42	46.214
421.77	45.491
422.12	45.119
422.48	45.046
422.83	45.824
423.19	45.655
423.54	46.208
423.90	45.465
424.25	46.326
424.61	45.900
424.96	46.167
425.31	46.678
425.67	47.007
426.02	47.762
426.38	47.276
426.73	48.366
427.09	47.848
427.44	47.353
427.79	47.142
428.15	46.845
428.50	46.820
428.85	47.604
429.21	47.482
429.56	48.194
429.92	48.023
430.27	46.617
430.62	46.524
430.98	47.134
431.33	46.793
431.68	47.253
432.04	48.072
432.39	47.404
432.74	47.204
433.10	48.391
433.45	48.686
433.80	48.114
434.16	48.144
434.51	47.903
434.86	48.432
435.22	48.626
435.57	47.910
435.92	49.581
436.28	48.479
436.63	48.374
436.98	47.972
437.34	48.518
437.69	48.718
438.04	48.946
438.39	47.831
438.75	49.241
439.10	48.444
439.45	50.091
439.81	48.991
440.16	50.000
440.51	50.269
440.86	50.514
441.22	49.378
441.57	49.283
441.92	49.475
442.27	49.169
442.63	49.625
442.98	49.397
443.33	48.915
443.68	49.284
444.03	49.031
444.39	48.795
444.74	49.944
445.09	49.889
445.44	50.370
445.79	50.335
446.15	49.394
446.50	48.641
446.85	49.309
447.20	48.697
447.55	50.446
447.91	49.972
448.26	49.972
448.61	51.410
448.96	49.627
449.31	50.636
449.66	50.058
450.02	49.857
450.37	50.622
450.72	49.370
451.07	50.696
451.42	49.688
451.77	50.211
452.12	48.983
452.47	49.581
452.83	50.236
453.18	49.652
453.53	51.770
453.88	50.213
454.23	51.014
454.58	50.756
454.93	50.451
455.28	49.206
455.63	51.209
455.98	50.150
456.34	49.298
456.69	51.017
457.04	52.489
457.39	49.757
457.74	50.665
458.09	48.970
458.44	49.678
458.79	50.028
459.14	51.144
459.49	49.433
459.84	49.633
460.19	49.636
460.54	51.711
460.89	49.773
461.24	50.870
461.59	51.188
461.94	50.314
462.29	51.809
462.64	51.561
462.99	50.779
463.34	51.043
463.69	50.901
464.04	50.000
464.39	50.515
464.74	50.368
465.09	50.468
465.44	50.317
465.79	49.830
466.14	50.171
466.49	49.339
466.84	50.744
467.19	52.190
467.54	50.192
467.89	51.042
468.24	51.338
468.59	51.810
468.94	51.048
469.29	51.344
469.64	52.016
469.99	52.278
470.34	52.014
470.68	53.617
471.03	53.857
471.38	52.425
471.73	51.891
472.08	50.746
472.43	52.349
472.78	51.748
473.13	53.741
473.48	52.378
473.83	50.809
474.17	52.396
474.52	51.053
474.87	52.000
475.22	51.556
475.57	52.117
475.92	51.454
476.27	51.513
476.61	52.604
476.96	51.088
477.31	52.028
477.66	51.798
478.01	51.769
478.36	51.144
478.70	52.746
479.05	50.824
479.40	52.252
479.75	51.773
480.10	50.691
480.45	51.950
480.79	53.122
481.14	52.305
481.49	50.197
481.84	51.882
482.19	51.590
482.53	52.086
482.88	51.217
483.23	51.152
483.58	51.085
483.92	51.065
484.27	51.139
484.62	51.591
484.97	50.663
485.31	48.952
485.66	47.045
486.01	46.258
486.36	45.585
486.70	46.468
487.05	47.755
487.40	48.681
487.75	49.324
488.09	49.351
488.44	51.376
488.79	51.251
489.13	51.963
489.48	52.159
489.83	51.794
490.17	52.270
490.52	51.917
490.87	51.920
491.22	52.340
491.56	52.704
491.91	52.868
492.26	53.184
492.60	51.775
492.95	53.714
493.30	52.272
493.64	54.470
493.99	52.609
494.34	52.767
494.68	51.952
495.03	52.506
495.37	54.073
495.72	53.710
496.07	54.390
496.41	52.736
496.76	52.556
497.11	51.607
497.45	52.267
497.80	52.220
498.14	52.360
498.49	53.225
498.84	52.395
499.18	53.363
499.53	52.976
499.87	52.432
500.22	52.226
500.56	53.908
500.91	52.661
501.26	52.101
501.60	53.812
501.95	53.469
502.29	52.107
502.64	52.365
502.98	54.317
503.33	52.882
503.67	52.964
504.02	53.910
504.36	54.429
504.71	53.131
505.06	53.045
505.40	53.503
505.75	55.258
506.09	53.421
506.44	54.979
506.78	55.204
507.13	55.326
507.47	54.621
507.82	54.808
508.16	54.939
508.51	55.561
508.85	54.631
509.19	54.071
509.54	55.013
509.88	54.908
510.23	54.868
510.57	55.478
510.92	54.691
511.26	56.083
511.61	55.171
511.95	54.301
512.30	55.987
512.64	55.036
512.98	56.766
513.33	57.079
513.67	56.168
514.02	57.151
514.36	56.914
514.70	57.401
515.05	57.462
515.39	57.202
515.74	59.880
516.08	58.876
516.42	57.420
516.77	57.987
517.11	58.872
517.46	57.870
517.80	57.688
518.14	58.604
518.49	58.474
518.83	58.505
519.17	58.884
519.52	57.845
519.86	58.043
520.20	57.655
520.55	60.163
520.89	60.414
521.23	60.291
521.58	60.063
521.92	61.154
522.26	59.727
522.61	60.195
522.95	60.993
523.29	59.466
523.64	60.801
523.98	61.115
524.32	59.278
524.66	60.819
525.01	59.351
525.35	61.504
525.69	60.202
526.04	62.368
526.38	61.868
526.72	60.759
527.06	60.311
527.41	60.950
527.75	61.461
528.09	61.395
528.43	62.053
528.78	61.320
529.12	60.516
529.46	60.039
529.80	59.151
530.15	62.046
530.49	61.145
530.83	62.722
531.17	60.779
531.51	61.833
531.86	61.183
532.20	60.682
532.54	61.266
532.88	61.396
533.22	60.954
533.57	60.944
533.91	60.509
534.25	60.807
534.59	60.103
534.93	59.346
535.27	58.693
535.62	59.948
535.96	60.600
536.30	60.554
536.64	61.751
536.98	59.443
537.32	63.158
537.66	62.482
538.01	61.189
538.35	61.442
538.69	61.718
539.03	60.492
539.37	61.373
539.71	61.213
540.05	60.421
540.39	61.080
540.73	62.343
541.07	62.500
541.42	61.223
541.76	62.560
542.10	61.528
542.44	62.474
542.78	58.913
543.12	60.302
543.46	60.709
543.80	62.665
544.14	59.680
544.48	59.893
544.82	61.176
545.16	62.090
545.50	60.080
545.84	61.827
546.18	61.773
546.52	61.572
546.86	63.192
547.20	62.518
547.54	60.141
547.88	61.753
548.22	59.895
548.56	60.356
548.90	61.523
549.24	60.399
549.58	63.399
549.92	61.187
550.26	62.857
550.60	63.197
550.94	63.630
551.28	64.142
551.62	64.846
551.96	63.158
552.30	62.061
552.64	61.425
552.98	61.392
553.32	63.766
553.66	61.756
554.00	63.650
554.34	64.032
554.68	62.463
555.02	63.542
555.36	63.500
555.69	62.198
556.03	62.884
556.37	62.633
556.71	63.394
557.05	63.311
557.39	62.007
557.73	63.868
558.07	64.027
558.41	65.314
558.75	64.614
559.08	64.618
559.42	65.635
559.76	66.293
560.10	65.443
560.44	63.738
560.78	61.818
561.12	63.188
561.45	63.668
561.79	63.515
562.13	63.520
562.47	63.957
562.81	62.032
563.15	63.188
563.48	62.942
563.82	63.418
564.16	64.206
564.50	61.284
564.84	62.048
565.17	63.179
565.51	65.301
565.85	64.403
566.19	62.732
566.52	62.735
566.86	61.954
567.20	60.461
567.54	61.131
567.88	63.210
568.21	61.595
568.55	60.543
568.89	60.318
569.23	58.209
569.56	57.574
569.90	57.207
570.24	55.117
570.57	56.000
570.91	55.176
571.25	54.686
571.59	54.344
571.92	53.422
572.26	52.989
572.60	53.953
572.93	54.032
573.27	53.542
573.61	53.431
573.95	53.113
574.28	52.595
574.62	52.021
574.96	51.658
575.29	52.019
575.63	51.231
575.97	52.182
576.30	52.291
576.64	52.344
576.98	52.844
577.31	52.716
577.65	52.018
577.98	51.458
578.32	51.241
578.66	51.150
578.99	51.217
579.33	51.936
579.67	51.199
580.00	52.405
580.34	52.114
580.67	52.176
581.01	52.305
581.35	51.141
581.68	50.541
582.02	50.321
582.35	51.161
582.69	50.993
583.02	51.677
583.36	52.803
583.70	53.998
584.03	54.351
584.37	55.138
584.70	53.984
585.04	52.824
585.37	52.506
585.71	52.308
586.04	52.295
586.38	52.334
586.72	53.400
587.05	54.679
587.39	53.928
587.72	54.620
588.06	53.695
588.39	53.717
588.73	54.274
589.06	55.186
589.40	55.997
589.73	56.115
590.07	56.911
590.40	56.811
590.73	57.414
591.07	57.634
591.40	57.524
591.74	57.738
592.07	59.091
592.41	58.083
592.74	55.197
593.08	53.580
593.41	54.366
593.75	53.811
594.08	54.480
594.41	55.349
594.75	56.145
595.08	56.035
595.42	54.325
595.75	56.102
596.09	56.802
596.42	57.131
596.75	58.837
597.09	57.722
597.42	58.040
597.75	57.719
598.09	57.220
598.42	57.491
598.76	56.113
599.09	55.929
599.42	55.059
599.76	55.342
600.09	55.392
600.42	54.284
600.76	54.792
601.09	55.916
601.42	55.817
601.76	55.895
602.09	57.178
602.42	57.919
602.76	57.428
603.09	57.766
603.42	57.232
603.76	56.774
604.09	57.675
604.42	57.360
604.76	58.745
605.09	57.861
605.42	57.562
605.75	57.093
606.09	55.966
606.42	55.880
606.75	57.403
607.09	57.143
607.42	55.871
607.75	57.549
608.08	56.155
608.42	56.601
608.75	58.892
609.08	59.243
609.41	58.985
609.75	59.274
610.08	59.561
610.41	58.019
610.74	58.411
611.07	59.690
611.41	59.523
611.74	60.501
612.07	59.529
612.40	60.394
612.73	60.282
613.07	60.574
613.40	59.628
613.73	61.164
614.06	61.102
614.39	60.745
614.72	60.504
615.06	60.615
615.39	59.716
615.72	58.181
616.05	60.112
616.38	60.114
616.71	61.713
617.05	62.508
617.38	62.351
617.71	62.453
618.04	63.492
618.37	63.304
618.70	63.762
619.03	64.583
619.36	65.630
619.69	67.400
620.03	66.034
620.36	65.093
620.69	63.597
621.02	64.450
621.35	68.133
621.68	69.048
622.01	69.583
622.34	67.039
622.67	67.508
623.00	66.539
623.33	66.082
623.66	65.669
623.99	65.129
624.32	67.224
624.65	64.962
624.99	65.914
625.32	65.049
625.65	66.771
625.98	67.607
626.31	67.415
626.64	70.624
626.97	70.070
627.30	68.739
627.63	68.718
627.96	71.069
628.29	70.768
628.62	72.566
628.95	74.048
629.28	73.589
629.61	73.180
629.94	72.532
630.26	71.344
630.59	74.402
630.92	73.744
631.25	72.308
631.58	75.220
631.91	75.110
632.24	76.835
632.57	74.773
632.90	75.801
633.23	77.294
633.56	80.353
633.89	79.038
634.22	78.519
634.55	80.051
634.88	81.226
635.20	78.333
635.53	80.267
635.86	78.023
636.19	82.924
636.52	77.806
636.85	79.156
637.18	76.604
637.51	79.748
637.83	77.530
638.16	81.855
638.49	78.202
638.82	80.132
639.15	80.190
639.48	81.981
639.81	80.335
640.13	82.828
640.46	82.216
640.79	80.118
641.12	83.013
641.45	83.333
641.77	84.296
642.10	86.572
642.43	84.566
642.76	85.314
643.09	85.460
643.41	84.466
643.74	83.196
644.07	86.700
644.40	88.007
644.73	88.266
645.05	86.409
645.38	88.183
645.71	87.766
646.04	85.996
646.36	85.284
646.69	89.029
647.02	90.737
647.35	89.552
647.67	85.923
648.00	87.687
648.33	81.058
648.66	86.780
648.98	83.920
649.31	82.810
649.64	81.319
649.96	82.982
650.29	86.201
650.62	85.812
650.94	86.852
651.27	86.965
651.60	85.225
651.92	85.664
652.25	84.192
652.58	83.333
652.90	86.792
653.23	84.706
653.56	81.726
653.88	83.333
654.21	84.238
654.54	83.362
654.86	84.550
655.19	77.632
655.52	68.498
655.84	52.610
656.17	56.553
656.49	75.239
656.82	79.583
657.15	62.077
657.47	47.645
657.80	35.864
658.13	36.079
658.45	57.768
658.78	58.941
659.10	60.073
659.43	62.134
659.75	66.650
660.08	67.724
660.41	76.098
660.73	79.834
661.06	85.095
661.38	88.650
661.71	86.448
662.03	91.631
662.36	92.527
662.68	94.248
663.01	91.703
663.33	92.807
663.66	91.395
663.98	91.860
664.31	89.979
664.63	94.700
664.96	87.826
665.28	88.742
665.61	87.879
665.93	89.348
666.26	91.757
666.58	88.814
666.91	93.647
667.23	92.689
667.56	94.313
667.88	95.204
668.21	92.840
668.53	95.745
668.86	92.925
669.18	91.509
669.50	93.947
669.83	90.930
670.15	89.977
670.48	93.780
670.80	89.631
671.13	88.143
671.45	89.498
671.77	87.339
672.10	81.188
672.42	82.022
672.75	82.593
673.07	83.542
673.39	85.505
673.72	84.418
674.04	86.042
674.37	87.924
674.69	86.724
675.01	87.778
675.34	90.090
675.66	93.981
675.98	90.466
676.31	90.596
676.63	89.549
676.95	88.636
677.28	91.529
677.60	94.940
677.92	90.138
678.25	88.621
678.57	89.177
678.89	86.975
679.22	93.289
679.54	82.329
679.86	86.083
680.18	84.854
680.51	85.795
680.83	84.891
681.15	86.600
681.48	85.656
681.80	90.496
682.12	84.073
682.44	83.054
682.77	91.391
683.09	86.957
683.41	86.818
683.73	87.558
684.06	87.611
684.38	86.237
684.70	88.453
685.02	84.025
685.34	83.597
685.67	82.552
685.99	79.928
686.31	78.761
686.63	79.592
686.96	79.658
687.28	79.394
687.60	79.848
687.92	87.273
688.24	82.661
688.56	86.681
688.89	86.607
689.21	85.556
689.53	84.223
689.85	88.605
690.17	87.946
690.49	88.652
690.82	86.650
691.14	86.429
691.46	87.383
691.78	85.360
692.10	85.591
692.42	81.385
692.74	85.256
693.06	87.387
693.39	83.937
693.71	85.068
694.03	83.372
694.35	82.944
694.67	90.152
694.99	89.295
695.31	90.601
695.63	86.000
695.95	86.111
696.27	89.637
696.59	97.778
696.91	89.356
697.23	86.375
697.56	86.881
697.88	81.290
698.20	83.371
698.52	86.588
698.84	83.254
699.16	82.750
699.48	83.709
699.80	81.638
700.12	87.871
700.44	87.395
700.76	90.407
701.08	90.000
701.40	92.169
701.72	92.901
702.04	96.040
702.36	103.344
702.68	93.093
703.00	88.182
703.32	88.856
703.64	83.333
703.96	88.116
704.28	91.104
704.60	95.556
704.91	88.644
705.23	92.691
705.55	101.767
705.87	99.278
706.19	98.148
706.51	92.784
706.83	89.068
707.15	85.047
707.47	88.515
707.79	83.333
708.11	80.000
708.43	79.750
708.74	84.755
709.06	87.606
709.38	89.602
709.70	88.757
710.02	92.675
710.34	93.498
710.66	87.500
710.98	90.397
711.29	96.721
711.61	90.508
711.93	88.599
712.25	93.814
712.57	97.436
712.89	92.910
713.20	85.813
713.52	91.986
713.84	84.642
714.16	88.316
714.48	87.419
714.80	91.987
715.11	84.498
715.43	84.953
715.75	88.000
716.07	85.050
716.39	85.235
716.70	85.609
717.02	93.130
717.34	98.785
717.66	99.115
717.97	93.913
718.29	96.653
718.61	88.583
718.93	94.574
719.24	89.354
719.56	97.189
719.88	83.162
720.20	87.121
720.51	85.057
720.83	89.575
721.15	97.059
721.46	92.742
721.78	89.328
722.10	83.271
722.42	89.212
722.73	88.163
723.05	95.102
723.37	92.797
723.68	94.595
724.00	93.162
724.32	89.333
724.63	92.727
724.95	93.886
725.27	92.627
725.58	89.407
725.90	86.508
726.22	81.081
726.53	80.339
726.85	86.891
727.16	89.811
727.48	84.211
727.80	87.045
728.11	88.136
728.43	81.961
728.74	82.661
729.06	87.600
729.38	86.842
729.69	84.462
730.01	79.615
730.32	83.209
730.64	80.212
730.96	87.925
731.27	79.667
731.59	80.339
731.90	79.936
732.22	78.864
732.53	83.721
732.85	84.752
733.16	85.522
733.48	79.856
733.80	85.145
734.11	81.356
734.43	82.131
734.74	81.212
735.06	76.873
735.37	78.852
735.69	82.155
736.00	79.094
736.32	77.181
736.63	84.507
736.95	83.618
737.26	78.292
737.58	75.839
737.89	81.685
738.21	84.962
738.52	82.305
738.83	83.843
739.15	88.646
739.46	77.953
739.78	80.220
740.09	79.085
740.41	76.812
740.72	78.740
741.04	86.235
741.35	85.957
741.66	87.678
741.98	90.306
742.29	79.703
742.61	92.670
742.92	78.199
743.23	83.333
743.55	80.543
743.86	88.517
744.18	82.775
744.49	91.489
744.80	99.457
745.12	93.583
745.43	87.805
745.74	93.229
746.06	88.293
746.37	93.717
746.68	77.251
747.00	91.489
747.31	96.020
747.62	92.718
747.94	87.081
748.25	88.614
748.56	98.907
748.88	96.859
749.19	90.426
749.50	84.729
749.82	87.264
750.13	89.450
750.44	79.699
750.75	83.209
751.07	83.577
751.38	85.057
751.69	78.824
752.01	84.884
752.32	81.673
752.63	87.747
752.94	87.931
753.26	93.305
753.57	85.520
753.88	85.841
754.19	82.917
754.51	81.405
754.82	81.377
755.13	87.500
755.44	80.645
755.75	84.375
756.07	86.381
756.38	79.245
756.69	77.395
757.00	75.333
757.31	75.163
757.63	70.427
757.94	70.000
758.25	71.233
758.56	67.553
758.87	67.705
759.18	67.601
759.50	77.455
759.81	78.595
760.12	76.774
760.43	70.606
760.74	78.395
761.05	76.615
761.36	72.727
761.67	75.455
761.99	78.912
762.30	74.545
762.61	81.423
762.92	77.828
763.23	80.180
763.54	84.579
763.85	85.593
764.16	76.763
764.47	75.000
764.78	69.963
765.10	75.421
765.41	70.032
765.72	75.238
766.03	74.436
766.34	74.818
766.65	78.486
766.96	79.798
767.27	85.638
767.58	83.333
767.89	96.454
768.20	79.545
768.51	86.813
768.82	82.759
769.13	82.028
769.44	77.253
769.75	73.973
770.06	77.155
770.37	81.250
770.68	81.726
770.99	73.756
771.30	85.294
771.61	73.756
771.92	77.155
772.23	85.714
772.54	81.720
772.85	84.568
773.16	82.584
773.47	85.621
773.78	92.810
774.09	85.030
774.39	86.667
774.70	83.439
775.01	92.414
775.32	81.429
775.63	88.430
775.94	82.443
776.25	88.976
776.56	91.667
776.87	106.731
777.18	85.470
777.48	93.966
777.79	80.000
778.10	85.714
778.41	94.595
778.72	83.333
779.03	92.481
779.34	80.851
779.65	86.986
779.95	78.767
780.26	79.310
780.57	80.488
780.88	78.740
781.19	81.897
781.50	93.798
781.80	60.355
782.11	67.925
782.42	85.385
782.73	81.295
783.04	80.741
783.34	75.694
783.65	73.504
783.96	75.410
784.27	88.966
784.57	100.000
784.88	77.344
785.19	104.000
785.50	101.000
785.81	85.345
786.11	81.897
786.42	81.553
786.73	94.545
787.04	79.592
787.34	65.179
787.65	93.333
787.96	76.106
788.26	88.182
788.57	74.359
788.88	78.125
789.19	88.095
789.49	87.826
789.80	96.939
790.11	87.879
790.41	68.182
790.72	80.435
791.03	87.500
791.33	95.000
791.64	97.500
791.95	69.767
792.25	86.170
792.56	75.281
792.87	79.452
793.17	101.449
793.48	84.000
793.79	83.750
794.09	93.750
794.40	72.642
794.70	74.757
795.01	67.480
795.32	70.085
795.62	65.714
795.93	94.118
796.23	81.132
796.54	80.208
796.85	108.824
797.15	92.958
797.46	73.611
797.76	95.455
798.07	66.279
798.37	92.105
798.68	78.788
798.99	74.074
799.29	92.857
799.60	92.754
799.90	92.000
800.21	103.279
800.51	92.308
800.82	91.525
801.12	86.957
801.43	100.000
801.73	98.413
802.04	98.000
802.34	68.657
802.65	98.077
802.95	82.143
803.26	65.385
803.56	96.078
803.87	93.478
804.17	74.667
804.48	71.429
804.78	87.037
805.09	86.957
805.39	102.222
805.70	98.148
806.00	68.421
806.30	84.507
806.61	71.429
806.91	79.167
807.22	92.105
807.52	57.333
807.83	81.818
808.13	73.611
808.43	88.235
808.74	80.597
809.04	79.661
809.35	71.154
809.65	73.438
809.95	72.973
810.26	97.727
810.56	57.534
810.86	80.952
811.17	90.000
811.47	89.796
811.77	73.684
812.08	95.455
812.38	62.264
812.69	102.500
812.99	75.758
813.29	102.632
813.59	91.429
813.90	79.545
814.20	89.744
814.50	65.385
814.81	94.340
815.11	65.957
815.41	88.136
815.72	64.286
816.02	92.157
816.32	77.083
816.62	65.854
816.93	108.108
817.23	91.429
817.53	89.583
817.84	82.609
818.14	57.692
818.44	89.474
818.74	106.522
819.04	80.000
819.35	78.378
819.65	105.882
819.95	94.444
820.25	73.810
820.56	102.500
820.86	79.310
821.16	102.500
821.46	95.745
821.76	87.500
822.07	62.791
822.37	89.189
822.67	75.000
822.97	92.857
823.27	107.143
823.57	88.000
823.88	92.593
824.18	100.000
824.48	50.000
824.78	77.419
825.08	95.652
825.38	84.848
825.69	87.500
825.99	84.211
826.29	69.444
826.59	253.333
826.89	80.952
827.19	73.913
827.49	87.500
827.79	111.429
828.09	107.143
828.39	75.758
828.70	108.108
829.00	67.857
829.30	138.095
829.60	66.667
829.90	96.875
830.20	52.632
830.50	77.778
830.80	95.652
831.10	109.091
831.40	109.091
831.70	77.419
832.00	104.762
832.30	66.667
832.60	191.667
832.90	72.414
833.20	45.000
833.50	54.545
833.80	129.630
834.10	100.000
834.40	78.125
834.70	144.444
835.00	126.316
835.30	107.692
835.60	166.667
835.90	93.548
836.20	109.091
836.50	71.429
836.80	42.308
837.10	57.143
837.40	566.667
837.70	77.273
838.00	54.545
838.30	95.652
838.60	138.462
838.90	81.818
839.19	85.714
839.49	93.333
839.79	61.538
840.09	166.667
840.39	103.571
840.69	85.714
840.99	50.000
841.29	89.474
841.59	160.000
841.88	136.364
842.18	170.000
842.48	125.000
842.78	46.667
843.08	59.259
843.38	90.000
843.68	91.304
843.97	106.667
844.27	0.000
844.57	55.000
844.87	55.556
845.17	71.429
845.47	166.667
845.76	47.619
846.06	76.471
846.36	70.000
846.66	157.143
846.96	86.667
847.25	50.000
847.55	207.143
847.85	125.000
848.15	54.545
848.44	-400.000
848.74	85.000
849.04	55.556
849.34	154.545
849.63	50.000
849.93	80.000
850.23	44.444
850.53	110.000
850.82	100.000
851.12	122.222
851.42	53.333
851.71	65.385
852.01	121.429
852.31	425.000
852.61	81.818
852.90	40.000
853.20	68.421
853.50	50.000
853.79	69.565
854.09	75.000
854.39	105.263
854.68	70.833
854.98	83.871
855.28	84.615
855.57	55.000
855.87	105.556
856.17	81.481
856.46	150.000
856.76	106.667
857.05	188.889
857.35	92.000
857.65	100.000
857.94	-7.692
858.24	93.103
858.53	111.111
858.83	88.889
859.13	72.727
859.42	17.391
859.72	200.000
860.01	0.000
860.31	48.000
860.60	47.619
860.90	66.667
861.20	66.667
861.49	500.000
861.79	86.667
862.08	40.000
862.38	166.667
862.67	120.000
862.97	100.000
863.26	75.000
863.56	61.111
863.85	-166.667
864.15	77.778
864.44	70.000
864.74	114.286
865.03	-125.000
865.33	-100.000
865.62	66.667
865.92	0.000
866.21	-33.333
866.51	87.500
866.80	54.545
867.10	50.000
867.39	141.667
867.69	0.000
867.98	100.000
868.27	100.000
868.57	73.333
868.86	55.556
869.16	-23.077
869.45	153.333
869.75	800.000
870.04	0.000
870.33	85.714
870.63	23.810
870.92	166.667
871.22	-60.000
871.51	600.000
871.80	44.444
872.10	-66.667
>>>>>End Processed Spectral Data<<<<<
