SpectraSuite Data File
++++++++++++++++++++++++++++++++++++
Date: Fri May 15 17:05:20 PDT 2015
User: schluterlab
Dark Spectrum Present: Yes
Reference Spectrum Present: Yes
Number of Sampled Component Spectra: 1
Spectrometers: USB2E3373
Integration Time (usec): 3000 (USB2E3373)
Spectra Averaged: 3 (USB2E3373)
Boxcar Smoothing: 0 (USB2E3373)
Correct for Electrical Dark: No (USB2E3373)
Strobe/Lamp Enabled: No (USB2E3373)
Correct for Detector Non-linearity: No (USB2E3373)
Correct for Stray Light: No (USB2E3373)
Number of Pixels in Processed Spectrum: 2048
>>>>>Begin Processed Spectral Data<<<<<
178.53	0.000
178.91	0.000
179.29	150.000
179.67	-350.000
180.04	-85.714
180.42	75.000
180.80	-200.000
181.18	-200.000
181.56	100.000
181.94	750.000
182.31	-400.000
182.69	120.000
183.07	100.000
183.45	120.000
183.83	-83.333
184.20	127.273
184.58	44.444
184.96	-0.000
185.34	-233.333
185.72	-100.000
186.09	15.385
186.47	-200.000
186.85	-50.000
187.23	155.556
187.61	-400.000
187.98	300.000
188.36	133.333
188.74	33.333
189.12	76.471
189.49	72.222
189.87	0.000
190.25	128.571
190.63	650.000
191.00	33.333
191.38	47.368
191.76	700.000
192.14	-275.000
192.51	600.000
192.89	44.444
193.27	-57.143
193.65	-50.000
194.02	18.182
194.40	160.000
194.78	87.500
195.15	50.000
195.53	0.000
195.91	-25.000
196.29	175.000
196.66	-7.692
197.04	-57.143
197.42	55.556
197.79	-233.333
198.17	0.000
198.55	300.000
198.92	100.000
199.30	900.000
199.68	100.000
200.05	66.667
200.43	0.000
200.81	200.000
201.18	233.333
201.56	100.000
201.94	-50.000
202.31	-366.667
202.69	-160.000
203.07	-25.000
203.44	1200.000
203.82	0.000
204.19	92.857
204.57	100.000
204.95	-0.000
205.32	100.000
205.70	157.143
206.08	125.000
206.45	233.333
206.83	157.143
207.20	14.286
207.58	-400.000
207.96	100.000
208.33	-40.000
208.71	75.000
209.08	0.000
209.46	-700.000
209.84	80.000
210.21	-200.000
210.59	157.143
210.96	-33.333
211.34	75.000
211.71	20.000
212.09	85.714
212.46	-300.000
212.84	0.000
213.22	120.000
213.59	-100.000
213.97	15.385
214.34	136.364
214.72	-50.000
215.09	-50.000
215.47	61.538
215.84	18.182
216.22	166.667
216.59	50.000
216.97	450.000
217.34	225.000
217.72	-60.000
218.09	212.500
218.47	-62.500
218.84	-200.000
219.22	11.111
219.59	160.000
219.97	-0.000
220.34	-200.000
220.72	14.286
221.09	275.000
221.47	450.000
221.84	-450.000
222.22	-150.000
222.59	209.091
222.97	125.000
223.34	233.333
223.72	42.857
224.09	66.667
224.46	35.714
224.84	200.000
225.21	80.000
225.59	80.000
225.96	400.000
226.34	-75.000
226.71	42.857
227.08	233.333
227.46	112.500
227.83	250.000
228.21	144.444
228.58	36.364
228.95	62.500
229.33	50.000
229.70	50.000
230.08	62.500
230.45	100.000
230.82	314.286
231.20	40.000
231.57	107.143
231.95	85.714
232.32	100.000
232.69	78.571
233.07	433.333
233.44	320.000
233.81	100.000
234.19	111.111
234.56	76.471
234.93	-350.000
235.31	275.000
235.68	-80.000
236.05	-30.769
236.43	50.000
236.80	117.647
237.17	59.375
237.55	60.000
237.92	85.185
238.29	55.556
238.67	83.333
239.04	61.765
239.41	41.463
239.79	60.000
240.16	90.244
240.53	60.526
240.91	63.043
241.28	53.968
241.65	57.143
242.02	49.315
242.40	58.333
242.77	55.932
243.14	43.939
243.51	61.250
243.89	62.069
244.26	48.276
244.63	47.619
245.00	45.361
245.38	55.670
245.75	52.809
246.12	36.207
246.49	54.545
246.87	60.577
247.24	42.017
247.61	47.368
247.98	49.593
248.36	48.125
248.73	50.000
249.10	53.896
249.47	45.570
249.84	55.556
250.22	48.824
250.59	53.595
250.96	51.643
251.33	44.767
251.70	53.529
252.08	49.746
252.45	51.485
252.82	52.764
253.19	49.309
253.56	44.393
253.94	48.198
254.31	51.739
254.68	53.509
255.05	48.819
255.42	49.345
255.79	50.579
256.16	47.860
256.54	49.627
256.91	46.388
257.28	47.584
257.65	44.944
258.02	44.326
258.39	47.475
258.76	50.916
259.14	49.834
259.51	44.984
259.88	48.454
260.25	48.366
260.62	50.000
260.99	44.407
261.36	50.000
261.73	45.570
262.10	45.593
262.47	47.853
262.85	46.708
263.22	45.538
263.59	51.713
263.96	47.516
264.33	48.788
264.70	47.917
265.07	48.214
265.44	48.725
265.81	51.130
266.18	51.913
266.55	48.072
266.92	46.891
267.29	50.914
267.66	48.338
268.03	49.476
268.40	43.603
268.77	48.930
269.14	46.763
269.51	49.871
269.88	45.885
270.25	45.408
270.62	43.902
270.99	46.547
271.36	45.477
271.73	44.601
272.10	45.499
272.47	46.809
272.84	49.505
273.21	46.172
273.58	47.952
273.95	46.224
274.32	45.497
274.69	43.891
275.06	48.437
275.43	43.991
275.80	45.475
276.17	45.517
276.54	41.113
276.91	44.737
277.28	44.323
277.65	44.008
278.02	42.128
278.39	45.952
278.76	42.977
279.13	44.191
279.50	45.378
279.87	45.788
280.23	44.086
280.60	42.300
280.97	44.646
281.34	43.846
281.71	46.612
282.08	42.331
282.45	43.249
282.82	42.664
283.19	44.294
283.56	43.738
283.92	43.833
284.29	44.038
284.66	41.279
285.03	42.633
285.40	41.399
285.77	40.949
286.14	41.877
286.51	45.387
286.87	42.413
287.24	42.541
287.61	41.623
287.98	42.982
288.35	42.461
288.72	41.506
289.08	40.451
289.45	42.179
289.82	38.287
290.19	40.444
290.56	38.593
290.93	39.562
291.29	36.980
291.66	37.323
292.03	36.364
292.40	39.194
292.77	37.321
293.13	34.416
293.50	35.964
293.87	37.405
294.24	35.394
294.60	36.066
294.97	34.375
295.34	34.816
295.71	34.277
296.08	34.679
296.44	32.432
296.81	34.583
297.18	34.493
297.55	34.011
297.91	33.288
298.28	32.718
298.65	31.615
299.02	31.536
299.38	31.190
299.75	32.552
300.12	30.366
300.48	29.644
300.85	32.193
301.22	30.000
301.59	31.711
301.95	30.506
302.32	31.777
302.69	30.473
303.05	30.198
303.42	29.265
303.79	30.023
304.15	30.466
304.52	29.845
304.89	27.953
305.25	30.387
305.62	29.872
305.99	29.006
306.35	29.133
306.72	28.571
307.09	28.620
307.45	29.851
307.82	28.704
308.19	29.733
308.55	27.917
308.92	31.155
309.29	29.721
309.65	30.140
310.02	28.713
310.38	28.540
310.75	28.962
311.12	28.848
311.48	28.420
311.85	28.482
312.22	29.219
312.58	27.919
312.95	27.321
313.31	27.847
313.68	28.063
314.05	28.367
314.41	27.938
314.78	27.835
315.14	28.058
315.51	28.882
315.87	28.791
316.24	28.514
316.61	28.937
316.97	29.266
317.34	30.273
317.70	28.489
318.07	29.135
318.43	30.686
318.80	30.777
319.16	30.664
319.53	31.909
319.89	30.118
320.26	31.579
320.62	33.200
320.99	32.568
321.35	33.196
321.72	33.749
322.08	34.139
322.45	34.619
322.81	34.283
323.18	34.151
323.54	34.363
323.91	34.956
324.27	36.816
324.64	38.577
325.00	38.777
325.37	38.567
325.73	37.353
326.10	40.054
326.46	40.897
326.83	40.595
327.19	41.674
327.56	40.747
327.92	43.398
328.29	41.875
328.65	43.774
329.01	42.004
329.38	44.055
329.74	45.987
330.11	45.690
330.47	45.826
330.84	45.192
331.20	49.240
331.56	46.667
331.93	48.219
332.29	49.038
332.66	47.873
333.02	48.978
333.38	50.137
333.75	51.374
334.11	48.702
334.48	50.952
334.84	49.817
335.20	51.235
335.57	49.320
335.93	51.671
336.29	51.934
336.66	52.407
337.02	51.952
337.38	51.574
337.75	52.909
338.11	53.111
338.47	54.015
338.84	53.420
339.20	54.570
339.56	54.679
339.93	54.790
340.29	54.587
340.65	54.301
341.02	54.610
341.38	53.717
341.74	53.445
342.11	52.426
342.47	56.940
342.83	56.142
343.20	54.530
343.56	56.348
343.92	56.333
344.28	55.423
344.65	56.649
345.01	55.575
345.37	54.163
345.73	54.644
346.10	57.291
346.46	54.331
346.82	54.828
347.19	55.777
347.55	56.642
347.91	55.583
348.27	55.376
348.63	56.218
349.00	56.276
349.36	57.689
349.72	57.546
350.08	56.393
350.45	55.866
350.81	56.811
351.17	56.678
351.53	57.306
351.89	57.225
352.26	57.280
352.62	57.823
352.98	56.948
353.34	56.683
353.70	58.010
354.07	57.016
354.43	57.806
354.79	58.960
355.15	57.302
355.51	57.991
355.87	59.628
356.24	57.259
356.60	58.367
356.96	60.000
357.32	59.505
357.68	59.109
358.04	59.774
358.40	59.164
358.77	60.526
359.13	60.448
359.49	57.935
359.85	60.296
360.21	61.324
360.57	58.914
360.93	59.077
361.29	59.290
361.66	61.285
362.02	61.818
362.38	61.005
362.74	61.620
363.10	62.302
363.46	62.713
363.82	62.434
364.18	61.255
364.54	61.618
364.90	61.362
365.26	61.426
365.62	62.263
365.98	63.416
366.35	63.074
366.71	62.823
367.07	64.224
367.43	64.270
367.79	63.322
368.15	63.245
368.51	63.875
368.87	63.819
369.23	64.260
369.59	65.306
369.95	63.416
370.31	65.173
370.67	65.299
371.03	64.526
371.39	64.843
371.75	64.322
372.11	64.479
372.47	65.976
372.83	65.578
373.19	65.621
373.55	64.404
373.91	65.443
374.27	67.753
374.63	66.978
374.99	65.603
375.35	67.270
375.71	68.322
376.07	67.767
376.42	68.776
376.78	67.919
377.14	68.111
377.50	67.862
377.86	68.675
378.22	66.752
378.58	68.974
378.94	66.289
379.30	68.247
379.66	68.401
380.02	68.424
380.38	68.959
380.74	67.804
381.09	69.509
381.45	69.725
381.81	68.415
382.17	70.558
382.53	70.081
382.89	70.810
383.25	69.820
383.61	69.878
383.97	70.159
384.32	69.043
384.68	70.464
385.04	70.466
385.40	70.380
385.76	73.270
386.12	72.057
386.48	72.797
386.83	71.592
387.19	71.734
387.55	71.393
387.91	72.433
388.27	70.879
388.62	74.512
388.98	70.964
389.34	71.643
389.70	72.778
390.06	70.673
390.42	72.992
390.77	73.250
391.13	72.573
391.49	72.639
391.85	73.489
392.20	72.693
392.56	73.999
392.92	72.343
393.28	73.585
393.64	72.733
393.99	74.169
394.35	73.498
394.71	73.116
395.07	71.653
395.42	71.645
395.78	74.267
396.14	73.266
396.50	73.621
396.85	73.342
397.21	73.496
397.57	73.605
397.92	72.199
398.28	75.230
398.64	72.711
399.00	74.549
399.35	73.081
399.71	73.923
400.07	74.909
400.42	71.909
400.78	74.587
401.14	73.563
401.49	73.734
401.85	73.553
402.21	74.157
402.57	74.312
402.92	72.710
403.28	73.810
403.63	75.473
403.99	73.980
404.35	73.766
404.70	70.714
405.06	71.857
405.42	73.151
405.77	73.155
406.13	73.399
406.49	72.054
406.84	74.083
407.20	73.931
407.55	74.050
407.91	72.861
408.27	72.594
408.62	71.815
408.98	73.444
409.34	72.243
409.69	72.093
410.05	70.505
410.40	73.086
410.76	74.125
411.11	72.750
411.47	74.096
411.83	72.693
412.18	74.324
412.54	72.347
412.89	72.599
413.25	74.067
413.60	73.851
413.96	73.129
414.31	72.988
414.67	72.354
415.03	74.168
415.38	72.585
415.74	73.420
416.09	73.743
416.45	73.059
416.80	72.307
417.16	73.895
417.51	72.085
417.87	73.338
418.22	74.935
418.58	73.980
418.93	73.542
419.29	72.407
419.64	73.623
420.00	76.008
420.35	73.731
420.71	73.755
421.06	74.708
421.42	74.099
421.77	75.780
422.12	73.496
422.48	73.091
422.83	74.246
423.19	74.153
423.54	74.133
423.90	73.380
424.25	74.053
424.61	74.847
424.96	73.635
425.31	76.545
425.67	75.059
426.02	74.617
426.38	75.141
426.73	76.090
427.09	76.329
427.44	77.118
427.79	75.015
428.15	76.517
428.50	76.015
428.85	75.430
429.21	76.457
429.56	76.981
429.92	76.271
430.27	74.286
430.62	75.902
430.98	76.858
431.33	75.342
431.68	74.673
432.04	77.921
432.39	76.212
432.74	74.504
433.10	77.874
433.45	76.882
433.80	77.191
434.16	77.341
434.51	77.043
434.86	77.875
435.22	76.444
435.57	78.415
435.92	77.006
436.28	77.340
436.63	76.440
436.98	75.203
437.34	77.919
437.69	78.414
438.04	77.664
438.39	75.932
438.75	79.174
439.10	76.684
439.45	78.576
439.81	78.287
440.16	80.701
440.51	78.627
440.86	80.846
441.22	77.489
441.57	81.126
441.92	79.906
442.27	80.211
442.63	78.319
442.98	78.231
443.33	78.242
443.68	78.727
444.03	78.937
444.39	78.406
444.74	80.379
445.09	79.176
445.44	80.000
445.79	80.660
446.15	78.139
446.50	79.368
446.85	78.587
447.20	78.780
447.55	79.074
447.91	77.778
448.26	78.771
448.61	78.296
448.96	78.199
449.31	78.208
449.66	78.339
450.02	79.692
450.37	80.735
450.72	79.152
451.07	79.810
451.42	78.090
451.77	78.963
452.12	77.033
452.47	79.395
452.83	79.211
453.18	77.736
453.53	78.824
453.88	79.842
454.23	78.672
454.58	80.605
454.93	79.446
455.28	76.762
455.63	78.549
455.98	77.931
456.34	79.566
456.69	80.051
457.04	77.568
457.39	79.162
457.74	79.021
458.09	77.340
458.44	79.052
458.79	77.031
459.14	79.005
459.49	78.985
459.84	78.455
460.19	78.701
460.54	79.034
460.89	79.659
461.24	78.944
461.59	78.325
461.94	77.358
462.29	77.865
462.64	78.472
462.99	77.319
463.34	77.747
463.69	79.279
464.04	78.027
464.39	77.987
464.74	76.994
465.09	78.977
465.44	79.746
465.79	77.098
466.14	77.594
466.49	78.206
466.84	78.049
467.19	77.660
467.54	77.842
467.89	78.395
468.24	78.832
468.59	78.476
468.94	77.016
469.29	77.311
469.64	77.170
469.99	80.378
470.34	76.792
470.68	79.567
471.03	78.132
471.38	78.745
471.73	78.922
472.08	77.069
472.43	78.926
472.78	76.696
473.13	76.463
473.48	77.134
473.83	77.148
474.17	77.720
474.52	76.643
474.87	77.030
475.22	77.547
475.57	77.527
475.92	77.564
476.27	77.183
476.61	78.762
476.96	74.958
477.31	78.313
477.66	77.360
478.01	77.765
478.36	77.560
478.70	77.977
479.05	77.912
479.40	76.524
479.75	76.486
480.10	75.934
480.45	77.250
480.79	78.197
481.14	78.535
481.49	76.749
481.84	77.510
482.19	75.117
482.53	76.882
482.88	76.325
483.23	76.488
483.58	75.566
483.92	76.186
484.27	76.162
484.62	76.065
484.97	75.788
485.31	75.795
485.66	76.303
486.01	75.977
486.36	75.179
486.70	74.901
487.05	75.162
487.40	74.793
487.75	74.845
488.09	74.475
488.44	75.516
488.79	75.906
489.13	75.921
489.48	75.246
489.83	75.605
490.17	74.921
490.52	75.520
490.87	74.040
491.22	76.266
491.56	74.336
491.91	75.096
492.26	76.033
492.60	76.440
492.95	76.783
493.30	74.353
493.64	76.326
493.99	75.990
494.34	76.262
494.68	76.143
495.03	75.328
495.37	75.319
495.72	75.164
496.07	76.195
496.41	75.660
496.76	75.864
497.11	75.082
497.45	75.227
497.80	76.387
498.14	74.466
498.49	76.232
498.84	75.100
499.18	75.753
499.53	78.522
499.87	75.146
500.22	74.530
500.56	75.240
500.91	77.058
501.26	74.493
501.60	75.947
501.95	76.177
502.29	76.126
502.64	76.158
502.98	76.024
503.33	75.312
503.67	74.940
504.02	75.562
504.36	76.150
504.71	75.101
505.06	75.742
505.40	75.939
505.75	76.289
506.09	75.013
506.44	76.540
506.78	76.122
507.13	76.163
507.47	73.943
507.82	75.588
508.16	74.802
508.51	75.341
508.85	76.086
509.19	74.348
509.54	76.032
509.88	74.703
510.23	75.632
510.57	74.773
510.92	73.134
511.26	75.123
511.61	75.633
511.95	75.726
512.30	75.998
512.64	75.793
512.98	75.856
513.33	74.314
513.67	76.009
514.02	77.174
514.36	76.229
514.70	75.932
515.05	76.851
515.39	75.974
515.74	76.886
516.08	76.330
516.42	77.267
516.77	75.892
517.11	76.558
517.46	75.643
517.80	75.685
518.14	76.424
518.49	75.180
518.83	76.124
519.17	74.348
519.52	74.837
519.86	75.090
520.20	75.213
520.55	77.236
520.89	75.596
521.23	76.757
521.58	75.457
521.92	74.872
522.26	76.708
522.61	75.974
522.95	77.219
523.29	74.396
523.64	76.048
523.98	79.002
524.32	76.289
524.66	75.992
525.01	75.909
525.35	77.058
525.69	76.700
526.04	76.124
526.38	76.719
526.72	75.082
527.06	76.848
527.41	76.913
527.75	75.201
528.09	75.748
528.43	76.637
528.78	75.908
529.12	77.161
529.46	76.478
529.80	74.288
530.15	76.634
530.49	76.094
530.83	76.060
531.17	75.890
531.51	76.402
531.86	74.031
532.20	75.505
532.54	76.378
532.88	77.687
533.22	75.269
533.57	75.491
533.91	75.587
534.25	76.367
534.59	76.267
534.93	75.142
535.27	74.937
535.62	75.697
535.96	74.886
536.30	75.660
536.64	76.706
536.98	75.610
537.32	77.098
537.66	76.578
538.01	76.713
538.35	75.936
538.69	75.233
539.03	74.915
539.37	76.245
539.71	76.960
540.05	74.678
540.39	76.108
540.73	75.872
541.07	75.967
541.42	73.656
541.76	75.981
542.10	77.357
542.44	76.789
542.78	75.705
543.12	76.236
543.46	76.008
543.80	76.752
544.14	74.032
544.48	76.349
544.82	76.145
545.16	76.913
545.50	76.035
545.84	75.354
546.18	76.667
546.52	77.073
546.86	76.348
547.20	76.967
547.54	75.901
547.88	76.291
548.22	74.425
548.56	75.989
548.90	75.337
549.24	75.620
549.58	74.612
549.92	74.768
550.26	76.337
550.60	76.952
550.94	76.848
551.28	76.507
551.62	77.385
551.96	76.917
552.30	77.412
552.64	74.824
552.98	76.231
553.32	76.391
553.66	76.778
554.00	76.934
554.34	76.883
554.68	75.147
555.02	76.860
555.36	76.515
555.69	76.117
556.03	75.446
556.37	75.018
556.71	74.368
557.05	76.883
557.39	73.978
557.73	74.513
558.07	75.641
558.41	76.187
558.75	76.695
559.08	75.493
559.42	76.905
559.76	77.022
560.10	76.070
560.44	74.609
560.78	75.804
561.12	76.023
561.45	76.037
561.79	76.751
562.13	76.721
562.47	76.691
562.81	75.216
563.15	75.529
563.48	77.298
563.82	76.527
564.16	77.159
564.50	74.527
564.84	75.770
565.17	76.392
565.51	79.030
565.85	77.503
566.19	75.464
566.52	78.016
566.86	76.542
567.20	77.148
567.54	77.981
567.88	77.563
568.21	78.281
568.55	76.957
568.89	77.361
569.23	77.756
569.56	76.708
569.90	77.629
570.24	74.991
570.57	76.873
570.91	76.961
571.25	75.600
571.59	74.961
571.92	73.778
572.26	75.845
572.60	75.163
572.93	74.333
573.27	75.047
573.61	75.895
573.95	75.860
574.28	75.371
574.62	74.625
574.96	74.720
575.29	74.382
575.63	73.516
575.97	74.031
576.30	74.979
576.64	73.934
576.98	75.650
577.31	76.014
577.65	75.711
577.98	74.810
578.32	75.975
578.66	73.716
578.99	74.754
579.33	73.570
579.67	74.010
580.00	75.063
580.34	74.602
580.67	74.357
581.01	75.432
581.35	74.569
581.68	75.005
582.02	74.913
582.35	75.227
582.69	75.166
583.02	74.364
583.36	75.940
583.70	76.506
584.03	76.508
584.37	76.482
584.70	75.275
585.04	75.259
585.37	74.767
585.71	75.784
586.04	75.719
586.38	75.593
586.72	75.753
587.05	76.950
587.39	76.545
587.72	77.556
588.06	76.252
588.39	75.990
588.73	76.709
589.06	77.006
589.40	75.942
589.73	76.816
590.07	77.417
590.40	77.438
590.73	78.460
591.07	77.311
591.40	77.337
591.74	77.647
592.07	77.319
592.41	77.385
592.74	78.017
593.08	75.690
593.41	76.771
593.75	75.368
594.08	75.867
594.41	77.365
594.75	77.214
595.08	76.277
595.42	76.445
595.75	77.845
596.09	79.085
596.42	77.842
596.75	77.620
597.09	75.991
597.42	77.371
597.75	77.874
598.09	75.962
598.42	75.903
598.76	76.319
599.09	76.442
599.42	75.938
599.76	75.959
600.09	76.810
600.42	77.066
600.76	75.371
601.09	75.992
601.42	75.872
601.76	77.173
602.09	76.856
602.42	78.349
602.76	77.419
603.09	77.409
603.42	79.348
603.76	76.331
604.09	77.197
604.42	77.665
604.76	78.416
605.09	77.651
605.42	76.975
605.75	77.539
606.09	77.580
606.42	76.105
606.75	78.052
607.09	76.440
607.42	76.916
607.75	77.664
608.08	78.122
608.42	75.103
608.75	79.373
609.08	78.874
609.41	78.071
609.75	76.764
610.08	78.382
610.41	76.087
610.74	77.133
611.07	78.915
611.41	77.582
611.74	79.904
612.07	76.017
612.40	78.009
612.73	78.927
613.07	79.134
613.40	77.790
613.73	77.616
614.06	77.908
614.39	77.609
614.72	78.431
615.06	78.045
615.39	76.037
615.72	78.095
616.05	77.933
616.38	76.809
616.71	77.187
617.05	79.926
617.38	78.504
617.71	78.931
618.04	78.857
618.37	79.508
618.70	78.218
619.03	80.000
619.36	79.233
619.69	79.151
620.03	79.912
620.36	77.682
620.69	78.444
621.02	78.823
621.35	80.747
621.68	81.463
622.01	80.083
622.34	79.808
622.67	77.918
623.00	78.867
623.33	78.887
623.66	78.235
623.99	79.501
624.32	80.837
624.65	79.549
624.99	80.888
625.32	78.241
625.65	80.911
625.98	80.983
626.31	78.803
626.64	80.936
626.97	81.239
627.30	81.261
627.63	80.503
627.96	81.402
628.29	80.851
628.62	79.646
628.95	79.359
629.28	82.964
629.61	80.558
629.94	80.156
630.26	79.743
630.59	83.351
630.92	81.744
631.25	78.256
631.58	81.498
631.91	79.386
632.24	83.372
632.57	80.455
632.90	81.851
633.23	79.647
633.56	86.398
633.89	81.751
634.22	82.593
634.55	83.736
634.88	80.715
635.20	80.897
635.53	82.400
635.86	81.014
636.19	84.088
636.52	85.077
636.85	80.645
637.18	81.006
637.51	82.138
637.83	80.815
638.16	84.993
638.49	81.880
638.82	83.026
639.15	83.039
639.48	83.494
639.81	82.008
640.13	82.395
640.46	82.799
640.79	84.094
641.12	81.536
641.45	81.381
641.77	79.704
642.10	84.676
642.43	83.762
642.76	83.828
643.09	84.653
643.41	79.450
643.74	82.208
644.07	83.744
644.40	84.122
644.73	85.464
645.05	83.893
645.38	85.185
645.71	86.170
646.04	83.662
646.36	82.979
646.69	83.273
647.02	86.767
647.35	83.769
647.67	83.547
648.00	86.940
648.33	81.058
648.66	84.407
648.98	82.747
649.31	83.306
649.64	81.633
649.96	83.144
650.29	83.646
650.62	81.026
650.94	83.889
651.27	85.475
651.60	84.144
651.92	81.294
652.25	85.435
652.58	83.500
652.90	84.391
653.23	83.025
653.56	83.418
653.88	82.990
654.21	83.363
654.54	81.324
654.86	82.513
655.19	81.871
655.52	81.037
655.84	77.829
656.17	87.771
656.49	100.000
656.82	100.000
657.15	100.000
657.47	96.959
657.80	51.985
658.13	52.049
658.45	81.102
658.78	79.796
659.10	79.826
659.43	80.145
659.75	82.930
660.08	83.310
660.41	84.270
660.73	83.011
661.06	85.269
661.38	82.779
661.71	80.903
662.03	88.197
662.36	84.396
662.68	86.062
663.01	86.463
663.33	87.239
663.66	83.023
663.98	88.605
664.31	83.582
664.63	85.945
664.96	80.870
665.28	81.015
665.61	86.580
665.93	86.739
666.26	84.382
666.58	84.116
666.91	90.353
667.23	87.500
667.56	86.730
667.88	89.209
668.21	83.294
668.53	88.416
668.86	87.264
669.18	84.434
669.50	87.167
669.83	84.186
670.15	88.112
670.48	86.364
670.80	84.793
671.13	82.550
671.45	79.909
671.77	82.189
672.10	82.376
672.42	83.521
672.75	83.659
673.07	83.900
673.39	83.853
673.72	83.037
674.04	86.042
674.37	86.653
674.69	85.867
675.01	88.000
675.34	85.135
675.66	84.722
675.98	86.031
676.31	83.945
676.63	84.561
676.95	83.864
677.28	86.353
677.60	87.952
677.92	83.945
678.25	88.184
678.57	85.281
678.89	87.185
679.22	90.828
679.54	82.731
679.86	83.101
680.18	86.019
680.51	83.902
680.83	84.294
681.15	85.800
681.48	89.344
681.80	84.298
682.12	83.871
682.44	86.402
682.77	88.300
683.09	88.558
683.41	82.045
683.73	87.097
684.06	84.513
684.38	81.505
684.70	91.721
685.02	83.195
685.34	82.411
685.67	85.178
685.99	84.991
686.31	83.540
686.63	83.117
686.96	84.601
687.28	86.061
687.60	79.658
687.92	87.475
688.24	88.911
688.56	87.118
688.89	87.277
689.21	86.222
689.53	84.919
689.85	85.116
690.17	84.375
690.49	88.180
690.82	85.194
691.14	82.143
691.46	85.981
691.78	88.739
692.10	87.097
692.42	83.766
692.74	80.556
693.06	83.559
693.39	86.199
693.71	83.032
694.03	88.222
694.35	84.579
694.67	88.131
694.99	86.423
695.31	86.945
695.63	84.250
695.95	82.828
696.27	85.233
696.59	90.556
696.91	86.835
697.23	83.290
697.56	88.119
697.88	85.161
698.20	89.066
698.52	86.118
698.84	83.493
699.16	83.500
699.48	83.459
699.80	81.886
700.12	86.792
700.44	87.955
700.76	86.628
701.08	85.455
701.40	85.542
701.72	90.741
702.04	91.419
702.36	97.659
702.68	88.288
703.00	86.364
703.32	87.683
703.64	83.051
703.96	86.377
704.28	84.356
704.60	88.571
704.91	80.126
705.23	85.050
705.55	92.580
705.87	91.336
706.19	92.222
706.51	86.598
706.83	90.032
707.15	85.358
707.47	88.235
707.79	83.594
708.11	85.000
708.43	86.250
708.74	84.238
709.06	90.986
709.38	92.966
709.70	86.095
710.02	86.943
710.34	86.997
710.66	80.128
710.98	87.748
711.29	93.770
711.61	90.847
711.93	86.319
712.25	94.845
712.57	89.377
712.89	90.672
713.20	86.505
713.52	87.108
713.84	85.324
714.16	90.722
714.48	88.710
714.80	92.628
715.11	86.322
715.43	85.580
715.75	89.333
716.07	84.053
716.39	87.248
716.70	88.930
717.02	85.878
717.34	92.308
717.66	88.496
717.97	91.304
718.29	87.029
718.61	93.701
718.93	88.760
719.24	87.072
719.56	92.771
719.88	81.443
720.20	88.258
720.51	83.142
720.83	92.278
721.15	92.017
721.46	92.742
721.78	86.957
722.10	81.784
722.42	89.627
722.73	91.429
723.05	91.020
723.37	91.102
723.68	92.793
724.00	90.598
724.32	86.667
724.63	92.727
724.95	90.393
725.27	94.931
725.58	91.949
725.90	88.095
726.22	88.803
726.53	76.610
726.85	90.637
727.16	89.811
727.48	89.879
727.80	93.117
728.11	89.831
728.43	86.667
728.74	86.694
729.06	93.600
729.38	91.353
729.69	87.649
730.01	84.231
730.32	88.806
730.64	88.693
730.96	98.868
731.27	85.333
731.59	91.186
731.90	87.898
732.22	86.435
732.53	88.040
732.85	87.589
733.16	89.226
733.48	84.892
733.80	89.493
734.11	87.797
734.43	96.220
734.74	87.879
735.06	87.948
735.37	87.009
735.69	92.593
736.00	83.624
736.32	85.906
736.63	82.394
736.95	88.737
737.26	83.630
737.58	83.893
737.89	88.645
738.21	96.992
738.52	94.650
738.83	95.197
739.15	88.646
739.46	90.551
739.78	82.418
740.09	83.007
740.41	92.754
740.72	95.276
741.04	89.879
741.35	85.957
741.66	98.104
741.98	86.735
742.29	90.594
742.61	87.435
742.92	84.360
743.23	84.259
743.55	92.760
743.86	95.215
744.18	91.866
744.49	96.809
744.80	94.565
745.12	100.535
745.43	83.415
745.74	98.958
746.06	94.146
746.37	96.335
746.68	90.995
747.00	96.809
747.31	90.050
747.62	92.718
747.94	88.517
748.25	98.020
748.56	101.639
748.88	92.147
749.19	97.340
749.50	90.640
749.82	85.849
750.13	96.330
750.44	92.481
750.75	94.776
751.07	96.715
751.38	93.103
751.69	89.804
752.01	90.310
752.32	92.032
752.63	96.838
752.94	90.086
753.26	89.121
753.57	91.403
753.88	92.478
754.19	95.833
754.51	91.736
754.82	86.235
755.13	95.000
755.44	88.306
755.75	89.062
756.07	92.996
756.38	87.547
756.69	93.870
757.00	86.333
757.31	89.869
757.63	89.329
757.94	84.722
758.25	86.301
758.56	87.234
758.87	87.535
759.18	89.408
759.50	97.818
759.81	91.639
760.12	90.323
760.43	85.758
760.74	88.580
761.05	93.538
761.36	87.784
761.67	89.394
761.99	93.537
762.30	92.364
762.61	84.980
762.92	90.045
763.23	90.991
763.54	91.589
763.85	90.254
764.16	92.946
764.47	90.726
764.78	87.912
765.10	86.869
765.41	85.804
765.72	84.444
766.03	92.857
766.34	85.766
766.65	88.048
766.96	94.444
767.27	89.362
767.58	95.402
767.89	100.709
768.20	85.795
768.51	91.758
768.82	85.714
769.13	94.009
769.44	83.691
769.75	90.411
770.06	87.500
770.37	87.500
770.68	97.970
770.99	87.783
771.30	97.549
771.61	89.140
771.92	93.966
772.23	93.596
772.54	98.925
772.85	96.914
773.16	88.764
773.47	107.843
773.78	102.614
774.09	88.024
774.39	92.000
774.70	94.268
775.01	97.241
775.32	94.286
775.63	98.347
775.94	88.550
776.25	102.362
776.56	95.833
776.87	100.962
777.18	89.744
777.48	87.931
777.79	100.870
778.10	95.238
778.41	91.892
778.72	88.095
779.03	91.729
779.34	96.454
779.65	97.260
779.95	93.151
780.26	87.586
780.57	95.935
780.88	92.126
781.19	93.103
781.50	99.225
781.80	83.432
782.11	91.824
782.42	96.154
782.73	92.086
783.04	88.889
783.34	81.250
783.65	79.487
783.96	91.803
784.27	85.517
784.57	91.057
784.88	85.156
785.19	105.000
785.50	101.000
785.81	91.379
786.11	90.517
786.42	91.262
786.73	96.364
787.04	91.837
787.34	82.143
787.65	96.190
787.96	93.805
788.26	93.636
788.57	94.017
788.88	93.750
789.19	78.571
789.49	94.783
789.80	97.959
790.11	92.929
790.41	83.636
790.72	90.217
791.03	93.182
791.33	96.250
791.64	98.750
791.95	89.535
792.25	82.979
792.56	88.764
792.87	84.932
793.17	91.304
793.48	101.333
793.79	85.000
794.09	102.500
794.40	87.736
794.70	96.117
795.01	82.927
795.32	76.923
795.62	100.000
795.93	98.039
796.23	86.792
796.54	78.125
796.85	114.706
797.15	95.775
797.46	88.889
797.76	104.545
798.07	76.744
798.37	88.158
798.68	92.424
798.99	80.247
799.29	82.857
799.60	86.957
799.90	88.000
800.21	116.393
800.51	89.231
800.82	98.305
801.12	86.957
801.43	96.721
801.73	87.302
802.04	122.000
802.34	85.075
802.65	100.000
802.95	82.143
803.26	92.308
803.56	103.922
803.87	106.522
804.17	76.000
804.48	112.698
804.78	94.444
805.09	110.870
805.39	100.000
805.70	98.148
806.00	84.211
806.30	77.465
806.61	98.571
806.91	75.000
807.22	109.211
807.52	97.333
807.83	121.818
808.13	106.944
808.43	91.176
808.74	94.030
809.04	88.136
809.35	86.538
809.65	85.938
809.95	129.730
810.26	59.091
810.56	76.712
810.86	114.286
811.17	86.000
811.47	112.245
811.77	92.105
812.08	79.545
812.38	96.226
812.69	122.500
812.99	96.970
813.29	105.263
813.59	85.714
813.90	86.364
814.20	112.821
814.50	98.077
814.81	101.887
815.11	89.362
815.41	83.051
815.72	64.286
816.02	98.039
816.32	93.750
816.62	90.244
816.93	108.108
817.23	105.714
817.53	89.583
817.84	71.739
818.14	69.231
818.44	68.421
818.74	91.304
819.04	57.500
819.35	97.297
819.65	111.765
819.95	63.889
820.25	64.286
820.56	112.500
820.86	93.103
821.16	112.500
821.46	114.894
821.76	105.000
822.07	111.628
822.37	72.973
822.67	93.750
822.97	97.619
823.27	96.429
823.57	76.000
823.88	74.074
824.18	142.857
824.48	76.471
824.78	100.000
825.08	130.435
825.38	115.152
825.69	75.000
825.99	68.421
826.29	80.556
826.59	173.333
826.89	128.571
827.19	82.609
827.49	82.500
827.79	117.143
828.09	114.286
828.39	109.091
828.70	121.622
829.00	92.857
829.30	76.190
829.60	66.667
829.90	93.750
830.20	113.158
830.50	118.519
830.80	117.391
831.10	90.909
831.40	66.667
831.70	74.194
832.00	147.619
832.30	28.571
832.60	108.333
832.90	82.759
833.20	75.000
833.50	84.848
833.80	66.667
834.10	92.308
834.40	75.000
834.70	155.556
835.00	136.842
835.30	184.615
835.60	173.333
835.90	80.645
836.20	54.545
836.50	135.714
836.80	69.231
837.10	100.000
837.40	300.000
837.70	154.545
838.00	136.364
838.30	100.000
838.60	84.615
838.90	131.818
839.19	75.000
839.49	80.000
839.79	100.000
840.09	175.000
840.39	121.429
840.69	57.143
840.99	80.769
841.29	115.789
841.59	130.000
841.88	154.545
842.18	300.000
842.48	81.250
842.78	126.667
843.08	40.741
843.38	200.000
843.68	100.000
843.97	93.333
844.27	73.333
844.57	145.000
844.87	94.444
845.17	61.905
845.47	86.667
845.76	66.667
846.06	111.765
846.36	70.000
846.66	164.286
846.96	66.667
847.25	62.500
847.55	92.857
847.85	225.000
848.15	68.182
848.44	66.667
848.74	115.000
849.04	62.963
849.34	136.364
849.63	183.333
849.93	80.000
850.23	94.444
850.53	140.000
850.82	53.846
851.12	88.889
851.42	106.667
851.71	30.769
852.01	192.857
852.31	150.000
852.61	136.364
852.90	125.000
853.20	147.368
853.50	91.667
853.79	60.870
854.09	112.500
854.39	84.211
854.68	100.000
854.98	80.645
855.28	92.308
855.57	105.000
855.87	122.222
856.17	96.296
856.46	121.429
856.76	113.333
857.05	211.111
857.35	68.000
857.65	144.444
857.94	130.769
858.24	103.448
858.53	94.444
858.83	29.630
859.13	50.000
859.42	100.000
859.72	225.000
860.01	333.333
860.31	72.000
860.60	80.952
860.90	433.333
861.20	26.667
861.49	450.000
861.79	40.000
862.08	15.000
862.38	120.000
862.67	280.000
862.97	133.333
863.26	58.333
863.56	72.222
863.85	133.333
864.15	100.000
864.44	90.000
864.74	142.857
865.03	-250.000
865.33	200.000
865.62	316.667
865.92	41.667
866.21	100.000
866.51	106.250
866.80	63.636
867.10	650.000
867.39	108.333
867.69	0.000
867.98	146.154
868.27	-100.000
868.57	73.333
868.86	66.667
869.16	61.538
869.45	100.000
869.75	300.000
870.04	0.000
870.33	171.429
870.63	66.667
870.92	-266.667
871.22	100.000
871.51	1500.000
871.80	255.556
872.10	-100.000
>>>>>End Processed Spectral Data<<<<<
