SpectraSuite Data File
++++++++++++++++++++++++++++++++++++
Date: Fri May 15 20:16:50 PDT 2015
User: schluterlab
Dark Spectrum Present: Yes
Reference Spectrum Present: Yes
Number of Sampled Component Spectra: 1
Spectrometers: USB2E3373
Integration Time (usec): 3000 (USB2E3373)
Spectra Averaged: 3 (USB2E3373)
Boxcar Smoothing: 0 (USB2E3373)
Correct for Electrical Dark: No (USB2E3373)
Strobe/Lamp Enabled: No (USB2E3373)
Correct for Detector Non-linearity: No (USB2E3373)
Correct for Stray Light: No (USB2E3373)
Number of Pixels in Processed Spectrum: 2048
>>>>>Begin Processed Spectral Data<<<<<
178.53	0.000
178.91	0.000
179.29	37.500
179.67	-450.000
180.04	-128.571
180.42	50.000
180.80	-300.000
181.18	-66.667
181.56	100.000
181.94	-100.000
182.31	-300.000
182.69	20.000
183.07	-100.000
183.45	-260.000
183.83	200.000
184.20	-72.727
184.58	166.667
184.96	-275.000
185.34	100.000
185.72	-150.000
186.09	46.154
186.47	-500.000
186.85	183.333
187.23	155.556
187.61	300.000
187.98	-166.667
188.36	144.444
188.74	-333.333
189.12	-11.765
189.49	-38.889
189.87	0.000
190.25	71.429
190.63	400.000
191.00	-233.333
191.38	-10.526
191.76	100.000
192.14	125.000
192.51	50.000
192.89	-11.111
193.27	-14.286
193.65	200.000
194.02	81.818
194.40	-20.000
194.78	-100.000
195.15	-100.000
195.53	-37.500
195.91	425.000
196.29	-175.000
196.66	161.538
197.04	14.286
197.42	-111.111
197.79	-233.333
198.17	0.000
198.55	700.000
198.92	-333.333
199.30	300.000
199.68	-40.000
200.05	-66.667
200.43	0.000
200.81	-500.000
201.18	-66.667
201.56	1600.000
201.94	-250.000
202.31	333.333
202.69	-160.000
203.07	225.000
203.44	1000.000
203.82	0.000
204.19	42.857
204.57	-366.667
204.95	100.000
205.32	-20.000
205.70	-171.429
206.08	75.000
206.45	166.667
206.83	78.571
207.20	-42.857
207.58	-0.000
207.96	-66.667
208.33	-10.000
208.71	-225.000
209.08	-133.333
209.46	-1500.000
209.84	-100.000
210.21	-800.000
210.59	-28.571
210.96	-50.000
211.34	-25.000
211.71	53.333
212.09	-114.286
212.46	-1100.000
212.84	0.000
213.22	60.000
213.59	350.000
213.97	15.385
214.34	-9.091
214.72	-133.333
215.09	500.000
215.47	15.385
215.84	36.364
216.22	-266.667
216.59	-100.000
216.97	700.000
217.34	-100.000
217.72	-300.000
218.09	-62.500
218.47	187.500
218.84	-600.000
219.22	-66.667
219.59	40.000
219.97	33.333
220.34	175.000
220.72	-14.286
221.09	-100.000
221.47	100.000
221.84	-350.000
222.22	-900.000
222.59	0.000
222.97	50.000
223.34	-166.667
223.72	-21.429
224.09	-38.095
224.46	25.000
224.84	66.667
225.21	0.000
225.59	46.667
225.96	-250.000
226.34	150.000
226.71	-57.143
227.08	-33.333
227.46	-50.000
227.83	-650.000
228.21	-55.556
228.58	36.364
228.95	25.000
229.33	130.000
229.70	-25.000
230.08	-37.500
230.45	28.571
230.82	114.286
231.20	-26.667
231.57	28.571
231.95	-128.571
232.32	-80.000
232.69	28.571
233.07	433.333
233.44	-100.000
233.81	10.000
234.19	0.000
234.56	-52.941
234.93	400.000
235.31	-25.000
235.68	-80.000
236.05	-15.385
236.43	10.000
236.80	-29.412
237.17	21.875
237.55	0.000
237.92	44.444
238.29	16.667
238.67	3.333
239.04	17.647
239.41	2.439
239.79	-10.000
240.16	36.585
240.53	28.947
240.91	-6.522
241.28	14.286
241.65	37.500
242.02	15.068
242.40	23.333
242.77	18.644
243.14	13.636
243.51	30.000
243.89	40.230
244.26	19.540
244.63	27.381
245.00	20.619
245.38	27.835
245.75	24.719
246.12	23.276
246.49	29.752
246.87	38.462
247.24	26.891
247.61	21.053
247.98	25.203
248.36	23.125
248.73	23.684
249.10	29.870
249.47	17.722
249.84	32.680
250.22	26.471
250.59	34.641
250.96	35.681
251.33	24.419
251.70	33.529
252.08	30.964
252.45	28.218
252.82	34.673
253.19	30.415
253.56	26.636
253.94	30.631
254.31	29.565
254.68	32.456
255.05	30.709
255.42	27.948
255.79	29.730
256.16	28.016
256.54	33.955
256.91	30.798
257.28	29.368
257.65	29.963
258.02	30.142
258.39	30.640
258.76	28.571
259.14	33.887
259.51	30.421
259.88	31.615
260.25	27.124
260.62	34.375
260.99	28.814
261.36	28.767
261.73	30.063
262.10	26.748
262.47	28.528
262.85	29.154
263.22	32.000
263.59	33.022
263.96	30.435
264.33	31.818
264.70	28.274
265.07	29.167
265.44	33.428
265.81	33.333
266.18	31.694
266.55	31.620
266.92	30.052
267.29	31.593
267.66	34.527
268.03	30.890
268.40	28.982
268.77	33.690
269.14	30.456
269.51	32.905
269.88	31.172
270.25	27.551
270.62	29.268
270.99	31.458
271.36	28.117
271.73	28.638
272.10	29.927
272.47	31.442
272.84	31.436
273.21	29.002
273.58	30.361
273.95	31.350
274.32	25.866
274.69	29.186
275.06	29.018
275.43	28.345
275.80	30.464
276.17	28.966
276.54	28.694
276.91	25.877
277.28	30.131
277.65	29.959
278.02	27.234
278.39	28.884
278.76	29.350
279.13	27.386
279.50	28.992
279.87	30.670
280.23	29.677
280.60	29.435
280.97	28.283
281.34	26.346
281.71	31.006
282.08	30.266
282.45	27.593
282.82	26.834
283.19	29.014
283.56	27.746
283.92	27.514
284.29	27.692
284.66	30.233
285.03	27.505
285.40	30.246
285.77	28.120
286.14	26.715
286.51	30.443
286.87	25.046
287.24	26.888
287.61	24.339
287.98	28.947
288.35	28.250
288.72	27.671
289.08	26.910
289.45	28.647
289.82	26.049
290.19	24.744
290.56	25.901
290.93	26.599
291.29	23.112
291.66	25.197
292.03	24.083
292.40	24.194
292.77	24.083
293.13	21.916
293.50	23.369
293.87	23.511
294.24	23.802
294.60	23.845
294.97	23.065
295.34	22.239
295.71	22.951
296.08	22.571
296.44	20.199
296.81	22.778
297.18	22.029
297.55	23.848
297.91	22.192
298.28	22.559
298.65	21.303
299.02	21.024
299.38	18.057
299.75	21.517
300.12	20.419
300.48	20.553
300.85	19.265
301.22	19.351
301.59	20.263
301.95	20.380
302.32	22.438
302.69	19.652
303.05	20.792
303.42	20.174
303.79	21.846
304.15	20.430
304.52	18.668
304.89	19.415
305.25	18.644
305.62	18.320
305.99	19.415
306.35	19.538
306.72	19.010
307.09	18.472
307.45	19.862
307.82	18.750
308.19	19.512
308.55	18.103
308.92	20.153
309.29	18.324
309.65	17.976
310.02	19.142
310.38	18.880
310.75	20.328
311.12	19.160
311.48	18.982
311.85	20.524
312.22	17.827
312.58	19.108
312.95	17.823
313.31	17.909
313.68	17.906
314.05	18.367
314.41	18.557
314.78	17.629
315.14	18.808
315.51	19.255
315.87	18.238
316.24	19.818
316.61	17.913
316.97	18.651
317.34	17.578
317.70	18.834
318.07	17.212
318.43	16.569
318.80	18.655
319.16	19.824
319.53	18.613
319.89	18.110
320.26	18.826
320.62	18.957
320.99	16.806
321.35	17.677
321.72	18.899
322.08	18.127
322.45	18.274
322.81	18.271
323.18	16.781
323.54	17.181
323.91	17.722
324.27	18.066
324.64	19.007
325.00	18.613
325.37	19.651
325.73	18.042
326.10	19.255
326.46	19.283
326.83	18.898
327.19	18.309
327.56	19.722
327.92	17.606
328.29	17.500
328.65	17.642
329.01	17.463
329.38	18.249
329.74	17.280
330.11	18.072
330.47	16.976
330.84	17.885
331.20	18.631
331.56	15.926
331.93	17.078
332.29	18.698
332.66	18.100
333.02	17.193
333.38	16.499
333.75	19.048
334.11	16.831
334.48	18.586
334.84	18.132
335.20	17.749
335.57	16.591
335.93	16.712
336.29	17.311
336.66	16.167
337.02	17.193
337.38	16.389
337.75	17.545
338.11	16.501
338.47	17.701
338.84	17.283
339.20	17.093
339.56	17.339
339.93	17.905
340.29	17.064
340.65	18.100
341.02	16.135
341.38	16.814
341.74	16.343
342.11	15.858
342.47	17.616
342.83	17.647
343.20	15.070
343.56	16.435
343.92	17.803
344.28	17.165
344.65	15.803
345.01	16.076
345.37	16.821
345.73	17.741
346.10	16.566
346.46	18.251
346.82	16.858
347.19	15.794
347.55	17.627
347.91	18.042
348.27	17.381
348.63	16.525
349.00	16.161
349.36	16.126
349.72	17.413
350.08	16.475
350.45	16.441
350.81	16.694
351.17	16.531
351.53	17.224
351.89	16.102
352.26	15.840
352.62	16.371
352.98	16.386
353.34	15.539
353.70	16.505
354.07	16.532
354.43	16.413
354.79	14.616
355.15	16.349
355.51	16.851
355.87	16.586
356.24	15.824
356.60	15.360
356.96	16.825
357.32	16.853
357.68	16.341
358.04	16.882
358.40	15.193
358.77	17.384
359.13	16.894
359.49	16.179
359.85	16.693
360.21	15.949
360.57	15.685
360.93	16.263
361.29	15.030
361.66	15.987
362.02	15.985
362.38	15.918
362.74	15.670
363.10	16.328
363.46	16.457
363.82	16.905
364.18	15.129
364.54	15.662
364.90	16.057
365.26	16.812
365.62	16.642
365.98	15.103
366.35	16.460
366.71	15.743
367.07	15.675
367.43	15.528
367.79	15.477
368.15	15.937
368.51	15.732
368.87	15.793
369.23	15.668
369.59	15.452
369.95	16.129
370.31	16.185
370.67	15.224
371.03	15.534
371.39	15.682
371.75	15.092
372.11	15.692
372.47	15.385
372.83	15.401
373.19	15.763
373.55	15.235
373.91	15.767
374.27	15.592
374.63	15.147
374.99	15.603
375.35	15.877
375.71	16.713
376.07	15.730
376.42	15.986
376.78	16.980
377.14	16.181
377.50	15.272
377.86	15.261
378.22	15.444
378.58	15.449
378.94	15.312
379.30	14.910
379.66	16.238
380.02	15.021
380.38	15.338
380.74	14.782
381.09	16.196
381.45	15.229
381.81	16.039
382.17	15.292
382.53	15.990
382.89	15.317
383.25	15.868
383.61	16.707
383.97	15.111
384.32	14.884
384.68	15.913
385.04	15.074
385.40	16.428
385.76	16.792
386.12	16.106
386.48	16.475
386.83	16.233
387.19	16.606
387.55	16.562
387.91	17.543
388.27	16.606
388.62	16.362
388.98	17.004
389.34	17.801
389.70	17.216
390.06	15.356
390.42	16.839
390.77	16.874
391.13	15.763
391.49	15.977
391.85	16.114
392.20	17.075
392.56	15.957
392.92	16.207
393.28	16.038
393.64	16.036
393.99	17.367
394.35	16.003
394.71	17.880
395.07	16.405
395.42	15.908
395.78	17.003
396.14	17.087
396.50	17.502
396.85	17.386
397.21	18.421
397.57	15.987
397.92	17.555
398.28	17.069
398.64	15.964
399.00	17.551
399.35	16.366
399.71	17.117
400.07	17.715
400.42	16.891
400.78	18.065
401.14	17.725
401.49	17.749
401.85	17.367
402.21	17.530
402.57	16.500
402.92	15.997
403.28	17.481
403.63	17.907
403.99	16.518
404.35	18.176
404.70	16.964
405.06	17.509
405.42	17.589
405.77	16.909
406.13	16.938
406.49	17.348
406.84	17.665
407.20	17.520
407.55	16.484
407.91	16.845
408.27	16.316
408.62	18.400
408.98	17.252
409.34	17.472
409.69	16.667
410.05	17.057
410.40	18.148
410.76	17.370
411.11	17.188
411.47	17.817
411.83	17.326
412.18	18.082
412.54	17.166
412.89	16.502
413.25	17.509
413.60	17.391
413.96	17.117
414.31	17.988
414.67	17.447
415.03	17.177
415.38	17.232
415.74	18.046
416.09	18.681
416.45	17.083
416.80	17.713
417.16	17.749
417.51	17.722
417.87	17.340
418.22	17.876
418.58	16.990
418.93	16.928
419.29	17.606
419.64	17.693
420.00	17.821
420.35	17.433
420.71	17.983
421.06	17.311
421.42	18.389
421.77	17.861
422.12	17.764
422.48	17.380
422.83	18.039
423.19	17.777
423.54	17.460
423.90	17.609
424.25	18.255
424.61	18.299
424.96	16.899
425.31	18.660
425.67	18.075
426.02	18.257
426.38	18.284
426.73	18.584
427.09	18.038
427.44	18.000
427.79	17.973
428.15	18.568
428.50	17.383
428.85	17.568
429.21	18.223
429.56	18.005
429.92	19.106
430.27	17.995
430.62	17.407
430.98	17.887
431.33	18.927
431.68	17.844
432.04	16.993
432.39	18.483
432.74	17.619
433.10	18.793
433.45	18.160
433.80	18.456
434.16	17.839
434.51	18.280
434.86	18.815
435.22	18.564
435.57	17.592
435.92	18.503
436.28	17.949
436.63	18.311
436.98	17.961
437.34	18.270
437.69	18.843
438.04	17.493
438.39	17.410
438.75	17.911
439.10	17.827
439.45	17.712
439.81	17.492
440.16	18.705
440.51	18.746
440.86	18.973
441.22	17.590
441.57	18.874
441.92	18.468
442.27	18.293
442.63	19.272
442.98	18.725
443.33	18.086
443.68	17.931
444.03	19.275
444.39	19.085
444.74	18.395
445.09	19.098
445.44	18.462
445.79	19.185
446.15	18.833
446.50	18.968
446.85	18.757
447.20	18.717
447.55	18.917
447.91	18.500
448.26	19.010
448.61	18.423
448.96	19.392
449.31	18.266
449.66	18.467
450.02	18.711
450.37	19.087
450.72	17.640
451.07	18.987
451.42	18.727
451.77	18.807
452.12	18.122
452.47	18.223
452.83	18.433
453.18	18.786
453.53	18.078
453.88	18.397
454.23	18.132
454.58	18.640
454.93	19.265
455.28	18.349
455.63	18.723
455.98	19.844
456.34	18.646
456.69	19.568
457.04	19.156
457.39	18.894
457.74	18.863
458.09	17.893
458.44	17.671
458.79	18.992
459.14	18.822
459.49	18.627
459.84	19.120
460.19	18.507
460.54	19.804
460.89	18.920
461.24	18.820
461.59	18.884
461.94	18.113
462.29	19.240
462.64	19.402
462.99	18.077
463.34	19.541
463.69	18.919
464.04	19.855
464.39	18.739
464.74	18.834
465.09	19.089
465.44	18.811
465.79	18.764
466.14	19.270
466.49	18.574
466.84	18.917
467.19	19.149
467.54	18.519
467.89	18.699
468.24	19.221
468.59	19.429
468.94	19.175
469.29	18.689
469.64	19.959
469.99	19.061
470.34	18.703
470.68	20.209
471.03	19.108
471.38	18.688
471.73	19.048
472.08	18.182
472.43	18.121
472.78	18.300
473.13	18.639
473.48	18.436
473.83	18.493
474.17	19.689
474.52	18.379
474.87	17.879
475.22	18.853
475.57	17.843
475.92	18.705
476.27	18.917
476.61	18.866
476.96	18.126
477.31	19.037
477.66	19.045
478.01	19.034
478.36	18.301
478.70	19.195
479.05	20.165
479.40	19.290
479.75	18.509
480.10	19.252
480.45	18.450
480.79	18.731
481.14	19.775
481.49	18.276
481.84	18.533
482.19	18.335
482.53	18.801
482.88	18.616
483.23	18.138
483.58	18.585
483.92	18.151
484.27	17.867
484.62	18.557
484.97	18.615
485.31	18.353
485.66	18.270
486.01	18.916
486.36	18.828
486.70	18.955
487.05	18.964
487.40	18.899
487.75	18.535
488.09	18.480
488.44	18.776
488.79	18.640
489.13	18.790
489.48	18.769
489.83	18.520
490.17	18.697
490.52	18.476
490.87	18.232
491.22	18.577
491.56	18.548
491.91	17.973
492.26	18.474
492.60	19.098
492.95	19.134
493.30	18.222
493.64	18.811
493.99	18.647
494.34	18.495
494.68	18.619
495.03	18.200
495.37	18.891
495.72	18.576
496.07	19.024
496.41	18.915
496.76	18.425
497.11	18.770
497.45	19.523
497.80	18.819
498.14	18.977
498.49	18.385
498.84	18.713
499.18	18.675
499.53	19.196
499.87	18.580
500.22	18.595
500.56	18.406
500.91	18.424
501.26	18.339
501.60	18.839
501.95	18.292
502.29	18.692
502.64	18.871
502.98	18.796
503.33	18.732
503.67	18.795
504.02	18.377
504.36	19.396
504.71	18.485
505.06	18.520
505.40	18.782
505.75	19.021
506.09	18.145
506.44	18.891
506.78	19.082
507.13	18.821
507.47	18.433
507.82	18.002
508.16	19.282
508.51	19.203
508.85	18.629
509.19	17.829
509.54	18.713
509.88	18.393
510.23	18.827
510.57	19.294
510.92	17.804
511.26	17.894
511.61	19.032
511.95	19.123
512.30	18.847
512.64	18.865
512.98	18.192
513.33	18.858
513.67	18.818
514.02	19.451
514.36	19.714
514.70	19.639
515.05	18.566
515.39	19.303
515.74	18.862
516.08	19.546
516.42	19.317
516.77	19.193
517.11	19.644
517.46	19.749
517.80	18.892
518.14	18.861
518.49	18.930
518.83	19.563
519.17	18.739
519.52	18.413
519.86	18.848
520.20	19.806
520.55	18.512
520.89	19.009
521.23	18.809
521.58	18.991
521.92	18.974
522.26	20.039
522.61	18.766
522.95	20.265
523.29	19.187
523.64	19.250
523.98	19.378
524.32	19.265
524.66	20.038
525.01	20.130
525.35	19.896
525.69	18.384
526.04	18.452
526.38	19.585
526.72	18.705
527.06	19.196
527.41	18.997
527.75	18.499
528.09	19.070
528.43	19.986
528.78	18.944
529.12	19.032
529.46	19.233
529.80	19.633
530.15	20.198
530.49	18.586
530.83	18.878
531.17	18.939
531.51	20.315
531.86	19.986
532.20	18.580
532.54	19.129
532.88	20.192
533.22	19.220
533.57	19.266
533.91	18.473
534.25	19.922
534.59	19.436
534.93	18.880
535.27	18.591
535.62	18.924
535.96	20.222
536.30	20.119
536.64	19.642
536.98	19.582
537.32	18.777
537.66	19.776
538.01	19.930
538.35	20.111
538.69	19.108
539.03	17.567
539.37	19.112
539.71	18.950
540.05	20.163
540.39	20.429
540.73	19.247
541.07	19.959
541.42	20.027
541.76	19.546
542.10	19.752
542.44	19.666
542.78	18.100
543.12	19.162
543.46	20.306
543.80	20.125
544.14	18.024
544.48	19.320
544.82	19.207
545.16	19.672
545.50	19.826
545.84	19.263
546.18	20.355
546.52	19.755
546.86	18.763
547.20	19.742
547.54	17.385
547.88	19.769
548.22	18.606
548.56	19.855
548.90	21.092
549.24	19.972
549.58	18.759
549.92	18.871
550.26	19.121
550.60	19.108
550.94	19.343
551.28	20.325
551.62	20.231
551.96	19.624
552.30	18.860
552.64	18.900
552.98	18.776
553.32	19.187
553.66	19.086
554.00	19.343
554.34	19.867
554.68	19.322
555.02	20.015
555.36	18.399
555.69	18.901
556.03	18.701
556.37	19.502
556.71	18.917
557.05	19.239
557.39	18.736
557.73	18.816
558.07	20.362
558.41	18.913
558.75	20.655
559.08	19.937
559.42	18.413
559.76	20.737
560.10	19.190
560.44	18.987
560.78	18.741
561.12	20.099
561.45	20.520
561.79	19.888
562.13	19.021
562.47	19.137
562.81	19.957
563.15	20.804
563.48	19.873
563.82	19.149
564.16	19.429
564.50	19.595
564.84	20.281
565.17	18.645
565.51	19.536
565.85	19.204
566.19	19.629
566.52	19.705
566.86	19.794
567.20	19.116
567.54	19.100
567.88	19.215
568.21	19.796
568.55	18.750
568.89	19.559
569.23	19.596
569.56	19.658
569.90	19.813
570.24	18.608
570.57	19.200
570.91	19.136
571.25	18.678
571.59	18.810
571.92	18.874
572.26	18.841
572.60	18.822
572.93	18.450
573.27	18.652
573.61	18.646
573.95	19.061
574.28	18.909
574.62	18.612
574.96	18.898
575.29	18.879
575.63	18.088
575.97	18.271
576.30	18.808
576.64	17.960
576.98	18.713
577.31	18.481
577.65	18.899
577.98	19.125
578.32	18.540
578.66	18.289
578.99	18.297
579.33	18.636
579.67	18.471
580.00	18.835
580.34	18.358
580.67	18.620
581.01	18.900
581.35	18.411
581.68	18.855
582.02	18.462
582.35	18.626
582.69	18.679
583.02	18.436
583.36	18.429
583.70	18.951
584.03	19.099
584.37	19.085
584.70	18.269
585.04	18.161
585.37	18.501
585.71	18.415
586.04	18.961
586.38	18.378
586.72	19.053
587.05	18.862
587.39	19.206
587.72	18.917
588.06	18.959
588.39	18.884
588.73	18.803
589.06	19.341
589.40	18.804
589.73	18.583
590.07	19.411
590.40	18.653
590.73	19.028
591.07	18.830
591.40	19.190
591.74	19.186
592.07	18.553
592.41	19.125
592.74	18.200
593.08	18.687
593.41	18.847
593.75	18.220
594.08	18.229
594.41	18.741
594.75	18.817
595.08	18.804
595.42	19.617
595.75	18.588
596.09	19.234
596.42	18.975
596.75	18.517
597.09	18.861
597.42	18.970
597.75	19.148
598.09	18.968
598.42	18.366
598.76	18.619
599.09	18.950
599.42	18.947
599.76	18.548
600.09	18.854
600.42	18.613
600.76	18.685
601.09	18.702
601.42	18.801
601.76	18.738
602.09	18.729
602.42	19.292
602.76	19.312
603.09	19.518
603.42	19.649
603.76	18.750
604.09	18.996
604.42	18.866
604.76	18.558
605.09	19.013
605.42	19.278
605.75	18.695
606.09	19.066
606.42	18.474
606.75	18.615
607.09	19.165
607.42	18.166
607.75	18.872
608.08	18.688
608.42	19.278
608.75	18.940
609.08	18.435
609.41	19.188
609.75	19.153
610.08	18.672
610.41	18.744
610.74	17.991
611.07	18.915
611.41	18.838
611.74	18.817
612.07	19.272
612.40	18.818
612.73	18.249
613.07	18.110
613.40	19.530
613.73	18.802
614.06	19.087
614.39	18.331
614.72	18.936
615.06	18.101
615.39	18.504
615.72	17.330
616.05	18.603
616.38	17.607
616.71	19.327
617.05	18.530
617.38	18.730
617.71	18.742
618.04	19.746
618.37	19.042
618.70	19.208
619.03	19.514
619.36	18.452
619.69	18.878
620.03	19.430
620.36	19.528
620.69	19.058
621.02	18.654
621.35	19.004
621.68	18.793
622.01	18.833
622.34	18.356
622.67	19.085
623.00	18.377
623.33	18.750
623.66	19.147
623.99	19.667
624.32	19.240
624.65	18.797
624.99	19.789
625.32	19.105
625.65	20.660
625.98	19.581
626.31	18.869
626.64	19.237
626.97	19.895
627.30	19.177
627.63	19.671
627.96	18.598
628.29	18.779
628.62	18.781
628.95	20.341
629.28	19.657
629.61	19.541
629.94	20.821
630.26	18.577
630.59	19.563
630.92	20.000
631.25	18.359
631.58	20.264
631.91	18.202
632.24	19.839
632.57	20.114
632.90	18.861
633.23	19.765
633.56	18.262
633.89	20.962
634.22	18.642
634.55	19.187
634.88	19.285
635.20	19.359
635.53	20.667
635.86	19.376
636.19	20.052
636.52	19.133
636.85	19.851
637.18	18.365
637.51	18.868
637.83	18.791
638.16	19.918
638.49	18.937
638.82	20.658
639.15	17.232
639.48	19.807
639.81	17.992
640.13	20.924
640.46	20.262
640.79	17.673
641.12	19.498
641.45	20.721
641.77	19.704
642.10	19.431
642.43	19.775
642.76	20.792
643.09	19.709
643.41	17.638
643.74	20.264
644.07	21.182
644.40	19.595
644.73	20.490
645.05	20.302
645.38	18.166
645.71	17.199
646.04	21.903
646.36	18.262
646.69	21.403
647.02	17.769
647.35	19.963
647.67	19.927
648.00	19.776
648.33	22.014
648.66	20.339
648.98	17.588
649.31	19.174
649.64	19.466
649.96	16.207
650.29	20.273
650.62	19.658
650.94	20.000
651.27	17.691
651.60	18.919
651.92	19.755
652.25	17.940
652.58	18.833
652.90	21.612
653.23	17.983
653.56	18.274
653.88	19.244
654.21	17.513
654.54	19.015
654.86	19.864
655.19	18.567
655.52	19.814
655.84	18.507
656.17	20.531
656.49	27.711
656.82	29.003
657.15	22.408
657.47	16.660
657.80	12.193
658.13	11.988
658.45	18.102
658.78	18.254
659.10	17.144
659.43	17.215
659.75	17.267
660.08	17.448
660.41	17.058
660.73	19.061
661.06	20.277
661.38	16.634
661.71	17.659
662.03	18.884
662.36	21.319
662.68	19.248
663.01	18.341
663.33	18.561
663.66	20.930
663.98	19.535
664.31	19.829
664.63	17.972
664.96	16.957
665.28	17.219
665.61	20.130
665.93	17.609
666.26	20.390
666.58	16.107
666.91	19.059
667.23	20.755
667.56	20.616
667.88	18.225
668.21	20.048
668.53	20.331
668.86	21.934
669.18	14.151
669.50	16.465
669.83	18.372
670.15	20.280
670.48	16.746
670.80	17.281
671.13	19.239
671.45	16.895
671.77	20.386
672.10	18.020
672.42	18.914
672.75	19.893
673.07	21.825
673.39	21.101
673.72	16.174
674.04	17.292
674.37	19.492
674.69	18.201
675.01	18.889
675.34	18.468
675.66	19.676
675.98	17.960
676.31	18.807
676.63	19.477
676.95	20.455
677.28	20.471
677.60	20.000
677.92	18.578
678.25	20.350
678.57	16.667
678.89	20.168
679.22	17.673
679.54	17.068
679.86	15.706
680.18	18.447
680.51	18.561
680.83	16.103
681.15	17.600
681.48	19.262
681.80	21.694
682.12	18.548
682.44	16.527
682.77	15.673
683.09	18.535
683.41	16.591
683.73	16.129
684.06	19.912
684.38	17.204
684.70	19.826
685.02	16.805
685.34	16.996
685.67	18.762
685.99	18.626
686.31	18.230
686.63	15.955
686.96	17.490
687.28	14.747
687.60	17.490
687.92	21.010
688.24	18.952
688.56	18.559
688.89	17.634
689.21	20.667
689.53	17.633
689.85	16.744
690.17	17.411
690.49	17.494
690.82	19.903
691.14	17.857
691.46	18.224
691.78	18.468
692.10	16.774
692.42	16.017
692.74	22.222
693.06	13.739
693.39	16.742
693.71	16.516
694.03	16.859
694.35	16.589
694.67	17.677
694.99	19.060
695.31	19.582
695.63	20.500
695.95	18.434
696.27	18.912
696.59	20.278
696.91	17.927
697.23	16.710
697.56	16.832
697.88	22.366
698.20	20.501
698.52	20.000
698.84	16.986
699.16	16.750
699.48	20.551
699.80	18.114
700.12	18.598
700.44	16.246
700.76	16.570
701.08	19.091
701.40	19.880
701.72	20.062
702.04	18.482
702.36	17.057
702.68	18.919
703.00	14.848
703.32	14.956
703.64	14.407
703.96	19.710
704.28	20.859
704.60	17.778
704.91	13.565
705.23	16.279
705.55	20.495
705.87	19.134
706.19	16.296
706.51	17.526
706.83	18.971
707.15	16.199
707.47	15.126
707.79	14.583
708.11	19.500
708.43	18.250
708.74	18.346
709.06	18.310
709.38	19.878
709.70	19.231
710.02	18.790
710.34	19.195
710.66	15.385
710.98	13.907
711.29	21.311
711.61	20.339
711.93	23.779
712.25	21.993
712.57	21.612
712.89	19.030
713.20	16.263
713.52	20.906
713.84	15.358
714.16	17.526
714.48	18.710
714.80	20.513
715.11	17.021
715.43	16.301
715.75	16.000
716.07	16.944
716.39	19.799
716.70	14.391
717.02	18.321
717.34	17.409
717.66	15.487
717.97	18.696
718.29	17.573
718.61	21.654
718.93	17.829
719.24	19.011
719.56	20.080
719.88	18.557
720.20	15.152
720.51	18.391
720.83	20.463
721.15	15.966
721.46	18.548
721.78	18.182
722.10	14.498
722.42	14.108
722.73	15.918
723.05	19.184
723.37	25.847
723.68	22.523
724.00	16.667
724.32	13.333
724.63	14.545
724.95	19.214
725.27	20.276
725.58	19.068
725.90	15.079
726.22	18.919
726.53	21.356
726.85	20.225
727.16	21.132
727.48	14.980
727.80	19.838
728.11	17.797
728.43	16.471
728.74	10.887
729.06	19.600
729.38	23.684
729.69	15.936
730.01	17.692
730.32	19.403
730.64	18.728
730.96	18.491
731.27	17.667
731.59	19.661
731.90	19.108
732.22	18.612
732.53	21.595
732.85	21.986
733.16	20.202
733.48	15.827
733.80	14.855
734.11	17.627
734.43	18.213
734.74	17.273
735.06	13.681
735.37	21.148
735.69	18.855
736.00	17.770
736.32	13.758
736.63	15.141
736.95	18.771
737.26	14.235
737.58	17.450
737.89	15.018
738.21	18.045
738.52	20.988
738.83	16.157
739.15	16.594
739.46	15.354
739.78	16.850
740.09	18.627
740.41	20.652
740.72	15.354
741.04	17.814
741.35	21.277
741.66	18.483
741.98	16.327
742.29	18.317
742.61	18.848
742.92	9.953
743.23	12.500
743.55	20.814
743.86	20.096
744.18	16.268
744.49	13.298
744.80	15.217
745.12	22.460
745.43	15.122
745.74	24.479
746.06	15.610
746.37	18.325
746.68	17.536
747.00	15.426
747.31	25.871
747.62	13.107
747.94	16.746
748.25	15.842
748.56	15.847
748.88	19.895
749.19	21.809
749.50	22.660
749.82	8.019
750.13	13.303
750.44	21.429
750.75	20.522
751.07	21.898
751.38	15.709
751.69	16.471
752.01	23.256
752.32	18.327
752.63	13.043
752.94	18.966
753.26	26.778
753.57	20.362
753.88	15.929
754.19	17.917
754.51	12.397
754.82	16.194
755.13	20.417
755.44	19.758
755.75	17.969
756.07	16.342
756.38	12.453
756.69	15.326
757.00	20.333
757.31	16.667
757.63	15.854
757.94	16.944
758.25	17.534
758.56	15.426
758.87	17.847
759.18	18.692
759.50	16.364
759.81	18.395
760.12	14.839
760.43	16.364
760.74	19.136
761.05	17.231
761.36	19.886
761.67	22.424
761.99	20.068
762.30	11.636
762.61	20.553
762.92	20.814
763.23	18.018
763.54	9.813
763.85	14.407
764.16	19.917
764.47	14.919
764.78	17.216
765.10	19.529
765.41	18.927
765.72	16.508
766.03	16.917
766.34	18.613
766.65	21.514
766.96	15.152
767.27	16.489
767.58	15.517
767.89	11.348
768.20	11.932
768.51	15.934
768.82	15.764
769.13	8.756
769.44	10.300
769.75	11.416
770.06	20.259
770.37	15.865
770.68	15.228
770.99	16.742
771.30	20.098
771.61	13.122
771.92	15.948
772.23	24.138
772.54	17.742
772.85	17.901
773.16	21.348
773.47	22.222
773.78	15.686
774.09	11.377
774.39	19.333
774.70	20.382
775.01	20.000
775.32	19.286
775.63	11.570
775.94	11.450
776.25	13.386
776.56	5.833
776.87	8.654
777.18	11.966
777.48	19.828
777.79	2.609
778.10	4.762
778.41	16.216
778.72	19.841
779.03	16.541
779.34	10.638
779.65	10.274
779.95	17.123
780.26	17.931
780.57	10.569
780.88	14.961
781.19	17.241
781.50	17.054
781.80	15.976
782.11	10.063
782.42	25.385
782.73	12.950
783.04	11.852
783.34	22.222
783.65	2.564
783.96	16.393
784.27	17.241
784.57	9.756
784.88	22.656
785.19	25.000
785.50	24.000
785.81	19.828
786.11	10.345
786.42	0.971
786.73	24.545
787.04	8.163
787.34	19.643
787.65	20.952
787.96	12.389
788.26	14.545
788.57	21.368
788.88	19.531
789.19	17.460
789.49	9.565
789.80	12.245
790.11	17.172
790.41	9.091
790.72	16.304
791.03	21.591
791.33	26.250
791.64	12.500
791.95	4.651
792.25	7.447
792.56	20.225
792.87	9.589
793.17	15.942
793.48	-2.667
793.79	20.000
794.09	18.750
794.40	16.981
794.70	5.825
795.01	11.382
795.32	15.385
795.62	13.333
795.93	18.627
796.23	18.868
796.54	20.833
796.85	10.294
797.15	19.718
797.46	31.944
797.76	15.152
798.07	2.326
798.37	17.105
798.68	3.030
798.99	12.346
799.29	4.286
799.60	11.594
799.90	17.333
800.21	26.230
800.51	10.769
800.82	11.864
801.12	27.536
801.43	8.197
801.73	17.460
802.04	18.000
802.34	8.955
802.65	19.231
802.95	16.071
803.26	9.615
803.56	7.843
803.87	13.043
804.17	25.333
804.48	12.698
804.78	9.259
805.09	-4.348
805.39	11.111
805.70	20.370
806.00	5.263
806.30	12.676
806.61	14.286
806.91	-9.722
807.22	17.105
807.52	16.000
807.83	3.636
808.13	20.833
808.43	23.529
808.74	10.448
809.04	0.000
809.35	9.615
809.65	7.813
809.95	-10.811
810.26	13.636
810.56	19.178
810.86	7.143
811.17	2.000
811.47	26.531
811.77	-21.053
812.08	11.364
812.38	9.434
812.69	12.500
812.99	-9.091
813.29	13.158
813.59	-5.714
813.90	15.909
814.20	-17.949
814.50	1.923
814.81	7.547
815.11	2.128
815.41	18.644
815.72	0.000
816.02	19.608
816.32	8.333
816.62	0.000
816.93	2.703
817.23	8.571
817.53	16.667
817.84	-13.043
818.14	0.000
818.44	-15.789
818.74	19.565
819.04	-20.000
819.35	24.324
819.65	2.941
819.95	13.889
820.25	4.762
820.56	45.000
820.86	-44.828
821.16	25.000
821.46	0.000
821.76	17.500
822.07	9.302
822.37	-10.811
822.67	3.125
822.97	21.429
823.27	-10.714
823.57	-28.000
823.88	-18.519
824.18	10.714
824.48	26.471
824.78	25.806
825.08	26.087
825.38	-6.061
825.69	-12.500
825.99	36.842
826.29	16.667
826.59	-20.000
826.89	-57.143
827.19	-4.348
827.49	25.000
827.79	17.143
828.09	14.286
828.39	-3.030
828.70	37.838
829.00	7.143
829.30	-38.095
829.60	6.667
829.90	-9.375
830.20	13.158
830.50	7.407
830.80	-21.739
831.10	27.273
831.40	33.333
831.70	9.677
832.00	0.000
832.30	-23.810
832.60	-91.667
832.90	-3.448
833.20	25.000
833.50	24.242
833.80	-7.407
834.10	7.692
834.40	21.875
834.70	-77.778
835.00	26.316
835.30	15.385
835.60	6.667
835.90	19.355
836.20	40.909
836.50	21.429
836.80	-46.154
837.10	0.000
837.40	200.000
837.70	13.636
838.00	-90.909
838.30	13.043
838.60	-30.769
838.90	22.727
839.19	14.286
839.49	16.667
839.79	-46.154
840.09	-66.667
840.39	78.571
840.69	-10.714
840.99	-11.538
841.29	-21.053
841.59	-40.000
841.88	-9.091
842.18	20.000
842.48	12.500
842.78	-6.667
843.08	-3.704
843.38	-100.000
843.68	30.435
843.97	-26.667
844.27	-46.667
844.57	5.000
844.87	27.778
845.17	-19.048
845.47	0.000
845.76	-33.333
846.06	-23.529
846.36	-40.000
846.66	50.000
846.96	-6.667
847.25	-262.500
847.55	7.143
847.85	-12.500
848.15	-27.273
848.44	-233.333
848.74	45.000
849.04	7.407
849.34	-154.545
849.63	-200.000
849.93	-360.000
850.23	-5.556
850.53	80.000
850.82	53.846
851.12	55.556
851.42	40.000
851.71	3.846
852.01	14.286
852.31	-400.000
852.61	0.000
852.90	10.000
853.20	57.895
853.50	8.333
853.79	-21.739
854.09	33.333
854.39	47.368
854.68	-25.000
854.98	9.677
855.28	19.231
855.57	5.000
855.87	50.000
856.17	40.741
856.46	-50.000
856.76	40.000
857.05	44.444
857.35	20.000
857.65	16.667
857.94	-61.538
858.24	55.172
858.53	22.222
858.83	44.444
859.13	18.182
859.42	-4.348
859.72	-100.000
860.01	-200.000
860.31	16.000
860.60	0.000
860.90	-400.000
861.20	-40.000
861.49	-450.000
861.79	-13.333
862.08	-10.000
862.38	73.333
862.67	-40.000
862.97	-33.333
863.26	0.000
863.56	5.556
863.85	-333.333
864.15	-16.667
864.44	20.000
864.74	35.714
865.03	250.000
865.33	-120.000
865.62	0.000
865.92	8.333
866.21	-266.667
866.51	25.000
866.80	-145.455
867.10	50.000
867.39	0.000
867.69	0.000
867.98	15.385
868.27	-66.667
868.57	-13.333
868.86	27.778
869.16	-38.462
869.45	80.000
869.75	-800.000
870.04	0.000
870.33	0.000
870.63	4.762
870.92	433.333
871.22	-120.000
871.51	-600.000
871.80	77.778
872.10	166.667
>>>>>End Processed Spectral Data<<<<<
