SpectraSuite Data File
++++++++++++++++++++++++++++++++++++
Date: Fri May 15 20:14:27 PDT 2015
User: schluterlab
Dark Spectrum Present: Yes
Reference Spectrum Present: Yes
Number of Sampled Component Spectra: 1
Spectrometers: USB2E3373
Integration Time (usec): 3000 (USB2E3373)
Spectra Averaged: 3 (USB2E3373)
Boxcar Smoothing: 0 (USB2E3373)
Correct for Electrical Dark: No (USB2E3373)
Strobe/Lamp Enabled: No (USB2E3373)
Correct for Detector Non-linearity: No (USB2E3373)
Correct for Stray Light: No (USB2E3373)
Number of Pixels in Processed Spectrum: 2048
>>>>>Begin Processed Spectral Data<<<<<
178.53	0.000
178.91	0.000
179.29	62.500
179.67	-200.000
180.04	-57.143
180.42	125.000
180.80	0.000
181.18	-100.000
181.56	50.000
181.94	350.000
182.31	600.000
182.69	100.000
183.07	-166.667
183.45	-60.000
183.83	83.333
184.20	9.091
184.58	11.111
184.96	50.000
185.34	333.333
185.72	150.000
186.09	76.923
186.47	-400.000
186.85	33.333
187.23	55.556
187.61	-100.000
187.98	66.667
188.36	100.000
188.74	-333.333
189.12	11.765
189.49	44.444
189.87	0.000
190.25	50.000
190.63	-100.000
191.00	133.333
191.38	52.632
191.76	350.000
192.14	-200.000
192.51	500.000
192.89	-77.778
193.27	0.000
193.65	100.000
194.02	127.273
194.40	20.000
194.78	-50.000
195.15	16.667
195.53	-75.000
195.91	125.000
196.29	25.000
196.66	38.462
197.04	100.000
197.42	-66.667
197.79	-466.667
198.17	-84.615
198.55	500.000
198.92	333.333
199.30	-500.000
199.68	60.000
200.05	-333.333
200.43	0.000
200.81	266.667
201.18	-100.000
201.56	1400.000
201.94	400.000
202.31	166.667
202.69	-180.000
203.07	325.000
203.44	200.000
203.82	0.000
204.19	64.286
204.57	-166.667
204.95	-0.000
205.32	110.000
205.70	28.571
206.08	225.000
206.45	166.667
206.83	114.286
207.20	0.000
207.58	-100.000
207.96	100.000
208.33	-90.000
208.71	0.000
209.08	-100.000
209.46	100.000
209.84	-100.000
210.21	-700.000
210.59	100.000
210.96	16.667
211.34	125.000
211.71	60.000
212.09	28.571
212.46	-100.000
212.84	0.000
213.22	150.000
213.59	350.000
213.97	46.154
214.34	18.182
214.72	-116.667
215.09	200.000
215.47	107.692
215.84	-36.364
216.22	33.333
216.59	87.500
216.97	350.000
217.34	75.000
217.72	-220.000
218.09	150.000
218.47	137.500
218.84	-500.000
219.22	11.111
219.59	-180.000
219.97	100.000
220.34	150.000
220.72	28.571
221.09	-100.000
221.47	250.000
221.84	-200.000
222.22	-350.000
222.59	45.455
222.97	33.333
223.34	-166.667
223.72	-92.857
224.09	0.000
224.46	25.000
224.84	166.667
225.21	60.000
225.59	-6.667
225.96	-200.000
226.34	100.000
226.71	-42.857
227.08	-83.333
227.46	-87.500
227.83	-250.000
228.21	11.111
228.58	18.182
228.95	37.500
229.33	20.000
229.70	31.250
230.08	50.000
230.45	-100.000
230.82	28.571
231.20	-6.667
231.57	28.571
231.95	-57.143
232.32	-90.000
232.69	71.429
233.07	166.667
233.44	-40.000
233.81	-80.000
234.19	11.111
234.56	29.412
234.93	-50.000
235.31	0.000
235.68	-100.000
236.05	46.154
236.43	-5.000
236.80	35.294
237.17	40.625
237.55	0.000
237.92	11.111
238.29	25.000
238.67	16.667
239.04	14.706
239.41	-17.073
239.79	-16.667
240.16	17.073
240.53	0.000
240.91	13.043
241.28	30.159
241.65	32.143
242.02	31.507
242.40	-5.000
242.77	18.644
243.14	-4.545
243.51	27.500
243.89	21.839
244.26	14.943
244.63	4.762
245.00	20.619
245.38	23.711
245.75	14.607
246.12	10.345
246.49	19.835
246.87	17.308
247.24	9.244
247.61	14.912
247.98	18.699
248.36	7.500
248.73	13.816
249.10	16.883
249.47	8.861
249.84	17.647
250.22	8.824
250.59	13.072
250.96	16.901
251.33	16.279
251.70	14.706
252.08	16.244
252.45	9.406
252.82	12.060
253.19	19.355
253.56	5.140
253.94	16.667
254.31	18.261
254.68	18.421
255.05	14.173
255.42	16.594
255.79	15.830
256.16	13.230
256.54	17.910
256.91	11.407
257.28	13.383
257.65	10.112
258.02	12.057
258.39	18.519
258.76	17.216
259.14	14.618
259.51	12.945
259.88	12.715
260.25	14.706
260.62	13.889
260.99	14.237
261.36	13.356
261.73	16.456
262.10	17.021
262.47	17.485
262.85	13.166
263.22	16.308
263.59	14.642
263.96	15.528
264.33	14.242
264.70	14.286
265.07	16.369
265.44	16.147
265.81	13.842
266.18	12.842
266.55	14.396
266.92	12.953
267.29	13.838
267.66	14.322
268.03	13.613
268.40	14.099
268.77	13.636
269.14	16.787
269.51	14.910
269.88	12.718
270.25	12.755
270.62	11.463
270.99	12.276
271.36	13.936
271.73	15.258
272.10	12.409
272.47	13.475
272.84	13.366
273.21	14.849
273.58	13.494
273.95	15.103
274.32	12.009
274.69	11.086
275.06	12.723
275.43	12.925
275.80	12.362
276.17	14.023
276.54	13.062
276.91	13.377
277.28	12.009
277.65	15.496
278.02	13.617
278.39	13.786
278.76	12.998
279.13	9.751
279.50	14.706
279.87	16.415
280.23	12.043
280.60	16.374
280.97	13.737
281.34	10.962
281.71	15.606
282.08	13.088
282.45	12.329
282.82	11.969
283.19	12.766
283.56	13.102
283.92	12.334
284.29	11.923
284.66	13.566
285.03	12.377
285.40	11.909
285.77	13.357
286.14	13.177
286.51	14.022
286.87	10.969
287.24	10.497
287.61	12.346
287.98	13.333
288.35	10.745
288.72	12.609
289.08	12.674
289.45	13.884
289.82	12.238
290.19	12.457
290.56	11.321
290.93	12.121
291.29	11.094
291.66	13.543
292.03	12.121
292.40	12.258
292.77	10.686
293.13	8.117
293.50	10.319
293.87	10.992
294.24	12.365
294.60	12.817
294.97	10.863
295.34	10.583
295.71	12.072
296.08	10.912
296.44	7.824
296.81	10.972
297.18	10.870
297.55	12.060
297.91	9.863
298.28	11.873
298.65	10.855
299.02	10.782
299.38	9.166
299.75	9.655
300.12	10.079
300.48	9.223
300.85	10.266
301.22	10.909
301.59	10.132
301.95	10.886
302.32	11.284
302.69	10.821
303.05	9.530
303.42	11.582
303.79	11.332
304.15	11.350
304.52	9.156
304.89	10.409
305.25	10.048
305.62	9.335
305.99	9.708
306.35	10.058
306.72	9.111
307.09	8.210
307.45	10.907
307.82	9.722
308.19	10.918
308.55	10.687
308.92	11.547
309.29	9.832
309.65	12.056
310.02	10.891
310.38	10.318
310.75	12.678
311.12	12.379
311.48	11.029
311.85	12.042
312.22	9.705
312.58	11.253
312.95	11.419
313.31	11.180
313.68	10.681
314.05	11.531
314.41	11.134
314.78	11.443
315.14	12.436
315.51	13.458
315.87	11.988
316.24	14.358
316.61	13.189
316.97	14.583
317.34	13.281
317.70	14.627
318.07	13.365
318.43	13.725
318.80	14.110
319.16	16.016
319.53	15.195
319.89	14.961
320.26	14.372
320.62	16.449
320.99	13.779
321.35	17.061
321.72	15.784
322.08	17.221
322.45	17.360
322.81	16.012
323.18	17.468
323.54	19.112
323.91	17.235
324.27	18.945
324.64	18.258
325.00	19.891
325.37	21.488
325.73	19.039
326.10	20.527
326.46	20.538
326.83	21.347
327.19	20.924
327.56	21.981
327.92	23.856
328.29	23.036
328.65	23.302
329.01	22.702
329.38	25.069
329.74	23.324
330.11	24.004
330.47	23.933
330.84	23.942
331.20	27.186
331.56	25.648
331.93	26.575
332.29	27.039
332.66	25.520
333.02	26.673
333.38	25.573
333.75	28.663
334.11	26.500
334.48	27.471
334.84	28.388
335.20	27.813
335.57	26.564
335.93	28.094
336.29	28.821
336.66	28.338
337.02	28.067
337.38	28.241
337.75	29.273
338.11	28.945
338.47	29.288
338.84	29.482
339.20	28.885
339.56	30.367
339.93	29.722
340.29	29.174
340.65	30.376
341.02	29.255
341.38	29.115
341.74	28.710
342.11	28.423
342.47	29.004
342.83	29.239
343.20	29.704
343.56	29.478
343.92	30.204
344.28	29.547
344.65	30.225
345.01	29.127
345.37	29.521
345.73	30.126
346.10	29.681
346.46	29.184
346.82	28.969
347.19	28.263
347.55	29.908
347.91	29.369
348.27	29.830
348.63	29.472
349.00	28.958
349.36	29.925
349.72	30.431
350.08	29.016
350.45	30.487
350.81	29.236
351.17	30.537
351.53	30.204
351.89	29.232
352.26	29.040
352.62	29.516
352.98	30.281
353.34	29.549
353.70	31.311
354.07	29.194
354.43	30.184
354.79	29.810
355.15	30.556
355.51	31.804
355.87	30.340
356.24	29.364
356.60	30.962
356.96	30.000
357.32	30.911
357.68	30.023
358.04	30.048
358.40	30.386
358.77	31.818
359.13	32.346
359.49	28.968
359.85	29.875
360.21	31.100
360.57	29.304
360.93	30.862
361.29	30.363
361.66	32.053
362.02	32.121
362.38	31.607
362.74	31.870
363.10	32.129
363.46	31.875
363.82	32.908
364.18	31.808
364.54	32.647
364.90	32.043
365.26	32.533
365.62	33.212
365.98	33.944
366.35	33.430
366.71	34.294
367.07	33.817
367.43	32.710
367.79	32.650
368.15	33.453
368.51	32.265
368.87	33.238
369.23	32.924
369.59	33.455
369.95	34.311
370.31	34.032
370.67	34.925
371.03	34.205
371.39	33.187
371.75	34.725
372.11	34.522
372.47	35.651
372.83	34.564
373.19	35.449
373.55	34.079
373.91	34.125
374.27	35.294
374.63	36.253
374.99	35.461
375.35	36.421
375.71	35.804
376.07	35.183
376.42	37.007
376.78	38.322
377.14	36.425
377.50	37.052
377.86	36.680
378.22	36.375
378.58	37.564
378.94	37.555
379.30	38.054
379.66	38.119
380.02	37.952
380.38	37.979
380.74	37.882
381.09	39.080
381.45	39.511
381.81	39.605
382.17	38.896
382.53	39.225
382.89	39.925
383.25	40.510
383.61	40.244
383.97	40.762
384.32	39.587
384.68	40.433
385.04	39.890
385.40	40.510
385.76	42.830
386.12	41.785
386.48	42.018
386.83	41.218
387.19	41.758
387.55	42.158
387.91	41.809
388.27	40.598
388.62	41.787
388.98	41.314
389.34	43.098
389.70	44.002
390.06	41.095
390.42	42.552
390.77	43.427
391.13	43.506
391.49	44.890
391.85	44.250
392.20	42.122
392.56	45.073
392.92	44.392
393.28	44.811
393.64	44.625
393.99	44.890
394.35	43.896
394.71	44.508
395.07	44.123
395.42	44.809
395.78	45.016
396.14	44.325
396.50	44.769
396.85	44.495
397.21	45.927
397.57	44.577
397.92	45.177
398.28	44.943
398.64	44.337
399.00	45.711
399.35	45.316
399.71	44.917
400.07	45.828
400.42	45.410
400.78	46.234
401.14	45.735
401.49	46.516
401.85	46.496
402.21	46.386
402.57	45.812
402.92	44.981
403.28	47.995
403.63	47.478
403.99	46.747
404.35	47.158
404.70	45.060
405.06	46.181
405.42	46.613
405.77	46.659
406.13	45.809
406.49	46.181
406.84	46.638
407.20	46.418
407.55	47.070
407.91	46.190
408.27	46.909
408.62	48.062
408.98	46.026
409.34	47.708
409.69	46.576
410.05	46.798
410.40	46.667
410.76	47.165
411.11	46.750
411.47	47.929
411.83	48.023
412.18	49.228
412.54	47.066
412.89	47.229
413.25	48.496
413.60	48.634
413.96	46.564
414.31	47.988
414.67	47.402
415.03	47.204
415.38	47.454
415.74	47.296
416.09	49.249
416.45	49.426
416.80	47.984
417.16	49.309
417.51	49.567
417.87	47.849
418.22	49.028
418.58	49.498
418.93	48.652
419.29	47.247
419.64	48.347
420.00	50.000
420.35	47.821
420.71	49.939
421.06	49.662
421.42	49.399
421.77	49.711
422.12	48.581
422.48	49.377
422.83	50.638
423.19	49.041
423.54	49.500
423.90	49.882
424.25	50.172
424.61	50.918
424.96	50.348
425.31	51.358
425.67	50.763
426.02	50.589
426.38	52.912
426.73	51.755
427.09	52.975
427.44	50.941
427.79	51.267
428.15	51.699
428.50	52.090
428.85	50.430
429.21	51.896
429.56	52.399
429.92	50.128
430.27	50.526
430.62	51.072
430.98	51.539
431.33	51.420
431.68	50.706
432.04	52.376
432.39	51.854
432.74	51.413
433.10	52.816
433.45	52.509
433.80	51.654
434.16	51.856
434.51	52.742
434.86	52.904
435.22	53.169
435.57	53.213
435.92	52.216
436.28	51.759
436.63	52.025
436.98	52.433
437.34	52.753
437.69	53.846
438.04	53.219
438.39	53.146
438.75	54.220
439.10	52.349
439.45	53.743
439.81	53.089
440.16	54.632
440.51	53.433
440.86	54.018
441.22	52.715
441.57	53.256
441.92	54.092
442.27	54.878
442.63	53.854
442.98	54.222
443.33	53.478
443.68	53.263
444.03	53.502
444.39	53.025
444.74	54.571
445.09	54.733
445.44	53.903
445.79	55.028
446.15	53.524
446.50	54.077
446.85	54.357
447.20	54.067
447.55	53.850
447.91	53.638
448.26	54.126
448.61	54.692
448.96	55.536
449.31	54.913
449.66	52.787
450.02	54.991
450.37	55.305
450.72	54.410
451.07	55.759
451.42	54.432
451.77	54.973
452.12	54.366
452.47	54.218
452.83	54.417
453.18	53.510
453.53	55.879
453.88	55.070
454.23	54.395
454.58	55.416
454.93	55.477
455.28	53.587
455.63	54.991
455.98	55.262
456.34	54.534
456.69	56.226
457.04	55.640
457.39	55.103
457.74	54.172
458.09	54.679
458.44	54.769
458.79	53.445
459.14	54.863
459.49	54.388
459.84	53.807
460.19	55.522
460.54	55.379
460.89	55.966
461.24	54.410
461.59	54.276
461.94	53.522
462.29	55.609
462.64	56.545
462.99	56.398
463.34	55.146
463.69	54.376
464.04	54.782
464.39	54.882
464.74	54.847
465.09	55.708
465.44	56.203
465.79	54.365
466.14	56.100
466.49	54.399
466.84	55.205
467.19	55.945
467.54	55.109
467.89	55.085
468.24	54.136
468.59	55.302
468.94	55.238
469.29	55.869
469.64	55.776
469.99	57.603
470.34	55.904
470.68	55.928
471.03	56.476
471.38	55.991
471.73	56.513
472.08	56.242
472.43	56.510
472.78	55.243
473.13	56.531
473.48	54.723
473.83	54.110
474.17	55.829
474.52	56.222
474.87	57.394
475.22	56.437
475.57	54.771
475.92	57.104
476.27	56.228
476.61	57.350
476.96	54.992
477.31	57.004
477.66	55.618
478.01	55.924
478.36	55.120
478.70	57.259
479.05	56.758
479.40	56.969
479.75	55.266
480.10	56.170
480.45	56.900
480.79	56.898
481.14	56.865
481.49	55.911
481.84	56.274
482.19	55.940
482.53	56.355
482.88	55.227
483.23	55.134
483.58	55.519
483.92	55.082
484.27	55.925
484.62	55.849
484.97	55.307
485.31	54.624
485.66	53.681
486.01	52.917
486.36	52.112
486.70	52.847
487.05	54.210
487.40	53.619
487.75	53.690
488.09	54.883
488.44	55.640
488.79	55.659
489.13	56.290
489.48	56.691
489.83	56.143
490.17	55.551
490.52	56.490
490.87	55.345
491.22	56.638
491.56	56.499
491.91	54.924
492.26	57.414
492.60	55.950
492.95	58.288
493.30	56.180
493.64	58.497
493.99	55.942
494.34	56.602
494.68	55.762
495.03	56.010
495.37	56.428
495.72	55.881
496.07	57.122
496.41	56.981
496.76	57.347
497.11	56.497
497.45	57.327
497.80	57.619
498.14	56.185
498.49	57.136
498.84	56.287
499.18	57.028
499.53	56.448
499.87	56.712
500.22	56.825
500.56	56.127
500.91	57.982
501.26	56.698
501.60	57.452
501.95	57.739
502.29	57.337
502.64	56.805
502.98	58.313
503.33	56.292
503.67	57.060
504.02	57.185
504.36	58.882
504.71	57.020
505.06	56.970
505.40	57.970
505.75	58.711
506.09	56.918
506.44	58.932
506.78	58.929
507.13	58.532
507.47	58.068
507.82	58.814
508.16	59.799
508.51	59.444
508.85	59.341
509.19	59.500
509.54	59.249
509.88	59.331
510.23	58.956
510.57	60.075
510.92	58.156
511.26	58.320
511.61	60.011
511.95	59.616
512.30	59.479
512.64	60.378
512.98	60.359
513.33	59.821
513.67	59.352
514.02	61.613
514.36	60.400
514.70	62.646
515.05	61.398
515.39	60.685
515.74	61.976
516.08	61.984
516.42	61.131
516.77	62.844
517.11	63.383
517.46	63.615
517.80	62.813
518.14	62.584
518.49	62.079
518.83	62.272
519.17	60.946
519.52	62.049
519.86	62.965
520.20	62.819
520.55	62.852
520.89	63.174
521.23	64.091
521.58	63.407
521.92	64.103
522.26	64.736
522.61	64.675
522.95	65.497
523.29	62.897
523.64	62.643
523.98	64.355
524.32	64.433
524.66	63.444
525.01	64.740
525.35	65.068
525.69	64.175
526.04	66.204
526.38	67.056
526.72	63.898
527.06	63.813
527.41	65.963
527.75	64.008
528.09	65.050
528.43	65.766
528.78	65.479
529.12	64.903
529.46	67.251
529.80	63.395
530.15	66.139
530.49	65.185
530.83	66.416
531.17	64.070
531.51	67.168
531.86	65.398
532.20	66.597
532.54	65.555
532.88	66.051
533.22	65.591
533.57	64.613
533.91	64.752
534.25	66.341
534.59	65.234
534.93	64.317
535.27	64.657
535.62	63.772
535.96	64.710
536.30	66.557
536.64	67.402
536.98	65.017
537.32	67.923
537.66	66.199
538.01	67.902
538.35	65.742
538.69	64.980
539.03	64.593
539.37	64.670
539.71	65.917
540.05	64.494
540.39	67.244
540.73	67.573
541.07	67.265
541.42	66.734
541.76	66.277
542.10	66.827
542.44	67.130
542.78	64.900
543.12	65.316
543.46	65.508
543.80	65.926
544.14	64.619
544.48	65.490
544.82	66.234
545.16	66.803
545.50	65.354
545.84	65.581
546.18	66.454
546.52	65.753
546.86	66.786
547.20	67.668
547.54	64.876
547.88	66.916
548.22	65.812
548.56	65.501
548.90	65.903
549.24	65.014
549.58	64.739
549.92	66.047
550.26	66.886
550.60	67.138
550.94	67.886
551.28	67.852
551.62	68.077
551.96	68.496
552.30	67.544
552.64	67.278
552.98	66.807
553.32	67.332
553.66	67.562
554.00	67.956
554.34	68.021
554.68	67.183
555.02	69.048
555.36	67.464
555.69	66.740
556.03	66.738
556.37	66.121
556.71	66.643
557.05	68.084
557.39	65.948
557.73	67.316
558.07	69.155
558.41	68.606
558.75	67.810
559.08	70.134
559.42	68.968
559.76	70.216
560.10	68.272
560.44	68.727
560.78	66.923
561.12	66.855
561.45	69.150
561.79	67.227
562.13	66.785
562.47	68.273
562.81	68.732
563.15	67.701
563.48	68.883
563.82	68.703
564.16	69.499
564.50	66.014
564.84	67.403
565.17	66.868
565.51	69.262
565.85	68.999
566.19	67.241
566.52	68.029
566.86	67.995
567.20	67.123
567.54	67.032
567.88	68.073
568.21	67.647
568.55	66.087
568.89	66.478
569.23	64.324
569.56	65.193
569.90	63.662
570.24	61.965
570.57	65.091
570.91	63.994
571.25	62.282
571.59	61.445
571.92	60.563
572.26	61.322
572.60	61.829
572.93	62.065
573.27	62.069
573.61	61.844
573.95	61.606
574.28	60.487
574.62	60.361
574.96	60.334
575.29	59.793
575.63	59.860
575.97	59.772
576.30	61.006
576.64	60.265
576.98	60.824
577.31	60.629
577.65	60.275
577.98	60.714
578.32	59.958
578.66	59.016
578.99	59.148
579.33	60.055
579.67	60.131
580.00	60.051
580.34	60.821
580.67	60.559
581.01	60.447
581.35	60.228
581.68	59.693
582.02	59.662
582.35	59.387
582.69	60.168
583.02	60.073
583.36	61.604
583.70	61.475
584.03	62.552
584.37	63.298
584.70	61.126
585.04	60.440
585.37	60.835
585.71	60.652
586.04	61.372
586.38	60.736
586.72	60.775
587.05	62.103
587.39	61.560
587.72	62.110
588.06	61.971
588.39	61.578
588.73	61.996
589.06	63.699
589.40	63.222
589.73	63.016
590.07	64.162
590.40	64.009
590.73	65.157
591.07	64.207
591.40	65.717
591.74	64.796
592.07	65.724
592.41	64.267
592.74	63.879
593.08	62.103
593.41	62.372
593.75	62.741
594.08	61.723
594.41	62.882
594.75	63.244
595.08	63.451
595.42	63.416
595.75	64.551
596.09	64.113
596.42	64.365
596.75	65.675
597.09	64.966
597.42	64.544
597.75	65.735
598.09	63.060
598.42	65.162
598.76	64.050
599.09	63.582
599.42	62.334
599.76	63.807
600.09	62.934
600.42	63.192
600.76	63.633
601.09	62.099
601.42	62.632
601.76	63.120
602.09	64.728
602.42	64.153
602.76	65.280
603.09	65.116
603.42	65.217
603.76	64.597
604.09	64.399
604.42	64.975
604.76	66.222
605.09	65.585
605.42	65.688
605.75	64.142
606.09	64.501
606.42	62.927
606.75	64.199
607.09	64.088
607.42	63.934
607.75	64.520
608.08	63.387
608.42	63.225
608.75	65.831
609.08	65.471
609.41	66.091
609.75	65.373
610.08	65.502
610.41	65.556
610.74	65.139
611.07	66.098
611.41	66.580
611.74	67.111
612.07	65.471
612.40	66.521
612.73	68.192
613.07	66.479
613.40	66.028
613.73	67.264
614.06	66.611
614.39	67.005
614.72	66.499
615.06	66.201
615.39	66.321
615.72	64.962
616.05	66.592
616.38	65.356
616.71	66.483
617.05	68.128
617.38	67.756
617.71	69.308
618.04	68.508
618.37	68.348
618.70	70.759
619.03	70.625
619.36	69.537
619.69	72.328
620.03	71.366
620.36	70.386
620.69	71.163
621.02	70.719
621.35	72.282
621.68	72.789
622.01	71.833
622.34	71.668
622.67	71.293
623.00	69.602
623.33	71.723
623.66	69.559
623.99	70.348
624.32	70.722
624.65	69.549
624.99	71.181
625.32	70.660
625.65	72.742
625.98	70.588
626.31	71.322
626.64	73.397
626.97	73.211
627.30	75.044
627.63	72.877
627.96	74.753
628.29	75.023
628.62	76.106
628.95	75.050
629.28	76.008
629.61	75.872
629.94	74.389
630.26	76.779
630.59	77.836
630.92	77.333
631.25	74.051
631.58	77.093
631.91	76.754
632.24	79.472
632.57	79.545
632.90	77.936
633.23	78.000
633.56	81.108
633.89	77.805
634.22	80.370
634.55	82.211
634.88	78.033
635.20	77.821
635.53	82.400
635.86	81.144
636.19	81.242
636.52	78.444
636.85	78.164
637.18	77.484
637.51	77.233
637.83	74.113
638.16	81.037
638.49	77.520
638.82	81.447
639.15	80.461
639.48	79.780
639.81	78.940
640.13	82.828
640.46	80.758
640.79	82.474
641.12	77.843
641.45	83.483
641.77	82.074
642.10	85.150
642.43	85.691
642.76	84.488
643.09	82.553
643.41	80.744
643.74	82.043
644.07	83.908
644.40	83.446
644.73	84.413
645.05	84.899
645.38	86.420
645.71	85.638
646.04	84.381
646.36	86.702
646.69	84.173
647.02	87.335
647.35	86.754
647.67	85.923
648.00	89.366
648.33	82.765
648.66	84.915
648.98	82.580
649.31	83.471
649.64	80.063
649.96	78.768
650.29	82.624
650.62	84.274
650.94	87.222
651.27	84.730
651.60	84.324
651.92	85.315
652.25	83.659
652.58	82.000
652.90	86.964
653.23	83.529
653.56	80.541
653.88	81.615
654.21	83.012
654.54	80.475
654.86	81.834
655.19	79.386
655.52	74.536
655.84	63.341
656.17	67.325
656.49	89.444
656.82	92.206
657.15	71.569
657.47	54.305
657.80	40.576
658.13	40.779
658.45	63.577
658.78	63.957
659.10	63.945
659.43	66.365
659.75	68.130
660.08	70.138
660.41	75.383
660.73	79.144
661.06	82.149
661.38	85.519
661.71	86.242
662.03	90.987
662.36	88.352
662.68	88.717
663.01	86.681
663.33	86.775
663.66	89.767
663.98	89.302
664.31	84.009
664.63	89.401
664.96	84.130
665.28	86.534
665.61	87.879
665.93	87.826
666.26	88.937
666.58	88.143
666.91	86.824
667.23	87.972
667.56	89.336
667.88	90.168
668.21	89.021
668.53	89.598
668.86	87.028
669.18	90.094
669.50	90.073
669.83	85.349
670.15	87.179
670.48	89.713
670.80	86.406
671.13	83.893
671.45	85.160
671.77	87.768
672.10	79.208
672.42	82.584
672.75	82.593
673.07	81.395
673.39	82.018
673.72	80.276
674.04	84.167
674.37	83.263
674.69	83.298
675.01	86.667
675.34	85.811
675.66	88.426
675.98	85.144
676.31	88.073
676.63	87.648
676.95	85.000
677.28	84.000
677.60	89.639
677.92	85.321
678.25	84.245
678.57	82.900
678.89	82.983
679.22	87.919
679.54	77.510
679.86	82.306
680.18	80.583
680.51	80.682
680.83	81.312
681.15	81.800
681.48	85.451
681.80	85.537
682.12	81.653
682.44	80.335
682.77	85.651
683.09	84.211
683.41	82.955
683.73	83.871
684.06	83.407
684.38	83.441
684.70	82.571
685.02	80.913
685.34	79.447
685.67	80.488
685.99	79.566
686.31	80.354
686.63	80.519
686.96	77.947
687.28	81.212
687.60	79.848
687.92	84.848
688.24	83.065
688.56	84.934
688.89	88.839
689.21	85.111
689.53	85.615
689.85	81.860
690.17	81.250
690.49	86.288
690.82	84.223
691.14	81.429
691.46	83.645
691.78	85.586
692.10	80.860
692.42	82.900
692.74	77.350
693.06	81.982
693.39	81.448
693.71	79.186
694.03	81.062
694.35	83.411
694.67	87.626
694.99	84.856
695.31	83.812
695.63	79.750
695.95	83.081
696.27	85.751
696.59	89.722
696.91	87.675
697.23	84.576
697.56	81.931
697.88	80.645
698.20	81.777
698.52	84.706
698.84	79.187
699.16	83.750
699.48	85.213
699.80	83.623
700.12	84.906
700.44	86.275
700.76	84.302
701.08	88.485
701.40	86.747
701.72	87.654
702.04	91.089
702.36	93.311
702.68	81.982
703.00	88.788
703.32	87.097
703.64	79.944
703.96	86.087
704.28	87.117
704.60	89.206
704.91	83.596
705.23	84.718
705.55	93.993
705.87	93.863
706.19	95.556
706.51	90.722
706.83	87.138
707.15	82.243
707.47	85.714
707.79	79.688
708.11	85.000
708.43	80.250
708.74	80.362
709.06	86.761
709.38	90.214
709.70	84.911
710.02	86.943
710.34	86.068
710.66	83.333
710.98	88.742
711.29	85.902
711.61	88.814
711.93	86.971
712.25	92.440
712.57	85.714
712.89	93.657
713.20	88.581
713.52	82.578
713.84	87.031
714.16	85.911
714.48	83.548
714.80	85.897
715.11	84.802
715.43	81.191
715.75	87.333
716.07	81.728
716.39	85.906
716.70	84.133
717.02	86.641
717.34	93.117
717.66	88.053
717.97	93.043
718.29	90.795
718.61	90.551
718.93	87.984
719.24	83.270
719.56	91.165
719.88	83.162
720.20	88.258
720.51	86.207
720.83	86.873
721.15	91.597
721.46	87.903
721.78	84.980
722.10	81.784
722.42	89.212
722.73	83.265
723.05	87.755
723.37	91.102
723.68	94.595
724.00	82.479
724.32	86.222
724.63	90.909
724.95	91.266
725.27	90.783
725.58	93.220
725.90	84.921
726.22	82.625
726.53	78.305
726.85	85.019
727.16	89.811
727.48	85.020
727.80	83.806
728.11	86.864
728.43	84.314
728.74	83.468
729.06	88.000
729.38	85.338
729.69	88.048
730.01	83.077
730.32	85.821
730.64	81.625
730.96	89.811
731.27	81.333
731.59	84.407
731.90	78.981
732.22	82.334
732.53	83.056
732.85	81.915
733.16	85.185
733.48	82.014
733.80	82.246
734.11	79.322
734.43	82.131
734.74	79.394
735.06	77.199
735.37	79.154
735.69	86.195
736.00	86.411
736.32	81.879
736.63	80.986
736.95	82.594
737.26	80.427
737.58	77.181
737.89	84.982
738.21	78.571
738.52	88.889
738.83	88.210
739.15	84.716
739.46	83.071
739.78	85.348
740.09	78.431
740.41	81.159
740.72	83.465
741.04	81.781
741.35	77.447
741.66	89.100
741.98	87.245
742.29	89.109
742.61	91.099
742.92	81.517
743.23	79.167
743.55	80.543
743.86	83.254
744.18	85.167
744.49	90.426
744.80	89.130
745.12	97.861
745.43	87.317
745.74	97.917
746.06	92.195
746.37	91.099
746.68	96.209
747.00	91.489
747.31	97.015
747.62	87.864
747.94	90.431
748.25	95.050
748.56	95.628
748.88	95.812
749.19	91.489
749.50	90.640
749.82	83.962
750.13	86.239
750.44	82.707
750.75	85.448
751.07	85.036
751.38	80.843
751.69	86.667
752.01	86.434
752.32	88.845
752.63	77.075
752.94	87.931
753.26	89.540
753.57	87.330
753.88	86.283
754.19	81.667
754.51	84.298
754.82	86.235
755.13	90.417
755.44	89.113
755.75	87.500
756.07	84.436
756.38	81.509
756.69	82.759
757.00	78.667
757.31	81.373
757.63	78.049
757.94	73.056
758.25	74.795
758.56	75.532
758.87	72.805
759.18	78.816
759.50	82.909
759.81	82.274
760.12	80.323
760.43	75.455
760.74	80.556
761.05	79.692
761.36	76.989
761.67	79.394
761.99	85.034
762.30	77.091
762.61	81.028
762.92	87.783
763.23	82.432
763.54	85.047
763.85	84.746
764.16	86.307
764.47	80.242
764.78	77.289
765.10	81.818
765.41	74.132
765.72	73.333
766.03	78.947
766.34	78.467
766.65	79.283
766.96	84.848
767.27	90.957
767.58	82.759
767.89	100.709
768.20	80.114
768.51	92.308
768.82	79.310
769.13	83.871
769.44	78.970
769.75	81.735
770.06	75.000
770.37	81.250
770.68	81.726
770.99	80.090
771.30	90.196
771.61	81.900
771.92	81.034
772.23	84.236
772.54	84.946
772.85	90.741
773.16	82.584
773.47	98.039
773.78	86.275
774.09	79.042
774.39	77.333
774.70	86.624
775.01	97.241
775.32	87.143
775.63	95.041
775.94	87.023
776.25	80.315
776.56	80.833
776.87	97.115
777.18	89.744
777.48	94.828
777.79	93.913
778.10	78.095
778.41	96.396
778.72	95.238
779.03	89.474
779.34	79.433
779.65	82.877
779.95	80.822
780.26	86.897
780.57	86.992
780.88	86.614
781.19	91.379
781.50	86.822
781.80	70.414
782.11	79.874
782.42	97.692
782.73	82.014
783.04	87.407
783.34	77.778
783.65	85.470
783.96	88.525
784.27	84.828
784.57	83.740
784.88	78.125
785.19	99.000
785.50	96.000
785.81	89.655
786.11	78.448
786.42	87.379
786.73	87.273
787.04	84.694
787.34	83.036
787.65	95.238
787.96	93.805
788.26	91.818
788.57	86.325
788.88	83.594
789.19	83.333
789.49	78.261
789.80	91.837
790.11	88.889
790.41	77.273
790.72	94.565
791.03	78.409
791.33	96.250
791.64	90.000
791.95	81.395
792.25	90.426
792.56	79.775
792.87	86.301
793.17	91.304
793.48	80.000
793.79	81.250
794.09	107.500
794.40	75.472
794.70	77.670
795.01	69.919
795.32	86.325
795.62	75.238
795.93	93.137
796.23	87.736
796.54	75.000
796.85	98.529
797.15	88.732
797.46	91.667
797.76	93.939
798.07	82.558
798.37	85.526
798.68	81.818
798.99	70.370
799.29	98.571
799.60	84.058
799.90	90.667
800.21	111.475
800.51	78.462
800.82	110.169
801.12	101.449
801.43	91.803
801.73	84.127
802.04	88.000
802.34	71.642
802.65	111.538
802.95	78.571
803.26	84.615
803.56	100.000
803.87	100.000
804.17	73.333
804.48	112.698
804.78	87.037
805.09	119.565
805.39	100.000
805.70	79.630
806.00	66.667
806.30	73.239
806.61	94.286
806.91	69.444
807.22	84.211
807.52	97.333
807.83	94.545
808.13	83.333
808.43	77.941
808.74	76.119
809.04	83.051
809.35	88.462
809.65	84.375
809.95	94.595
810.26	111.364
810.56	58.904
810.86	97.619
811.17	100.000
811.47	112.245
811.77	110.526
812.08	104.545
812.38	73.585
812.69	82.500
812.99	84.848
813.29	113.158
813.59	51.429
813.90	100.000
814.20	79.487
814.50	59.615
814.81	100.000
815.11	70.213
815.41	84.746
815.72	90.476
816.02	82.353
816.32	77.083
816.62	82.927
816.93	72.973
817.23	74.286
817.53	100.000
817.84	69.565
818.14	63.462
818.44	73.684
818.74	93.478
819.04	67.500
819.35	81.081
819.65	123.529
819.95	75.000
820.25	80.952
820.56	87.500
820.86	96.552
821.16	90.000
821.46	85.106
821.76	92.500
822.07	95.349
822.37	45.946
822.67	62.500
822.97	76.190
823.27	92.857
823.57	104.000
823.88	66.667
824.18	64.286
824.48	120.588
824.78	87.097
825.08	108.696
825.38	66.667
825.69	79.167
825.99	92.105
826.29	94.444
826.59	120.000
826.89	109.524
827.19	76.087
827.49	87.500
827.79	108.571
828.09	114.286
828.39	118.182
828.70	121.622
829.00	85.714
829.30	76.190
829.60	76.667
829.90	90.625
830.20	76.316
830.50	77.778
830.80	86.957
831.10	131.818
831.40	87.879
831.70	103.226
832.00	114.286
832.30	61.905
832.60	108.333
832.90	62.069
833.20	95.000
833.50	90.909
833.80	81.481
834.10	100.000
834.40	59.375
834.70	155.556
835.00	121.053
835.30	115.385
835.60	100.000
835.90	61.290
836.20	90.909
836.50	100.000
836.80	34.615
837.10	60.714
837.40	333.333
837.70	72.727
838.00	136.364
838.30	104.348
838.60	130.769
838.90	100.000
839.19	50.000
839.49	83.333
839.79	92.308
840.09	8.333
840.39	75.000
840.69	85.714
840.99	46.154
841.29	26.316
841.59	80.000
841.88	154.545
842.18	200.000
842.48	31.250
842.78	153.333
843.08	62.963
843.38	50.000
843.68	82.609
843.97	120.000
844.27	20.000
844.57	90.000
844.87	94.444
845.17	66.667
845.47	113.333
845.76	76.190
846.06	129.412
846.36	100.000
846.66	142.857
846.96	120.000
847.25	125.000
847.55	192.857
847.85	125.000
848.15	45.455
848.44	66.667
848.74	45.000
849.04	70.370
849.34	136.364
849.63	50.000
849.93	-20.000
850.23	55.556
850.53	150.000
850.82	92.308
851.12	88.889
851.42	140.000
851.71	46.154
852.01	107.143
852.31	350.000
852.61	-54.545
852.90	65.000
853.20	94.737
853.50	50.000
853.79	39.130
854.09	50.000
854.39	126.316
854.68	70.833
854.98	35.484
855.28	103.846
855.57	75.000
855.87	100.000
856.17	77.778
856.46	185.714
856.76	80.000
857.05	155.556
857.35	40.000
857.65	111.111
857.94	30.769
858.24	79.310
858.53	61.111
858.83	70.370
859.13	59.091
859.42	47.826
859.72	375.000
860.01	0.000
860.31	60.000
860.60	38.095
860.90	133.333
861.20	106.667
861.49	300.000
861.79	46.667
862.08	75.000
862.38	120.000
862.67	80.000
862.97	16.667
863.26	66.667
863.56	55.556
863.85	166.667
864.15	83.333
864.44	10.000
864.74	92.857
865.03	25.000
865.33	180.000
865.62	216.667
865.92	100.000
866.21	50.000
866.51	93.750
866.80	72.727
867.10	650.000
867.39	116.667
867.69	0.000
867.98	38.462
868.27	66.667
868.57	46.667
868.86	72.222
869.16	7.692
869.45	80.000
869.75	1600.000
870.04	0.000
870.33	-71.429
870.63	104.762
870.92	-0.000
871.22	-80.000
871.51	-400.000
871.80	177.778
872.10	466.667
>>>>>End Processed Spectral Data<<<<<
