SpectraSuite Data File
++++++++++++++++++++++++++++++++++++
Date: Fri May 15 17:31:04 PDT 2015
User: schluterlab
Dark Spectrum Present: Yes
Reference Spectrum Present: Yes
Number of Sampled Component Spectra: 1
Spectrometers: USB2E3373
Integration Time (usec): 3000 (USB2E3373)
Spectra Averaged: 3 (USB2E3373)
Boxcar Smoothing: 0 (USB2E3373)
Correct for Electrical Dark: No (USB2E3373)
Strobe/Lamp Enabled: No (USB2E3373)
Correct for Detector Non-linearity: No (USB2E3373)
Correct for Stray Light: No (USB2E3373)
Number of Pixels in Processed Spectrum: 2048
>>>>>Begin Processed Spectral Data<<<<<
178.53	0.000
178.91	0.000
179.29	75.000
179.67	-650.000
180.04	-71.429
180.42	75.000
180.80	-400.000
181.18	133.333
181.56	-100.000
181.94	-100.000
182.31	-700.000
182.69	60.000
183.07	-66.667
183.45	20.000
183.83	150.000
184.20	0.000
184.58	122.222
184.96	-150.000
185.34	-66.667
185.72	100.000
186.09	76.923
186.47	-1400.000
186.85	233.333
187.23	22.222
187.61	-600.000
187.98	-100.000
188.36	-11.111
188.74	-66.667
189.12	76.471
189.49	50.000
189.87	0.000
190.25	42.857
190.63	400.000
191.00	-33.333
191.38	52.632
191.76	450.000
192.14	25.000
192.51	200.000
192.89	-55.556
193.27	-14.286
193.65	83.333
194.02	118.182
194.40	130.000
194.78	-25.000
195.15	16.667
195.53	75.000
195.91	325.000
196.29	-100.000
196.66	30.769
197.04	100.000
197.42	44.444
197.79	-33.333
198.17	-7.692
198.55	1100.000
198.92	-66.667
199.30	-200.000
199.68	80.000
200.05	-233.333
200.43	0.000
200.81	66.667
201.18	166.667
201.56	-0.000
201.94	-100.000
202.31	-366.667
202.69	-20.000
203.07	-0.000
203.44	-200.000
203.82	0.000
204.19	57.143
204.57	-200.000
204.95	-62.500
205.32	10.000
205.70	-100.000
206.08	-75.000
206.45	244.444
206.83	50.000
207.20	-42.857
207.58	-500.000
207.96	0.000
208.33	-110.000
208.71	75.000
209.08	-16.667
209.46	-200.000
209.84	-20.000
210.21	-500.000
210.59	42.857
210.96	100.000
211.34	100.000
211.71	73.333
212.09	42.857
212.46	-800.000
212.84	0.000
213.22	20.000
213.59	350.000
213.97	69.231
214.34	18.182
214.72	66.667
215.09	450.000
215.47	7.692
215.84	0.000
216.22	-33.333
216.59	125.000
216.97	600.000
217.34	250.000
217.72	-40.000
218.09	137.500
218.47	50.000
218.84	-1000.000
219.22	-66.667
219.59	80.000
219.97	66.667
220.34	375.000
220.72	142.857
221.09	75.000
221.47	-50.000
221.84	-250.000
222.22	-450.000
222.59	90.909
222.97	-16.667
223.34	-266.667
223.72	-21.429
224.09	4.762
224.46	28.571
224.84	300.000
225.21	0.000
225.59	46.667
225.96	300.000
226.34	225.000
226.71	128.571
227.08	16.667
227.46	-62.500
227.83	-500.000
228.21	66.667
228.58	27.273
228.95	-37.500
229.33	-10.000
229.70	37.500
230.08	62.500
230.45	-57.143
230.82	142.857
231.20	13.333
231.57	85.714
231.95	114.286
232.32	-10.000
232.69	14.286
233.07	-33.333
233.44	180.000
233.81	20.000
234.19	111.111
234.56	-17.647
234.93	200.000
235.31	300.000
235.68	60.000
236.05	53.846
236.43	5.000
236.80	47.059
237.17	21.875
237.55	5.000
237.92	3.704
238.29	44.444
238.67	23.333
239.04	20.588
239.41	7.317
239.79	-3.333
240.16	48.780
240.53	2.632
240.91	32.609
241.28	20.635
241.65	17.857
242.02	27.397
242.40	33.333
242.77	30.508
243.14	19.697
243.51	18.750
243.89	26.437
244.26	27.586
244.63	23.810
245.00	23.711
245.38	30.928
245.75	28.090
246.12	22.414
246.49	20.661
246.87	27.885
247.24	20.168
247.61	25.439
247.98	27.642
248.36	17.500
248.73	23.684
249.10	16.234
249.47	29.747
249.84	26.144
250.22	24.118
250.59	22.222
250.96	27.700
251.33	22.674
251.70	28.235
252.08	25.888
252.45	20.792
252.82	34.171
253.19	29.032
253.56	22.897
253.94	27.477
254.31	24.783
254.68	25.000
255.05	25.591
255.42	31.004
255.79	22.780
256.16	24.903
256.54	28.731
256.91	22.814
257.28	24.164
257.65	25.094
258.02	24.113
258.39	23.906
258.76	25.275
259.14	24.252
259.51	30.097
259.88	22.680
260.25	22.549
260.62	24.306
260.99	24.068
261.36	23.288
261.73	23.101
262.10	23.708
262.47	26.074
262.85	25.392
263.22	25.846
263.59	25.545
263.96	22.360
264.33	25.152
264.70	22.024
265.07	24.702
265.44	26.346
265.81	22.599
266.18	25.410
266.55	28.021
266.92	24.352
267.29	27.154
267.66	24.041
268.03	25.654
268.40	25.849
268.77	28.075
269.14	24.221
269.51	24.422
269.88	21.197
270.25	23.980
270.62	23.902
270.99	22.762
271.36	23.716
271.73	24.883
272.10	23.844
272.47	24.113
272.84	24.010
273.21	24.826
273.58	28.193
273.95	25.400
274.32	21.940
274.69	19.683
275.06	24.554
275.43	20.862
275.80	21.634
276.17	25.057
276.54	24.625
276.91	24.123
277.28	23.581
277.65	23.140
278.02	20.426
278.39	21.225
278.76	23.061
279.13	19.502
279.50	26.261
279.87	22.678
280.23	23.226
280.60	22.417
280.97	21.818
281.34	21.731
281.71	24.846
282.08	22.904
282.45	22.309
282.82	20.463
283.19	22.437
283.56	22.736
283.92	23.150
284.29	18.654
284.66	18.992
285.03	21.218
285.40	24.386
285.77	22.320
286.14	19.495
286.51	22.140
286.87	21.938
287.24	20.258
287.61	20.988
287.98	23.860
288.35	20.624
288.72	22.592
289.08	20.660
289.45	20.738
289.82	21.678
290.19	20.478
290.56	19.726
290.93	19.529
291.29	17.874
291.66	19.685
292.03	19.458
292.40	19.032
292.77	18.022
293.13	15.909
293.50	16.237
293.87	19.237
294.24	18.856
294.60	17.288
294.97	16.815
295.34	19.632
295.71	16.692
296.08	17.937
296.44	14.651
296.81	17.500
297.18	17.246
297.55	19.106
297.91	16.986
298.28	18.338
298.65	15.197
299.02	16.173
299.38	14.911
299.75	15.448
300.12	17.147
300.48	15.942
300.85	17.237
301.22	15.584
301.59	16.579
301.95	16.456
302.32	16.602
302.69	15.423
303.05	14.356
303.42	16.687
303.79	17.056
304.15	14.934
304.52	15.458
304.89	14.152
305.25	13.196
305.62	13.769
305.99	14.737
306.35	13.988
306.72	13.948
307.09	15.393
307.45	13.892
307.82	15.625
308.19	15.563
308.55	15.158
308.92	16.122
309.29	13.966
309.65	14.316
310.02	15.292
310.38	14.160
310.75	13.115
311.12	14.855
311.48	13.150
311.85	12.251
312.22	14.768
312.58	14.331
312.95	14.408
313.31	14.389
313.68	14.869
314.05	14.286
314.41	15.670
314.78	14.639
315.14	17.061
315.51	16.149
315.87	16.598
316.24	16.380
316.61	14.862
316.97	16.071
317.34	16.406
317.70	16.061
318.07	15.962
318.43	16.765
318.80	18.087
319.16	16.309
319.53	19.183
319.89	18.898
320.26	18.826
320.62	18.957
320.99	18.998
321.35	19.938
321.72	20.249
322.08	20.040
322.45	21.523
322.81	20.629
323.18	21.197
323.54	23.069
323.91	21.908
324.27	23.535
324.64	24.532
325.00	25.912
325.37	26.722
325.73	24.388
326.10	27.884
326.46	27.444
326.83	27.909
327.19	29.555
327.56	29.105
327.92	31.250
328.29	30.982
328.65	31.604
329.01	31.985
329.38	31.889
329.74	32.295
330.11	33.828
330.47	34.694
330.84	35.673
331.20	38.783
331.56	35.741
331.93	37.991
332.29	37.764
332.66	36.018
333.02	39.405
333.38	37.489
333.75	39.560
334.11	38.496
334.48	42.067
334.84	41.026
335.20	43.275
335.57	41.704
335.93	42.186
336.29	43.186
336.66	43.052
337.02	40.613
337.38	42.407
337.75	44.636
338.11	43.012
338.47	45.073
338.84	45.749
339.20	44.059
339.56	44.312
339.93	43.241
340.29	45.413
340.65	45.430
341.02	43.706
341.38	44.248
341.74	44.523
342.11	42.981
342.47	45.196
342.83	45.329
343.20	45.470
343.56	45.565
343.92	45.173
344.28	46.200
344.65	45.682
345.01	45.549
345.37	44.155
345.73	46.360
346.10	47.196
346.46	45.837
346.82	46.481
347.19	44.805
347.55	45.447
347.91	45.469
348.27	44.786
348.63	45.656
349.00	45.447
349.36	45.636
349.72	46.683
350.08	46.557
350.45	45.331
350.81	45.847
351.17	46.336
351.53	46.694
351.89	45.995
352.26	45.200
352.62	46.371
352.98	45.141
353.34	46.216
353.70	46.440
354.07	46.935
354.43	45.957
354.79	46.903
355.15	45.873
355.51	46.203
355.87	45.874
356.24	46.493
356.60	46.645
356.96	48.492
357.32	46.965
357.68	46.286
358.04	45.719
358.40	46.222
358.77	47.847
359.13	46.597
359.49	46.687
359.85	47.270
360.21	48.246
360.57	46.136
360.93	46.747
361.29	45.393
361.66	48.197
362.02	47.576
362.38	47.296
362.74	47.086
363.10	48.457
363.46	47.887
363.82	48.159
364.18	48.266
364.54	47.500
364.90	48.961
365.26	48.253
365.62	48.102
365.98	49.340
366.35	51.202
366.71	49.667
367.07	49.492
367.43	48.886
367.79	48.339
368.15	49.892
368.51	49.818
368.87	49.677
369.23	48.664
369.59	50.219
369.95	49.560
370.31	50.289
370.67	52.537
371.03	51.008
371.39	51.349
371.75	48.718
372.11	50.571
372.47	50.148
372.83	51.668
373.19	49.929
373.55	50.686
373.91	51.620
374.27	52.020
374.63	50.826
374.99	51.631
375.35	52.437
375.71	53.147
376.07	53.020
376.42	52.109
376.78	52.953
377.14	51.456
377.50	53.054
377.86	53.079
378.22	52.265
378.58	54.551
378.94	52.363
379.30	54.086
379.66	54.044
380.02	54.261
380.38	53.500
380.74	54.458
381.09	55.828
381.45	54.679
381.81	53.671
382.17	53.553
382.53	54.841
382.89	55.681
383.25	56.192
383.61	56.098
383.97	55.302
384.32	55.097
384.68	55.975
385.04	55.453
385.40	55.072
385.76	57.233
386.12	56.986
386.48	56.513
386.83	55.358
387.19	56.044
387.55	56.775
387.91	56.907
388.27	56.044
388.62	57.772
388.98	56.967
389.34	56.527
389.70	57.303
390.06	55.821
390.42	57.513
390.77	58.012
391.13	56.683
391.49	58.150
391.85	58.285
392.20	56.999
392.56	57.533
392.92	57.487
393.28	57.193
393.64	56.937
393.99	58.370
394.35	56.736
394.71	57.280
395.07	57.008
395.42	55.616
395.78	56.873
396.14	57.945
396.50	57.895
396.85	58.532
397.21	57.456
397.57	56.928
397.92	57.939
398.28	57.989
398.64	57.349
399.00	58.296
399.35	56.151
399.71	57.496
400.07	58.888
400.42	58.078
400.78	58.053
401.14	57.774
401.49	57.534
401.85	58.074
402.21	57.470
402.57	57.938
402.92	56.838
403.28	57.832
403.63	59.521
403.99	58.163
404.35	58.339
404.70	56.726
405.06	56.816
405.42	57.241
405.77	57.060
406.13	58.324
406.49	56.898
406.84	57.702
407.20	57.736
407.55	58.081
407.91	55.816
408.27	56.851
408.62	57.600
408.98	56.562
409.34	57.931
409.69	57.494
410.05	56.466
410.40	57.346
410.76	56.755
411.11	57.125
411.47	57.265
411.83	56.748
412.18	58.559
412.54	57.803
412.89	56.404
413.25	57.882
413.60	56.273
413.96	55.706
414.31	57.988
414.67	55.420
415.03	56.591
415.38	56.658
415.74	57.720
416.09	55.585
416.45	57.124
416.80	56.444
417.16	59.392
417.51	55.829
417.87	57.301
418.22	58.420
418.58	59.331
418.93	58.370
419.29	56.914
419.64	57.680
420.00	58.060
420.35	58.269
420.71	60.146
421.06	58.379
421.42	59.976
421.77	58.902
422.12	58.513
422.48	58.581
422.83	59.803
423.19	58.804
423.54	58.789
423.90	57.892
424.25	59.185
424.61	59.119
424.96	57.375
425.31	60.196
425.67	60.387
426.02	60.483
426.38	60.739
426.73	60.230
427.09	61.076
427.44	60.412
427.79	59.576
428.15	60.740
428.50	60.206
428.85	58.968
429.21	60.724
429.56	62.480
429.92	61.274
430.27	61.003
430.62	61.683
430.98	60.881
431.33	61.619
431.68	59.498
432.04	61.822
432.39	60.924
432.74	59.591
433.10	61.092
433.45	61.350
433.80	62.855
434.16	63.047
434.51	61.989
434.86	62.195
435.22	62.647
435.57	62.944
435.92	61.796
436.28	61.658
436.63	62.350
436.98	61.993
437.34	62.674
437.69	63.268
438.04	62.621
438.39	63.225
438.75	64.359
439.10	62.705
439.45	64.942
439.81	62.813
440.16	64.133
440.51	62.448
440.86	64.230
441.22	62.952
441.57	64.404
441.92	64.166
442.27	66.685
442.63	64.882
442.98	65.767
443.33	64.051
443.68	63.077
444.03	65.127
444.39	64.634
444.74	66.555
445.09	65.535
445.44	65.071
445.79	66.478
446.15	65.088
446.50	64.115
446.85	66.684
447.20	64.286
447.55	65.737
447.91	64.411
448.26	64.940
448.61	63.961
448.96	66.609
449.31	64.740
449.66	65.331
450.02	65.716
450.37	66.924
450.72	65.178
451.07	65.443
451.42	65.169
451.77	66.727
452.12	64.354
452.47	66.130
452.83	65.489
453.18	66.287
453.53	66.308
453.88	65.452
454.23	65.274
454.58	65.995
454.93	64.948
455.28	64.698
455.63	65.592
455.98	66.927
456.34	65.964
456.69	66.582
457.04	66.163
457.39	65.796
457.74	66.566
458.09	65.333
458.44	66.004
458.79	64.986
459.14	66.934
459.49	67.343
459.84	66.836
460.19	66.869
460.54	66.198
460.89	66.534
461.24	66.957
461.59	67.993
461.94	65.660
462.29	65.923
462.64	66.711
462.99	66.080
463.34	67.316
463.69	66.860
464.04	65.254
464.39	66.222
464.74	66.442
465.09	67.187
465.44	67.340
465.79	66.553
466.14	67.104
466.49	67.108
466.84	67.043
467.19	66.270
467.54	65.453
467.89	67.720
468.24	65.815
468.59	67.810
468.94	66.159
469.29	66.492
469.64	65.072
469.99	68.255
470.34	66.621
470.68	67.338
471.03	67.657
471.38	66.690
471.73	65.616
472.08	68.046
472.43	67.248
472.78	66.210
473.13	67.755
473.48	66.971
473.83	65.878
474.17	67.487
474.52	67.454
474.87	67.091
475.22	66.443
475.57	67.532
475.92	67.910
476.27	66.647
476.61	67.361
476.96	66.592
477.31	66.739
477.66	67.640
478.01	67.659
478.36	67.211
478.70	68.189
479.05	67.582
479.40	66.932
479.75	66.840
480.10	67.588
480.45	67.250
480.79	68.781
481.14	67.982
481.49	66.601
481.84	68.871
482.19	68.195
482.53	67.002
482.88	66.635
483.23	66.651
483.58	67.406
483.92	65.924
484.27	67.138
484.62	67.727
484.97	66.335
485.31	68.425
485.66	71.574
486.01	72.717
486.36	72.392
486.70	70.811
487.05	69.868
487.40	68.847
487.75	68.479
488.09	66.718
488.44	65.406
488.79	66.119
489.13	66.827
489.48	66.823
489.83	66.996
490.17	67.146
490.52	66.097
490.87	64.461
491.22	67.670
491.56	67.457
491.91	66.778
492.26	67.671
492.60	66.123
492.95	66.650
493.30	66.732
493.64	67.829
493.99	67.198
494.34	66.262
494.68	66.857
495.03	65.937
495.37	66.290
495.72	67.542
496.07	68.293
496.41	66.368
496.76	67.112
497.11	66.372
497.45	65.919
497.80	67.306
498.14	66.120
498.49	67.344
498.84	66.467
499.18	66.717
499.53	66.766
499.87	66.780
500.22	67.359
500.56	68.734
500.91	66.767
501.26	65.991
501.60	67.191
501.95	68.122
502.29	67.264
502.64	67.857
502.98	68.278
503.33	65.898
503.67	67.133
504.02	67.302
504.36	67.739
504.71	66.414
505.06	65.526
505.40	66.650
505.75	67.320
506.09	64.420
506.44	67.659
506.78	68.061
507.13	67.011
507.47	65.431
507.82	66.239
508.16	65.980
508.51	66.999
508.85	66.771
509.19	65.780
509.54	66.649
509.88	65.642
510.23	67.671
510.57	65.794
510.92	64.552
511.26	66.230
511.61	68.372
511.95	66.247
512.30	65.521
512.64	65.331
512.98	65.525
513.33	65.753
513.67	65.435
514.02	66.304
514.36	65.714
514.70	66.259
515.05	67.450
515.39	65.998
515.74	66.587
516.08	65.750
516.42	67.668
516.77	65.477
517.11	67.834
517.46	67.983
517.80	65.077
518.14	65.034
518.49	64.603
518.83	65.006
519.17	65.009
519.52	65.187
519.86	66.447
520.20	65.674
520.55	63.790
520.89	64.680
521.23	65.484
521.58	65.363
521.92	65.128
522.26	64.736
522.61	65.065
522.95	66.291
523.29	64.867
523.64	65.565
523.98	65.911
524.32	64.433
524.66	65.301
525.01	65.519
525.35	65.846
525.69	65.859
526.04	65.013
526.38	66.148
526.72	63.571
527.06	62.970
527.41	64.644
527.75	64.745
528.09	64.452
528.43	65.969
528.78	66.403
529.12	66.774
529.46	67.771
529.80	65.484
530.15	66.601
530.49	66.397
530.83	64.706
531.17	63.801
531.51	66.142
531.86	65.126
532.20	64.788
532.54	64.534
532.88	66.256
533.22	66.398
533.57	66.186
533.91	66.057
534.25	67.773
534.59	65.811
534.93	64.632
535.27	64.848
535.62	67.142
535.96	67.058
536.30	65.567
536.64	64.438
536.98	64.251
537.32	66.216
537.66	65.147
538.01	66.853
538.35	66.089
538.69	64.581
539.03	65.277
539.37	66.218
539.71	66.871
540.05	64.358
540.39	65.582
540.73	65.551
541.07	67.334
541.42	64.247
541.76	66.345
542.10	66.139
542.44	67.616
542.78	66.345
543.12	63.736
543.46	65.786
543.80	67.176
544.14	64.953
544.48	67.155
544.82	67.738
545.16	67.623
545.50	65.955
545.84	65.652
546.18	67.943
546.52	66.619
546.86	65.061
547.20	65.379
547.54	64.311
547.88	67.799
548.22	65.878
548.56	66.425
548.90	66.240
549.24	66.185
549.58	64.951
549.92	65.261
550.26	64.322
550.60	66.394
550.94	67.289
551.28	65.533
551.62	66.231
551.96	66.165
552.30	65.570
552.64	66.432
552.98	66.034
553.32	65.549
553.66	65.530
554.00	67.445
554.34	66.027
554.68	64.086
555.02	64.955
555.36	65.445
555.69	65.348
556.03	65.310
556.37	66.406
556.71	65.343
557.05	66.294
557.39	64.238
557.73	65.517
558.07	65.611
558.41	66.003
558.75	64.770
559.08	62.963
559.42	65.317
559.76	65.332
560.10	64.679
560.44	65.450
560.78	65.175
561.12	67.419
561.45	67.323
561.79	66.807
562.13	67.566
562.47	66.835
562.81	65.634
563.15	66.008
563.48	67.185
563.82	68.085
564.16	67.061
564.50	66.419
564.84	64.859
565.17	67.002
565.51	68.511
565.85	68.381
566.19	67.507
566.52	67.962
566.86	68.188
567.20	67.684
567.54	70.438
567.88	70.885
568.21	70.419
568.55	70.598
568.89	70.842
569.23	71.112
569.56	72.067
569.90	74.015
570.24	72.199
570.57	74.800
570.91	74.033
571.25	72.641
571.59	73.186
571.92	71.644
572.26	72.554
572.60	71.380
572.93	71.164
573.27	71.661
573.61	72.733
573.95	73.512
574.28	72.299
574.62	72.515
574.96	72.700
575.29	72.968
575.63	71.340
575.97	71.185
576.30	72.055
576.64	71.894
576.98	73.977
577.31	74.392
577.65	74.541
577.98	74.281
578.32	74.119
578.66	71.932
578.99	72.274
579.33	71.671
579.67	71.461
580.00	72.608
580.34	73.109
580.67	72.725
581.01	72.454
581.35	73.966
581.68	74.513
582.02	74.381
582.35	74.466
582.69	73.510
583.02	73.254
583.36	72.392
583.70	72.274
584.03	72.922
584.37	73.320
584.70	71.951
585.04	72.746
585.37	72.801
585.71	74.698
586.04	72.592
586.38	73.140
586.72	73.113
587.05	73.339
587.39	74.056
587.72	74.576
588.06	73.429
588.39	72.714
588.73	72.650
589.06	72.277
589.40	71.621
589.73	71.705
590.07	72.243
590.40	72.368
590.73	72.405
591.07	71.077
591.40	69.858
591.74	71.584
592.07	72.774
592.41	71.378
592.74	72.720
593.08	72.581
593.41	74.135
593.75	73.242
594.08	70.546
594.41	71.179
594.75	72.748
595.08	72.191
595.42	71.439
595.75	73.000
596.09	72.166
596.42	71.352
596.75	71.803
597.09	71.162
597.42	72.629
597.75	71.690
598.09	70.077
598.42	70.307
598.76	71.343
599.09	72.196
599.42	71.163
599.76	72.724
600.09	71.154
600.42	72.745
600.76	71.842
601.09	72.061
601.42	71.328
601.76	71.695
602.09	70.173
602.42	72.367
602.76	71.307
603.09	72.674
603.42	73.955
603.76	72.661
604.09	72.053
604.42	72.039
604.76	71.740
605.09	72.212
605.42	70.745
605.75	71.322
606.09	73.291
606.42	70.684
606.75	71.645
607.09	71.385
607.42	70.758
607.75	70.915
608.08	69.946
608.42	68.296
608.75	71.904
609.08	71.599
609.41	69.898
609.75	69.859
610.08	71.892
610.41	69.855
610.74	70.843
611.07	72.713
611.41	71.666
611.74	72.601
612.07	70.021
612.40	71.007
612.73	71.638
613.07	70.135
613.40	70.022
613.73	70.621
614.06	68.447
614.39	69.543
614.72	69.188
615.06	69.721
615.39	69.214
615.72	69.806
616.05	69.944
616.38	69.516
616.71	68.196
617.05	70.105
617.38	69.893
617.71	69.560
618.04	70.159
618.37	70.681
618.70	69.373
619.03	68.403
619.36	67.873
619.69	69.750
620.03	70.782
620.36	69.599
620.69	68.451
621.02	66.131
621.35	68.631
621.68	69.218
622.01	68.833
622.34	67.518
622.67	68.218
623.00	67.228
623.33	68.293
623.66	68.063
623.99	68.457
624.32	68.289
624.65	68.120
624.99	69.375
625.32	68.158
625.65	67.243
625.98	67.284
626.31	66.999
626.64	68.371
626.97	66.928
627.30	67.776
627.63	66.205
627.96	67.475
628.29	66.698
628.62	65.880
628.95	66.433
629.28	66.431
629.61	66.999
629.94	66.471
630.26	64.526
630.59	67.742
630.92	65.641
631.25	64.000
631.58	66.189
631.91	64.364
632.24	65.367
632.57	65.341
632.90	62.159
633.23	64.000
633.56	66.247
633.89	64.242
634.22	65.062
634.55	63.914
634.88	62.963
635.20	62.692
635.53	64.533
635.86	62.679
636.19	65.847
636.52	66.454
636.85	64.640
637.18	64.277
637.51	64.403
637.83	62.155
638.16	63.438
638.49	62.670
638.82	64.474
639.15	63.365
639.48	65.475
639.81	62.901
640.13	64.069
640.46	62.099
640.79	61.119
641.12	63.220
641.45	61.261
641.77	60.444
642.10	65.403
642.43	62.540
642.76	62.211
643.09	59.935
643.41	59.547
643.74	62.273
644.07	60.920
644.40	62.669
644.73	66.025
645.05	57.550
645.38	61.376
645.71	62.411
646.04	62.657
646.36	61.702
646.69	63.309
647.02	62.382
647.35	62.500
647.67	59.415
648.00	62.500
648.33	62.116
648.66	62.712
648.98	62.814
649.31	64.959
649.64	60.754
649.96	62.885
650.29	64.055
650.62	58.974
650.94	62.407
651.27	61.453
651.60	62.162
651.92	59.965
652.25	60.568
652.58	63.833
652.90	63.293
653.23	61.849
653.56	60.914
653.88	59.794
654.21	59.545
654.54	60.781
654.86	63.497
655.19	63.450
655.52	73.220
655.84	80.185
656.17	89.662
656.49	100.000
656.82	100.000
657.15	100.000
657.47	89.294
657.80	47.989
658.13	47.296
658.45	70.082
658.78	66.744
659.10	64.141
659.43	64.485
659.75	64.134
660.08	62.483
660.41	62.206
660.73	60.359
661.06	61.179
661.38	58.904
661.71	56.879
662.03	61.159
662.36	58.022
662.68	59.292
663.01	61.354
663.33	60.557
663.66	57.907
663.98	56.744
664.31	58.422
664.63	58.525
664.96	56.739
665.28	59.823
665.61	59.307
665.93	60.000
666.26	57.701
666.58	59.955
666.91	55.765
667.23	59.198
667.56	61.137
667.88	54.916
668.21	59.189
668.53	60.993
668.86	58.962
669.18	59.670
669.50	57.385
669.83	55.814
670.15	59.674
670.48	58.852
670.80	58.525
671.13	58.166
671.45	57.534
671.77	61.588
672.10	60.792
672.42	61.610
672.75	59.680
673.07	64.580
673.39	63.853
673.72	58.974
674.04	59.375
674.37	61.017
674.69	59.101
675.01	62.000
675.34	58.559
675.66	62.037
675.98	58.758
676.31	61.468
676.63	61.045
676.95	59.773
677.28	57.176
677.60	60.482
677.92	57.110
678.25	61.707
678.57	63.420
678.89	63.866
679.22	65.772
679.54	61.245
679.86	63.618
680.18	63.883
680.51	61.932
680.83	60.835
681.15	60.400
681.48	61.885
681.80	64.669
682.12	60.887
682.44	59.414
682.77	59.382
683.09	60.641
683.41	57.273
683.73	60.829
684.06	57.743
684.38	57.849
684.70	63.399
685.02	62.656
685.34	60.870
685.67	61.351
685.99	64.557
686.31	61.062
686.63	59.184
686.96	61.407
687.28	58.788
687.60	58.555
687.92	62.222
688.24	59.073
688.56	63.974
688.89	60.045
689.21	57.556
689.53	60.557
689.85	61.163
690.17	61.384
690.49	61.702
690.82	58.252
691.14	58.810
691.46	62.383
691.78	62.387
692.10	63.226
692.42	60.823
692.74	58.120
693.06	59.910
693.39	58.824
693.71	58.145
694.03	62.356
694.35	58.645
694.67	58.081
694.99	59.008
695.31	59.791
695.63	60.000
695.95	57.323
696.27	56.218
696.59	60.000
696.91	53.501
697.23	61.954
697.56	62.624
697.88	63.011
698.20	62.187
698.52	60.941
698.84	53.589
699.16	59.750
699.48	61.905
699.80	58.561
700.12	61.456
700.44	57.983
700.76	58.721
701.08	54.242
701.40	56.325
701.72	56.790
702.04	56.106
702.36	60.201
702.68	57.057
703.00	60.303
703.32	56.598
703.64	56.215
703.96	55.362
704.28	56.442
704.60	58.413
704.91	58.675
705.23	57.143
705.55	61.837
705.87	54.152
706.19	61.852
706.51	55.670
706.83	59.807
707.15	59.502
707.47	61.064
707.79	58.333
708.11	60.250
708.43	61.750
708.74	58.398
709.06	60.282
709.38	61.162
709.70	58.580
710.02	57.006
710.34	61.300
710.66	58.013
710.98	60.265
711.29	60.984
711.61	63.051
711.93	58.306
712.25	60.825
712.57	55.678
712.89	60.075
713.20	58.478
713.52	56.098
713.84	59.386
714.16	61.168
714.48	60.000
714.80	61.218
715.11	57.751
715.43	55.486
715.75	63.333
716.07	57.475
716.39	59.060
716.70	52.399
717.02	53.053
717.34	60.324
717.66	59.735
717.97	57.826
718.29	56.485
718.61	57.874
718.93	59.302
719.24	53.612
719.56	61.044
719.88	56.014
720.20	60.227
720.51	54.023
720.83	56.371
721.15	60.924
721.46	59.274
721.78	59.289
722.10	56.134
722.42	55.602
722.73	57.551
723.05	58.367
723.37	63.559
723.68	59.910
724.00	56.838
724.32	56.000
724.63	56.364
724.95	58.079
725.27	59.908
725.58	59.322
725.90	54.365
726.22	56.371
726.53	58.305
726.85	61.423
727.16	64.528
727.48	59.514
727.80	60.729
728.11	57.627
728.43	53.725
728.74	52.823
729.06	59.600
729.38	60.526
729.69	63.347
730.01	60.385
730.32	63.060
730.64	59.364
730.96	60.377
731.27	60.000
731.59	59.661
731.90	61.465
732.22	66.562
732.53	62.791
732.85	58.156
733.16	62.290
733.48	62.230
733.80	63.768
734.11	58.305
734.43	64.605
734.74	61.212
735.06	63.192
735.37	61.934
735.69	64.646
736.00	60.279
736.32	60.067
736.63	63.028
736.95	63.140
737.26	58.363
737.58	60.067
737.89	63.370
738.21	61.654
738.52	58.848
738.83	58.079
739.15	60.699
739.46	59.055
739.78	61.172
740.09	57.843
740.41	63.043
740.72	53.543
741.04	59.109
741.35	60.851
741.66	59.242
741.98	54.082
742.29	53.960
742.61	61.257
742.92	55.450
743.23	49.074
743.55	61.991
743.86	60.766
744.18	53.589
744.49	55.851
744.80	57.609
745.12	67.380
745.43	56.585
745.74	65.104
746.06	57.073
746.37	58.115
746.68	58.768
747.00	53.723
747.31	63.184
747.62	56.311
747.94	60.766
748.25	58.911
748.56	59.563
748.88	56.021
749.19	54.787
749.50	61.084
749.82	51.887
750.13	64.220
750.44	59.023
750.75	66.418
751.07	63.504
751.38	62.452
751.69	54.902
752.01	60.853
752.32	60.956
752.63	54.941
752.94	59.483
753.26	61.088
753.57	53.846
753.88	57.080
754.19	63.750
754.51	61.983
754.82	58.704
755.13	62.500
755.44	60.081
755.75	61.719
756.07	62.257
756.38	60.000
756.69	61.686
757.00	58.667
757.31	63.399
757.63	59.146
757.94	62.222
758.25	58.630
758.56	61.702
758.87	57.224
759.18	55.763
759.50	50.182
759.81	56.187
760.12	65.806
760.43	59.394
760.74	64.198
761.05	63.077
761.36	59.659
761.67	59.697
761.99	62.585
762.30	54.545
762.61	58.103
762.92	60.633
763.23	53.604
763.54	59.346
763.85	62.288
764.16	56.017
764.47	57.258
764.78	56.044
765.10	67.677
765.41	59.937
765.72	60.000
766.03	60.150
766.34	56.934
766.65	58.167
766.96	55.556
767.27	59.043
767.58	50.000
767.89	58.156
768.20	47.727
768.51	48.901
768.82	55.665
769.13	58.065
769.44	54.077
769.75	63.470
770.06	58.190
770.37	56.250
770.68	53.807
770.99	58.371
771.30	63.725
771.61	61.991
771.92	61.207
772.23	65.517
772.54	56.452
772.85	56.173
773.16	57.865
773.47	70.588
773.78	67.320
774.09	56.886
774.39	57.333
774.70	52.866
775.01	53.793
775.32	51.429
775.63	53.719
775.94	54.198
776.25	49.606
776.56	50.833
776.87	55.769
777.18	51.282
777.48	56.897
777.79	51.304
778.10	52.381
778.41	54.955
778.72	53.175
779.03	57.143
779.34	56.028
779.65	61.644
779.95	54.110
780.26	50.345
780.57	46.341
780.88	51.181
781.19	45.690
781.50	67.442
781.80	56.213
782.11	59.748
782.42	62.308
782.73	57.554
783.04	52.593
783.34	50.000
783.65	47.009
783.96	62.295
784.27	56.552
784.57	55.285
784.88	53.906
785.19	68.000
785.50	57.000
785.81	48.276
786.11	62.069
786.42	54.369
786.73	62.727
787.04	54.082
787.34	53.571
787.65	53.333
787.96	55.752
788.26	64.545
788.57	46.154
788.88	55.469
789.19	50.000
789.49	55.652
789.80	63.265
790.11	62.626
790.41	42.727
790.72	46.739
791.03	57.955
791.33	68.750
791.64	61.250
791.95	50.000
792.25	46.809
792.56	53.933
792.87	53.425
793.17	40.580
793.48	53.333
793.79	57.500
794.09	66.250
794.40	46.226
794.70	65.049
795.01	54.472
795.32	52.991
795.62	58.095
795.93	57.843
796.23	56.604
796.54	50.000
796.85	52.941
797.15	33.803
797.46	45.833
797.76	57.576
798.07	36.047
798.37	36.842
798.68	56.061
798.99	53.086
799.29	72.857
799.60	52.174
799.90	50.667
800.21	39.344
800.51	41.538
800.82	54.237
801.12	56.522
801.43	39.344
801.73	58.730
802.04	60.000
802.34	44.776
802.65	48.077
802.95	48.214
803.26	36.538
803.56	54.902
803.87	39.130
804.17	48.000
804.48	49.206
804.78	44.444
805.09	67.391
805.39	60.000
805.70	57.407
806.00	26.316
806.30	45.070
806.61	62.857
806.91	63.889
807.22	61.842
807.52	53.333
807.83	43.636
808.13	41.667
808.43	64.706
808.74	44.776
809.04	47.458
809.35	50.000
809.65	56.250
809.95	45.946
810.26	52.273
810.56	39.726
810.86	54.762
811.17	40.000
811.47	42.857
811.77	18.421
812.08	63.636
812.38	41.509
812.69	70.000
812.99	48.485
813.29	57.895
813.59	17.143
813.90	45.455
814.20	30.769
814.50	48.077
814.81	49.057
815.11	57.447
815.41	59.322
815.72	66.667
816.02	50.980
816.32	43.750
816.62	51.220
816.93	27.027
817.23	11.429
817.53	47.917
817.84	39.130
818.14	40.385
818.44	36.842
818.74	71.739
819.04	25.000
819.35	54.054
819.65	23.529
819.95	55.556
820.25	47.619
820.56	45.000
820.86	27.586
821.16	57.500
821.46	59.574
821.76	30.000
822.07	51.163
822.37	32.432
822.67	34.375
822.97	42.857
823.27	57.143
823.57	40.000
823.88	18.519
824.18	17.857
824.48	26.471
824.78	16.129
825.08	13.043
825.38	36.364
825.69	25.000
825.99	39.474
826.29	47.222
826.59	80.000
826.89	38.095
827.19	28.261
827.49	27.500
827.79	65.714
828.09	96.429
828.39	57.576
828.70	72.973
829.00	21.429
829.30	23.810
829.60	50.000
829.90	40.625
830.20	31.579
830.50	11.111
830.80	65.217
831.10	31.818
831.40	57.576
831.70	45.161
832.00	119.048
832.30	42.857
832.60	58.333
832.90	34.483
833.20	40.000
833.50	27.273
833.80	40.741
834.10	11.538
834.40	50.000
834.70	111.111
835.00	26.316
835.30	53.846
835.60	93.333
835.90	45.161
836.20	68.182
836.50	75.000
836.80	15.385
837.10	-7.143
837.40	333.333
837.70	72.727
838.00	9.091
838.30	4.348
838.60	46.154
838.90	95.455
839.19	0.000
839.49	56.667
839.79	38.462
840.09	25.000
840.39	46.429
840.69	42.857
840.99	19.231
841.29	-10.526
841.59	80.000
841.88	45.455
842.18	160.000
842.48	25.000
842.78	113.333
843.08	40.741
843.38	-100.000
843.68	39.130
843.97	6.667
844.27	13.333
844.57	30.000
844.87	55.556
845.17	19.048
845.47	20.000
845.76	9.524
846.06	11.765
846.36	20.000
846.66	28.571
846.96	26.667
847.25	0.000
847.55	57.143
847.85	25.000
848.15	22.727
848.44	133.333
848.74	45.000
849.04	51.852
849.34	9.091
849.63	-116.667
849.93	40.000
850.23	16.667
850.53	80.000
850.82	-7.692
851.12	11.111
851.42	60.000
851.71	23.077
852.01	0.000
852.31	50.000
852.61	27.273
852.90	65.000
853.20	0.000
853.50	-8.333
853.79	60.870
854.09	79.167
854.39	26.316
854.68	29.167
854.98	61.290
855.28	107.692
855.57	45.000
855.87	27.778
856.17	44.444
856.46	57.143
856.76	-20.000
857.05	88.889
857.35	60.000
857.65	27.778
857.94	30.769
858.24	93.103
858.53	16.667
858.83	55.556
859.13	54.545
859.42	43.478
859.72	100.000
860.01	-333.333
860.31	72.000
860.60	19.048
860.90	-66.667
861.20	0.000
861.49	-200.000
861.79	13.333
862.08	35.000
862.38	40.000
862.67	40.000
862.97	-16.667
863.26	-8.333
863.56	55.556
863.85	-100.000
864.15	33.333
864.44	10.000
864.74	42.857
865.03	225.000
865.33	-40.000
865.62	33.333
865.92	33.333
866.21	50.000
866.51	56.250
866.80	-27.273
867.10	50.000
867.39	141.667
867.69	0.000
867.98	23.077
868.27	-166.667
868.57	53.333
868.86	50.000
869.16	-53.846
869.45	33.333
869.75	-600.000
870.04	0.000
870.33	-71.429
870.63	52.381
870.92	533.333
871.22	20.000
871.51	100.000
871.80	100.000
872.10	-133.333
>>>>>End Processed Spectral Data<<<<<
