SpectraSuite Data File
++++++++++++++++++++++++++++++++++++
Date: Fri May 15 20:10:46 PDT 2015
User: schluterlab
Dark Spectrum Present: Yes
Reference Spectrum Present: Yes
Number of Sampled Component Spectra: 1
Spectrometers: USB2E3373
Integration Time (usec): 3000 (USB2E3373)
Spectra Averaged: 3 (USB2E3373)
Boxcar Smoothing: 0 (USB2E3373)
Correct for Electrical Dark: No (USB2E3373)
Strobe/Lamp Enabled: No (USB2E3373)
Correct for Detector Non-linearity: No (USB2E3373)
Correct for Stray Light: No (USB2E3373)
Number of Pixels in Processed Spectrum: 2048
>>>>>Begin Processed Spectral Data<<<<<
178.53	0.000
178.91	0.000
179.29	112.500
179.67	-350.000
180.04	-142.857
180.42	200.000
180.80	-1200.000
181.18	200.000
181.56	50.000
181.94	-350.000
182.31	200.000
182.69	-140.000
183.07	-100.000
183.45	-80.000
183.83	50.000
184.20	27.273
184.58	-11.111
184.96	-225.000
185.34	66.667
185.72	-250.000
186.09	-15.385
186.47	-700.000
186.85	66.667
187.23	-33.333
187.61	-700.000
187.98	66.667
188.36	88.889
188.74	-66.667
189.12	58.824
189.49	5.556
189.87	0.000
190.25	71.429
190.63	350.000
191.00	-33.333
191.38	26.316
191.76	450.000
192.14	-75.000
192.51	350.000
192.89	22.222
193.27	-28.571
193.65	116.667
194.02	100.000
194.40	70.000
194.78	-25.000
195.15	33.333
195.53	75.000
195.91	-0.000
196.29	-50.000
196.66	76.923
197.04	-57.143
197.42	0.000
197.79	-433.333
198.17	-61.538
198.55	700.000
198.92	-33.333
199.30	-100.000
199.68	-20.000
200.05	33.333
200.43	0.000
200.81	166.667
201.18	66.667
201.56	300.000
201.94	-100.000
202.31	-100.000
202.69	20.000
203.07	200.000
203.44	1100.000
203.82	0.000
204.19	78.571
204.57	-266.667
204.95	-37.500
205.32	50.000
205.70	57.143
206.08	-25.000
206.45	244.444
206.83	42.857
207.20	-200.000
207.58	200.000
207.96	33.333
208.33	0.000
208.71	100.000
209.08	-233.333
209.46	-300.000
209.84	-100.000
210.21	-900.000
210.59	157.143
210.96	216.667
211.34	75.000
211.71	6.667
212.09	-42.857
212.46	-1300.000
212.84	0.000
213.22	150.000
213.59	400.000
213.97	69.231
214.34	27.273
214.72	-100.000
215.09	200.000
215.47	30.769
215.84	81.818
216.22	-200.000
216.59	125.000
216.97	550.000
217.34	75.000
217.72	-320.000
218.09	62.500
218.47	25.000
218.84	-800.000
219.22	66.667
219.59	60.000
219.97	600.000
220.34	25.000
220.72	-57.143
221.09	25.000
221.47	50.000
221.84	-100.000
222.22	-250.000
222.59	100.000
222.97	125.000
223.34	-33.333
223.72	28.571
224.09	14.286
224.46	21.429
224.84	200.000
225.21	130.000
225.59	46.667
225.96	300.000
226.34	150.000
226.71	-71.429
227.08	0.000
227.46	50.000
227.83	-150.000
228.21	66.667
228.58	36.364
228.95	62.500
229.33	10.000
229.70	37.500
230.08	-87.500
230.45	-57.143
230.82	28.571
231.20	6.667
231.57	21.429
231.95	-85.714
232.32	90.000
232.69	85.714
233.07	366.667
233.44	120.000
233.81	-90.000
234.19	22.222
234.56	11.765
234.93	-300.000
235.31	175.000
235.68	-180.000
236.05	-46.154
236.43	-25.000
236.80	11.765
237.17	9.375
237.55	30.000
237.92	33.333
238.29	52.778
238.67	13.333
239.04	26.471
239.41	-7.317
239.79	53.333
240.16	29.268
240.53	7.895
240.91	15.217
241.28	20.635
241.65	39.286
242.02	26.027
242.40	21.667
242.77	38.983
243.14	22.727
243.51	17.500
243.89	28.736
244.26	14.943
244.63	17.857
245.00	29.897
245.38	27.835
245.75	21.348
246.12	6.034
246.49	24.793
246.87	24.038
247.24	21.008
247.61	15.789
247.98	26.016
248.36	13.125
248.73	17.763
249.10	16.234
249.47	22.152
249.84	19.608
250.22	17.059
250.59	26.797
250.96	20.657
251.33	17.442
251.70	28.235
252.08	25.381
252.45	24.257
252.82	24.121
253.19	25.806
253.56	16.822
253.94	21.171
254.31	23.913
254.68	21.053
255.05	22.047
255.42	24.454
255.79	20.849
256.16	19.455
256.54	25.373
256.91	20.152
257.28	14.870
257.65	21.723
258.02	20.567
258.39	24.579
258.76	22.344
259.14	25.581
259.51	19.741
259.88	21.649
260.25	20.588
260.62	20.139
260.99	18.983
261.36	17.466
261.73	16.772
262.10	23.404
262.47	19.632
262.85	21.630
263.22	22.769
263.59	20.249
263.96	22.360
264.33	20.606
264.70	19.345
265.07	19.940
265.44	21.813
265.81	20.056
266.18	20.492
266.55	22.879
266.92	23.057
267.29	19.582
267.66	19.182
268.03	23.822
268.40	21.410
268.77	23.529
269.14	20.384
269.51	25.193
269.88	20.200
270.25	18.367
270.62	19.024
270.99	20.716
271.36	18.093
271.73	20.892
272.10	21.168
272.47	18.203
272.84	20.050
273.21	22.970
273.58	20.964
273.95	21.510
274.32	18.014
274.69	17.873
275.06	22.545
275.43	19.274
275.80	20.309
276.17	21.379
276.54	18.844
276.91	19.956
277.28	20.306
277.65	20.868
278.02	21.064
278.39	18.162
278.76	21.174
279.13	18.257
279.50	22.899
279.87	19.222
280.23	16.559
280.60	19.883
280.97	21.010
281.34	18.462
281.71	21.766
282.08	18.814
282.45	18.787
282.82	20.849
283.19	18.569
283.56	18.882
283.92	19.545
284.29	20.000
284.66	18.411
285.03	18.271
285.40	17.202
285.77	18.453
286.14	19.675
286.51	20.111
286.87	19.561
287.24	18.969
287.61	18.519
287.98	18.947
288.35	18.371
288.72	18.214
289.08	17.535
289.45	18.629
289.82	17.483
290.19	17.918
290.56	17.839
290.93	20.202
291.29	15.716
291.66	17.165
292.03	17.703
292.40	16.290
292.77	17.703
293.13	15.260
293.50	15.630
293.87	18.473
294.24	15.456
294.60	15.648
294.97	17.411
295.34	15.644
295.71	15.797
296.08	16.143
296.44	14.509
296.81	17.778
297.18	16.377
297.55	16.125
297.91	15.479
298.28	16.095
298.65	14.383
299.02	14.286
299.38	14.364
299.75	14.897
300.12	14.921
300.48	14.493
300.85	14.322
301.22	16.623
301.59	15.000
301.95	15.063
302.32	16.732
302.69	14.677
303.05	15.594
303.42	14.570
303.79	15.304
304.15	15.771
304.52	13.674
304.89	13.567
305.25	13.559
305.62	13.069
305.99	14.269
306.35	14.682
306.72	13.611
307.09	14.595
307.45	16.533
307.82	15.625
308.19	17.073
308.55	16.249
308.92	16.885
309.29	15.307
309.65	16.362
310.02	15.732
310.38	15.038
310.75	15.519
311.12	16.792
311.48	16.437
311.85	15.916
312.22	15.506
312.58	16.348
312.95	16.222
313.31	16.874
313.68	17.068
314.05	16.837
314.41	17.732
314.78	17.732
315.14	17.986
315.51	18.841
315.87	18.443
316.24	19.919
316.61	19.193
316.97	20.139
317.34	20.215
317.70	18.834
318.07	19.327
318.43	21.078
318.80	20.265
319.16	23.340
319.53	22.602
319.89	21.752
320.26	22.672
320.62	23.069
320.99	20.668
321.35	23.022
321.72	23.884
322.08	24.673
322.45	25.279
322.81	23.772
323.18	24.534
323.54	25.483
323.91	25.998
324.27	27.344
324.64	26.779
325.00	28.285
325.37	30.028
325.73	28.921
326.10	29.973
326.46	31.928
326.83	32.458
327.19	31.997
327.56	33.102
327.92	33.539
328.29	32.946
328.65	34.717
329.01	34.375
329.38	35.853
329.74	37.205
330.11	35.496
330.47	36.735
330.84	36.442
331.20	40.019
331.56	37.685
331.93	38.813
332.29	39.322
332.66	37.104
333.02	38.848
333.38	38.863
333.75	39.469
334.11	40.555
334.48	40.617
334.84	40.476
335.20	41.995
335.57	40.526
335.93	40.560
336.29	41.713
336.66	39.328
337.02	41.822
337.38	39.722
337.75	40.636
338.11	40.848
338.47	44.526
338.84	41.867
339.20	41.316
339.56	41.284
339.93	40.286
340.29	41.743
340.65	40.950
341.02	41.578
341.38	40.354
341.74	39.576
342.11	40.035
342.47	43.149
342.83	41.696
343.20	42.422
343.56	43.652
343.92	43.578
344.28	41.759
344.65	42.228
345.01	41.659
345.37	41.716
345.73	42.929
346.10	41.588
346.46	41.295
346.82	41.735
347.19	41.480
347.55	41.855
347.91	40.291
348.27	41.876
348.63	43.697
349.00	41.509
349.36	43.225
349.72	42.952
350.08	41.393
350.45	41.181
350.81	41.362
351.17	40.228
351.53	41.796
351.89	41.288
352.26	42.800
352.62	43.306
352.98	41.205
353.34	42.593
353.70	42.961
354.07	42.419
354.43	42.514
354.79	44.344
355.15	42.857
355.51	42.563
355.87	42.961
356.24	42.333
356.60	42.441
356.96	42.937
357.32	43.371
357.68	43.237
358.04	43.376
358.40	42.363
358.77	44.338
359.13	44.275
359.49	43.143
359.85	43.994
360.21	44.976
360.57	43.076
360.93	44.402
361.29	44.411
361.66	43.730
362.02	44.091
362.38	44.554
362.74	45.496
363.10	44.620
363.46	45.515
363.82	44.853
364.18	44.428
364.54	44.853
364.90	44.803
365.26	44.469
365.62	46.277
365.98	45.528
366.35	46.395
366.71	45.676
367.07	45.791
367.43	46.010
367.79	46.643
368.15	45.154
368.51	47.633
368.87	46.447
369.23	45.054
369.59	47.157
369.95	47.287
370.31	47.399
370.67	47.239
371.03	46.826
371.39	46.171
371.75	48.059
372.11	48.359
372.47	47.263
372.83	48.190
373.19	48.431
373.55	47.653
373.91	48.092
374.27	48.618
374.63	50.108
374.99	49.078
375.35	49.234
375.71	50.769
376.07	50.772
376.42	51.293
376.78	52.013
377.14	49.966
377.50	51.129
377.86	51.138
378.22	51.563
378.58	52.244
378.94	51.733
379.30	51.716
379.66	53.229
380.02	52.974
380.38	52.952
380.74	53.022
381.09	53.804
381.45	54.312
381.81	54.473
382.17	53.680
382.53	54.154
382.89	54.300
383.25	55.569
383.61	54.939
383.97	55.111
384.32	56.098
384.68	55.666
385.04	54.473
385.40	54.263
385.76	57.170
386.12	56.404
386.48	57.918
386.83	56.436
387.19	57.326
387.55	57.465
387.91	57.824
388.27	57.814
388.62	59.346
388.98	58.011
389.34	57.714
389.70	59.229
390.06	57.709
390.42	57.966
390.77	59.581
391.13	59.269
391.49	58.991
391.85	61.793
392.20	59.699
392.56	59.568
392.92	60.012
393.28	60.613
393.64	59.760
393.99	60.815
394.35	61.037
394.71	60.345
395.07	59.019
395.42	59.441
395.78	60.782
396.14	60.845
396.50	62.587
396.85	61.494
397.21	61.529
397.57	61.191
397.92	60.036
398.28	61.207
398.64	59.337
399.00	60.835
399.35	61.400
399.71	61.172
400.07	63.120
400.42	60.710
400.78	62.400
401.14	61.283
401.49	62.299
401.85	60.999
402.21	61.747
402.57	62.563
402.92	60.979
403.28	61.591
403.63	62.106
403.99	62.054
404.35	63.398
404.70	60.774
405.06	60.576
405.42	61.902
405.77	62.522
406.13	61.292
406.49	60.332
406.84	60.880
407.20	61.589
407.55	60.914
407.91	61.832
408.27	63.671
408.62	62.769
408.98	61.738
409.34	63.569
409.69	62.274
410.05	62.131
410.40	61.975
410.76	61.460
411.11	62.437
411.47	61.999
411.83	61.959
412.18	62.934
412.54	61.673
412.89	61.515
413.25	62.635
413.60	61.118
413.96	60.307
414.31	62.500
414.67	62.861
415.03	63.515
415.38	62.076
415.74	62.801
416.09	62.704
416.45	61.377
416.80	62.921
417.16	64.986
417.51	63.558
417.87	62.842
418.22	62.306
418.58	64.147
418.93	63.197
419.29	60.883
419.64	64.614
420.00	64.295
420.35	64.239
420.71	63.183
421.06	64.088
421.42	63.642
421.77	62.832
422.12	62.997
422.48	63.887
422.83	63.051
423.19	63.544
423.54	64.727
423.90	63.192
424.25	63.490
424.61	64.688
424.96	63.531
425.31	65.742
425.67	64.261
426.02	66.549
426.38	66.249
426.73	65.617
427.09	65.949
427.44	65.176
427.79	66.117
428.15	65.655
428.50	65.778
428.85	65.111
429.21	65.818
429.56	66.739
429.92	65.229
430.27	63.960
430.62	64.454
430.98	64.915
431.33	65.405
431.68	65.097
432.04	65.959
432.39	64.632
432.74	64.762
433.10	65.690
433.45	64.934
433.80	66.164
434.16	65.152
434.51	66.290
434.86	66.492
435.22	66.237
435.57	66.563
435.92	67.246
436.28	65.236
436.63	67.199
436.98	66.802
437.34	66.606
437.69	68.098
438.04	66.382
438.39	66.524
438.75	67.395
439.10	65.591
439.45	67.559
439.81	66.850
440.16	68.468
440.51	67.821
440.86	68.399
441.22	67.760
441.57	67.605
441.92	68.835
442.27	68.071
442.63	67.184
442.98	67.145
443.33	67.780
443.68	67.321
444.03	68.256
444.39	66.601
444.74	69.509
445.09	67.762
445.44	67.407
445.79	68.850
446.15	67.401
446.50	66.778
446.85	68.172
447.20	69.187
447.55	67.969
447.91	68.077
448.26	67.672
448.61	67.703
448.96	67.871
449.31	68.266
449.66	68.467
450.02	68.568
450.37	69.176
450.72	68.557
451.07	69.494
451.42	67.228
451.77	67.752
452.12	66.746
452.47	67.547
452.83	68.787
453.18	68.311
453.53	69.090
453.88	69.095
454.23	68.654
454.58	69.144
454.93	68.814
455.28	66.349
455.63	68.878
455.98	68.370
456.34	68.199
456.69	69.250
457.04	69.250
457.39	68.287
457.74	68.924
458.09	66.745
458.44	67.408
458.79	68.403
459.14	68.535
459.49	68.119
459.84	67.118
460.19	68.507
460.54	68.704
460.89	68.807
461.24	68.447
461.59	68.884
461.94	67.862
462.29	68.396
462.64	69.037
462.99	68.382
463.34	68.428
463.69	68.147
464.04	67.554
464.39	69.497
464.74	69.141
465.09	68.808
465.44	68.609
465.79	67.687
466.14	67.503
466.49	67.108
466.84	67.043
467.19	67.960
467.54	67.305
467.89	69.488
468.24	67.762
468.59	68.635
468.94	67.492
469.29	67.934
469.64	69.173
469.99	70.918
470.34	67.577
470.68	70.544
471.03	69.993
471.38	69.829
471.73	69.888
472.08	69.878
472.43	69.530
472.78	68.334
473.13	69.864
473.48	69.511
473.83	68.493
474.17	69.948
474.52	67.900
474.87	69.394
475.22	67.724
475.57	69.396
475.92	69.775
476.27	68.568
476.61	69.907
476.96	68.712
477.31	69.173
477.66	68.427
478.01	70.466
478.36	67.810
478.70	70.310
479.05	69.780
479.40	68.839
479.75	69.030
480.10	69.073
480.45	69.250
480.79	70.342
481.14	71.260
481.49	68.128
481.84	70.270
482.19	69.177
482.53	68.873
482.88	68.640
483.23	69.194
483.58	68.774
483.92	68.683
484.27	67.411
484.62	68.714
484.97	68.781
485.31	68.100
485.66	67.679
486.01	67.924
486.36	67.368
486.70	66.811
487.05	66.652
487.40	66.727
487.75	67.155
488.09	66.100
488.44	65.406
488.79	65.783
489.13	67.788
489.48	68.790
489.83	68.924
490.17	67.596
490.52	68.868
490.87	67.561
491.22	70.010
491.56	69.023
491.91	67.734
492.26	69.859
492.60	69.194
492.95	70.635
493.30	68.539
493.64	70.138
493.99	68.406
494.34	68.738
494.68	69.143
495.03	69.002
495.37	70.216
495.72	69.864
496.07	69.463
496.41	68.774
496.76	70.106
497.11	68.607
497.45	69.308
497.80	70.535
498.14	67.561
498.49	69.172
498.84	69.760
499.18	69.428
499.53	69.097
499.87	69.309
500.22	69.486
500.56	70.247
500.91	69.930
501.26	69.105
501.60	69.651
501.95	70.160
502.29	69.007
502.64	69.836
502.98	71.238
503.33	69.741
503.67	69.301
504.02	70.674
504.36	69.273
504.71	68.838
505.06	69.200
505.40	69.746
505.75	70.258
506.09	70.046
506.44	71.355
506.78	70.510
507.13	70.786
507.47	69.608
507.82	70.513
508.16	69.942
508.51	71.249
508.85	71.219
509.19	69.931
509.54	70.724
509.88	71.143
510.23	72.243
510.57	70.818
510.92	69.403
511.26	70.649
511.61	71.562
511.95	71.342
512.30	71.009
512.64	72.231
512.98	72.319
513.33	71.852
513.67	70.836
514.02	72.140
514.36	72.743
514.70	73.310
515.05	73.032
515.39	73.081
515.74	73.952
516.08	72.744
516.42	72.674
516.77	73.318
517.11	74.362
517.46	72.651
517.80	73.063
518.14	73.729
518.49	73.317
518.83	73.269
519.17	71.680
519.52	72.232
519.86	72.509
520.20	73.694
520.55	73.358
520.89	72.459
521.23	74.984
521.58	72.240
521.92	73.974
522.26	74.236
522.61	74.416
522.95	76.225
523.29	74.396
523.64	74.015
523.98	73.688
524.32	74.549
524.66	74.520
525.01	74.351
525.35	74.854
525.69	74.209
526.04	75.397
526.38	76.265
526.72	73.578
527.06	75.486
527.41	75.792
527.75	74.531
528.09	75.017
528.43	75.354
528.78	74.389
529.12	74.000
529.46	74.789
529.80	73.591
530.15	75.644
530.49	76.296
530.83	76.129
531.17	73.002
531.51	76.607
531.86	73.080
532.20	76.200
532.54	75.357
532.88	75.017
533.22	74.126
533.57	75.098
533.91	74.869
534.25	75.000
534.59	74.535
534.93	73.002
535.27	74.619
535.62	74.789
535.96	75.473
536.30	74.208
536.64	75.465
536.98	72.683
537.32	75.320
537.66	75.736
538.01	76.434
538.35	74.341
538.69	74.634
539.03	73.069
539.37	75.168
539.71	74.506
540.05	75.153
540.39	75.346
540.73	74.686
541.07	75.069
541.42	75.202
541.76	75.705
542.10	73.365
542.44	74.288
542.78	73.572
543.12	75.069
543.46	74.618
543.80	74.462
544.14	74.099
544.48	73.484
544.82	75.120
545.16	74.658
545.50	73.498
545.84	74.717
546.18	75.319
546.52	74.910
546.86	73.760
547.20	75.536
547.54	73.993
547.88	74.185
548.22	73.833
548.56	72.230
548.90	75.202
549.24	73.760
549.58	75.529
549.92	74.339
550.26	75.531
550.60	74.647
550.94	76.027
551.28	76.507
551.62	77.077
551.96	75.865
552.30	75.439
552.64	74.965
552.98	73.629
553.32	75.321
553.66	74.891
554.00	76.423
554.34	75.775
554.68	74.115
555.02	75.595
555.36	76.664
555.69	75.824
556.03	73.162
556.37	74.591
556.71	75.162
557.05	75.839
557.39	74.349
557.73	76.762
558.07	76.848
558.41	76.263
558.75	75.760
559.08	75.965
559.42	75.794
559.76	77.742
560.10	75.306
560.44	74.162
560.78	74.755
561.12	76.023
561.45	76.880
561.79	76.681
562.13	76.579
562.47	74.317
562.81	75.504
563.15	74.330
563.48	76.238
563.82	75.841
564.16	75.070
564.50	74.527
564.84	73.762
565.17	74.245
565.51	76.708
565.85	76.543
566.19	74.867
566.52	76.072
566.86	74.357
567.20	74.471
567.54	76.156
567.88	75.454
568.21	75.566
568.55	73.641
568.89	73.973
569.23	74.290
569.56	73.380
569.90	74.218
570.24	71.567
570.57	72.909
570.91	73.057
571.25	72.246
571.59	71.878
571.92	69.956
572.26	70.441
572.60	70.264
572.93	69.658
573.27	69.718
573.61	70.525
573.95	71.327
574.28	69.809
574.62	69.794
574.96	68.811
575.29	69.384
575.63	67.323
575.97	68.636
576.30	68.934
576.64	68.689
576.98	70.450
577.31	70.042
577.65	69.885
577.98	69.273
578.32	68.467
578.66	67.999
578.99	68.882
579.33	68.823
579.67	67.272
580.00	68.228
580.34	69.851
580.67	68.645
581.01	69.092
581.35	68.906
581.68	68.727
582.02	69.040
582.35	68.839
582.69	69.205
583.02	68.297
583.36	68.488
583.70	69.860
584.03	69.280
584.37	70.384
584.70	69.121
585.04	67.772
585.37	69.238
585.71	68.971
586.04	68.734
586.38	69.325
586.72	70.846
587.05	70.595
587.39	71.317
587.72	71.022
588.06	69.278
588.39	70.464
588.73	71.001
589.06	70.972
589.40	70.169
589.73	70.537
590.07	71.337
590.40	70.898
590.73	71.664
591.07	70.399
591.40	70.926
591.74	72.670
592.07	73.052
592.41	71.996
592.74	71.565
593.08	70.590
593.41	71.071
593.75	70.265
594.08	69.276
594.41	69.978
594.75	71.107
595.08	71.131
595.42	71.697
595.75	71.536
596.09	72.752
596.42	72.303
596.75	71.980
597.09	71.481
597.42	72.674
597.75	72.607
598.09	70.530
598.42	70.668
598.76	70.785
599.09	71.755
599.42	70.595
599.76	70.467
600.09	70.890
600.42	71.152
600.76	70.505
601.09	69.962
601.42	70.192
601.76	71.258
602.09	71.452
602.42	71.314
602.76	71.010
603.09	72.051
603.42	73.913
603.76	71.976
604.09	71.081
604.42	72.377
604.76	72.808
605.09	71.892
605.42	71.964
605.75	71.673
606.09	71.125
606.42	70.642
606.75	71.645
607.09	71.516
607.42	69.783
607.75	71.004
608.08	70.305
608.42	68.936
608.75	72.819
609.08	73.991
609.41	71.929
609.75	71.724
610.08	73.140
610.41	72.222
610.74	72.111
611.07	73.798
611.41	73.845
611.74	73.028
612.07	72.430
612.40	73.195
612.73	74.181
613.07	72.666
613.40	72.976
613.73	73.867
614.06	72.231
614.39	73.773
614.72	73.165
615.06	72.346
615.39	72.434
615.72	71.582
616.05	72.291
616.38	71.624
616.71	73.394
617.05	73.008
617.38	73.099
617.71	74.906
618.04	75.111
618.37	75.221
618.70	74.785
619.03	75.347
619.36	74.674
619.69	75.891
620.03	76.041
620.36	75.608
620.69	75.874
621.02	75.306
621.35	77.676
621.68	76.446
622.01	75.917
622.34	76.217
622.67	75.868
623.00	75.957
623.33	76.067
623.66	75.318
623.99	76.248
624.32	76.198
624.65	75.865
624.99	75.621
625.32	75.133
625.65	77.298
625.98	78.243
626.31	75.478
626.64	78.250
626.97	78.272
627.30	77.758
627.63	76.256
627.96	78.077
628.29	78.168
628.62	77.974
628.95	77.956
629.28	79.940
629.61	78.066
629.94	80.352
630.26	78.953
630.59	83.039
630.92	79.077
631.25	76.923
631.58	80.837
631.91	79.167
632.24	80.390
632.57	79.318
632.90	79.359
633.23	79.882
633.56	83.627
633.89	80.641
634.22	81.358
634.55	83.482
634.88	83.142
635.20	80.769
635.53	82.667
635.86	81.795
636.19	84.217
636.52	82.653
636.85	79.653
637.18	80.881
637.51	81.132
637.83	77.924
638.16	83.356
638.49	79.155
638.82	82.368
639.15	82.225
639.48	81.706
639.81	81.869
640.13	84.127
640.46	83.236
640.79	82.916
641.12	83.309
641.45	82.282
641.77	81.185
642.10	84.676
642.43	85.691
642.76	83.168
643.09	82.391
643.41	80.744
643.74	83.361
644.07	84.565
644.40	85.811
644.73	85.464
645.05	84.899
645.38	86.949
645.71	82.979
646.04	89.048
646.36	84.043
646.69	85.971
647.02	90.359
647.35	86.940
647.67	81.353
648.00	88.806
648.33	82.423
648.66	84.746
648.98	81.910
649.31	84.132
649.64	79.749
649.96	81.848
650.29	82.624
650.62	81.538
650.94	85.926
651.27	82.123
651.60	85.405
651.92	82.867
652.25	83.126
652.58	83.167
652.90	86.106
653.23	83.529
653.56	81.895
653.88	81.443
654.21	81.086
654.54	81.154
654.86	84.041
655.19	79.678
655.52	79.257
655.84	73.195
656.17	79.588
656.49	100.000
656.82	100.000
657.15	89.290
657.47	59.501
657.80	44.632
658.13	44.054
658.45	67.197
658.78	65.211
659.10	63.889
659.43	62.857
659.75	65.565
660.08	67.241
660.41	70.378
660.73	75.691
661.06	77.990
661.38	83.170
661.71	82.341
662.03	87.554
662.36	85.495
662.68	84.292
663.01	87.555
663.33	86.775
663.66	87.674
663.98	83.721
664.31	83.156
664.63	86.636
664.96	78.913
665.28	83.444
665.61	82.684
665.93	82.826
666.26	85.033
666.58	84.340
666.91	87.294
667.23	87.264
667.56	90.047
667.88	89.928
668.21	91.885
668.53	86.288
668.86	87.500
669.18	84.670
669.50	88.378
669.83	85.349
670.15	86.247
670.48	83.254
670.80	83.871
671.13	83.221
671.45	84.932
671.77	82.618
672.10	80.594
672.42	82.210
672.75	80.817
673.07	83.005
673.39	82.936
673.72	79.290
674.04	82.500
674.37	83.051
674.69	82.441
675.01	84.222
675.34	86.036
675.66	87.037
675.98	80.266
676.31	86.927
676.63	85.273
676.95	83.636
677.28	87.059
677.60	88.193
677.92	82.339
678.25	83.589
678.57	83.983
678.89	81.723
679.22	89.485
679.54	79.920
679.86	81.113
680.18	82.524
680.51	81.629
680.83	78.529
681.15	81.600
681.48	86.270
681.80	82.645
682.12	80.847
682.44	82.008
682.77	82.561
683.09	84.668
683.41	82.955
683.73	83.180
684.06	81.416
684.38	80.215
684.70	85.185
685.02	84.025
685.34	83.004
685.67	77.674
685.99	79.566
686.31	81.593
686.63	79.406
686.96	78.327
687.28	81.212
687.60	81.179
687.92	84.848
688.24	83.669
688.56	84.716
688.89	81.473
689.21	82.444
689.53	81.903
689.85	82.093
690.17	86.161
690.49	83.452
690.82	82.039
691.14	81.190
691.46	86.682
691.78	82.207
692.10	80.215
692.42	80.519
692.74	78.632
693.06	81.982
693.39	80.769
693.71	79.638
694.03	82.910
694.35	82.710
694.67	85.354
694.99	84.595
695.31	82.768
695.63	83.000
695.95	81.061
696.27	85.233
696.59	86.944
696.91	82.913
697.23	84.062
697.56	84.653
697.88	82.581
698.20	79.043
698.52	86.824
698.84	80.622
699.16	85.250
699.48	83.709
699.80	81.390
700.12	86.792
700.44	85.434
700.76	81.686
701.08	80.000
701.40	86.747
701.72	90.741
702.04	88.449
702.36	93.980
702.68	84.685
703.00	86.970
703.32	81.232
703.64	77.684
703.96	77.971
704.28	85.583
704.60	84.762
704.91	81.388
705.23	85.714
705.55	89.046
705.87	89.170
706.19	89.259
706.51	79.038
706.83	85.531
707.15	82.555
707.47	85.154
707.79	79.688
708.11	79.750
708.43	81.000
708.74	79.328
709.06	87.324
709.38	88.991
709.70	79.882
710.02	82.484
710.34	83.591
710.66	77.885
710.98	84.437
711.29	90.492
711.61	85.085
711.93	83.388
712.25	87.629
712.57	84.615
712.89	82.463
713.20	84.775
713.52	81.882
713.84	83.959
714.16	87.285
714.48	90.000
714.80	90.385
715.11	84.802
715.43	78.056
715.75	86.333
716.07	85.714
716.39	82.550
716.70	83.764
717.02	81.679
717.34	89.879
717.66	94.690
717.97	79.565
718.29	87.029
718.61	81.496
718.93	84.109
719.24	86.312
719.56	88.353
719.88	77.320
720.20	82.955
720.51	77.778
720.83	81.853
721.15	89.916
721.46	83.065
721.78	78.261
722.10	81.413
722.42	86.722
722.73	78.776
723.05	91.837
723.37	86.017
723.68	90.991
724.00	89.316
724.32	82.222
724.63	84.091
724.95	87.773
725.27	87.097
725.58	78.390
725.90	77.778
726.22	85.328
726.53	73.559
726.85	78.652
727.16	84.151
727.48	77.733
727.80	84.211
728.11	85.593
728.43	76.471
728.74	83.065
729.06	81.200
729.38	85.338
729.69	89.243
730.01	79.231
730.32	83.582
730.64	82.686
730.96	88.302
731.27	77.333
731.59	84.407
731.90	78.662
732.22	75.079
732.53	84.385
732.85	80.142
733.16	80.471
733.48	76.978
733.80	87.681
734.11	77.288
734.43	79.381
734.74	77.273
735.06	82.736
735.37	75.831
735.69	82.492
736.00	79.791
736.32	72.483
736.63	79.930
736.95	79.863
737.26	84.698
737.58	75.503
737.89	81.685
738.21	87.594
738.52	84.774
738.83	84.716
739.15	82.533
739.46	84.646
739.78	77.656
740.09	73.856
740.41	80.435
740.72	79.921
741.04	84.615
741.35	81.702
741.66	81.043
741.98	86.224
742.29	82.673
742.61	89.005
742.92	83.412
743.23	79.167
743.55	82.805
743.86	86.124
744.18	86.124
744.49	85.106
744.80	79.348
745.12	94.118
745.43	81.951
745.74	91.146
746.06	81.951
746.37	87.958
746.68	81.043
747.00	83.511
747.31	86.070
747.62	86.893
747.94	78.947
748.25	76.238
748.56	96.721
748.88	85.340
749.19	92.021
749.50	81.281
749.82	77.830
750.13	86.697
750.44	82.707
750.75	88.806
751.07	87.956
751.38	79.693
751.69	80.392
752.01	82.946
752.32	84.462
752.63	79.447
752.94	82.328
753.26	83.264
753.57	83.258
753.88	85.398
754.19	79.167
754.51	84.711
754.82	80.972
755.13	84.167
755.44	83.871
755.75	85.937
756.07	80.545
756.38	79.245
756.69	83.908
757.00	78.333
757.31	77.124
757.63	75.305
757.94	69.444
758.25	72.329
758.56	71.543
758.87	74.504
759.18	73.520
759.50	77.818
759.81	80.602
760.12	82.903
760.43	76.364
760.74	78.086
761.05	79.692
761.36	74.432
761.67	80.909
761.99	75.510
762.30	75.273
762.61	79.051
762.92	80.543
763.23	80.180
763.54	76.168
763.85	76.271
764.16	80.913
764.47	82.258
764.78	70.330
765.10	77.441
765.41	73.817
765.72	76.825
766.03	77.820
766.34	76.277
766.65	77.689
766.96	80.808
767.27	83.511
767.58	73.563
767.89	87.943
768.20	78.977
768.51	80.220
768.82	73.892
769.13	75.576
769.44	71.674
769.75	77.626
770.06	72.845
770.37	76.923
770.68	81.726
770.99	68.778
771.30	83.824
771.61	83.258
771.92	78.017
772.23	84.236
772.54	80.108
772.85	82.716
773.16	71.910
773.47	90.850
773.78	81.046
774.09	79.641
774.39	80.667
774.70	77.707
775.01	84.828
775.32	76.429
775.63	94.215
775.94	82.443
776.25	81.890
776.56	74.167
776.87	82.692
777.18	82.906
777.48	80.172
777.79	77.391
778.10	79.048
778.41	75.676
778.72	86.508
779.03	75.940
779.34	85.106
779.65	82.877
779.95	76.712
780.26	77.931
780.57	73.984
780.88	74.016
781.19	79.310
781.50	92.248
781.80	72.781
782.11	76.101
782.42	89.231
782.73	79.856
783.04	83.704
783.34	75.694
783.65	79.487
783.96	85.246
784.27	75.172
784.57	84.553
784.88	82.812
785.19	74.000
785.50	94.000
785.81	70.690
786.11	79.310
786.42	73.786
786.73	83.636
787.04	93.878
787.34	80.357
787.65	84.762
787.96	70.796
788.26	81.818
788.57	78.632
788.88	73.438
789.19	72.222
789.49	73.913
789.80	91.837
790.11	82.828
790.41	70.909
790.72	92.391
791.03	80.682
791.33	106.250
791.64	88.750
791.95	82.558
792.25	76.596
792.56	87.640
792.87	80.822
793.17	86.957
793.48	74.667
793.79	72.500
794.09	101.250
794.40	65.094
794.70	79.612
795.01	72.358
795.32	67.521
795.62	79.048
795.93	86.275
796.23	65.094
796.54	82.292
796.85	70.588
797.15	67.606
797.46	87.500
797.76	77.273
798.07	81.395
798.37	73.684
798.68	71.212
798.99	75.309
799.29	57.143
799.60	81.159
799.90	73.333
800.21	86.885
800.51	83.077
800.82	83.051
801.12	79.710
801.43	75.410
801.73	96.825
802.04	78.000
802.34	62.687
802.65	92.308
802.95	67.857
803.26	82.692
803.56	82.353
803.87	82.609
804.17	68.000
804.48	74.603
804.78	68.519
805.09	95.652
805.39	84.444
805.70	74.074
806.00	52.632
806.30	70.423
806.61	88.571
806.91	66.667
807.22	61.842
807.52	70.667
807.83	72.727
808.13	77.778
808.43	88.235
808.74	68.657
809.04	57.627
809.35	86.538
809.65	67.188
809.95	67.568
810.26	70.455
810.56	61.644
810.86	102.381
811.17	70.000
811.47	65.306
811.77	55.263
812.08	79.545
812.38	66.038
812.69	77.500
812.99	63.636
813.29	89.474
813.59	68.571
813.90	70.455
814.20	48.718
814.50	61.538
814.81	75.472
815.11	51.064
815.41	83.051
815.72	92.857
816.02	82.353
816.32	68.750
816.62	80.488
816.93	56.757
817.23	65.714
817.53	66.667
817.84	67.391
818.14	59.615
818.44	63.158
818.74	78.261
819.04	25.000
819.35	91.892
819.65	38.235
819.95	100.000
820.25	73.810
820.56	80.000
820.86	72.414
821.16	120.000
821.46	93.617
821.76	107.500
822.07	62.791
822.37	40.541
822.67	59.375
822.97	73.810
823.27	60.714
823.57	116.000
823.88	51.852
824.18	78.571
824.48	70.588
824.78	74.194
825.08	91.304
825.38	81.818
825.69	91.667
825.99	73.684
826.29	77.778
826.59	160.000
826.89	33.333
827.19	58.696
827.49	65.000
827.79	65.714
828.09	82.143
828.39	90.909
828.70	100.000
829.00	78.571
829.30	85.714
829.60	86.667
829.90	84.375
830.20	63.158
830.50	59.259
830.80	86.957
831.10	81.818
831.40	72.727
831.70	77.419
832.00	128.571
832.30	38.095
832.60	133.333
832.90	62.069
833.20	130.000
833.50	51.515
833.80	62.963
834.10	84.615
834.40	96.875
834.70	177.778
835.00	89.474
835.30	103.846
835.60	133.333
835.90	87.097
836.20	95.455
836.50	60.714
836.80	19.231
837.10	35.714
837.40	233.333
837.70	86.364
838.00	63.636
838.30	56.522
838.60	76.923
838.90	100.000
839.19	78.571
839.49	80.000
839.79	107.692
840.09	0.000
840.39	85.714
840.69	78.571
840.99	26.923
841.29	57.895
841.59	40.000
841.88	163.636
842.18	140.000
842.48	56.250
842.78	133.333
843.08	55.556
843.38	80.000
843.68	95.652
843.97	60.000
844.27	20.000
844.57	100.000
844.87	72.222
845.17	80.952
845.47	93.333
845.76	95.238
846.06	52.941
846.36	140.000
846.66	71.429
846.96	60.000
847.25	-50.000
847.55	135.714
847.85	37.500
848.15	22.727
848.44	-66.667
848.74	5.000
849.04	74.074
849.34	118.182
849.63	-50.000
849.93	120.000
850.23	38.889
850.53	160.000
850.82	53.846
851.12	22.222
851.42	86.667
851.71	30.769
852.01	71.429
852.31	50.000
852.61	54.545
852.90	50.000
853.20	84.211
853.50	33.333
853.79	69.565
854.09	79.167
854.39	47.368
854.68	62.500
854.98	100.000
855.28	76.923
855.57	60.000
855.87	66.667
856.17	70.370
856.46	92.857
856.76	66.667
857.05	133.333
857.35	48.000
857.65	105.556
857.94	30.769
858.24	48.276
858.53	66.667
858.83	14.815
859.13	50.000
859.42	26.087
859.72	350.000
860.01	-33.333
860.31	44.000
860.60	42.857
860.90	100.000
861.20	33.333
861.49	0.000
861.79	66.667
862.08	90.000
862.38	113.333
862.67	-80.000
862.97	100.000
863.26	116.667
863.56	77.778
863.85	-466.667
864.15	55.556
864.44	100.000
864.74	107.143
865.03	250.000
865.33	-160.000
865.62	100.000
865.92	58.333
866.21	-50.000
866.51	112.500
866.80	54.545
867.10	-150.000
867.39	158.333
867.69	0.000
867.98	107.692
868.27	300.000
868.57	0.000
868.86	94.444
869.16	15.385
869.45	80.000
869.75	400.000
870.04	0.000
870.33	-28.571
870.63	71.429
870.92	166.667
871.22	-120.000
871.51	200.000
871.80	188.889
872.10	133.333
>>>>>End Processed Spectral Data<<<<<
