SpectraSuite Data File
++++++++++++++++++++++++++++++++++++
Date: Fri May 15 20:07:35 PDT 2015
User: schluterlab
Dark Spectrum Present: Yes
Reference Spectrum Present: Yes
Number of Sampled Component Spectra: 1
Spectrometers: USB2E3373
Integration Time (usec): 3000 (USB2E3373)
Spectra Averaged: 3 (USB2E3373)
Boxcar Smoothing: 0 (USB2E3373)
Correct for Electrical Dark: No (USB2E3373)
Strobe/Lamp Enabled: No (USB2E3373)
Correct for Detector Non-linearity: No (USB2E3373)
Correct for Stray Light: No (USB2E3373)
Number of Pixels in Processed Spectrum: 2048
>>>>>Begin Processed Spectral Data<<<<<
178.53	0.000
178.91	0.000
179.29	75.000
179.67	50.000
180.04	42.857
180.42	75.000
180.80	0.000
181.18	133.333
181.56	50.000
181.94	150.000
182.31	-0.000
182.69	-40.000
183.07	-133.333
183.45	0.000
183.83	16.667
184.20	9.091
184.58	222.222
184.96	-0.000
185.34	100.000
185.72	-100.000
186.09	-7.692
186.47	-500.000
186.85	83.333
187.23	166.667
187.61	100.000
187.98	33.333
188.36	55.556
188.74	166.667
189.12	41.176
189.49	77.778
189.87	0.000
190.25	14.286
190.63	750.000
191.00	-266.667
191.38	-5.263
191.76	150.000
192.14	25.000
192.51	0.000
192.89	-11.111
193.27	-157.143
193.65	100.000
194.02	200.000
194.40	110.000
194.78	-12.500
195.15	50.000
195.53	-100.000
195.91	150.000
196.29	-100.000
196.66	107.692
197.04	200.000
197.42	-77.778
197.79	-466.667
198.17	-46.154
198.55	1800.000
198.92	-166.667
199.30	-600.000
199.68	-20.000
200.05	-233.333
200.43	0.000
200.81	133.333
201.18	133.333
201.56	800.000
201.94	-100.000
202.31	-100.000
202.69	-260.000
203.07	175.000
203.44	900.000
203.82	0.000
204.19	35.714
204.57	-766.667
204.95	37.500
205.32	20.000
205.70	42.857
206.08	-150.000
206.45	188.889
206.83	100.000
207.20	-57.143
207.58	-100.000
207.96	-266.667
208.33	-60.000
208.71	125.000
209.08	-133.333
209.46	-1000.000
209.84	-180.000
210.21	-1400.000
210.59	28.571
210.96	-16.667
211.34	125.000
211.71	40.000
212.09	-57.143
212.46	-1200.000
212.84	0.000
213.22	80.000
213.59	100.000
213.97	69.231
214.34	9.091
214.72	-33.333
215.09	425.000
215.47	23.077
215.84	45.455
216.22	-33.333
216.59	-75.000
216.97	200.000
217.34	25.000
217.72	-240.000
218.09	75.000
218.47	75.000
218.84	-900.000
219.22	-11.111
219.59	-80.000
219.97	133.333
220.34	275.000
220.72	14.286
221.09	150.000
221.47	-450.000
221.84	-500.000
222.22	-650.000
222.59	0.000
222.97	25.000
223.34	-200.000
223.72	-71.429
224.09	28.571
224.46	14.286
224.84	666.667
225.21	20.000
225.59	60.000
225.96	-400.000
226.34	350.000
226.71	-42.857
227.08	-50.000
227.46	-62.500
227.83	-50.000
228.21	11.111
228.58	-45.455
228.95	-12.500
229.33	40.000
229.70	43.750
230.08	-125.000
230.45	-57.143
230.82	42.857
231.20	-6.667
231.57	71.429
231.95	-128.571
232.32	-60.000
232.69	-7.143
233.07	-266.667
233.44	-120.000
233.81	-90.000
234.19	33.333
234.56	-17.647
234.93	450.000
235.31	0.000
235.68	-200.000
236.05	-53.846
236.43	-10.000
236.80	47.059
237.17	15.625
237.55	-25.000
237.92	-7.407
238.29	11.111
238.67	20.000
239.04	-11.765
239.41	-26.829
239.79	-26.667
240.16	-2.439
240.53	-23.684
240.91	-19.565
241.28	4.762
241.65	-3.571
242.02	-2.740
242.40	0.000
242.77	6.780
243.14	-18.182
243.51	-3.750
243.89	0.000
244.26	-3.448
244.63	5.952
245.00	1.031
245.38	7.216
245.75	-8.989
246.12	3.448
246.49	-1.653
246.87	5.769
247.24	-9.244
247.61	-9.649
247.98	-3.252
248.36	6.875
248.73	5.921
249.10	-3.247
249.47	-5.063
249.84	0.654
250.22	1.765
250.59	2.614
250.96	7.512
251.33	0.000
251.70	1.765
252.08	4.061
252.45	-0.495
252.82	3.015
253.19	3.226
253.56	-1.402
253.94	4.054
254.31	5.217
254.68	4.386
255.05	0.787
255.42	-2.183
255.79	1.158
256.16	2.724
256.54	7.090
256.91	3.802
257.28	1.115
257.65	1.124
258.02	1.064
258.39	3.030
258.76	4.762
259.14	3.322
259.51	3.560
259.88	2.749
260.25	1.961
260.62	3.125
260.99	-2.712
261.36	-0.342
261.73	4.114
262.10	0.304
262.47	2.761
262.85	0.940
263.22	4.615
263.59	0.935
263.96	1.242
264.33	1.212
264.70	0.298
265.07	0.893
265.44	5.949
265.81	-0.847
266.18	3.279
266.55	2.828
266.92	3.109
267.29	2.089
267.66	3.325
268.03	0.524
268.40	3.655
268.77	4.545
269.14	2.638
269.51	1.028
269.88	0.499
270.25	2.041
270.62	1.707
270.99	0.767
271.36	0.733
271.73	1.174
272.10	1.703
272.47	3.073
272.84	1.980
273.21	4.176
273.58	1.687
273.95	1.831
274.32	0.231
274.69	0.000
275.06	4.018
275.43	3.175
275.80	0.883
276.17	1.379
276.54	2.784
276.91	3.289
277.28	1.528
277.65	3.719
278.02	2.766
278.39	0.656
278.76	0.419
279.13	-0.830
279.50	1.891
279.87	2.160
280.23	-0.645
280.60	3.119
280.97	2.020
281.34	-0.385
281.71	5.339
282.08	3.476
282.45	0.196
282.82	0.965
283.19	2.515
283.56	3.468
283.92	0.190
284.29	1.346
284.66	1.357
285.03	1.965
285.40	1.890
285.77	2.812
286.14	1.625
286.51	2.952
286.87	0.000
287.24	0.368
287.61	0.882
287.98	3.509
288.35	0.867
288.72	1.576
289.08	1.736
289.45	2.285
289.82	1.049
290.19	2.048
290.56	1.201
290.93	1.347
291.29	1.233
291.66	2.992
292.03	1.435
292.40	3.871
292.77	1.116
293.13	0.649
293.50	0.607
293.87	2.137
294.24	2.628
294.60	1.788
294.97	2.976
295.34	1.074
295.71	1.937
296.08	1.794
296.44	-0.284
296.81	1.806
297.18	0.580
297.55	2.981
297.91	1.781
298.28	4.485
298.65	1.357
299.02	1.752
299.38	0.137
299.75	2.207
300.12	0.131
300.48	-0.264
300.85	1.774
301.22	1.948
301.59	1.447
301.95	2.532
302.32	2.983
302.69	1.990
303.05	1.114
303.42	2.242
303.79	2.804
304.15	2.031
304.52	0.595
304.89	1.520
305.25	1.695
305.62	0.583
305.99	0.468
306.35	-0.116
306.72	0.225
307.09	1.368
307.45	1.263
307.82	0.463
308.19	1.858
308.55	0.981
308.92	2.832
309.29	1.676
309.65	-0.108
310.02	1.430
310.38	2.195
310.75	1.421
311.12	1.076
311.48	1.273
311.85	1.466
312.22	1.266
312.58	0.637
312.95	0.107
313.31	0.104
313.68	1.990
314.05	0.816
314.41	2.165
314.78	1.134
315.14	3.392
315.51	1.553
315.87	1.947
316.24	3.842
316.61	2.362
316.97	1.786
317.34	1.660
317.70	3.633
318.07	2.404
318.43	2.353
318.80	1.705
319.16	2.344
319.53	3.324
319.89	1.673
320.26	2.126
320.62	3.410
320.99	2.088
321.35	3.083
321.72	3.115
322.08	3.625
322.45	3.756
322.81	3.536
323.18	3.238
323.54	3.378
323.91	2.434
324.27	4.102
324.64	3.839
325.00	4.836
325.37	5.234
325.73	3.445
326.10	3.451
326.46	5.561
326.83	4.287
327.19	5.144
327.56	4.518
327.92	4.842
328.29	4.018
328.65	4.623
329.01	4.412
329.38	5.899
329.74	3.966
330.11	5.561
330.47	4.174
330.84	4.519
331.20	5.418
331.56	5.278
331.93	5.205
332.29	6.599
332.66	5.158
333.02	5.576
333.38	4.583
333.75	6.227
334.11	5.730
334.48	5.530
334.84	6.685
335.20	4.758
335.57	4.714
335.93	6.594
336.29	6.262
336.66	6.085
337.02	5.019
337.38	4.444
337.75	5.636
338.11	5.500
338.47	5.474
338.84	5.823
339.20	4.845
339.56	5.046
339.93	6.088
340.29	5.229
340.65	6.541
341.02	4.787
341.38	5.575
341.74	4.859
342.11	4.593
342.47	5.605
342.83	6.315
343.20	4.617
343.56	5.217
343.92	5.580
344.28	6.149
344.65	4.922
345.01	4.062
345.37	5.046
345.73	5.774
346.10	6.903
346.46	5.803
346.82	5.646
347.19	4.904
347.55	4.678
347.91	5.906
348.27	5.821
348.63	5.877
349.00	5.086
349.36	5.154
349.72	5.224
350.08	5.738
350.45	5.746
350.81	3.405
351.17	4.805
351.53	6.122
351.89	4.955
352.26	6.800
352.62	5.726
352.98	5.060
353.34	5.395
353.70	5.663
354.07	6.694
354.43	5.364
354.79	4.624
355.15	6.032
355.51	5.538
355.87	5.178
356.24	5.139
356.60	5.821
356.96	5.952
357.32	5.272
357.68	5.004
358.04	5.412
358.40	5.707
358.77	5.901
359.13	4.804
359.49	4.468
359.85	5.460
360.21	4.944
360.57	5.432
360.93	5.900
361.29	4.834
361.66	5.643
362.02	5.379
362.38	6.245
362.74	5.072
363.10	5.493
363.46	5.263
363.82	6.461
364.18	5.535
364.54	4.706
364.90	4.301
365.26	5.895
365.62	6.788
365.98	5.865
366.35	6.045
366.71	5.543
367.07	5.806
367.43	5.248
367.79	6.148
368.15	5.958
368.51	5.754
368.87	5.169
369.23	4.693
369.59	5.539
369.95	6.158
370.31	5.708
370.67	4.925
371.03	5.228
371.39	5.543
371.75	5.348
372.11	5.849
372.47	5.991
372.83	5.465
373.19	6.705
373.55	5.848
373.91	6.479
374.27	5.811
374.63	6.533
374.99	5.674
375.35	5.571
375.71	6.503
376.07	5.407
376.42	6.327
376.78	6.376
377.14	6.093
377.50	6.042
377.86	6.359
378.22	6.318
378.58	5.256
378.94	6.301
379.30	6.176
379.66	6.520
380.02	6.070
380.38	6.269
380.74	5.865
381.09	6.748
381.45	6.116
381.81	5.490
382.17	6.726
382.53	6.246
382.89	6.780
383.25	6.783
383.61	6.768
383.97	6.349
384.32	6.316
384.68	6.873
385.04	6.127
385.40	6.223
385.76	7.233
386.12	6.921
386.48	7.344
386.83	6.405
387.19	7.631
387.55	7.967
387.91	7.152
388.27	6.716
388.62	7.048
388.98	6.753
389.34	7.995
389.70	7.085
390.06	6.923
390.42	8.225
390.77	6.409
391.13	7.692
391.49	6.468
391.85	6.953
392.20	7.533
392.56	6.357
392.92	8.162
393.28	6.604
393.64	6.967
393.99	8.025
394.35	7.084
394.71	7.791
395.07	7.794
395.42	6.861
395.78	6.450
396.14	7.251
396.50	7.229
396.85	7.212
397.21	6.892
397.57	7.273
397.92	7.909
398.28	7.299
398.64	6.325
399.00	7.111
399.35	6.659
399.71	7.984
400.07	7.920
400.42	7.589
400.78	8.022
401.14	7.139
401.49	7.624
401.85	7.069
402.21	7.711
402.57	6.750
402.92	6.650
403.28	7.957
403.63	6.810
403.99	6.696
404.35	7.558
404.70	6.905
405.06	6.874
405.42	6.650
405.77	6.915
406.13	6.636
406.49	6.690
406.84	6.785
407.20	7.465
407.55	6.697
407.91	6.818
408.27	6.437
408.62	8.185
408.98	7.825
409.34	7.745
409.69	7.106
410.05	7.820
410.40	6.543
410.76	7.720
411.11	7.188
411.47	6.969
411.83	6.215
412.18	7.272
412.54	7.303
412.89	6.773
413.25	7.882
413.60	7.516
413.96	6.994
414.31	8.049
414.67	6.543
415.03	7.324
415.38	6.397
415.74	6.906
416.09	7.838
416.45	7.090
416.80	6.742
417.16	6.699
417.51	7.328
417.87	7.301
418.22	6.736
418.58	7.625
418.93	7.524
419.29	6.338
419.64	6.740
420.00	8.375
420.35	6.507
420.71	7.533
421.06	7.980
421.42	7.212
421.77	7.688
422.12	7.378
422.48	7.472
422.83	7.599
423.19	7.449
423.54	6.408
423.90	6.949
424.25	8.094
424.61	8.262
424.96	7.085
425.31	7.741
425.67	6.925
426.02	7.892
426.38	7.577
426.73	7.930
427.09	7.658
427.44	7.529
427.79	7.366
428.15	8.495
428.50	8.116
428.85	7.002
429.21	7.301
429.56	7.817
429.92	8.166
430.27	7.719
430.62	7.684
430.98	7.803
431.33	7.624
431.68	8.111
432.04	7.323
432.39	7.587
432.74	7.396
433.10	8.218
433.45	7.587
433.80	7.545
434.16	6.870
434.51	8.065
434.86	7.666
435.22	7.628
435.57	6.862
435.92	7.725
436.28	7.156
436.63	7.644
436.98	7.590
437.34	6.957
437.69	8.050
438.04	7.464
438.39	7.086
438.75	7.893
439.10	7.414
439.45	7.730
439.81	7.523
440.16	7.838
440.51	7.403
440.86	8.338
441.22	7.636
441.57	7.561
441.92	8.395
442.27	7.262
442.63	8.084
442.98	8.156
443.33	7.958
443.68	7.905
444.03	7.998
444.39	8.018
444.74	8.528
445.09	8.352
445.44	7.977
445.79	8.716
446.15	7.764
446.50	7.155
446.85	8.077
447.20	7.716
447.55	8.594
447.91	8.178
448.26	8.082
448.61	7.772
448.96	8.778
449.31	8.266
449.66	7.840
450.02	7.359
450.37	8.121
450.72	7.503
451.07	8.291
451.42	8.115
451.77	8.499
452.12	7.835
452.47	7.985
452.83	8.598
453.18	8.096
453.53	8.470
453.88	8.743
454.23	8.420
454.58	7.746
454.93	8.247
455.28	7.619
455.63	8.493
455.98	8.719
456.34	8.110
456.69	8.132
457.04	8.570
457.39	8.627
457.74	7.557
458.09	7.769
458.44	8.075
458.79	7.843
459.14	8.524
459.49	9.134
459.84	8.460
460.19	7.828
460.54	8.985
460.89	7.955
461.24	8.323
461.59	8.373
461.94	7.799
462.29	8.625
462.64	9.037
462.99	8.057
463.34	8.762
463.69	8.108
464.04	8.354
464.39	8.672
464.74	8.098
465.09	9.108
465.44	9.175
465.79	7.880
466.14	9.635
466.49	7.936
466.84	9.518
467.19	8.573
467.54	9.195
467.89	7.644
468.24	8.577
468.59	9.397
468.94	7.873
469.29	8.393
469.64	8.954
469.99	8.619
470.34	8.464
470.68	8.054
471.03	8.634
471.38	8.773
471.73	8.894
472.08	9.227
472.43	7.517
472.78	8.362
473.13	8.163
473.48	8.925
473.83	9.091
474.17	8.484
474.52	8.296
474.87	8.182
475.22	7.993
475.57	8.075
475.92	8.173
476.27	9.139
476.61	8.738
476.96	8.254
477.31	8.924
477.66	7.697
478.01	8.085
478.36	8.007
478.70	8.918
479.05	8.626
479.40	8.532
479.75	8.446
480.10	9.063
480.45	8.200
480.79	8.308
481.14	8.299
481.49	8.374
481.84	8.349
482.19	8.232
482.53	8.537
482.88	8.401
483.23	7.869
483.58	8.443
483.92	8.325
484.27	8.113
484.62	8.516
484.97	8.458
485.31	8.454
485.66	7.603
486.01	8.230
486.36	8.279
486.70	8.288
487.05	8.019
487.40	8.299
487.75	8.282
488.09	8.096
488.44	8.081
488.79	8.517
489.13	8.534
489.48	8.166
489.83	8.251
490.17	8.270
490.52	7.945
490.87	8.561
491.22	8.357
491.56	8.207
491.91	7.839
492.26	8.653
492.60	8.301
492.95	8.313
493.30	8.207
493.64	8.595
493.99	8.599
494.34	8.641
494.68	8.571
495.03	7.981
495.37	7.655
495.72	8.026
496.07	8.537
496.41	8.632
496.76	8.153
497.11	8.058
497.45	9.069
497.80	8.628
498.14	8.644
498.49	7.923
498.84	9.281
499.18	8.133
499.53	8.085
499.87	7.053
500.22	8.309
500.56	8.371
500.91	8.183
501.26	8.700
501.60	7.821
501.95	8.200
502.29	7.845
502.64	8.591
502.98	7.844
503.33	8.021
503.67	7.711
504.02	8.358
504.36	8.659
504.71	8.030
505.06	7.952
505.40	8.376
505.75	8.402
506.09	8.109
506.44	8.624
506.78	8.878
507.13	8.273
507.47	7.415
507.82	8.066
508.16	7.977
508.51	8.132
508.85	7.954
509.19	8.409
509.54	8.311
509.88	8.576
510.23	8.392
510.57	8.819
510.92	7.889
511.26	8.456
511.61	8.196
511.95	8.219
512.30	8.370
512.64	8.792
512.98	7.412
513.33	8.170
513.67	8.130
514.02	8.696
514.36	8.971
514.70	8.741
515.05	8.696
515.39	7.733
515.74	9.042
516.08	8.428
516.42	8.775
516.77	8.777
517.11	8.427
517.46	8.797
517.80	8.522
518.14	7.777
518.49	9.075
518.83	8.384
519.17	7.459
519.52	7.756
519.86	7.443
520.20	7.959
520.55	8.318
520.89	8.971
521.23	8.360
521.58	8.454
521.92	9.423
522.26	8.783
522.61	9.091
522.95	9.007
523.29	7.687
523.64	9.784
523.98	8.555
524.32	8.634
524.66	9.155
525.01	8.831
525.35	8.425
525.69	8.418
526.04	8.598
526.38	9.533
526.72	8.437
527.06	8.106
527.41	8.707
527.75	7.909
528.09	8.306
528.43	9.183
528.78	8.515
529.12	8.194
529.46	7.797
529.80	8.676
530.15	7.789
530.49	7.340
530.83	8.413
531.17	8.126
531.51	8.618
531.86	8.090
532.20	8.072
532.54	8.169
532.88	7.940
533.22	8.535
533.57	8.716
533.91	7.441
534.25	8.724
534.59	7.826
534.93	8.559
535.27	7.931
535.62	7.129
535.96	8.676
536.30	8.707
536.64	7.994
536.98	7.805
537.32	8.321
537.66	8.976
538.01	8.951
538.35	8.044
538.69	8.589
539.03	8.407
539.37	8.546
539.71	8.316
540.05	8.418
540.39	8.241
540.73	8.298
541.07	8.702
541.42	9.073
541.76	9.016
542.10	7.915
542.44	7.853
542.78	7.639
543.12	7.143
543.46	8.484
543.80	8.258
544.14	6.809
544.48	8.394
544.82	8.202
545.16	7.923
545.50	9.012
545.84	9.065
546.18	7.730
546.52	8.219
546.86	8.052
547.20	7.797
547.54	7.915
547.88	8.560
548.22	8.087
548.56	7.586
548.90	8.221
549.24	7.369
549.58	8.463
549.92	7.076
550.26	8.425
550.60	8.401
550.94	7.319
551.28	7.573
551.62	8.000
551.96	8.195
552.30	7.602
552.64	8.322
552.98	7.806
553.32	7.989
553.66	6.821
554.00	8.029
554.34	8.198
554.68	7.670
555.02	8.333
555.36	8.227
555.69	7.766
556.03	7.923
556.37	7.046
556.71	8.014
557.05	7.606
557.39	7.509
557.73	8.396
558.07	7.617
558.41	7.580
558.75	6.859
559.08	7.801
559.42	7.063
559.76	7.046
560.10	7.263
560.44	7.893
560.78	8.462
561.12	8.039
561.45	8.292
561.79	7.913
562.13	7.665
562.47	7.698
562.81	7.493
563.15	7.828
563.48	7.779
563.82	8.442
564.16	6.894
564.50	7.432
564.84	7.229
565.17	7.780
565.51	7.992
565.85	7.613
566.19	6.963
566.52	7.507
566.86	7.969
567.20	7.036
567.54	6.934
567.88	7.967
568.21	7.466
568.55	7.011
568.89	7.649
569.23	7.559
569.56	7.224
569.90	7.714
570.24	7.332
570.57	7.236
570.91	7.598
571.25	6.840
571.59	7.101
571.92	6.933
572.26	6.944
572.60	7.101
572.93	7.342
573.27	6.897
573.61	6.832
573.95	7.209
574.28	6.594
574.62	6.611
574.96	6.831
575.29	6.815
575.63	6.686
575.97	6.533
576.30	6.832
576.64	6.596
576.98	7.156
577.31	6.881
577.65	6.628
577.98	6.910
578.32	6.632
578.66	6.576
578.99	6.902
579.33	6.670
579.67	6.687
580.00	6.582
580.34	6.542
580.67	6.602
581.01	6.748
581.35	6.481
581.68	6.908
582.02	6.368
582.35	6.685
582.69	6.778
583.02	6.516
583.36	6.813
583.70	6.906
584.03	6.978
584.37	7.115
584.70	6.621
585.04	6.658
585.37	6.634
585.71	6.640
586.04	6.732
586.38	6.668
586.72	6.858
587.05	7.192
587.39	6.961
587.72	6.807
588.06	7.086
588.39	7.320
588.73	7.357
589.06	7.241
589.40	7.121
589.73	7.265
590.07	7.251
590.40	7.314
590.73	6.507
591.07	6.489
591.40	7.302
591.74	6.606
592.07	7.607
592.41	7.951
592.74	6.491
593.08	6.322
593.41	6.722
593.75	6.510
594.08	6.488
594.41	7.060
594.75	6.450
595.08	6.924
595.42	6.699
595.75	6.722
596.09	6.841
596.42	6.904
596.75	7.460
597.09	6.834
597.42	6.911
597.75	6.551
598.09	7.017
598.42	7.175
598.76	7.250
599.09	6.691
599.42	6.252
599.76	6.471
600.09	6.637
600.42	6.634
600.76	6.575
601.09	6.260
601.42	6.463
601.76	7.185
602.09	6.601
602.42	6.866
602.76	7.046
603.09	6.520
603.42	6.982
603.76	6.653
604.09	6.399
604.42	6.853
604.76	7.343
605.09	6.764
605.42	6.998
605.75	6.655
606.09	6.200
606.42	6.505
606.75	7.186
607.09	7.033
607.42	6.380
607.75	6.661
608.08	6.918
608.42	6.761
608.75	7.181
609.08	6.328
609.41	6.853
609.75	6.754
610.08	7.239
610.41	6.425
610.74	6.290
611.07	6.460
611.41	6.331
611.74	7.090
612.07	6.478
612.40	7.057
612.73	6.497
613.07	6.580
613.40	7.166
613.73	6.156
614.06	7.346
614.39	6.543
614.72	6.443
615.06	6.872
615.39	6.332
615.72	6.781
616.05	7.263
616.38	6.097
616.71	6.606
617.05	6.609
617.38	6.537
617.71	6.101
618.04	7.111
618.37	6.683
618.70	6.733
619.03	8.125
619.36	6.223
619.69	7.127
620.03	7.305
620.36	7.439
620.69	7.423
621.02	7.569
621.35	6.971
621.68	7.398
622.01	7.583
622.34	6.943
622.67	7.492
623.00	6.968
623.33	6.021
623.66	6.058
623.99	7.186
624.32	7.376
624.65	6.241
624.99	7.073
625.32	6.065
625.65	8.013
625.98	7.655
626.31	6.401
626.64	7.279
626.97	7.243
627.30	7.005
627.63	7.626
627.96	6.559
628.29	7.216
628.62	7.375
628.95	7.715
629.28	7.359
629.61	5.583
629.94	8.211
630.26	6.621
630.59	7.700
630.92	7.692
631.25	7.077
631.58	6.938
631.91	5.921
632.24	6.995
632.57	7.045
632.90	5.575
633.23	8.118
633.56	7.179
633.89	7.645
634.22	6.667
634.55	6.734
634.88	8.940
635.20	6.410
635.53	7.600
635.86	6.762
636.19	8.150
636.52	6.250
636.85	7.196
637.18	6.038
637.51	8.176
637.83	7.227
638.16	8.868
638.49	5.858
638.82	8.158
639.15	7.870
639.48	6.465
639.81	7.531
640.13	6.205
640.46	7.580
640.79	7.658
641.12	6.942
641.45	6.156
641.77	7.704
642.10	8.847
642.43	8.842
642.76	8.251
643.09	9.047
643.41	7.282
643.74	6.755
644.07	8.374
644.40	8.108
644.73	9.457
645.05	6.544
645.38	9.877
645.71	6.915
646.04	6.463
646.36	8.511
646.69	8.993
647.02	7.940
647.35	8.396
647.67	7.861
648.00	10.075
648.33	9.556
648.66	7.966
648.98	5.360
649.31	4.793
649.64	7.535
649.96	6.159
650.29	7.325
650.62	7.350
650.94	6.667
651.27	6.145
651.60	7.928
651.92	7.168
652.25	5.506
652.58	7.000
652.90	7.547
653.23	6.555
653.56	7.107
653.88	6.529
654.21	5.779
654.54	6.282
654.86	6.791
655.19	5.556
655.52	6.192
655.84	5.758
656.17	6.566
656.49	8.663
656.82	9.242
657.15	7.106
657.47	5.357
657.80	3.877
658.13	4.087
658.45	5.968
658.78	6.247
659.10	6.425
659.43	6.365
659.75	6.907
660.08	5.586
660.41	7.967
660.73	8.840
661.06	7.279
661.38	7.828
661.71	5.339
662.03	9.657
662.36	7.033
662.68	6.195
663.01	8.952
663.33	7.193
663.66	3.721
663.98	4.651
664.31	10.448
664.63	6.452
664.96	3.913
665.28	6.402
665.61	7.792
665.93	7.391
666.26	7.809
666.58	5.145
666.91	5.882
667.23	6.368
667.56	6.398
667.88	7.434
668.21	8.592
668.53	7.565
668.86	8.255
669.18	5.660
669.50	5.327
669.83	7.442
670.15	4.895
670.48	6.459
670.80	6.912
671.13	5.593
671.45	5.708
671.77	8.798
672.10	5.347
672.42	4.494
672.75	8.526
673.07	6.619
673.39	8.991
673.72	4.931
674.04	5.417
674.37	8.898
674.69	5.996
675.01	7.556
675.34	5.405
675.66	4.861
675.98	9.313
676.31	9.174
676.63	4.988
676.95	6.818
677.28	10.118
677.60	9.157
677.92	6.193
678.25	6.346
678.57	4.545
678.89	6.933
679.22	6.264
679.54	5.622
679.86	4.175
680.18	7.184
680.51	8.333
680.83	4.970
681.15	6.600
681.48	7.582
681.80	6.818
682.12	6.653
682.44	5.858
682.77	7.064
683.09	7.094
683.41	9.091
683.73	8.756
684.06	8.628
684.38	4.516
684.70	4.575
685.02	3.112
685.34	4.545
685.67	4.878
685.99	6.872
686.31	7.080
686.63	7.421
686.96	4.943
687.28	5.253
687.60	4.943
687.92	8.283
688.24	4.839
688.56	7.205
688.89	6.920
689.21	8.889
689.53	6.032
689.85	8.140
690.17	9.598
690.49	5.437
690.82	4.854
691.14	5.714
691.46	6.075
691.78	6.757
692.10	9.677
692.42	6.277
692.74	7.906
693.06	6.982
693.39	5.882
693.71	2.715
694.03	3.695
694.35	8.411
694.67	3.788
694.99	6.527
695.31	7.572
695.63	6.750
695.95	7.828
696.27	5.181
696.59	4.444
696.91	5.042
697.23	2.314
697.56	5.198
697.88	7.097
698.20	5.923
698.52	6.353
698.84	3.110
699.16	6.500
699.48	4.762
699.80	5.459
700.12	7.278
700.44	6.162
700.76	4.942
701.08	6.061
701.40	9.337
701.72	8.642
702.04	5.941
702.36	7.023
702.68	6.306
703.00	5.152
703.32	8.211
703.64	5.650
703.96	6.377
704.28	7.975
704.60	7.619
704.91	5.994
705.23	6.645
705.55	11.661
705.87	4.332
706.19	7.778
706.51	10.309
706.83	5.466
707.15	2.181
707.47	6.723
707.79	6.771
708.11	7.250
708.43	4.750
708.74	6.202
709.06	7.042
709.38	7.339
709.70	5.621
710.02	5.414
710.34	8.050
710.66	2.244
710.98	5.629
711.29	5.902
711.61	2.712
711.93	9.121
712.25	8.247
712.57	7.692
712.89	8.955
713.20	6.574
713.52	7.317
713.84	6.826
714.16	2.405
714.48	7.097
714.80	8.974
715.11	8.815
715.43	4.702
715.75	1.667
716.07	2.990
716.39	7.047
716.70	4.059
717.02	2.290
717.34	9.717
717.66	2.655
717.97	2.609
718.29	0.837
718.61	6.693
718.93	7.752
719.24	8.365
719.56	9.639
719.88	10.653
720.20	4.924
720.51	3.065
720.83	6.564
721.15	6.303
721.46	3.629
721.78	9.091
722.10	6.691
722.42	0.415
722.73	2.857
723.05	4.082
723.37	5.508
723.68	8.108
724.00	5.556
724.32	4.889
724.63	1.364
724.95	8.734
725.27	5.069
725.58	2.966
725.90	2.778
726.22	7.722
726.53	9.153
726.85	7.491
727.16	7.925
727.48	0.810
727.80	6.478
728.11	2.542
728.43	10.196
728.74	1.613
729.06	2.400
729.38	12.030
729.69	5.179
730.01	-1.154
730.32	10.075
730.64	8.481
730.96	9.434
731.27	6.333
731.59	8.475
731.90	3.185
732.22	6.940
732.53	8.306
732.85	7.092
733.16	8.754
733.48	3.597
733.80	7.246
734.11	5.763
734.43	4.467
734.74	6.061
735.06	2.280
735.37	8.157
735.69	7.407
736.00	1.394
736.32	7.383
736.63	4.930
736.95	8.532
737.26	3.203
737.58	4.027
737.89	2.198
738.21	7.895
738.52	7.819
738.83	5.677
739.15	-0.873
739.46	7.480
739.78	3.663
740.09	7.843
740.41	9.058
740.72	4.331
741.04	8.502
741.35	2.979
741.66	6.161
741.98	9.694
742.29	6.931
742.61	4.712
742.92	5.687
743.23	6.944
743.55	4.977
743.86	3.828
744.18	8.134
744.49	6.915
744.80	4.891
745.12	12.834
745.43	0.976
745.74	8.333
746.06	0.000
746.37	1.047
746.68	10.427
747.00	0.532
747.31	10.448
747.62	3.398
747.94	7.177
748.25	6.931
748.56	9.290
748.88	7.330
749.19	4.787
749.50	1.970
749.82	-1.415
750.13	5.963
750.44	10.902
750.75	4.104
751.07	9.854
751.38	6.513
751.69	4.706
752.01	7.364
752.32	6.773
752.63	6.324
752.94	4.741
753.26	10.042
753.57	0.000
753.88	6.195
754.19	3.333
754.51	5.372
754.82	6.073
755.13	9.583
755.44	5.645
755.75	10.547
756.07	3.502
756.38	1.509
756.69	3.448
757.00	6.333
757.31	9.804
757.63	5.488
757.94	8.056
758.25	4.932
758.56	5.053
758.87	5.382
759.18	8.723
759.50	3.636
759.81	8.027
760.12	7.742
760.43	8.182
760.74	4.630
761.05	6.462
761.36	4.261
761.67	8.182
761.99	8.503
762.30	7.273
762.61	6.719
762.92	2.262
763.23	1.351
763.54	2.336
763.85	6.356
764.16	2.490
764.47	7.661
764.78	2.564
765.10	9.091
765.41	4.416
765.72	8.254
766.03	4.511
766.34	8.759
766.65	4.781
766.96	3.030
767.27	7.447
767.58	6.897
767.89	4.965
768.20	3.977
768.51	-0.549
768.82	6.897
769.13	2.304
769.44	4.721
769.75	2.740
770.06	8.190
770.37	7.692
770.68	5.584
770.99	5.430
771.30	3.922
771.61	4.977
771.92	11.638
772.23	9.360
772.54	9.677
772.85	3.086
773.16	10.674
773.47	10.458
773.78	8.497
774.09	9.581
774.39	2.667
774.70	8.280
775.01	11.034
775.32	5.000
775.63	0.000
775.94	6.107
776.25	1.575
776.56	7.500
776.87	8.654
777.18	10.256
777.48	9.483
777.79	7.826
778.10	4.762
778.41	3.604
778.72	6.349
779.03	3.008
779.34	10.638
779.65	9.589
779.95	2.740
780.26	3.448
780.57	0.813
780.88	7.087
781.19	0.000
781.50	0.775
781.80	0.000
782.11	0.629
782.42	1.538
782.73	0.719
783.04	1.481
783.34	0.000
783.65	-9.402
783.96	9.016
784.27	12.414
784.57	4.065
784.88	9.375
785.19	7.000
785.50	9.000
785.81	9.483
786.11	5.172
786.42	1.942
786.73	12.727
787.04	3.061
787.34	5.357
787.65	13.333
787.96	1.770
788.26	4.545
788.57	-3.419
788.88	5.469
789.19	0.794
789.49	2.609
789.80	0.000
790.11	10.101
790.41	6.364
790.72	8.696
791.03	-2.273
791.33	0.000
791.64	0.000
791.95	17.442
792.25	1.064
792.56	7.865
792.87	-2.740
793.17	5.797
793.48	-8.000
793.79	-3.750
794.09	5.000
794.40	-5.660
794.70	2.913
795.01	-2.439
795.32	0.000
795.62	1.905
795.93	1.961
796.23	10.377
796.54	7.292
796.85	8.824
797.15	1.408
797.46	9.722
797.76	10.606
798.07	13.953
798.37	2.632
798.68	9.091
798.99	-7.407
799.29	2.857
799.60	8.696
799.90	10.667
800.21	3.279
800.51	12.308
800.82	22.034
801.12	20.290
801.43	8.197
801.73	9.524
802.04	6.000
802.34	7.463
802.65	3.846
802.95	0.000
803.26	-5.769
803.56	-9.804
803.87	-15.217
804.17	17.333
804.48	15.873
804.78	-3.704
805.09	-2.174
805.39	-15.556
805.70	12.963
806.00	-1.754
806.30	2.817
806.61	12.857
806.91	2.778
807.22	14.474
807.52	14.667
807.83	-1.818
808.13	1.389
808.43	5.882
808.74	1.493
809.04	-6.780
809.35	-3.846
809.65	3.125
809.95	-35.135
810.26	-18.182
810.56	-4.110
810.86	-16.667
811.17	-2.000
811.47	4.082
811.77	-28.947
812.08	13.636
812.38	11.321
812.69	25.000
812.99	-24.242
813.29	2.632
813.59	-40.000
813.90	18.182
814.20	-15.385
814.50	1.923
814.81	16.981
815.11	-21.277
815.41	22.034
815.72	11.905
816.02	23.529
816.32	16.667
816.62	14.634
816.93	2.703
817.23	-11.429
817.53	12.500
817.84	-17.391
818.14	5.769
818.44	-23.684
818.74	26.087
819.04	-25.000
819.35	-13.514
819.65	-8.824
819.95	13.889
820.25	14.286
820.56	22.500
820.86	-34.483
821.16	37.500
821.46	21.277
821.76	7.500
822.07	-6.977
822.37	-32.432
822.67	-28.125
822.97	35.714
823.27	-39.286
823.57	-20.000
823.88	-14.815
824.18	3.571
824.48	-20.588
824.78	9.677
825.08	-30.435
825.38	0.000
825.69	-62.500
825.99	13.158
826.29	-13.889
826.59	-46.667
826.89	-95.238
827.19	0.000
827.49	2.500
827.79	17.143
828.09	46.429
828.39	12.121
828.70	32.432
829.00	-10.714
829.30	0.000
829.60	6.667
829.90	9.375
830.20	5.263
830.50	-18.519
830.80	-78.261
831.10	-18.182
831.40	30.303
831.70	41.935
832.00	0.000
832.30	-28.571
832.60	-25.000
832.90	34.483
833.20	-40.000
833.50	24.242
833.80	7.407
834.10	11.538
834.40	25.000
834.70	-55.556
835.00	-68.421
835.30	23.077
835.60	0.000
835.90	6.452
836.20	-13.636
836.50	32.143
836.80	-19.231
837.10	0.000
837.40	66.667
837.70	0.000
838.00	-54.545
838.30	-21.739
838.60	-7.692
838.90	-18.182
839.19	-7.143
839.49	16.667
839.79	-53.846
840.09	-50.000
840.39	32.143
840.69	-10.714
840.99	-7.692
841.29	5.263
841.59	-120.000
841.88	-18.182
842.18	20.000
842.48	50.000
842.78	-20.000
843.08	-3.704
843.38	-120.000
843.68	30.435
843.97	-6.667
844.27	-60.000
844.57	35.000
844.87	11.111
845.17	-38.095
845.47	80.000
845.76	-33.333
846.06	23.529
846.36	-30.000
846.66	-71.429
846.96	-73.333
847.25	-87.500
847.55	-7.143
847.85	-112.500
848.15	-77.273
848.44	-300.000
848.74	0.000
849.04	29.630
849.34	-63.636
849.63	-200.000
849.93	-180.000
850.23	27.778
850.53	70.000
850.82	-46.154
851.12	-100.000
851.42	6.667
851.71	19.231
852.01	0.000
852.31	-225.000
852.61	-18.182
852.90	30.000
853.20	68.421
853.50	-100.000
853.79	43.478
854.09	8.333
854.39	-5.263
854.68	-25.000
854.98	25.806
855.28	0.000
855.57	-35.000
855.87	5.556
856.17	-3.704
856.46	78.571
856.76	-6.667
857.05	77.778
857.35	56.000
857.65	11.111
857.94	15.385
858.24	41.379
858.53	22.222
858.83	11.111
859.13	22.727
859.42	-8.696
859.72	-175.000
860.01	-600.000
860.31	32.000
860.60	47.619
860.90	-266.667
861.20	20.000
861.49	-700.000
861.79	-13.333
862.08	10.000
862.38	53.333
862.67	-240.000
862.97	-100.000
863.26	-16.667
863.56	11.111
863.85	-666.667
864.15	16.667
864.44	-30.000
864.74	21.429
865.03	150.000
865.33	-180.000
865.62	-16.667
865.92	0.000
866.21	-250.000
866.51	-43.750
866.80	-36.364
867.10	-200.000
867.39	116.667
867.69	0.000
867.98	30.769
868.27	-66.667
868.57	-6.667
868.86	66.667
869.16	15.385
869.45	66.667
869.75	-1100.000
870.04	0.000
870.33	14.286
870.63	23.810
870.92	166.667
871.22	-20.000
871.51	-500.000
871.80	11.111
872.10	166.667
>>>>>End Processed Spectral Data<<<<<
