SpectraSuite Data File
++++++++++++++++++++++++++++++++++++
Date: Fri May 15 17:31:01 PDT 2015
User: schluterlab
Dark Spectrum Present: Yes
Reference Spectrum Present: Yes
Number of Sampled Component Spectra: 1
Spectrometers: USB2E3373
Integration Time (usec): 3000 (USB2E3373)
Spectra Averaged: 3 (USB2E3373)
Boxcar Smoothing: 0 (USB2E3373)
Correct for Electrical Dark: No (USB2E3373)
Strobe/Lamp Enabled: No (USB2E3373)
Correct for Detector Non-linearity: No (USB2E3373)
Correct for Stray Light: No (USB2E3373)
Number of Pixels in Processed Spectrum: 2048
>>>>>Begin Processed Spectral Data<<<<<
178.53	0.000
178.91	0.000
179.29	75.000
179.67	-200.000
180.04	100.000
180.42	75.000
180.80	-100.000
181.18	266.667
181.56	150.000
181.94	350.000
182.31	-300.000
182.69	-160.000
183.07	-333.333
183.45	60.000
183.83	33.333
184.20	-45.455
184.58	-11.111
184.96	-150.000
185.34	33.333
185.72	0.000
186.09	100.000
186.47	700.000
186.85	216.667
187.23	22.222
187.61	-600.000
187.98	-166.667
188.36	11.111
188.74	-100.000
189.12	76.471
189.49	33.333
189.87	0.000
190.25	57.143
190.63	150.000
191.00	66.667
191.38	-21.053
191.76	250.000
192.14	-75.000
192.51	400.000
192.89	0.000
193.27	14.286
193.65	133.333
194.02	118.182
194.40	-50.000
194.78	-75.000
195.15	66.667
195.53	-62.500
195.91	300.000
196.29	-25.000
196.66	69.231
197.04	-114.286
197.42	22.222
197.79	33.333
198.17	-38.462
198.55	1300.000
198.92	200.000
199.30	300.000
199.68	80.000
200.05	33.333
200.43	0.000
200.81	300.000
201.18	66.667
201.56	1000.000
201.94	650.000
202.31	-266.667
202.69	-40.000
203.07	-75.000
203.44	900.000
203.82	0.000
204.19	57.143
204.57	-333.333
204.95	-62.500
205.32	50.000
205.70	85.714
206.08	0.000
206.45	77.778
206.83	64.286
207.20	14.286
207.58	-300.000
207.96	-66.667
208.33	-30.000
208.71	-25.000
209.08	-133.333
209.46	200.000
209.84	20.000
210.21	-600.000
210.59	-100.000
210.96	133.333
211.34	-225.000
211.71	26.667
212.09	-71.429
212.46	-900.000
212.84	0.000
213.22	130.000
213.59	200.000
213.97	84.615
214.34	45.455
214.72	0.000
215.09	475.000
215.47	-30.769
215.84	36.364
216.22	33.333
216.59	-12.500
216.97	50.000
217.34	100.000
217.72	-20.000
218.09	87.500
218.47	150.000
218.84	-300.000
219.22	-66.667
219.59	-140.000
219.97	166.667
220.34	-0.000
220.72	28.571
221.09	0.000
221.47	600.000
221.84	-350.000
222.22	-500.000
222.59	136.364
222.97	83.333
223.34	0.000
223.72	-7.143
224.09	23.810
224.46	28.571
224.84	433.333
225.21	10.000
225.59	86.667
225.96	-50.000
226.34	475.000
226.71	71.429
227.08	33.333
227.46	100.000
227.83	400.000
228.21	-88.889
228.58	9.091
228.95	62.500
229.33	10.000
229.70	37.500
230.08	-37.500
230.45	-57.143
230.82	100.000
231.20	13.333
231.57	107.143
231.95	71.429
232.32	-50.000
232.69	85.714
233.07	100.000
233.44	-100.000
233.81	-80.000
234.19	66.667
234.56	52.941
234.93	350.000
235.31	25.000
235.68	-60.000
236.05	0.000
236.43	10.000
236.80	52.941
237.17	18.750
237.55	-5.000
237.92	7.407
238.29	25.000
238.67	33.333
239.04	23.529
239.41	2.439
239.79	6.667
240.16	24.390
240.53	13.158
240.91	19.565
241.28	14.286
241.65	26.786
242.02	27.397
242.40	30.000
242.77	20.339
243.14	9.091
243.51	27.500
243.89	26.437
244.26	17.241
244.63	29.762
245.00	25.773
245.38	24.742
245.75	21.348
246.12	28.448
246.49	19.835
246.87	22.115
247.24	25.210
247.61	21.930
247.98	21.951
248.36	18.125
248.73	28.289
249.10	20.779
249.47	17.089
249.84	16.993
250.22	19.412
250.59	30.065
250.96	29.108
251.33	22.093
251.70	28.235
252.08	21.827
252.45	22.772
252.82	22.111
253.19	26.728
253.56	17.290
253.94	27.928
254.31	29.565
254.68	26.316
255.05	24.016
255.42	28.821
255.79	25.483
256.16	23.735
256.54	24.254
256.91	24.335
257.28	22.305
257.65	22.472
258.02	21.986
258.39	25.253
258.76	26.740
259.14	25.249
259.51	22.654
259.88	25.773
260.25	17.974
260.62	20.139
260.99	23.729
261.36	19.863
261.73	22.468
262.10	21.884
262.47	22.699
262.85	22.571
263.22	22.154
263.59	21.807
263.96	26.398
264.33	24.545
264.70	23.214
265.07	21.429
265.44	26.062
265.81	23.729
266.18	20.219
266.55	23.650
266.92	24.093
267.29	26.893
267.66	22.506
268.03	23.560
268.40	22.193
268.77	22.727
269.14	23.741
269.51	22.365
269.88	22.943
270.25	22.194
270.62	20.000
270.99	24.041
271.36	21.516
271.73	23.709
272.10	24.088
272.47	24.113
272.84	19.802
273.21	23.898
273.58	21.205
273.95	21.739
274.32	21.016
274.69	21.041
275.06	25.670
275.43	21.315
275.80	22.737
276.17	22.069
276.54	22.912
276.91	22.807
277.28	21.397
277.65	22.107
278.02	20.851
278.39	23.195
278.76	23.270
279.13	19.502
279.50	22.689
279.87	20.734
280.23	20.645
280.60	24.366
280.97	21.212
281.34	20.577
281.71	22.177
282.08	20.654
282.45	20.744
282.82	20.849
283.19	21.470
283.56	21.387
283.92	20.493
284.29	19.808
284.66	20.543
285.03	19.450
285.40	20.227
285.77	20.035
286.14	18.953
286.51	24.170
286.87	19.927
287.24	20.994
287.61	21.693
287.98	22.632
288.35	20.624
288.72	21.541
289.08	19.792
289.45	18.629
289.82	19.930
290.19	19.795
290.56	17.839
290.93	19.360
291.29	18.644
291.66	19.213
292.03	17.544
292.40	18.871
292.77	18.341
293.13	17.208
293.50	17.451
293.87	17.557
294.24	16.692
294.60	16.990
294.97	17.560
295.34	14.417
295.71	16.990
296.08	17.788
296.44	14.225
296.81	15.556
297.18	16.957
297.55	17.615
297.91	17.260
298.28	16.623
298.65	16.554
299.02	16.173
299.38	15.185
299.75	15.172
300.12	15.445
300.48	14.493
300.85	15.209
301.22	15.974
301.59	14.079
301.95	15.443
302.32	16.213
302.69	15.299
303.05	15.842
303.42	13.325
303.79	14.369
304.15	15.412
304.52	14.269
304.89	14.269
305.25	14.286
305.62	14.819
305.99	13.918
306.35	15.260
306.72	14.398
307.09	14.367
307.45	13.548
307.82	14.120
308.19	14.866
308.55	13.959
308.92	16.013
309.29	12.514
309.65	14.747
310.02	15.292
310.38	13.941
310.75	14.098
311.12	13.994
311.48	13.786
311.85	13.613
312.22	14.557
312.58	13.482
312.95	13.127
313.31	13.251
313.68	13.927
314.05	13.469
314.41	14.639
314.78	14.845
315.14	15.416
315.51	14.182
315.87	13.832
316.24	15.470
316.61	16.240
316.97	15.972
317.34	15.820
317.70	14.532
318.07	16.154
318.43	14.902
318.80	15.152
319.16	16.895
319.53	18.708
319.89	17.126
320.26	18.826
320.62	18.756
320.99	17.641
321.35	18.088
321.72	19.938
322.08	18.731
322.45	19.188
322.81	19.155
323.18	20.118
323.54	20.174
323.91	22.103
324.27	22.266
324.64	24.157
325.00	23.084
325.37	25.436
325.73	24.388
326.10	24.251
326.46	25.381
326.83	25.634
327.19	26.417
327.56	28.323
327.92	28.961
328.29	28.214
328.65	29.623
329.01	29.779
329.38	30.876
329.74	31.539
330.11	31.233
330.47	31.911
330.84	32.500
331.20	34.316
331.56	33.056
331.93	35.251
332.29	36.114
332.66	35.566
333.02	36.989
333.38	37.672
333.75	39.377
334.11	38.317
334.48	38.985
334.84	39.927
335.20	40.165
335.57	40.254
335.93	40.470
336.29	42.634
336.66	41.871
337.02	40.892
337.38	40.833
337.75	42.455
338.11	42.741
338.47	44.161
338.84	44.547
339.20	43.419
339.56	44.862
339.93	44.494
340.29	44.862
340.65	44.086
341.02	43.706
341.38	44.336
341.74	44.965
342.11	43.588
342.47	44.751
342.83	45.069
343.20	43.902
343.56	44.696
343.92	45.793
344.28	46.285
344.65	46.287
345.01	45.462
345.37	44.491
345.73	45.523
346.10	46.160
346.46	44.659
346.82	44.517
347.19	44.306
347.55	46.366
347.91	45.631
348.27	45.756
348.63	46.167
349.00	45.693
349.36	46.301
349.72	44.693
350.08	46.639
350.45	45.411
350.81	45.930
351.17	45.195
351.53	46.694
351.89	44.591
352.26	44.880
352.62	45.323
352.98	46.185
353.34	45.813
353.70	46.845
354.07	45.323
354.43	45.717
354.79	45.995
355.15	46.032
355.51	46.044
355.87	45.955
356.24	45.024
356.60	46.483
356.96	47.222
357.32	46.406
357.68	45.739
358.04	46.607
358.40	46.945
358.77	46.332
359.13	47.558
359.49	45.994
359.85	46.178
360.21	46.651
360.57	46.213
360.93	46.369
361.29	46.979
361.66	47.022
362.02	48.030
362.38	47.982
362.74	47.313
363.10	49.210
363.46	48.036
363.82	47.934
364.18	45.683
364.54	47.721
364.90	47.957
365.26	48.908
365.62	49.416
365.98	47.801
366.35	49.454
366.71	48.780
367.07	49.347
367.43	49.748
367.79	50.035
368.15	48.959
368.51	50.546
368.87	50.036
369.23	48.881
369.59	49.344
369.95	50.147
370.31	49.133
370.67	49.776
371.03	49.291
371.39	50.182
371.75	48.938
372.11	49.073
372.47	50.888
372.83	51.029
373.19	51.355
373.55	50.758
373.91	49.964
374.27	51.240
374.63	51.328
374.99	51.064
375.35	51.741
375.71	51.748
376.07	51.264
376.42	51.973
376.78	52.349
377.14	51.320
377.50	51.594
377.86	51.740
378.22	51.563
378.58	51.346
378.94	51.166
379.30	52.464
379.66	52.602
380.02	52.299
380.38	52.830
380.74	51.586
381.09	53.006
381.45	53.823
381.81	51.635
382.17	52.602
382.53	53.279
382.89	54.049
383.25	54.076
383.61	53.841
383.97	54.159
384.32	52.971
384.68	54.427
385.04	53.615
385.40	54.014
385.76	54.906
386.12	55.886
386.48	55.364
386.83	54.027
387.19	54.518
387.55	54.956
387.91	55.196
388.27	55.067
388.62	55.129
388.98	54.389
389.34	55.340
389.70	55.811
390.06	54.059
390.42	54.793
390.77	56.246
391.13	54.035
391.49	56.274
391.85	56.660
392.20	54.802
392.56	56.198
392.92	56.430
393.28	54.422
393.64	55.255
393.99	57.241
394.35	55.281
394.71	55.875
395.07	54.494
395.42	55.677
395.78	56.091
396.14	55.864
396.50	55.422
396.85	55.248
397.21	54.699
397.57	54.984
397.92	54.284
398.28	56.552
398.64	54.458
399.00	55.361
399.35	54.458
399.71	54.624
400.07	56.106
400.42	54.835
400.78	55.236
401.14	55.354
401.49	55.867
401.85	54.174
402.21	53.675
402.57	55.562
402.92	54.956
403.28	55.514
403.63	55.485
403.99	54.464
404.35	55.903
404.70	53.929
405.06	53.702
405.42	54.257
405.77	54.038
406.13	54.598
406.49	54.885
406.84	55.318
407.20	54.485
407.55	54.089
407.91	54.612
408.27	54.238
408.62	54.154
408.98	53.851
409.34	53.841
409.69	53.682
410.05	53.325
410.40	54.877
410.76	55.368
411.11	54.375
411.47	54.175
411.83	53.484
412.18	54.505
412.54	53.184
412.89	54.126
413.25	54.813
413.60	53.416
413.96	53.558
414.31	53.171
414.67	54.971
415.03	54.194
415.38	54.178
415.74	54.202
416.09	54.605
416.45	54.018
416.80	53.470
417.16	54.213
417.51	55.230
417.87	56.454
418.22	55.311
418.58	54.716
418.93	54.734
419.29	52.689
419.64	54.504
420.00	56.108
420.35	53.552
420.71	55.164
421.06	56.292
421.42	55.469
421.77	55.723
422.12	54.938
422.48	55.225
422.83	55.278
423.19	55.756
423.54	56.379
423.90	56.125
424.25	55.224
424.61	56.548
424.96	56.446
425.31	56.326
425.67	56.279
426.02	57.833
426.38	57.733
426.73	57.627
427.09	58.734
427.44	57.588
427.79	57.631
428.15	57.100
428.50	58.571
428.85	57.494
429.21	57.725
429.56	58.814
429.92	58.038
430.27	57.694
430.62	57.554
430.98	58.121
431.33	58.360
431.68	57.457
432.04	58.748
432.39	58.357
432.74	57.547
433.10	59.425
433.45	59.020
433.80	58.967
434.16	59.169
434.51	59.355
434.86	59.698
435.22	59.787
435.57	60.761
435.92	58.623
436.28	59.094
436.63	60.468
436.98	59.618
437.34	59.105
437.69	60.167
438.04	59.715
438.39	58.888
438.75	61.324
439.10	60.781
439.45	60.195
439.81	60.795
440.16	60.689
440.51	60.716
440.86	62.598
441.22	60.181
441.57	61.313
441.92	62.644
442.27	62.749
442.63	61.456
442.98	62.033
443.33	62.215
443.68	62.016
444.03	61.848
444.39	61.584
444.74	62.207
445.09	62.973
445.44	63.362
445.79	62.506
446.15	60.848
446.50	60.788
446.85	62.859
447.20	62.826
447.55	62.500
447.91	61.591
448.26	61.639
448.61	61.773
448.96	62.937
449.31	62.023
449.66	62.253
450.02	62.750
450.37	62.656
450.72	63.001
451.07	63.101
451.42	61.860
451.77	62.749
452.12	62.261
452.47	62.910
452.83	62.014
453.18	61.354
453.53	63.401
453.88	63.145
454.23	62.999
454.58	63.035
454.93	63.466
455.28	61.587
455.63	62.616
455.98	63.680
456.34	62.324
456.69	63.914
457.04	64.398
457.39	62.697
457.74	64.268
458.09	62.743
458.44	63.312
458.79	62.801
459.14	63.787
459.49	64.119
459.84	63.621
460.19	64.138
460.54	63.447
460.89	63.068
461.24	63.540
461.59	62.886
461.94	62.893
462.29	63.088
462.64	64.053
462.99	64.387
463.34	63.630
463.69	63.578
464.04	63.983
464.39	63.311
464.74	63.865
465.09	64.379
465.44	64.397
465.79	63.209
466.14	65.906
466.49	63.772
466.84	63.236
467.19	64.393
467.54	63.346
467.89	65.003
468.24	63.869
468.59	64.889
468.94	63.302
469.29	62.557
469.64	63.636
469.99	65.102
470.34	63.481
470.68	65.026
471.03	64.685
471.38	64.194
471.73	64.706
472.08	63.772
472.43	63.020
472.78	64.496
473.13	64.490
473.48	64.691
473.83	62.827
474.17	65.609
474.52	65.412
474.87	64.788
475.22	64.857
475.57	64.766
475.92	64.235
476.27	63.912
476.61	66.609
476.96	64.250
477.31	63.926
477.66	62.528
478.01	64.683
478.36	64.815
478.70	65.307
479.05	65.879
479.40	65.183
479.75	63.191
480.10	64.055
480.45	64.700
480.79	65.609
481.14	66.598
481.49	65.419
481.84	65.492
482.19	66.090
482.53	65.564
482.88	63.198
483.23	64.299
483.58	64.623
483.92	64.956
484.27	63.674
484.62	66.114
484.97	63.765
485.31	64.632
485.66	67.356
486.01	68.101
486.36	67.234
486.70	66.847
487.05	66.406
487.40	66.339
487.75	65.577
488.09	64.679
488.44	64.787
488.79	64.849
489.13	64.663
489.48	64.173
489.83	64.574
490.17	64.225
490.52	64.249
490.87	63.026
491.22	65.950
491.56	64.326
491.91	63.384
492.26	65.192
492.60	63.772
492.95	65.962
493.30	63.947
493.64	65.226
493.99	65.072
494.34	65.194
494.68	63.810
495.03	64.380
495.37	64.377
495.72	64.967
496.07	64.976
496.41	65.189
496.76	65.223
497.11	64.695
497.45	64.964
497.80	66.700
498.14	64.083
498.49	63.840
498.84	65.070
499.18	65.964
499.53	65.228
499.87	64.056
500.22	65.529
500.56	65.305
500.91	64.558
501.26	64.360
501.60	65.667
501.95	64.726
502.29	65.956
502.64	66.988
502.98	65.910
503.33	65.274
503.67	64.578
504.02	65.347
504.36	65.809
504.71	64.697
505.06	63.915
505.40	64.264
505.75	66.134
506.09	64.876
506.44	65.708
506.78	65.459
507.13	64.995
507.47	63.342
507.82	64.797
508.16	64.554
508.51	65.163
508.85	65.725
509.19	64.077
509.54	65.416
509.88	65.102
510.23	65.680
510.57	65.366
510.92	64.232
511.26	63.557
511.61	65.567
511.95	65.041
512.30	64.745
512.64	64.663
512.98	65.581
513.33	64.801
513.67	64.582
514.02	64.645
514.36	65.543
514.70	65.093
515.05	66.451
515.39	64.699
515.74	65.150
516.08	65.152
516.42	66.313
516.77	65.886
517.11	66.172
517.46	64.871
517.80	63.528
518.14	64.666
518.49	63.281
518.83	65.674
519.17	63.190
519.52	64.180
519.86	64.226
520.20	63.791
520.55	65.166
520.89	65.558
521.23	63.965
521.58	63.785
521.92	64.615
522.26	64.541
522.61	64.481
522.95	65.762
523.29	64.168
523.64	65.565
523.98	64.679
524.32	63.789
524.66	64.725
525.01	65.390
525.35	64.874
525.69	64.377
526.04	65.344
526.38	65.759
526.72	62.982
527.06	62.257
527.41	64.446
527.75	65.550
528.09	65.249
528.43	66.442
528.78	65.281
529.12	64.129
529.46	64.587
529.80	64.345
530.15	65.479
530.49	64.916
530.83	65.800
531.17	64.540
531.51	65.732
531.86	65.466
532.20	64.509
532.54	64.602
532.88	64.476
533.22	65.121
533.57	65.203
533.91	65.992
534.25	66.406
534.59	65.298
534.93	65.009
535.27	64.086
535.62	64.420
535.96	67.058
536.30	65.172
536.64	65.059
536.98	64.739
537.32	66.572
537.66	64.727
538.01	65.524
538.35	67.060
538.69	66.378
539.03	63.841
539.37	65.410
539.71	66.190
540.05	64.902
540.39	65.720
540.73	64.714
541.07	65.262
541.42	66.734
541.76	67.378
542.10	65.520
542.44	66.366
542.78	64.625
543.12	65.385
543.46	65.577
543.80	66.343
544.14	63.618
544.48	65.157
544.82	65.687
545.16	67.281
545.50	64.887
545.84	66.997
546.18	66.241
546.52	65.321
546.86	66.068
547.20	65.665
547.54	64.028
547.88	66.236
548.22	65.023
548.56	67.018
548.90	67.588
549.24	64.118
549.58	65.656
549.92	64.403
550.26	64.322
550.60	65.056
550.94	65.945
551.28	64.915
551.62	65.846
551.96	65.789
552.30	65.643
552.64	66.432
552.98	64.557
553.32	65.264
553.66	65.457
554.00	66.642
554.34	64.845
554.68	64.086
555.02	65.327
555.36	66.193
555.69	64.689
556.03	65.810
556.37	65.053
556.71	65.632
557.05	66.294
557.39	64.535
557.73	63.418
558.07	66.290
558.41	66.539
558.75	65.394
559.08	65.957
559.42	65.079
559.76	65.813
560.10	64.679
560.44	65.972
560.78	65.734
561.12	67.207
561.45	66.198
561.79	66.036
562.13	66.998
562.47	66.331
562.81	65.778
563.15	64.951
563.48	67.044
563.82	66.438
564.16	68.315
564.50	64.932
564.84	65.930
565.17	66.667
565.51	67.691
565.85	68.381
566.19	68.037
566.52	67.091
566.86	68.059
567.20	67.123
567.54	67.092
567.88	70.885
568.21	70.136
568.55	69.620
568.89	69.918
569.23	71.786
569.56	70.841
569.90	70.605
570.24	70.785
570.57	70.727
570.91	71.976
571.25	70.503
571.59	70.290
571.92	69.126
572.26	70.169
572.60	69.798
572.93	68.466
573.27	68.370
573.61	70.495
573.95	70.508
574.28	70.339
574.62	69.591
574.96	69.534
575.29	69.712
575.63	68.230
575.97	69.043
576.30	69.244
576.64	68.371
576.98	70.888
577.31	70.632
577.65	71.032
577.98	71.323
578.32	70.886
578.66	69.504
578.99	69.537
579.33	69.448
579.67	68.458
580.00	69.696
580.34	70.647
580.67	69.238
581.01	69.524
581.35	70.284
581.68	71.049
582.02	71.866
582.35	71.421
582.69	71.309
583.02	70.305
583.36	70.570
583.70	70.275
584.03	69.947
584.37	70.920
584.70	70.522
585.04	69.171
585.37	69.656
585.71	70.649
586.04	70.146
586.38	70.339
586.72	70.875
587.05	71.577
587.39	71.764
587.72	71.761
588.06	70.883
588.39	71.062
588.73	70.940
589.06	71.298
589.40	69.305
589.73	70.208
590.07	71.677
590.40	69.776
590.73	71.499
591.07	68.957
591.40	69.991
591.74	69.276
592.07	69.388
592.41	70.716
592.74	70.370
593.08	70.276
593.41	71.071
593.75	70.429
594.08	69.585
594.41	69.651
594.75	70.076
595.08	69.996
595.42	70.409
595.75	71.085
596.09	70.563
596.42	70.732
596.75	69.805
597.09	69.294
597.42	69.828
597.75	69.721
598.09	68.990
598.42	68.998
598.76	70.013
599.09	70.152
599.42	69.989
599.76	69.526
600.09	69.495
600.42	69.750
600.76	69.056
601.09	69.198
601.42	69.448
601.76	69.948
602.09	69.719
602.42	70.388
602.76	69.100
603.09	71.096
603.42	71.196
603.76	69.637
604.09	69.380
604.42	70.093
604.76	70.405
605.09	70.384
605.42	69.661
605.75	70.359
606.09	69.936
606.42	69.475
606.75	69.481
607.09	67.692
607.42	70.004
607.75	70.071
608.08	68.688
608.42	68.159
608.75	70.072
609.08	69.158
609.41	69.492
609.75	68.246
610.08	69.496
610.41	68.116
610.74	68.064
611.07	70.801
611.41	70.680
611.74	70.203
612.07	67.934
612.40	68.435
612.73	69.605
613.07	68.054
613.40	69.475
613.73	69.782
614.06	69.950
614.39	68.133
614.72	68.235
615.06	68.380
615.39	68.341
615.72	66.523
616.05	68.994
616.38	67.692
616.71	68.257
617.05	68.684
617.38	68.510
617.71	68.365
618.04	69.778
618.37	68.663
618.70	69.967
619.03	68.125
619.36	67.873
619.69	67.779
620.03	68.152
620.36	68.670
620.69	67.951
621.02	67.355
621.35	65.975
621.68	67.772
622.01	67.000
622.34	67.119
622.67	67.508
623.00	66.386
623.33	67.912
623.66	68.287
623.99	67.171
624.32	69.278
624.65	66.767
624.99	69.225
625.32	66.793
625.65	68.185
625.98	68.654
626.31	67.249
626.64	69.237
626.97	66.318
627.30	68.827
627.63	66.031
627.96	68.194
628.29	66.142
628.62	67.060
628.95	64.729
629.28	67.540
629.61	66.002
629.94	66.764
630.26	65.514
630.59	68.991
630.92	65.333
631.25	65.436
631.58	65.308
631.91	67.215
632.24	66.743
632.57	65.114
632.90	64.531
633.23	65.176
633.56	66.121
633.89	64.365
634.22	67.901
634.55	66.455
634.88	65.390
635.20	64.487
635.53	68.667
635.86	65.800
636.19	65.847
636.52	68.112
636.85	65.633
637.18	66.289
637.51	64.151
637.83	64.389
638.16	65.757
638.49	64.169
638.82	64.605
639.15	64.586
639.48	66.025
639.81	66.527
640.13	65.801
640.46	65.598
640.79	63.770
641.12	64.106
641.45	62.462
641.77	62.074
642.10	66.035
642.43	62.701
642.76	66.337
643.09	63.651
643.41	63.916
643.74	62.273
644.07	64.860
644.40	64.527
644.73	64.098
645.05	62.248
645.38	65.608
645.71	65.780
646.04	65.530
646.36	64.894
646.69	62.050
647.02	64.461
647.35	64.366
647.67	62.888
648.00	64.552
648.33	62.457
648.66	64.576
648.98	63.317
649.31	65.124
649.64	62.794
649.96	65.478
650.29	65.417
650.62	61.709
650.94	63.519
651.27	64.432
651.60	62.342
651.92	64.336
652.25	64.121
652.58	62.333
652.90	65.866
653.23	62.857
653.56	63.621
653.88	63.058
654.21	65.849
654.54	62.988
654.86	66.723
655.19	63.889
655.52	71.440
655.84	74.611
656.17	83.216
656.49	100.000
656.82	100.000
657.15	100.000
657.47	68.912
657.80	47.077
658.13	46.113
658.45	70.121
658.78	67.743
659.10	66.386
659.43	65.533
659.75	66.009
660.08	64.414
660.41	65.475
660.73	65.470
661.06	66.031
661.38	60.665
661.71	60.370
662.03	64.592
662.36	62.857
662.68	63.938
663.01	64.410
663.33	63.573
663.66	59.302
663.98	62.558
664.31	61.834
664.63	62.903
664.96	58.696
665.28	62.472
665.61	62.121
665.93	65.217
666.26	63.774
666.58	62.864
666.91	62.588
667.23	62.972
667.56	64.692
667.88	59.952
668.21	64.200
668.53	61.702
668.86	62.264
669.18	58.962
669.50	60.291
669.83	59.767
670.15	63.170
670.48	63.158
670.80	63.364
671.13	59.955
671.45	60.502
671.77	62.661
672.10	60.396
672.42	63.670
672.75	63.233
673.07	63.685
673.39	62.752
673.72	58.974
674.04	62.083
674.37	62.076
674.69	61.884
675.01	63.778
675.34	61.712
675.66	64.583
675.98	63.193
676.31	60.092
676.63	66.746
676.95	60.455
677.28	62.118
677.60	63.855
677.92	60.092
678.25	62.801
678.57	62.987
678.89	63.025
679.22	61.969
679.54	60.442
679.86	61.034
680.18	63.495
680.51	65.909
680.83	59.443
681.15	61.200
681.48	62.705
681.80	62.810
682.12	61.895
682.44	59.833
682.77	64.680
683.09	61.327
683.41	58.182
683.73	63.134
684.06	60.619
684.38	60.860
684.70	64.052
685.02	62.448
685.34	61.265
685.67	62.664
685.99	65.461
686.31	64.956
686.63	61.596
686.96	63.118
687.28	62.424
687.60	62.928
687.92	65.657
688.24	62.702
688.56	62.882
688.89	61.384
689.21	64.667
689.53	61.485
689.85	60.698
690.17	61.384
690.49	61.702
690.82	60.194
691.14	57.619
691.46	64.720
691.78	62.162
692.10	66.022
692.42	60.390
692.74	58.120
693.06	62.613
693.39	63.348
693.71	58.371
694.03	59.815
694.35	64.486
694.67	64.899
694.99	61.358
695.31	60.313
695.63	60.000
695.95	63.131
696.27	57.513
696.59	61.667
696.91	58.543
697.23	59.640
697.56	64.604
697.88	62.151
698.20	64.009
698.52	63.765
698.84	58.612
699.16	60.750
699.48	61.654
699.80	59.801
700.12	62.803
700.44	64.706
700.76	57.267
701.08	55.455
701.40	63.253
701.72	63.889
702.04	62.376
702.36	61.204
702.68	60.961
703.00	61.212
703.32	58.065
703.64	56.215
703.96	59.710
704.28	60.429
704.60	63.810
704.91	56.151
705.23	59.468
705.55	64.311
705.87	61.733
706.19	58.889
706.51	60.137
706.83	62.058
707.15	58.879
707.47	63.025
707.79	65.104
708.11	61.500
708.43	61.250
708.74	61.240
709.06	63.662
709.38	63.303
709.70	56.509
710.02	60.828
710.34	61.610
710.66	57.051
710.98	58.940
711.29	60.984
711.61	62.034
711.93	61.889
712.25	59.794
712.57	62.637
712.89	53.731
713.20	58.824
713.52	58.537
713.84	57.679
714.16	62.199
714.48	63.226
714.80	63.462
715.11	58.663
715.43	62.069
715.75	63.333
716.07	58.472
716.39	60.738
716.70	61.255
717.02	53.817
717.34	62.348
717.66	60.619
717.97	59.130
718.29	61.088
718.61	62.598
718.93	56.202
719.24	60.456
719.56	63.052
719.88	58.076
720.20	56.439
720.51	60.153
720.83	64.865
721.15	57.983
721.46	58.468
721.78	58.498
722.10	55.390
722.42	58.506
722.73	58.776
723.05	60.000
723.37	63.136
723.68	65.315
724.00	61.538
724.32	56.000
724.63	54.091
724.95	56.769
725.27	60.369
725.58	60.593
725.90	58.730
726.22	60.618
726.53	57.966
726.85	59.176
727.16	60.755
727.48	60.324
727.80	55.870
728.11	57.203
728.43	58.431
728.74	54.435
729.06	66.000
729.38	65.789
729.69	58.167
730.01	50.000
730.32	56.716
730.64	61.131
730.96	66.038
731.27	58.667
731.59	57.288
731.90	59.554
732.22	61.514
732.53	63.455
732.85	62.057
733.16	62.626
733.48	57.914
733.80	63.043
734.11	62.373
734.43	63.574
734.74	61.818
735.06	62.215
735.37	62.840
735.69	64.646
736.00	58.885
736.32	63.087
736.63	65.493
736.95	62.116
737.26	60.142
737.58	60.403
737.89	63.736
738.21	57.895
738.52	62.140
738.83	67.686
739.15	58.515
739.46	59.843
739.78	59.707
740.09	62.092
740.41	63.768
740.72	55.906
741.04	61.943
741.35	54.894
741.66	61.137
741.98	58.163
742.29	57.921
742.61	60.733
742.92	54.502
743.23	51.852
743.55	64.706
743.86	55.981
744.18	53.589
744.49	56.383
744.80	58.152
745.12	64.171
745.43	59.512
745.74	65.104
746.06	52.195
746.37	62.304
746.68	59.716
747.00	57.447
747.31	61.194
747.62	61.165
747.94	58.373
748.25	59.406
748.56	64.481
748.88	55.497
749.19	64.362
749.50	56.650
749.82	55.660
750.13	53.211
750.44	61.278
750.75	66.045
751.07	63.139
751.38	62.452
751.69	55.686
752.01	65.891
752.32	59.761
752.63	62.055
752.94	61.207
753.26	60.669
753.57	63.348
753.88	61.062
754.19	60.417
754.51	63.223
754.82	57.895
755.13	63.750
755.44	59.274
755.75	61.328
756.07	59.533
756.38	61.509
756.69	60.153
757.00	60.333
757.31	61.765
757.63	58.232
757.94	59.722
758.25	59.178
758.56	58.777
758.87	57.224
759.18	57.321
759.50	59.636
759.81	60.870
760.12	58.065
760.43	58.788
760.74	62.037
761.05	61.846
761.36	60.795
761.67	64.545
761.99	62.925
762.30	54.182
762.61	53.755
762.92	54.751
763.23	61.712
763.54	59.813
763.85	60.593
764.16	60.581
764.47	58.065
764.78	54.945
765.10	62.290
765.41	59.306
765.72	61.905
766.03	60.526
766.34	62.409
766.65	57.769
766.96	62.121
767.27	54.787
767.58	57.471
767.89	66.667
768.20	54.545
768.51	57.692
768.82	57.143
769.13	55.760
769.44	55.794
769.75	61.644
770.06	55.172
770.37	52.885
770.68	63.959
770.99	55.656
771.30	67.157
771.61	59.276
771.92	56.897
772.23	58.128
772.54	56.452
772.85	64.815
773.16	52.809
773.47	66.667
773.78	63.399
774.09	56.287
774.39	55.333
774.70	49.682
775.01	57.931
775.32	51.429
775.63	55.372
775.94	48.855
776.25	56.693
776.56	50.000
776.87	60.577
777.18	52.137
777.48	44.828
777.79	40.000
778.10	47.619
778.41	52.252
778.72	53.968
779.03	58.647
779.34	56.028
779.65	56.849
779.95	64.384
780.26	60.690
780.57	49.593
780.88	50.394
781.19	53.448
781.50	61.240
781.80	53.846
782.11	50.943
782.42	64.615
782.73	61.151
783.04	61.481
783.34	53.472
783.65	47.863
783.96	46.721
784.27	58.621
784.57	66.667
784.88	55.469
785.19	58.000
785.50	57.000
785.81	64.655
786.11	56.034
786.42	52.427
786.73	60.909
787.04	55.102
787.34	55.357
787.65	59.048
787.96	53.097
788.26	59.091
788.57	59.829
788.88	50.000
789.19	55.556
789.49	56.522
789.80	59.184
790.11	47.475
790.41	46.364
790.72	61.957
791.03	51.136
791.33	73.750
791.64	52.500
791.95	54.651
792.25	45.745
792.56	44.944
792.87	73.973
793.17	56.522
793.48	46.667
793.79	52.500
794.09	62.500
794.40	44.340
794.70	59.223
795.01	45.528
795.32	53.846
795.62	57.143
795.93	67.647
796.23	64.151
796.54	59.375
796.85	70.588
797.15	53.521
797.46	69.444
797.76	62.121
798.07	47.674
798.37	42.105
798.68	50.000
798.99	46.914
799.29	47.143
799.60	40.580
799.90	52.000
800.21	62.295
800.51	58.462
800.82	66.102
801.12	50.725
801.43	52.459
801.73	49.206
802.04	66.000
802.34	41.791
802.65	59.615
802.95	39.286
803.26	53.846
803.56	54.902
803.87	41.304
804.17	49.333
804.48	50.794
804.78	38.889
805.09	45.652
805.39	57.778
805.70	57.407
806.00	36.842
806.30	43.662
806.61	58.571
806.91	43.056
807.22	35.526
807.52	57.333
807.83	58.182
808.13	45.833
808.43	66.176
808.74	40.299
809.04	54.237
809.35	40.385
809.65	50.000
809.95	59.459
810.26	47.727
810.56	42.466
810.86	69.048
811.17	36.000
811.47	65.306
811.77	65.789
812.08	56.818
812.38	54.717
812.69	60.000
812.99	27.273
813.29	26.316
813.59	48.571
813.90	31.818
814.20	43.590
814.50	34.615
814.81	69.811
815.11	44.681
815.41	33.898
815.72	66.667
816.02	54.902
816.32	39.583
816.62	51.220
816.93	40.541
817.23	40.000
817.53	47.917
817.84	41.304
818.14	32.692
818.44	21.053
818.74	54.348
819.04	27.500
819.35	62.162
819.65	44.118
819.95	50.000
820.25	61.905
820.56	40.000
820.86	31.034
821.16	95.000
821.46	40.426
821.76	57.500
822.07	58.140
822.37	40.541
822.67	6.250
822.97	69.048
823.27	35.714
823.57	44.000
823.88	29.630
824.18	46.429
824.48	32.353
824.78	58.065
825.08	65.217
825.38	42.424
825.69	4.167
825.99	39.474
826.29	41.667
826.59	73.333
826.89	42.857
827.19	65.217
827.49	15.000
827.79	51.429
828.09	67.857
828.39	81.818
828.70	102.703
829.00	21.429
829.30	38.095
829.60	33.333
829.90	75.000
830.20	47.368
830.50	22.222
830.80	113.043
831.10	59.091
831.40	75.758
831.70	64.516
832.00	42.857
832.30	14.286
832.60	-33.333
832.90	44.828
833.20	-5.000
833.50	66.667
833.80	14.815
834.10	26.923
834.40	65.625
834.70	55.556
835.00	63.158
835.30	92.308
835.60	106.667
835.90	41.935
836.20	77.273
836.50	78.571
836.80	19.231
837.10	42.857
837.40	-33.333
837.70	-13.636
838.00	-45.455
838.30	52.174
838.60	30.769
838.90	50.000
839.19	39.286
839.49	93.333
839.79	0.000
840.09	-8.333
840.39	25.000
840.69	39.286
840.99	0.000
841.29	-68.421
841.59	80.000
841.88	136.364
842.18	-10.000
842.48	50.000
842.78	73.333
843.08	29.630
843.38	-30.000
843.68	21.739
843.97	33.333
844.27	6.667
844.57	0.000
844.87	94.444
845.17	14.286
845.47	93.333
845.76	23.810
846.06	41.176
846.36	-30.000
846.66	64.286
846.96	73.333
847.25	-62.500
847.55	21.429
847.85	75.000
848.15	13.636
848.44	-200.000
848.74	80.000
849.04	59.259
849.34	63.636
849.63	-16.667
849.93	-60.000
850.23	22.222
850.53	140.000
850.82	-15.385
851.12	-66.667
851.42	73.333
851.71	34.615
852.01	14.286
852.31	0.000
852.61	36.364
852.90	45.000
853.20	26.316
853.50	41.667
853.79	30.435
854.09	54.167
854.39	94.737
854.68	50.000
854.98	38.710
855.28	65.385
855.57	80.000
855.87	77.778
856.17	55.556
856.46	107.143
856.76	86.667
857.05	122.222
857.35	28.000
857.65	61.111
857.94	-53.846
858.24	62.069
858.53	38.889
858.83	85.185
859.13	27.273
859.42	43.478
859.72	125.000
860.01	-266.667
860.31	16.000
860.60	66.667
860.90	500.000
861.20	20.000
861.49	-300.000
861.79	13.333
862.08	55.000
862.38	6.667
862.67	-120.000
862.97	83.333
863.26	91.667
863.56	33.333
863.85	-366.667
864.15	16.667
864.44	150.000
864.74	114.286
865.03	25.000
865.33	-20.000
865.62	166.667
865.92	-25.000
866.21	-133.333
866.51	62.500
866.80	-118.182
867.10	200.000
867.39	125.000
867.69	0.000
867.98	38.462
868.27	166.667
868.57	-26.667
868.86	50.000
869.16	-30.769
869.45	86.667
869.75	-300.000
870.04	0.000
870.33	-142.857
870.63	23.810
870.92	-133.333
871.22	-120.000
871.51	300.000
871.80	111.111
872.10	133.333
>>>>>End Processed Spectral Data<<<<<
