SpectraSuite Data File
++++++++++++++++++++++++++++++++++++
Date: Fri May 15 20:11:59 PDT 2015
User: schluterlab
Dark Spectrum Present: Yes
Reference Spectrum Present: Yes
Number of Sampled Component Spectra: 1
Spectrometers: USB2E3373
Integration Time (usec): 3000 (USB2E3373)
Spectra Averaged: 3 (USB2E3373)
Boxcar Smoothing: 0 (USB2E3373)
Correct for Electrical Dark: No (USB2E3373)
Strobe/Lamp Enabled: No (USB2E3373)
Correct for Detector Non-linearity: No (USB2E3373)
Correct for Stray Light: No (USB2E3373)
Number of Pixels in Processed Spectrum: 2048
>>>>>Begin Processed Spectral Data<<<<<
178.53	0.000
178.91	0.000
179.29	25.000
179.67	-200.000
180.04	28.571
180.42	125.000
180.80	-300.000
181.18	-133.333
181.56	150.000
181.94	400.000
182.31	-700.000
182.69	100.000
183.07	100.000
183.45	0.000
183.83	200.000
184.20	27.273
184.58	100.000
184.96	-25.000
185.34	-166.667
185.72	-300.000
186.09	53.846
186.47	-100.000
186.85	-50.000
187.23	122.222
187.61	200.000
187.98	100.000
188.36	44.444
188.74	133.333
189.12	29.412
189.49	22.222
189.87	0.000
190.25	128.571
190.63	-100.000
191.00	-166.667
191.38	31.579
191.76	500.000
192.14	-25.000
192.51	450.000
192.89	11.111
193.27	-228.571
193.65	116.667
194.02	45.455
194.40	40.000
194.78	-162.500
195.15	-16.667
195.53	-75.000
195.91	150.000
196.29	125.000
196.66	92.308
197.04	-100.000
197.42	11.111
197.79	33.333
198.17	-46.154
198.55	1800.000
198.92	100.000
199.30	300.000
199.68	60.000
200.05	-66.667
200.43	0.000
200.81	200.000
201.18	33.333
201.56	500.000
201.94	350.000
202.31	-33.333
202.69	-40.000
203.07	350.000
203.44	1600.000
203.82	0.000
204.19	114.286
204.57	-433.333
204.95	100.000
205.32	20.000
205.70	14.286
206.08	50.000
206.45	133.333
206.83	128.571
207.20	-142.857
207.58	300.000
207.96	-200.000
208.33	-20.000
208.71	-100.000
209.08	-83.333
209.46	-700.000
209.84	40.000
210.21	0.000
210.59	171.429
210.96	100.000
211.34	150.000
211.71	93.333
212.09	-42.857
212.46	-200.000
212.84	0.000
213.22	70.000
213.59	550.000
213.97	-7.692
214.34	18.182
214.72	133.333
215.09	125.000
215.47	76.923
215.84	-18.182
216.22	-133.333
216.59	37.500
216.97	450.000
217.34	150.000
217.72	20.000
218.09	25.000
218.47	-100.000
218.84	900.000
219.22	-55.556
219.59	180.000
219.97	333.333
220.34	275.000
220.72	100.000
221.09	-25.000
221.47	200.000
221.84	-600.000
222.22	-200.000
222.59	118.182
222.97	116.667
223.34	-33.333
223.72	-14.286
224.09	23.810
224.46	35.714
224.84	166.667
225.21	-10.000
225.59	86.667
225.96	-150.000
226.34	175.000
226.71	-14.286
227.08	33.333
227.46	-50.000
227.83	-300.000
228.21	111.111
228.58	-18.182
228.95	50.000
229.33	10.000
229.70	50.000
230.08	25.000
230.45	-57.143
230.82	0.000
231.20	-6.667
231.57	42.857
231.95	157.143
232.32	-40.000
232.69	42.857
233.07	-166.667
233.44	140.000
233.81	20.000
234.19	144.444
234.56	35.294
234.93	-150.000
235.31	225.000
235.68	-200.000
236.05	0.000
236.43	-15.000
236.80	58.824
237.17	40.625
237.55	40.000
237.92	-11.111
238.29	22.222
238.67	46.667
239.04	64.706
239.41	7.317
239.79	3.333
240.16	29.268
240.53	-13.158
240.91	-8.696
241.28	28.571
241.65	25.000
242.02	41.096
242.40	26.667
242.77	20.339
243.14	27.273
243.51	26.250
243.89	32.184
244.26	18.391
244.63	28.571
245.00	16.495
245.38	17.526
245.75	12.360
246.12	12.931
246.49	19.835
246.87	18.269
247.24	14.286
247.61	19.298
247.98	14.634
248.36	20.625
248.73	22.368
249.10	15.584
249.47	22.152
249.84	16.340
250.22	14.118
250.59	21.569
250.96	18.310
251.33	20.930
251.70	22.353
252.08	20.305
252.45	17.327
252.82	20.603
253.19	21.659
253.56	14.486
253.94	16.667
254.31	20.000
254.68	17.982
255.05	14.961
255.42	20.087
255.79	20.077
256.16	19.455
256.54	20.149
256.91	26.996
257.28	14.498
257.65	19.101
258.02	17.376
258.39	21.549
258.76	20.147
259.14	21.262
259.51	18.123
259.88	16.495
260.25	18.301
260.62	19.444
260.99	19.661
261.36	17.466
261.73	14.557
262.10	15.198
262.47	21.166
262.85	17.555
263.22	16.615
263.59	19.626
263.96	22.671
264.33	21.515
264.70	20.238
265.07	15.476
265.44	19.830
265.81	20.056
266.18	21.038
266.55	17.481
266.92	21.503
267.29	18.016
267.66	16.880
268.03	18.586
268.40	18.016
268.77	21.123
269.14	19.904
269.51	22.622
269.88	17.706
270.25	18.622
270.62	15.366
270.99	18.926
271.36	17.359
271.73	16.901
272.10	20.438
272.47	19.385
272.84	16.584
273.21	18.329
273.58	22.892
273.95	17.162
274.32	15.242
274.69	15.837
275.06	18.304
275.43	16.100
275.80	18.102
276.17	18.851
276.54	16.702
276.91	17.544
277.28	18.777
277.65	19.421
278.02	18.298
278.39	17.505
278.76	16.352
279.13	14.730
279.50	19.538
279.87	17.279
280.23	16.989
280.60	15.400
280.97	16.364
281.34	17.885
281.71	18.686
282.08	15.542
282.45	16.830
282.82	15.830
283.19	16.634
283.56	17.341
283.92	15.370
284.29	16.346
284.66	14.341
285.03	15.717
285.40	16.635
285.77	14.411
286.14	16.245
286.51	17.343
286.87	16.271
287.24	15.838
287.61	17.108
287.98	19.825
288.35	17.331
288.72	15.762
289.08	14.583
289.45	16.344
289.82	16.259
290.19	13.140
290.56	14.923
290.93	13.973
291.29	14.484
291.66	15.118
292.03	15.152
292.40	15.645
292.77	15.152
293.13	14.286
293.50	13.961
293.87	13.740
294.24	13.447
294.60	13.860
294.97	14.732
295.34	12.423
295.71	14.754
296.08	13.004
296.44	10.526
296.81	12.917
297.18	14.638
297.55	15.312
297.91	12.603
298.28	13.325
298.65	12.754
299.02	11.995
299.38	9.986
299.75	12.690
300.12	12.958
300.48	12.121
300.85	13.181
301.22	12.987
301.59	13.026
301.95	12.785
302.32	11.673
302.69	13.557
303.05	12.252
303.42	12.080
303.79	13.435
304.15	13.381
304.52	11.058
304.89	12.164
305.25	12.349
305.62	11.435
305.99	10.175
306.35	11.676
306.72	12.148
307.09	11.288
307.45	12.514
307.82	10.764
308.19	11.847
308.55	11.232
308.92	12.200
309.29	10.838
309.65	12.487
310.02	11.991
310.38	12.733
310.75	13.115
311.12	12.271
311.48	11.877
311.85	13.194
312.22	13.291
312.58	13.057
312.95	12.807
313.31	12.629
313.68	12.042
314.05	12.551
314.41	13.093
314.78	12.887
315.14	14.594
315.51	14.286
315.87	15.061
316.24	16.380
316.61	15.551
316.97	15.278
317.34	14.551
317.70	16.826
318.07	16.346
318.43	17.255
318.80	18.466
319.16	20.020
319.53	19.183
319.89	20.177
320.26	19.433
320.62	22.267
320.99	21.294
321.35	23.227
321.72	23.676
322.08	23.061
322.45	26.396
322.81	25.344
323.18	26.987
323.54	28.764
323.91	29.893
324.27	32.715
324.64	34.270
325.00	34.854
325.37	37.925
325.73	37.443
326.10	40.509
326.46	43.318
326.83	44.357
327.19	44.377
327.56	45.960
327.92	49.296
328.29	49.286
328.65	51.226
329.01	52.298
329.38	55.484
329.74	54.485
330.11	56.534
330.47	57.143
330.84	59.135
331.20	61.787
331.56	59.815
331.93	62.283
332.29	61.962
332.66	63.077
333.02	64.312
333.38	66.178
333.75	67.766
334.11	65.980
334.48	68.722
334.84	67.766
335.20	68.435
335.57	66.002
335.93	69.196
336.29	69.797
336.66	69.391
337.02	71.840
337.38	69.815
337.75	71.091
338.11	70.965
338.47	71.898
338.84	71.534
339.20	73.949
339.56	73.486
339.93	72.516
340.29	73.853
340.65	73.118
341.02	73.138
341.38	75.487
341.74	74.382
342.11	71.664
342.47	75.623
342.83	75.779
343.20	74.739
343.56	74.609
343.92	75.731
344.28	74.722
344.65	74.266
345.01	73.725
345.37	73.928
345.73	75.397
346.10	76.186
346.46	74.348
346.82	75.368
347.19	73.982
347.55	74.854
347.91	76.052
348.27	75.101
348.63	75.554
349.00	76.046
349.36	75.727
349.72	78.109
350.08	76.803
350.45	74.142
350.81	77.159
351.17	75.489
351.53	74.776
351.89	74.649
352.26	75.760
352.62	77.258
352.98	75.341
353.34	74.477
353.70	76.294
354.07	75.887
354.43	75.580
354.79	77.622
355.15	76.984
355.51	77.373
355.87	77.104
356.24	76.509
356.60	77.284
356.96	77.937
357.32	78.514
357.68	76.153
358.04	78.756
358.40	76.447
358.77	78.469
359.13	77.022
359.49	75.732
359.85	77.457
360.21	79.984
360.57	77.353
360.93	76.399
361.29	77.039
361.66	77.900
362.02	77.652
362.38	78.294
362.74	79.107
363.10	80.135
363.46	79.763
363.82	80.841
364.18	78.524
364.54	78.529
364.90	80.860
365.26	80.131
365.62	80.584
365.98	80.572
366.35	81.646
366.71	80.414
367.07	80.261
367.43	80.302
367.79	79.647
368.15	79.325
368.51	81.646
368.87	81.192
369.23	80.650
369.59	81.122
369.95	81.818
370.31	81.142
370.67	81.866
371.03	80.583
371.39	83.151
371.75	82.491
372.11	82.596
372.47	82.027
372.83	81.973
373.19	82.026
373.55	82.455
373.91	83.009
374.27	83.345
374.63	82.915
374.99	82.128
375.35	83.008
375.71	83.497
376.07	84.410
376.42	85.850
376.78	84.430
377.14	85.308
377.50	84.661
377.86	84.203
378.22	85.131
378.58	85.064
378.94	85.255
379.30	84.467
379.66	85.517
380.02	85.653
380.38	85.636
380.74	85.458
381.09	85.828
381.45	86.300
381.81	85.935
382.17	86.104
382.53	86.758
382.89	87.822
383.25	87.928
383.61	87.439
383.97	87.175
384.32	86.116
384.68	86.935
385.04	87.868
385.40	87.119
385.76	89.560
386.12	88.357
386.48	88.761
386.83	88.332
387.19	87.485
387.55	89.774
387.91	88.814
388.27	87.790
388.62	89.868
388.98	87.845
389.34	88.819
389.70	89.124
390.06	87.351
390.42	88.342
390.77	90.778
391.13	89.849
391.49	88.745
391.85	90.188
392.20	89.893
392.56	89.510
392.92	89.900
393.28	88.679
393.64	88.889
393.99	89.655
394.35	89.437
394.71	90.230
395.07	88.246
395.42	89.010
395.78	89.511
396.14	88.020
396.50	90.488
396.85	91.243
397.21	89.098
397.57	89.467
397.92	90.114
398.28	90.000
398.64	88.072
399.00	89.898
399.35	89.221
399.71	86.387
400.07	90.024
400.42	88.556
400.78	89.161
401.14	87.840
401.49	88.624
401.85	88.970
402.21	88.193
402.57	90.000
402.92	88.519
403.28	87.343
403.63	90.164
403.99	88.074
404.35	88.507
404.70	87.143
405.06	87.427
405.42	87.694
405.77	88.786
406.13	88.824
406.49	88.514
406.84	88.875
407.20	89.585
407.55	87.959
407.91	89.104
408.27	86.361
408.62	88.677
408.98	87.616
409.34	87.485
409.69	87.532
410.05	86.946
410.40	87.284
410.76	87.455
411.11	88.375
411.47	88.955
411.83	87.508
412.18	88.932
412.54	88.077
412.89	87.746
413.25	87.545
413.60	87.764
413.96	85.644
414.31	87.744
414.67	86.530
415.03	87.084
415.38	87.010
415.74	88.013
416.09	88.439
416.45	86.901
416.80	86.913
417.16	87.569
417.51	88.941
417.87	85.854
418.22	89.184
418.58	87.023
418.93	88.589
419.29	86.428
419.64	88.853
420.00	90.428
420.35	87.642
420.71	90.279
421.06	89.196
421.42	88.281
421.77	89.827
422.12	88.649
422.48	88.576
422.83	89.849
423.19	87.867
423.54	88.242
423.90	88.339
424.25	89.724
424.61	90.024
424.96	88.095
425.31	91.508
425.67	90.258
426.02	90.342
426.38	92.173
426.73	92.554
427.09	90.443
427.44	90.824
427.79	91.220
428.15	89.745
428.50	91.278
428.85	90.295
429.21	92.303
429.56	92.022
429.92	90.550
430.27	88.822
430.62	91.061
430.98	91.083
431.33	90.326
431.68	90.476
432.04	92.119
432.39	90.188
432.74	90.018
433.10	91.322
433.45	92.055
433.80	92.687
434.16	92.465
434.51	91.559
434.86	93.728
435.22	92.428
435.57	93.013
435.92	92.814
436.28	91.532
436.63	91.386
436.98	90.730
437.34	92.075
437.69	92.904
438.04	92.422
438.39	91.265
438.75	94.171
439.10	92.247
439.45	93.122
439.81	92.599
440.16	95.012
440.51	93.731
440.86	96.133
441.22	93.609
441.57	94.095
441.92	95.173
442.27	94.512
442.63	94.593
442.98	92.878
443.33	93.322
443.68	93.050
444.03	92.499
444.39	93.458
444.74	94.482
445.09	93.597
445.44	94.416
445.79	95.565
446.15	93.502
446.50	92.180
446.85	95.005
447.20	93.014
447.55	92.522
447.91	94.642
448.26	94.878
448.61	93.610
448.96	94.836
449.31	94.220
449.66	94.599
450.02	93.668
450.37	96.206
450.72	92.726
451.07	93.987
451.42	92.759
451.77	94.334
452.12	90.849
452.47	93.496
452.83	91.637
453.18	94.687
453.53	94.690
453.88	93.625
454.23	93.854
454.58	95.907
454.93	93.686
455.28	93.079
455.63	94.172
455.98	94.107
456.34	94.125
456.69	93.520
457.04	94.518
457.39	94.897
457.74	95.586
458.09	92.231
458.44	94.090
458.79	93.389
459.14	92.906
459.49	94.866
459.84	95.093
460.19	95.206
460.54	96.271
460.89	93.239
461.24	93.416
461.59	94.418
461.94	92.956
462.29	94.391
462.64	94.086
462.99	93.839
463.34	93.950
463.69	94.273
464.04	93.644
464.39	93.814
464.74	93.865
465.09	93.949
465.44	94.691
465.79	92.007
466.14	93.501
466.49	93.560
466.84	94.289
467.19	93.429
467.54	94.125
467.89	94.694
468.24	91.058
468.59	93.651
468.94	91.492
469.29	94.623
469.64	92.276
469.99	95.305
470.34	93.174
470.68	94.183
471.03	92.852
471.38	93.866
471.73	93.838
472.08	91.316
472.43	93.960
472.78	92.529
473.13	94.898
473.48	94.267
473.83	91.968
474.17	94.819
474.52	93.044
474.87	92.364
475.22	93.960
475.57	92.716
475.92	93.637
476.27	93.830
476.61	93.866
476.96	90.686
477.31	92.104
477.66	92.640
478.01	93.318
478.36	92.211
478.70	94.290
479.05	93.901
479.40	92.581
479.75	91.971
480.10	92.883
480.45	94.000
480.79	95.166
481.14	95.031
481.49	94.039
481.84	94.981
482.19	92.750
482.53	93.669
482.88	92.983
483.23	91.651
483.58	91.887
483.92	91.288
484.27	91.386
484.62	93.008
484.97	93.076
485.31	94.003
485.66	92.988
486.01	95.443
486.36	95.143
486.70	93.712
487.05	92.785
487.40	92.658
487.75	90.761
488.09	90.204
488.44	88.583
488.79	89.615
489.13	91.106
489.48	90.466
489.83	91.300
490.17	90.292
490.52	91.917
490.87	92.457
491.22	93.362
491.56	92.552
491.91	90.105
492.26	93.291
492.60	92.514
492.95	94.147
493.30	91.597
493.64	93.959
493.99	92.705
494.34	92.184
494.68	91.667
495.03	92.603
495.37	91.953
495.72	92.277
496.07	93.317
496.41	92.830
496.76	92.676
497.11	93.014
497.45	92.315
497.80	92.432
498.14	90.462
498.49	92.839
498.84	91.218
499.18	93.775
499.53	92.411
499.87	92.510
500.22	92.038
500.56	93.192
500.91	91.315
501.26	91.498
501.60	93.261
501.95	92.237
502.29	91.138
502.64	91.458
502.98	93.981
503.33	90.106
503.67	92.530
504.02	92.326
504.36	90.896
504.71	90.707
505.06	91.042
505.40	92.030
505.75	94.691
506.09	90.269
506.44	94.302
506.78	91.684
507.13	91.262
507.47	90.966
507.82	92.361
508.16	91.865
508.51	92.497
508.85	92.674
509.19	91.644
509.54	91.475
509.88	91.478
510.23	91.393
510.57	92.410
510.92	89.712
511.26	91.762
511.61	93.454
511.95	92.164
512.30	92.184
512.64	90.262
512.98	91.522
513.33	92.893
513.67	91.586
514.02	92.849
514.36	92.057
514.70	93.124
515.05	92.538
515.39	92.562
515.74	93.234
516.08	92.767
516.42	93.875
516.77	92.335
517.11	94.184
517.46	92.819
517.80	92.670
518.14	92.345
518.49	91.647
518.83	91.798
519.17	91.510
519.52	91.237
519.86	91.417
520.20	91.191
520.55	90.557
520.89	89.210
521.23	92.337
521.58	92.303
521.92	92.564
522.26	93.038
522.61	92.987
522.95	94.834
523.29	92.122
523.64	93.901
523.98	93.130
524.32	92.784
524.66	92.318
525.01	94.026
525.35	91.251
525.69	92.795
526.04	90.741
526.38	93.774
526.72	91.498
527.06	90.921
527.41	91.359
527.75	92.024
528.09	92.425
528.43	92.573
528.78	93.333
529.12	92.581
529.46	93.567
529.80	92.084
530.15	93.597
530.49	93.131
530.83	92.681
531.17	91.739
531.51	93.365
531.86	91.842
532.20	92.136
532.54	91.695
532.88	93.634
533.22	92.608
533.57	92.661
533.91	92.493
534.25	93.555
534.59	92.239
534.93	90.623
535.27	92.386
535.62	92.093
535.96	92.694
536.30	91.557
536.64	93.177
536.98	91.498
537.32	93.883
537.66	92.847
538.01	91.189
538.35	93.135
538.69	90.213
539.03	91.046
539.37	90.444
539.71	91.138
540.05	92.736
540.39	92.036
540.73	91.702
541.07	92.196
541.42	91.196
541.76	92.636
542.10	91.397
542.44	92.773
542.78	90.089
543.12	92.582
543.46	92.072
543.80	92.297
544.14	90.120
544.48	90.740
544.82	90.772
545.16	92.623
545.50	90.187
545.84	93.414
546.18	92.482
546.52	90.844
546.86	91.157
547.20	92.275
547.54	92.933
547.88	92.799
548.22	90.467
548.56	92.480
548.90	92.925
549.24	91.185
549.58	91.396
549.92	90.136
550.26	93.407
550.60	93.606
550.94	93.204
551.28	92.890
551.62	92.462
551.96	92.857
552.30	93.567
552.64	91.467
552.98	91.772
553.32	91.869
553.66	93.106
554.00	94.307
554.34	94.387
554.68	91.962
555.02	90.551
555.36	93.194
555.69	91.722
556.03	91.506
556.37	91.388
556.71	92.274
557.05	93.289
557.39	91.152
557.73	91.454
558.07	94.344
558.41	92.113
558.75	92.518
559.08	91.017
559.42	90.873
559.76	92.234
560.10	91.437
560.44	92.182
560.78	93.007
561.12	94.993
561.45	95.362
561.79	92.997
562.13	91.838
562.47	92.086
562.81	91.859
563.15	90.973
563.48	93.281
563.82	93.137
564.16	92.061
564.50	91.824
564.84	91.098
565.17	91.214
565.51	94.740
565.85	95.336
566.19	92.772
566.52	94.906
566.86	93.638
567.20	92.341
567.54	95.012
567.88	96.719
568.21	94.627
568.55	94.620
568.89	94.559
569.23	95.859
569.56	95.184
569.90	96.793
570.24	93.413
570.57	95.382
570.91	95.817
571.25	93.916
571.59	93.709
571.92	92.267
572.26	93.448
572.60	91.287
572.93	92.156
573.27	92.853
573.61	92.422
573.95	92.627
574.28	92.426
574.62	92.271
574.96	91.274
575.29	91.873
575.63	90.334
575.97	90.919
576.30	91.875
576.64	90.887
576.98	92.793
577.31	92.848
577.65	92.890
577.98	93.132
578.32	92.847
578.66	90.587
578.99	90.056
579.33	90.382
579.67	89.705
580.00	91.291
580.34	92.413
580.67	91.568
581.01	91.979
581.35	92.356
581.68	93.210
582.02	93.246
582.35	92.331
582.69	92.248
583.02	92.096
583.36	91.696
583.70	91.044
584.03	92.827
584.37	92.801
584.70	91.236
585.04	90.518
585.37	91.843
585.71	92.841
586.04	92.461
586.38	92.131
586.72	92.798
587.05	93.588
587.39	92.983
587.72	93.494
588.06	92.665
588.39	91.911
588.73	92.552
589.06	92.727
589.40	90.909
589.73	92.442
590.07	93.353
590.40	93.150
590.73	94.605
591.07	92.154
591.40	92.297
591.74	94.344
592.07	93.599
592.41	93.640
592.74	93.031
593.08	91.512
593.41	94.069
593.75	92.313
594.08	92.104
594.41	92.322
594.75	92.214
595.08	93.341
595.42	92.381
595.75	92.677
596.09	92.181
596.42	93.220
596.75	91.741
597.09	91.526
597.42	91.734
597.75	93.175
598.09	91.489
598.42	92.058
598.76	92.321
599.09	93.550
599.42	91.739
599.76	91.535
600.09	91.855
600.42	91.092
600.76	90.193
601.09	92.748
601.42	90.051
601.76	91.465
602.09	92.120
602.42	92.291
602.76	92.190
603.09	92.816
603.42	95.569
603.76	93.105
604.09	93.844
604.42	92.174
604.76	93.191
605.09	92.185
605.42	92.596
605.75	92.863
606.09	91.805
606.42	91.284
606.75	91.991
607.09	90.857
607.42	92.158
607.75	91.119
608.08	90.386
608.42	88.945
608.75	93.494
609.08	93.523
609.41	92.843
609.75	92.591
610.08	93.360
610.41	92.512
610.74	92.101
611.07	93.437
611.41	92.683
611.74	93.923
612.07	91.863
612.40	92.396
612.73	93.729
613.07	91.170
613.40	92.560
613.73	91.942
614.06	92.209
614.39	92.329
614.72	92.941
615.06	94.134
615.39	91.867
615.72	91.119
616.05	92.067
616.38	91.396
616.71	92.416
617.05	93.885
617.38	92.646
617.71	93.899
618.04	94.159
618.37	95.460
618.70	93.069
619.03	93.681
619.36	92.764
619.69	94.086
620.03	95.106
620.36	94.492
620.69	92.363
621.02	91.972
621.35	92.531
621.68	94.133
622.01	96.167
622.34	93.935
622.67	93.060
623.00	93.032
623.33	94.055
623.66	91.698
623.99	92.738
624.32	94.753
624.65	93.383
624.99	93.604
625.32	93.101
625.65	91.830
625.98	93.070
626.31	91.771
626.64	93.761
626.97	91.885
627.30	95.184
627.63	93.934
627.96	92.992
628.29	91.767
628.62	94.789
628.95	91.383
629.28	95.766
629.61	93.619
629.94	93.548
630.26	94.269
630.59	93.757
630.92	96.615
631.25	92.718
631.58	94.824
631.91	93.750
632.24	95.986
632.57	94.205
632.90	95.611
633.23	93.647
633.56	97.733
633.89	94.698
634.22	97.407
634.55	98.221
634.88	96.807
635.20	96.538
635.53	95.467
635.86	93.368
636.19	97.413
636.52	94.770
636.85	95.409
637.18	94.088
637.51	93.333
637.83	92.510
638.16	97.135
638.49	95.913
638.82	94.211
639.15	95.115
639.48	95.873
639.81	95.816
640.13	95.671
640.46	95.918
640.79	94.256
641.12	94.092
641.45	94.745
641.77	92.741
642.10	97.630
642.43	95.981
642.76	97.030
643.09	92.246
643.41	94.660
643.74	94.069
644.07	95.731
644.40	94.088
644.73	97.198
645.05	94.128
645.38	95.944
645.71	95.922
646.04	99.461
646.36	96.454
646.69	94.784
647.02	99.244
647.35	94.963
647.67	93.053
648.00	101.679
648.33	94.027
648.66	99.661
648.98	94.807
649.31	96.529
649.64	93.564
649.96	96.272
650.29	93.697
650.62	93.846
650.94	96.667
651.27	97.207
651.60	92.252
651.92	95.979
652.25	97.336
652.58	93.000
652.90	97.256
653.23	94.958
653.56	95.093
653.88	93.471
654.21	94.746
654.54	94.058
654.86	97.623
655.19	94.298
655.52	99.690
655.84	99.738
656.17	100.000
656.49	100.000
656.82	100.000
657.15	100.000
657.47	100.000
657.80	100.000
658.13	67.036
658.45	85.618
658.78	83.140
659.10	80.051
659.43	79.819
659.75	79.921
660.08	80.966
660.41	84.168
660.73	86.602
661.06	93.068
661.38	91.389
661.71	92.402
662.03	92.918
662.36	96.264
662.68	93.142
663.01	97.817
663.33	98.608
663.66	94.651
663.98	92.326
664.31	91.684
664.63	94.240
664.96	94.130
665.28	92.494
665.61	94.156
665.93	96.304
666.26	92.408
666.58	95.078
666.91	97.176
667.23	94.575
667.56	97.156
667.88	95.204
668.21	97.613
668.53	95.745
668.86	89.858
669.18	95.047
669.50	93.705
669.83	90.698
670.15	93.007
670.48	94.737
670.80	92.396
671.13	90.604
671.45	91.096
671.77	94.421
672.10	91.089
672.42	92.697
672.75	92.185
673.07	92.665
673.39	93.761
673.72	89.349
674.04	93.333
674.37	94.068
674.69	91.006
675.01	91.333
675.34	91.441
675.66	96.991
675.98	93.570
676.31	90.826
676.63	93.824
676.95	87.045
677.28	93.412
677.60	94.458
677.92	91.972
678.25	94.530
678.57	94.589
678.89	92.227
679.22	98.210
679.54	89.558
679.86	91.849
680.18	93.010
680.51	92.803
680.83	92.048
681.15	94.800
681.48	95.287
681.80	91.736
682.12	91.331
682.44	89.540
682.77	93.819
683.09	94.050
683.41	89.773
683.73	91.475
684.06	93.805
684.38	88.387
684.70	101.089
685.02	96.266
685.34	90.316
685.67	94.559
685.99	89.693
686.31	91.327
686.63	90.538
686.96	88.783
687.28	91.313
687.60	87.072
687.92	93.737
688.24	92.339
688.56	93.231
688.89	95.089
689.21	91.556
689.53	91.879
689.85	92.791
690.17	87.054
690.49	91.726
690.82	88.592
691.14	91.429
691.46	94.626
691.78	92.793
692.10	95.269
692.42	92.857
692.74	88.248
693.06	88.288
693.39	88.914
693.71	89.819
694.03	87.760
694.35	89.953
694.67	89.646
694.99	93.734
695.31	94.256
695.63	93.500
695.95	92.172
696.27	91.969
696.59	93.611
696.91	89.636
697.23	88.689
697.56	94.554
697.88	89.677
698.20	95.444
698.52	89.176
698.84	87.560
699.16	91.750
699.48	92.982
699.80	88.834
700.12	91.375
700.44	95.238
700.76	92.151
701.08	92.121
701.40	90.060
701.72	97.531
702.04	93.069
702.36	100.000
702.68	92.192
703.00	95.455
703.32	93.255
703.64	88.136
703.96	90.435
704.28	92.638
704.60	91.111
704.91	89.905
705.23	89.701
705.55	102.473
705.87	94.585
706.19	93.333
706.51	91.409
706.83	88.746
707.15	88.474
707.47	89.076
707.79	88.802
708.11	86.750
708.43	87.250
708.74	90.439
709.06	91.268
709.38	91.743
709.70	86.982
710.02	92.038
710.34	91.950
710.66	81.731
710.98	93.377
711.29	94.426
711.61	95.932
711.93	89.577
712.25	98.282
712.57	94.505
712.89	91.791
713.20	88.235
713.52	88.153
713.84	87.372
714.16	92.784
714.48	92.903
714.80	89.744
715.11	88.754
715.43	89.028
715.75	89.333
716.07	94.020
716.39	88.255
716.70	89.668
717.02	89.313
717.34	90.688
717.66	96.460
717.97	92.174
718.29	94.979
718.61	92.126
718.93	88.372
719.24	84.411
719.56	92.369
719.88	83.849
720.20	90.152
720.51	86.590
720.83	89.575
721.15	91.597
721.46	94.355
721.78	87.352
722.10	84.387
722.42	91.286
722.73	91.837
723.05	96.735
723.37	94.915
723.68	93.694
724.00	88.889
724.32	82.667
724.63	92.273
724.95	96.943
725.27	94.470
725.58	94.068
725.90	86.905
726.22	89.575
726.53	84.746
726.85	85.768
727.16	96.981
727.48	86.235
727.80	87.045
728.11	95.763
728.43	89.020
728.74	85.887
729.06	94.000
729.38	86.842
729.69	91.633
730.01	87.692
730.32	91.045
730.64	87.279
730.96	93.585
731.27	85.667
731.59	89.831
731.90	88.217
732.22	86.120
732.53	91.362
732.85	92.199
733.16	87.542
733.48	86.691
733.80	89.855
734.11	88.814
734.43	91.753
734.74	86.970
735.06	90.554
735.37	86.405
735.69	83.502
736.00	88.153
736.32	90.604
736.63	90.493
736.95	83.959
737.26	91.459
737.58	84.899
737.89	87.912
738.21	88.346
738.52	93.827
738.83	90.393
739.15	90.393
739.46	92.913
739.78	87.546
740.09	81.373
740.41	83.333
740.72	87.008
741.04	85.020
741.35	83.404
741.66	88.152
741.98	88.265
742.29	92.079
742.61	91.623
742.92	82.938
743.23	82.870
743.55	85.068
743.86	86.603
744.18	78.469
744.49	89.894
744.80	88.587
745.12	100.535
745.43	81.463
745.74	95.833
746.06	91.707
746.37	90.576
746.68	86.256
747.00	88.830
747.31	88.557
747.62	86.893
747.94	92.823
748.25	93.069
748.56	94.536
748.88	91.623
749.19	94.149
749.50	85.714
749.82	87.264
750.13	92.661
750.44	82.331
750.75	89.552
751.07	95.620
751.38	87.356
751.69	87.059
752.01	90.310
752.32	90.438
752.63	83.004
752.94	83.621
753.26	89.121
753.57	88.688
753.88	91.150
754.19	86.667
754.51	90.083
754.82	83.401
755.13	91.667
755.44	85.081
755.75	84.375
756.07	84.825
756.38	81.887
756.69	84.291
757.00	81.000
757.31	81.373
757.63	80.183
757.94	77.500
758.25	83.836
758.56	82.181
758.87	80.170
759.18	80.374
759.50	82.909
759.81	82.943
760.12	88.065
760.43	83.636
760.74	89.198
761.05	86.769
761.36	78.693
761.67	82.121
761.99	86.054
762.30	80.727
762.61	81.028
762.92	77.828
763.23	81.982
763.54	85.514
763.85	83.475
764.16	85.062
764.47	79.435
764.78	77.289
765.10	84.512
765.41	82.019
765.72	80.635
766.03	83.083
766.34	78.832
766.65	79.681
766.96	84.343
767.27	81.383
767.58	80.460
767.89	94.326
768.20	69.886
768.51	83.516
768.82	82.759
769.13	80.184
769.44	84.979
769.75	78.995
770.06	77.586
770.37	79.327
770.68	85.787
770.99	73.303
771.30	84.804
771.61	85.973
771.92	78.879
772.23	85.714
772.54	79.570
772.85	83.951
773.16	79.775
773.47	89.542
773.78	89.542
774.09	78.443
774.39	84.000
774.70	80.892
775.01	82.069
775.32	85.000
775.63	88.430
775.94	82.443
776.25	83.465
776.56	79.167
776.87	76.923
777.18	76.923
777.48	89.655
777.79	79.130
778.10	77.143
778.41	92.793
778.72	76.984
779.03	81.955
779.34	79.433
779.65	81.507
779.95	67.808
780.26	80.690
780.57	76.423
780.88	76.378
781.19	82.759
781.50	91.473
781.80	79.882
782.11	72.956
782.42	97.692
782.73	79.137
783.04	80.000
783.34	77.778
783.65	83.761
783.96	81.148
784.27	80.690
784.57	93.496
784.88	70.312
785.19	72.000
785.50	98.000
785.81	76.724
786.11	72.414
786.42	83.495
786.73	88.182
787.04	87.755
787.34	82.143
787.65	72.381
787.96	88.496
788.26	85.455
788.57	87.179
788.88	75.781
789.19	77.778
789.49	81.739
789.80	84.694
790.11	91.919
790.41	54.545
790.72	85.870
791.03	75.000
791.33	88.750
791.64	83.750
791.95	66.279
792.25	69.149
792.56	79.775
792.87	87.671
793.17	86.957
793.48	82.667
793.79	70.000
794.09	85.000
794.40	87.736
794.70	85.437
795.01	59.350
795.32	77.778
795.62	69.524
795.93	72.549
796.23	71.698
796.54	69.792
796.85	76.471
797.15	66.197
797.46	70.833
797.76	75.758
798.07	69.767
798.37	69.737
798.68	62.121
798.99	75.309
799.29	80.000
799.60	79.710
799.90	81.333
800.21	93.443
800.51	72.308
800.82	84.746
801.12	73.913
801.43	68.852
801.73	80.952
802.04	86.000
802.34	73.134
802.65	84.615
802.95	71.429
803.26	55.769
803.56	82.353
803.87	58.696
804.17	86.667
804.48	96.825
804.78	70.370
805.09	84.783
805.39	80.000
805.70	66.667
806.00	77.193
806.30	87.324
806.61	68.571
806.91	59.722
807.22	65.789
807.52	88.000
807.83	78.182
808.13	61.111
808.43	89.706
808.74	70.149
809.04	54.237
809.35	69.231
809.65	87.500
809.95	81.081
810.26	72.727
810.56	65.753
810.86	78.571
811.17	76.000
811.47	91.837
811.77	68.421
812.08	70.455
812.38	50.943
812.69	70.000
812.99	45.455
813.29	89.474
813.59	48.571
813.90	81.818
814.20	69.231
814.50	75.000
814.81	60.377
815.11	65.957
815.41	77.966
815.72	88.095
816.02	74.510
816.32	52.083
816.62	56.098
816.93	86.486
817.23	65.714
817.53	85.417
817.84	54.348
818.14	48.077
818.44	65.789
818.74	78.261
819.04	50.000
819.35	78.378
819.65	61.765
819.95	50.000
820.25	57.143
820.56	75.000
820.86	55.172
821.16	92.500
821.46	61.702
821.76	117.500
822.07	58.140
822.37	45.946
822.67	65.625
822.97	73.810
823.27	46.429
823.57	76.000
823.88	92.593
824.18	100.000
824.48	44.118
824.78	54.839
825.08	39.130
825.38	66.667
825.69	54.167
825.99	86.842
826.29	36.111
826.59	120.000
826.89	71.429
827.19	71.739
827.49	40.000
827.79	108.571
828.09	107.143
828.39	90.909
828.70	81.081
829.00	60.714
829.30	57.143
829.60	86.667
829.90	93.750
830.20	50.000
830.50	55.556
830.80	91.304
831.10	90.909
831.40	124.242
831.70	58.065
832.00	109.524
832.30	76.190
832.60	66.667
832.90	51.724
833.20	30.000
833.50	51.515
833.80	70.370
834.10	50.000
834.40	78.125
834.70	222.222
835.00	131.579
835.30	96.154
835.60	140.000
835.90	67.742
836.20	90.909
836.50	60.714
836.80	80.769
837.10	60.714
837.40	400.000
837.70	18.182
838.00	-27.273
838.30	69.565
838.60	30.769
838.90	31.818
839.19	39.286
839.49	73.333
839.79	69.231
840.09	33.333
840.39	75.000
840.69	64.286
840.99	46.154
841.29	0.000
841.59	-30.000
841.88	100.000
842.18	60.000
842.48	75.000
842.78	66.667
843.08	55.556
843.38	60.000
843.68	104.348
843.97	93.333
844.27	80.000
844.57	75.000
844.87	16.667
845.17	4.762
845.47	60.000
845.76	23.810
846.06	11.765
846.36	80.000
846.66	35.714
846.96	53.333
847.25	-25.000
847.55	157.143
847.85	162.500
848.15	31.818
848.44	100.000
848.74	45.000
849.04	51.852
849.34	54.545
849.63	16.667
849.93	-40.000
850.23	44.444
850.53	80.000
850.82	46.154
851.12	66.667
851.42	73.333
851.71	15.385
852.01	78.571
852.31	275.000
852.61	54.545
852.90	-5.000
853.20	94.737
853.50	-8.333
853.79	86.957
854.09	100.000
854.39	36.842
854.68	16.667
854.98	35.484
855.28	61.538
855.57	80.000
855.87	105.556
856.17	66.667
856.46	64.286
856.76	86.667
857.05	66.667
857.35	88.000
857.65	72.222
857.94	100.000
858.24	55.172
858.53	61.111
858.83	66.667
859.13	40.909
859.42	39.130
859.72	300.000
860.01	166.667
860.31	36.000
860.60	38.095
860.90	166.667
861.20	13.333
861.49	300.000
861.79	46.667
862.08	65.000
862.38	93.333
862.67	-40.000
862.97	-83.333
863.26	33.333
863.56	61.111
863.85	-333.333
864.15	55.556
864.44	80.000
864.74	121.429
865.03	-0.000
865.33	40.000
865.62	166.667
865.92	16.667
866.21	133.333
866.51	87.500
866.80	0.000
867.10	-200.000
867.39	133.333
867.69	0.000
867.98	107.692
868.27	200.000
868.57	6.667
868.86	94.444
869.16	-23.077
869.45	13.333
869.75	-200.000
870.04	0.000
870.33	14.286
870.63	42.857
870.92	300.000
871.22	-160.000
871.51	1000.000
871.80	88.889
872.10	233.333
>>>>>End Processed Spectral Data<<<<<
