SpectraSuite Data File
++++++++++++++++++++++++++++++++++++
Date: Fri May 15 17:05:04 PDT 2015
User: schluterlab
Dark Spectrum Present: Yes
Reference Spectrum Present: Yes
Number of Sampled Component Spectra: 1
Spectrometers: USB2E3373
Integration Time (usec): 3000 (USB2E3373)
Spectra Averaged: 3 (USB2E3373)
Boxcar Smoothing: 0 (USB2E3373)
Correct for Electrical Dark: No (USB2E3373)
Strobe/Lamp Enabled: No (USB2E3373)
Correct for Detector Non-linearity: No (USB2E3373)
Correct for Stray Light: No (USB2E3373)
Number of Pixels in Processed Spectrum: 2048
>>>>>Begin Processed Spectral Data<<<<<
178.53	0.000
178.91	0.000
179.29	75.000
179.67	-350.000
180.04	-42.857
180.42	375.000
180.80	300.000
181.18	133.333
181.56	-100.000
181.94	-50.000
182.31	-200.000
182.69	200.000
183.07	300.000
183.45	20.000
183.83	-33.333
184.20	0.000
184.58	22.222
184.96	-200.000
185.34	-366.667
185.72	100.000
186.09	15.385
186.47	1400.000
186.85	33.333
187.23	-11.111
187.61	-600.000
187.98	133.333
188.36	244.444
188.74	233.333
189.12	5.882
189.49	50.000
189.87	0.000
190.25	-7.143
190.63	300.000
191.00	100.000
191.38	10.526
191.76	100.000
192.14	25.000
192.51	600.000
192.89	44.444
193.27	-28.571
193.65	66.667
194.02	100.000
194.40	140.000
194.78	-62.500
195.15	0.000
195.53	50.000
195.91	-75.000
196.29	175.000
196.66	84.615
197.04	71.429
197.42	-33.333
197.79	-233.333
198.17	-46.154
198.55	100.000
198.92	33.333
199.30	200.000
199.68	0.000
200.05	100.000
200.43	0.000
200.81	-166.667
201.18	-66.667
201.56	800.000
201.94	100.000
202.31	-366.667
202.69	-140.000
203.07	50.000
203.44	600.000
203.82	0.000
204.19	78.571
204.57	-166.667
204.95	-37.500
205.32	-20.000
205.70	185.714
206.08	125.000
206.45	244.444
206.83	150.000
207.20	57.143
207.58	-900.000
207.96	66.667
208.33	-80.000
208.71	225.000
209.08	50.000
209.46	400.000
209.84	-80.000
210.21	800.000
210.59	42.857
210.96	183.333
211.34	25.000
211.71	100.000
212.09	-128.571
212.46	-1000.000
212.84	0.000
213.22	110.000
213.59	550.000
213.97	-30.769
214.34	36.364
214.72	116.667
215.09	125.000
215.47	115.385
215.84	27.273
216.22	-100.000
216.59	112.500
216.97	-100.000
217.34	150.000
217.72	-60.000
218.09	87.500
218.47	37.500
218.84	0.000
219.22	22.222
219.59	40.000
219.97	-0.000
220.34	275.000
220.72	42.857
221.09	0.000
221.47	300.000
221.84	100.000
222.22	100.000
222.59	136.364
222.97	108.333
223.34	-33.333
223.72	7.143
224.09	33.333
224.46	32.143
224.84	266.667
225.21	80.000
225.59	73.333
225.96	100.000
226.34	150.000
226.71	0.000
227.08	66.667
227.46	-25.000
227.83	100.000
228.21	100.000
228.58	36.364
228.95	37.500
229.33	10.000
229.70	81.250
230.08	12.500
230.45	-171.429
230.82	114.286
231.20	0.000
231.57	35.714
231.95	0.000
232.32	-30.000
232.69	114.286
233.07	166.667
233.44	0.000
233.81	20.000
234.19	133.333
234.56	-23.529
234.93	350.000
235.31	350.000
235.68	-80.000
236.05	7.692
236.43	-20.000
236.80	76.471
237.17	15.625
237.55	25.000
237.92	-18.519
238.29	8.333
238.67	20.000
239.04	-5.882
239.41	-7.317
239.79	6.667
240.16	53.659
240.53	-5.263
240.91	-8.696
241.28	11.111
241.65	37.500
242.02	17.808
242.40	16.667
242.77	10.169
243.14	9.091
243.51	13.750
243.89	18.391
244.26	17.241
244.63	10.714
245.00	14.433
245.38	7.216
245.75	-2.247
246.12	0.862
246.49	16.529
246.87	0.962
247.24	3.361
247.61	3.509
247.98	4.878
248.36	3.750
248.73	7.895
249.10	7.143
249.47	9.494
249.84	6.536
250.22	10.588
250.59	3.922
250.96	15.962
251.33	3.488
251.70	12.941
252.08	12.690
252.45	5.446
252.82	5.528
253.19	11.521
253.56	4.673
253.94	9.910
254.31	9.565
254.68	11.404
255.05	6.693
255.42	7.424
255.79	6.178
256.16	9.339
256.54	11.567
256.91	6.084
257.28	8.178
257.65	5.618
258.02	9.574
258.39	7.071
258.76	8.059
259.14	5.980
259.51	5.502
259.88	5.842
260.25	5.882
260.62	7.292
260.99	3.729
261.36	2.740
261.73	4.430
262.10	7.599
262.47	7.055
262.85	5.643
263.22	7.692
263.59	8.100
263.96	7.764
264.33	7.273
264.70	5.952
265.07	7.738
265.44	9.065
265.81	7.062
266.18	5.191
266.55	10.540
266.92	8.808
267.29	7.050
267.66	8.951
268.03	7.853
268.40	6.789
268.77	8.824
269.14	10.791
269.51	6.941
269.88	6.733
270.25	4.847
270.62	4.878
270.99	5.882
271.36	4.645
271.73	7.981
272.10	7.056
272.47	7.565
272.84	6.683
273.21	8.585
273.58	9.880
273.95	7.780
274.32	4.850
274.69	4.299
275.06	7.812
275.43	8.844
275.80	5.740
276.17	3.448
276.54	5.353
276.91	7.456
277.28	5.022
277.65	5.785
278.02	7.660
278.39	6.565
278.76	6.289
279.13	3.734
279.50	8.193
279.87	6.479
280.23	4.946
280.60	6.823
280.97	7.273
281.34	7.500
281.71	9.446
282.08	6.748
282.45	7.241
282.82	6.757
283.19	6.963
283.56	7.514
283.92	4.364
284.29	7.308
284.66	6.589
285.03	6.876
285.40	5.860
285.77	5.624
286.14	6.859
286.51	5.904
286.87	5.484
287.24	7.551
287.61	2.822
287.98	7.193
288.35	4.506
288.72	6.480
289.08	4.340
289.45	5.624
289.82	6.993
290.19	4.949
290.56	4.288
290.93	4.377
291.29	4.777
291.66	6.772
292.03	4.625
292.40	4.355
292.77	5.104
293.13	1.786
293.50	3.642
293.87	5.038
294.24	5.255
294.60	7.004
294.97	6.101
295.34	5.215
295.71	5.067
296.08	4.783
296.44	2.987
296.81	4.583
297.18	5.072
297.55	5.962
297.91	6.438
298.28	4.881
298.65	4.613
299.02	4.447
299.38	3.010
299.75	5.379
300.12	4.188
300.48	3.821
300.85	4.563
301.22	4.675
301.59	4.605
301.95	4.304
302.32	5.707
302.69	4.104
303.05	5.074
303.42	5.604
303.79	4.790
304.15	5.257
304.52	3.092
304.89	4.327
305.25	4.722
305.62	3.384
305.99	5.146
306.35	2.775
306.72	3.487
307.09	4.105
307.45	5.052
307.82	4.745
308.19	6.272
308.55	4.035
308.92	5.447
309.29	2.235
309.65	4.413
310.02	4.180
310.38	3.403
310.75	4.262
311.12	3.767
311.48	3.712
311.85	3.874
312.22	4.114
312.58	3.503
312.95	3.522
313.31	3.209
313.68	3.770
314.05	3.163
314.41	4.639
314.78	4.536
315.14	4.728
315.51	5.590
315.87	4.201
316.24	5.966
316.61	5.315
316.97	4.563
317.34	4.688
317.70	4.589
318.07	4.135
318.43	4.118
318.80	4.167
319.16	4.785
319.53	5.223
319.89	4.921
320.26	5.263
320.62	5.918
320.99	4.593
321.35	4.214
321.72	5.192
322.08	5.942
322.45	5.381
322.81	5.599
323.18	5.005
323.54	5.019
323.91	5.063
324.27	5.859
324.64	5.524
325.00	5.931
325.37	6.244
325.73	5.077
326.10	5.722
326.46	6.816
326.83	5.949
327.19	5.929
327.56	6.864
327.92	5.546
328.29	5.536
328.65	5.943
329.01	6.250
329.38	6.544
329.74	6.043
330.11	5.468
330.47	4.638
330.84	5.192
331.20	7.034
331.56	5.093
331.93	6.210
332.29	6.233
332.66	7.149
333.02	5.483
333.38	5.500
333.75	7.051
334.11	6.267
334.48	7.162
334.84	6.777
335.20	5.398
335.57	5.802
335.93	6.323
336.29	5.985
336.66	5.631
337.02	5.576
337.38	5.741
337.75	6.273
338.11	6.041
338.47	5.109
338.84	6.747
339.20	6.124
339.56	6.330
339.93	6.804
340.29	6.422
340.65	6.541
341.02	6.383
341.38	6.814
341.74	5.565
342.11	5.979
342.47	6.228
342.83	7.180
343.20	5.488
343.56	5.565
343.92	6.732
344.28	7.173
344.65	5.613
345.01	5.186
345.37	5.971
345.73	7.615
346.10	6.989
346.46	6.476
346.82	6.219
347.19	5.736
347.55	5.263
347.91	6.068
348.27	6.063
348.63	5.792
349.00	5.250
349.36	5.985
349.72	6.468
350.08	5.574
350.45	6.225
350.81	3.987
351.17	5.375
351.53	5.551
351.89	4.707
352.26	5.520
352.62	6.048
352.98	6.185
353.34	5.556
353.70	5.906
354.07	5.645
354.43	6.005
354.79	5.780
355.15	6.587
355.51	6.408
355.87	5.663
356.24	4.649
356.60	5.740
356.96	6.270
357.32	5.511
357.68	5.317
358.04	6.058
358.40	6.431
358.77	6.220
359.13	4.163
359.49	5.162
359.85	5.382
360.21	5.662
360.57	5.738
360.93	5.371
361.29	4.834
361.66	5.329
362.02	5.682
362.38	6.017
362.74	5.450
363.10	6.170
363.46	5.411
363.82	6.011
364.18	5.756
364.54	5.809
364.90	4.158
365.26	5.750
365.62	5.985
365.98	5.352
366.35	5.899
366.71	5.248
367.07	6.096
367.43	4.817
367.79	6.148
368.15	5.312
368.51	5.390
368.87	4.666
369.23	4.332
369.59	5.685
369.95	5.718
370.31	5.202
370.67	5.149
371.03	4.705
371.39	5.398
371.75	6.081
372.11	5.492
372.47	4.956
372.83	6.033
373.19	6.277
373.55	4.910
373.91	6.120
374.27	6.166
374.63	5.815
374.99	6.028
375.35	4.805
375.71	5.944
376.07	5.337
376.42	5.782
376.78	5.436
377.14	5.281
377.50	5.312
377.86	5.556
378.22	5.424
378.58	5.064
378.94	5.104
379.30	5.552
379.66	5.768
380.02	4.598
380.38	5.173
380.74	5.625
381.09	6.196
381.45	5.199
381.81	5.552
382.17	4.886
382.53	5.309
382.89	4.520
383.25	6.223
383.61	5.488
383.97	4.698
384.32	5.941
384.68	4.768
385.04	4.841
385.40	3.983
385.76	5.786
386.12	6.210
386.48	5.683
386.83	5.263
387.19	5.311
387.55	5.207
387.91	5.196
388.27	5.495
388.62	5.979
388.98	5.095
389.34	5.434
389.70	5.656
390.06	5.286
390.42	5.570
390.77	4.186
391.13	4.855
391.49	5.239
391.85	4.808
392.20	5.399
392.56	4.196
392.92	4.932
393.28	5.955
393.64	5.105
393.99	6.270
394.35	4.744
394.71	5.556
395.07	5.091
395.42	4.857
395.78	4.495
396.14	5.233
396.50	5.834
396.85	6.117
397.21	5.326
397.57	5.266
397.92	5.692
398.28	5.345
398.64	4.880
399.00	6.264
399.35	5.079
399.71	5.457
400.07	5.320
400.42	5.692
400.78	5.328
401.14	5.989
401.49	5.896
401.85	5.484
402.21	6.205
402.57	5.688
402.92	4.956
403.28	5.138
403.63	5.675
403.99	5.485
404.35	5.934
404.70	5.655
405.06	5.229
405.42	5.221
405.77	4.532
406.13	4.540
406.49	5.210
406.84	5.685
407.20	5.539
407.55	4.894
407.91	5.013
408.27	4.716
408.62	6.215
408.98	6.223
409.34	7.001
409.69	5.749
410.05	5.542
410.40	5.309
410.76	5.730
411.11	5.500
411.47	5.917
411.83	4.269
412.18	5.148
412.54	5.993
412.89	5.480
413.25	5.596
413.60	5.839
413.96	4.847
414.31	6.037
414.67	5.196
415.03	5.726
415.38	5.679
415.74	5.472
416.09	6.270
416.45	5.402
416.80	5.882
417.16	5.456
417.51	5.730
417.87	5.346
418.22	5.699
418.58	5.351
418.93	6.395
419.29	5.890
419.64	5.314
420.00	6.738
420.35	5.851
420.71	6.136
421.06	5.709
421.42	6.130
421.77	5.780
422.12	5.789
422.48	5.685
422.83	5.916
423.19	5.982
423.54	4.821
423.90	5.948
424.25	4.994
424.61	5.875
424.96	6.388
425.31	6.528
425.67	6.221
426.02	5.948
426.38	5.385
426.73	5.993
427.09	5.443
427.44	6.353
427.79	6.128
428.15	5.825
428.50	5.209
428.85	4.791
429.21	6.735
429.56	5.930
429.92	6.317
430.27	6.667
430.62	5.227
430.98	6.316
431.33	6.940
431.68	5.756
432.04	6.205
432.39	6.104
432.74	5.833
433.10	6.782
433.45	5.914
433.80	6.094
434.16	5.651
434.51	6.183
434.86	5.981
435.22	6.562
435.57	5.989
435.92	6.287
436.28	5.784
436.63	6.446
436.98	6.199
437.34	5.808
437.69	6.559
438.04	6.154
438.39	6.170
438.75	5.586
439.10	6.565
439.45	5.965
439.81	6.361
440.16	6.651
440.51	6.269
440.86	7.492
441.22	6.165
441.57	5.905
441.92	6.821
442.27	5.820
442.63	6.799
442.98	6.835
443.33	6.121
443.68	5.995
444.03	6.756
444.39	5.952
444.74	6.856
445.09	6.849
445.44	6.496
445.79	7.323
446.15	6.498
446.50	6.323
446.85	6.748
447.20	6.726
447.55	7.254
447.91	6.768
448.26	7.001
448.61	7.254
448.96	6.254
449.31	6.243
449.66	6.678
450.02	6.503
450.37	6.106
450.72	6.300
451.07	6.582
451.42	6.180
451.77	6.329
452.12	6.280
452.47	6.117
452.83	7.303
453.18	6.135
453.53	6.511
453.88	7.711
454.23	6.208
454.58	6.927
454.93	7.152
455.28	5.714
455.63	6.758
455.98	7.637
456.34	6.386
456.69	7.179
457.04	7.246
457.39	6.258
457.74	6.530
458.09	6.533
458.44	6.319
458.79	6.723
459.14	7.037
459.49	7.582
459.84	7.163
460.19	6.553
460.54	7.274
460.89	7.330
461.24	6.087
461.59	7.126
461.94	6.478
462.29	6.454
462.64	6.844
462.99	7.177
463.34	6.467
463.69	6.821
464.04	7.264
464.39	6.731
464.74	6.810
465.09	7.798
465.44	7.271
465.79	6.463
466.14	7.925
466.49	6.095
466.84	7.733
467.19	7.447
467.54	7.088
467.89	7.328
468.24	6.873
468.59	7.492
468.94	6.603
469.29	8.525
469.64	7.587
469.99	7.638
470.34	6.758
470.68	7.457
471.03	7.077
471.38	7.347
471.73	6.723
472.08	7.395
472.43	6.174
472.78	6.511
473.13	7.075
473.48	7.622
473.83	7.534
474.17	7.254
474.52	7.594
474.87	7.152
475.22	7.444
475.57	6.268
475.92	6.967
476.27	7.392
476.61	6.829
476.96	6.972
477.31	7.463
477.66	6.854
478.01	6.625
478.36	6.699
478.70	7.069
479.05	7.747
479.40	7.843
479.75	7.195
480.10	6.912
480.45	6.800
480.79	7.704
481.14	7.377
481.49	6.650
481.84	6.853
482.19	7.109
482.53	6.427
482.88	7.064
483.23	6.958
483.58	7.689
483.92	6.825
484.27	6.974
484.62	6.589
484.97	6.675
485.31	6.973
485.66	6.529
486.01	6.678
486.36	6.493
486.70	6.739
487.05	6.880
487.40	6.515
487.75	6.817
488.09	6.582
488.44	6.946
488.79	7.060
489.13	6.891
489.48	6.926
489.83	7.040
490.17	7.101
490.52	6.975
490.87	6.525
491.22	7.020
491.56	7.353
491.91	6.931
492.26	6.417
492.60	6.814
492.95	6.886
493.30	6.839
493.64	6.876
493.99	6.908
494.34	6.262
494.68	7.381
495.03	6.131
495.37	6.722
495.72	6.916
496.07	6.585
496.41	6.840
496.76	7.186
497.11	7.126
497.45	7.733
497.80	7.518
498.14	7.253
498.49	6.450
498.84	7.236
499.18	7.179
499.53	7.391
499.87	7.296
500.22	7.122
500.56	6.858
500.91	6.576
501.26	6.476
501.60	7.427
501.95	7.181
502.29	7.070
502.64	6.757
502.98	6.364
503.33	6.916
503.67	6.747
504.02	7.625
504.36	7.125
504.71	7.475
505.06	7.247
505.40	6.954
505.75	7.680
506.09	6.994
506.44	7.341
506.78	7.245
507.13	7.239
507.47	7.050
507.82	6.624
508.16	6.815
508.51	6.821
508.85	7.483
509.19	6.759
509.54	7.292
509.88	6.311
510.23	6.832
510.57	7.643
510.92	6.397
511.26	7.256
511.61	6.491
511.95	7.288
512.30	7.151
512.64	7.513
512.98	6.682
513.33	8.394
513.67	7.675
514.02	7.895
514.36	8.171
514.70	8.217
515.05	7.756
515.39	7.556
515.74	7.485
516.08	6.635
516.42	7.479
516.77	7.665
517.11	7.537
517.46	8.318
517.80	7.807
518.14	6.736
518.49	7.752
518.83	7.230
519.17	6.549
519.52	6.690
519.86	6.603
520.20	7.047
520.55	6.692
520.89	8.156
521.23	7.916
521.58	7.886
521.92	6.859
522.26	6.962
522.61	7.013
522.95	7.417
523.29	7.624
523.64	8.386
523.98	7.194
524.32	6.830
524.66	7.810
525.01	7.857
525.35	8.555
525.69	6.532
526.04	6.878
526.38	8.560
526.72	7.260
527.06	7.523
527.41	7.652
527.75	6.702
528.09	7.176
528.43	8.440
528.78	7.393
529.12	7.806
529.46	7.342
529.80	7.726
530.15	7.987
530.49	8.013
530.83	7.866
531.17	6.985
531.51	8.345
531.86	7.342
532.20	8.142
532.54	8.305
532.88	7.734
533.22	7.997
533.57	8.191
533.91	7.180
534.25	7.943
534.59	8.018
534.93	7.615
535.27	6.853
535.62	6.610
535.96	7.763
536.30	6.926
536.64	7.719
536.98	8.362
537.32	7.752
537.66	8.485
538.01	8.042
538.35	7.490
538.69	6.791
539.03	7.724
539.37	8.143
539.71	7.430
540.05	7.875
540.39	7.687
540.73	7.322
541.07	8.080
541.42	9.140
541.76	7.915
542.10	7.158
542.44	7.505
542.78	6.882
543.12	6.456
543.46	8.067
543.80	7.564
544.14	6.943
544.48	8.061
544.82	7.245
545.16	7.582
545.50	8.077
545.84	7.720
546.18	7.943
546.52	7.498
546.86	7.333
547.20	7.868
547.54	6.219
547.88	7.541
548.22	7.758
548.56	7.256
548.90	8.019
549.24	7.438
549.58	8.110
549.92	6.290
550.26	8.571
550.60	7.955
550.94	7.319
551.28	7.728
551.62	7.615
551.96	8.797
552.30	8.187
552.64	7.828
552.98	7.806
553.32	7.917
553.66	7.184
554.00	8.102
554.34	8.050
554.68	7.817
555.02	8.036
555.36	7.704
555.69	7.326
556.03	7.852
556.37	8.114
556.71	7.076
557.05	8.277
557.39	6.840
557.73	7.796
558.07	9.125
558.41	7.504
558.75	7.794
559.08	7.407
559.42	7.778
559.76	7.766
560.10	6.881
560.44	7.297
560.78	8.042
561.12	7.828
561.45	8.573
561.79	7.983
562.13	8.233
562.47	7.698
562.81	7.997
563.15	7.757
563.48	8.062
563.82	8.099
564.16	7.312
564.50	8.108
564.84	8.300
565.17	7.311
565.51	7.036
565.85	8.093
566.19	7.759
566.52	8.981
566.86	8.483
567.20	7.970
567.54	7.238
567.88	7.440
568.21	7.749
568.55	6.902
568.89	7.752
569.23	7.511
569.56	7.224
569.90	7.998
570.24	7.257
570.57	7.127
570.91	7.668
571.25	7.234
571.59	7.350
571.92	7.289
572.26	6.461
572.60	6.977
572.93	6.997
573.27	6.614
573.61	7.249
573.95	7.236
574.28	6.859
574.62	6.763
574.96	6.981
575.29	7.067
575.63	6.997
575.97	6.777
576.30	7.253
576.64	6.781
576.98	7.027
577.31	7.102
577.65	7.615
577.98	6.995
578.32	7.007
578.66	6.813
578.99	7.089
579.33	6.870
579.67	6.964
580.00	7.063
580.34	6.667
580.67	7.122
581.01	7.037
581.35	6.934
581.68	6.908
582.02	6.937
582.35	6.852
582.69	6.915
583.02	6.793
583.36	7.050
583.70	7.217
584.03	7.451
584.37	7.651
584.70	7.363
585.04	7.254
585.37	7.273
585.71	7.134
586.04	7.237
586.38	6.962
586.72	7.202
587.05	7.019
587.39	7.325
587.72	7.244
588.06	7.141
588.39	7.462
588.73	7.753
589.06	7.632
589.40	7.466
589.73	7.813
590.07	7.931
590.40	7.701
590.73	8.155
591.07	7.252
591.40	6.768
591.74	7.873
592.07	8.071
592.41	8.039
592.74	7.607
593.08	7.510
593.41	7.183
593.75	7.916
594.08	7.209
594.41	7.678
594.75	6.908
595.08	7.719
595.42	7.471
595.75	7.698
596.09	7.701
596.42	7.689
596.75	7.993
597.09	7.426
597.42	7.949
597.75	7.742
598.09	7.786
598.42	7.897
598.76	7.121
599.09	7.853
599.42	7.389
599.76	7.449
600.09	7.353
600.42	7.998
600.76	7.355
601.09	7.252
601.42	7.521
601.76	6.947
602.09	7.591
602.42	7.751
602.76	7.131
603.09	7.641
603.42	7.734
603.76	7.500
604.09	7.533
604.42	7.487
604.76	8.367
605.09	8.044
605.42	7.765
605.75	7.443
606.09	7.643
606.42	7.006
606.75	7.662
607.09	8.176
607.42	7.709
607.75	7.682
608.08	7.143
608.42	8.223
608.75	7.952
609.08	7.623
609.41	7.868
609.75	8.417
610.08	8.337
610.41	8.406
610.74	7.509
611.07	7.959
611.41	8.095
611.74	8.635
612.07	7.816
612.40	8.042
612.73	7.853
613.07	7.930
613.40	8.589
613.73	7.107
614.06	7.902
614.39	8.347
614.72	7.227
615.06	8.324
615.39	7.915
615.72	7.912
616.05	8.659
616.38	7.464
616.71	7.829
617.05	8.215
617.38	8.045
617.71	7.547
618.04	8.952
618.37	8.575
618.70	8.581
619.03	9.167
619.36	7.525
619.69	8.491
620.03	9.058
620.36	8.369
620.69	8.922
621.02	8.869
621.35	9.378
621.68	8.844
622.01	8.917
622.34	9.657
622.67	8.438
623.00	9.188
623.33	7.393
623.66	8.003
623.99	8.472
624.32	8.593
624.65	8.120
624.99	8.352
625.32	7.885
625.65	9.191
625.98	9.186
626.31	8.479
626.64	8.146
626.97	8.726
627.30	9.457
627.63	8.752
627.96	9.164
628.29	8.141
628.62	8.653
628.95	9.118
629.28	8.266
629.61	8.175
629.94	9.873
630.26	8.893
630.59	9.365
630.92	8.410
631.25	7.692
631.58	9.031
631.91	7.237
632.24	8.486
632.57	10.000
632.90	9.015
633.23	8.824
633.56	8.312
633.89	8.138
634.22	9.877
634.55	7.878
634.88	8.940
635.20	7.949
635.53	9.600
635.86	8.322
636.19	8.797
636.52	8.546
636.85	8.065
637.18	8.050
637.51	9.308
637.83	9.724
638.16	10.095
638.49	7.902
638.82	10.132
639.15	8.141
639.48	8.528
639.81	9.763
640.13	9.524
640.46	9.184
640.79	8.689
641.12	8.567
641.45	10.060
641.77	7.704
642.10	9.321
642.43	8.682
642.76	9.571
643.09	11.632
643.41	9.223
643.74	7.743
644.07	9.688
644.40	12.162
644.73	9.807
645.05	10.067
645.38	10.935
645.71	9.752
646.04	9.874
646.36	10.638
646.69	10.971
647.02	10.964
647.35	9.888
647.67	10.786
648.00	10.261
648.33	11.092
648.66	7.627
648.98	7.370
649.31	8.264
649.64	9.262
649.96	7.455
650.29	10.221
650.62	10.256
650.94	7.593
651.27	7.263
651.60	9.910
651.92	9.266
652.25	9.769
652.58	9.500
652.90	10.120
653.23	7.899
653.56	7.783
653.88	9.107
654.21	7.706
654.54	8.998
654.86	10.866
655.19	8.187
655.52	8.669
655.84	6.790
656.17	7.690
656.49	10.530
656.82	11.337
657.15	8.784
657.47	6.669
657.80	4.848
658.13	5.049
658.45	7.738
658.78	7.966
659.10	8.277
659.43	8.535
659.75	8.239
660.08	8.897
660.41	10.215
660.73	9.669
661.06	11.958
661.38	7.436
661.71	5.955
662.03	7.940
662.36	9.890
662.68	9.513
663.01	10.917
663.33	6.961
663.66	5.581
663.98	8.140
664.31	10.661
664.63	9.908
664.96	10.217
665.28	6.181
665.61	9.307
665.93	8.478
666.26	11.931
666.58	8.054
666.91	8.941
667.23	10.377
667.56	7.109
667.88	9.113
668.21	10.024
668.53	13.239
668.86	12.028
669.18	9.670
669.50	10.169
669.83	9.535
670.15	11.189
670.48	6.938
670.80	7.604
671.13	10.515
671.45	8.447
671.77	12.446
672.10	11.287
672.42	10.112
672.75	10.480
673.07	11.986
673.39	10.642
673.72	8.087
674.04	8.125
674.37	9.110
674.69	11.563
675.01	11.111
675.34	9.009
675.66	11.111
675.98	9.978
676.31	10.321
676.63	7.363
676.95	12.273
677.28	10.353
677.60	12.771
677.92	9.174
678.25	11.160
678.57	7.792
678.89	9.874
679.22	10.291
679.54	9.639
679.86	7.356
680.18	9.515
680.51	9.659
680.83	9.940
681.15	10.800
681.48	9.631
681.80	10.950
682.12	8.871
682.44	9.623
682.77	10.596
683.09	8.009
683.41	10.455
683.73	11.982
684.06	10.177
684.38	8.602
684.70	8.932
685.02	7.261
685.34	8.300
685.67	9.568
685.99	10.127
686.31	10.088
686.63	10.575
686.96	8.935
687.28	4.242
687.60	7.795
687.92	8.687
688.24	8.669
688.56	9.607
688.89	8.482
689.21	12.667
689.53	10.209
689.85	8.837
690.17	11.607
690.49	10.875
690.82	7.767
691.14	9.286
691.46	10.280
691.78	8.108
692.10	9.032
692.42	7.792
692.74	11.752
693.06	8.784
693.39	7.240
693.71	8.824
694.03	8.314
694.35	11.449
694.67	10.354
694.99	7.311
695.31	10.444
695.63	12.500
695.95	9.848
696.27	6.995
696.59	12.222
696.91	7.563
697.23	9.254
697.56	9.653
697.88	11.183
698.20	10.478
698.52	10.588
698.84	8.612
699.16	8.000
699.48	10.276
699.80	8.685
700.12	10.512
700.44	9.804
700.76	6.686
701.08	9.091
701.40	10.241
701.72	12.346
702.04	8.911
702.36	9.699
702.68	7.808
703.00	10.000
703.32	8.211
703.64	10.734
703.96	11.594
704.28	12.577
704.60	15.556
704.91	8.202
705.23	8.970
705.55	10.954
705.87	11.552
706.19	8.519
706.51	9.622
706.83	13.505
707.15	8.100
707.47	9.804
707.79	10.677
708.11	10.000
708.43	11.500
708.74	9.561
709.06	10.423
709.38	10.092
709.70	10.651
710.02	11.146
710.34	12.693
710.66	7.051
710.98	11.589
711.29	11.803
711.61	9.492
711.93	12.704
712.25	10.309
712.57	12.088
712.89	7.463
713.20	13.149
713.52	11.150
713.84	10.580
714.16	8.247
714.48	10.323
714.80	9.615
715.11	9.726
715.43	5.329
715.75	5.667
716.07	11.960
716.39	10.738
716.70	9.225
717.02	9.924
717.34	8.502
717.66	8.407
717.97	10.435
718.29	8.787
718.61	11.024
718.93	5.039
719.24	10.266
719.56	12.450
719.88	14.777
720.20	10.606
720.51	5.747
720.83	9.266
721.15	9.244
721.46	11.290
721.78	4.348
722.10	10.409
722.42	9.544
722.73	9.388
723.05	13.878
723.37	11.017
723.68	12.162
724.00	12.821
724.32	6.667
724.63	9.091
724.95	10.917
725.27	14.286
725.58	10.593
725.90	10.714
726.22	11.197
726.53	12.881
726.85	13.483
727.16	17.358
727.48	10.526
727.80	12.955
728.11	11.864
728.43	10.588
728.74	5.645
729.06	12.000
729.38	15.414
729.69	8.367
730.01	10.385
730.32	7.463
730.64	14.134
730.96	10.189
731.27	11.333
731.59	4.746
731.90	7.643
732.22	14.826
732.53	10.963
732.85	10.993
733.16	10.438
733.48	4.676
733.80	6.522
734.11	6.780
734.43	6.186
734.74	13.333
735.06	7.492
735.37	10.574
735.69	12.121
736.00	8.711
736.32	12.416
736.63	12.324
736.95	8.532
737.26	12.100
737.58	10.738
737.89	9.890
738.21	4.135
738.52	11.523
738.83	11.790
739.15	9.607
739.46	10.630
739.78	5.495
740.09	12.418
740.41	9.783
740.72	9.449
741.04	10.931
741.35	11.915
741.66	11.374
741.98	12.245
742.29	14.851
742.61	11.518
742.92	3.318
743.23	4.167
743.55	11.312
743.86	13.876
744.18	10.048
744.49	13.830
744.80	6.522
745.12	13.904
745.43	11.707
745.74	8.333
746.06	11.707
746.37	13.613
746.68	13.270
747.00	7.447
747.31	10.448
747.62	7.767
747.94	11.005
748.25	5.941
748.56	12.022
748.88	11.518
749.19	15.957
749.50	7.882
749.82	4.245
750.13	10.550
750.44	15.789
750.75	10.821
751.07	12.409
751.38	12.261
751.69	7.451
752.01	11.240
752.32	9.562
752.63	7.905
752.94	9.052
753.26	12.134
753.57	14.480
753.88	10.619
754.19	7.500
754.51	6.612
754.82	8.907
755.13	14.583
755.44	12.500
755.75	15.234
756.07	8.560
756.38	6.792
756.69	6.897
757.00	12.333
757.31	12.092
757.63	8.537
757.94	11.667
758.25	10.137
758.56	8.245
758.87	9.065
759.18	11.526
759.50	9.455
759.81	12.040
760.12	11.613
760.43	9.091
760.74	8.333
761.05	9.231
761.36	9.375
761.67	11.818
761.99	12.925
762.30	8.000
762.61	7.510
762.92	10.860
763.23	7.658
763.54	6.542
763.85	7.203
764.16	10.788
764.47	4.032
764.78	6.960
765.10	11.785
765.41	9.464
765.72	9.524
766.03	3.008
766.34	12.044
766.65	15.139
766.96	16.667
767.27	11.170
767.58	7.471
767.89	3.546
768.20	10.227
768.51	8.791
768.82	6.404
769.13	7.834
769.44	9.871
769.75	7.763
770.06	11.638
770.37	9.615
770.68	9.645
770.99	9.050
771.30	10.294
771.61	9.050
771.92	12.069
772.23	12.808
772.54	9.677
772.85	9.877
773.16	8.989
773.47	18.954
773.78	15.686
774.09	14.970
774.39	12.000
774.70	22.930
775.01	18.621
775.32	15.714
775.63	9.091
775.94	8.397
776.25	12.598
776.56	8.333
776.87	8.654
777.18	9.402
777.48	12.069
777.79	6.957
778.10	-0.952
778.41	9.910
778.72	11.111
779.03	12.782
779.34	16.312
779.65	13.014
779.95	2.055
780.26	17.241
780.57	0.000
780.88	11.811
781.19	9.483
781.50	15.504
781.80	18.343
782.11	8.176
782.42	10.000
782.73	7.914
783.04	5.926
783.34	11.806
783.65	11.111
783.96	1.639
784.27	16.552
784.57	16.260
784.88	15.625
785.19	17.000
785.50	19.000
785.81	9.483
786.11	13.793
786.42	2.913
786.73	25.455
787.04	9.184
787.34	8.929
787.65	12.381
787.96	9.735
788.26	8.182
788.57	17.094
788.88	16.406
789.19	18.254
789.49	0.870
789.80	13.265
790.11	9.091
790.41	13.636
790.72	17.391
791.03	11.364
791.33	17.500
791.64	16.250
791.95	8.140
792.25	23.404
792.56	22.472
792.87	9.589
793.17	14.493
793.48	6.667
793.79	18.750
794.09	21.250
794.40	8.491
794.70	9.709
795.01	7.317
795.32	25.641
795.62	8.571
795.93	5.882
796.23	11.321
796.54	13.542
796.85	25.000
797.15	18.310
797.46	18.056
797.76	18.182
798.07	11.628
798.37	1.316
798.68	9.091
798.99	8.642
799.29	12.857
799.60	13.043
799.90	24.000
800.21	11.475
800.51	13.846
800.82	3.390
801.12	15.942
801.43	26.230
801.73	23.810
802.04	0.000
802.34	14.925
802.65	19.231
802.95	-10.714
803.26	5.769
803.56	13.725
803.87	-10.870
804.17	22.667
804.48	34.921
804.78	22.222
805.09	15.217
805.39	0.000
805.70	11.111
806.00	3.509
806.30	19.718
806.61	31.429
806.91	8.333
807.22	35.526
807.52	14.667
807.83	20.000
808.13	9.722
808.43	23.529
808.74	-2.985
809.04	6.780
809.35	5.769
809.65	9.375
809.95	-18.919
810.26	0.000
810.56	21.918
810.86	19.048
811.17	22.000
811.47	22.449
811.77	-15.789
812.08	15.909
812.38	32.075
812.69	0.000
812.99	3.030
813.29	26.316
813.59	-22.857
813.90	6.818
814.20	-23.077
814.50	17.308
814.81	35.849
815.11	-2.128
815.41	40.678
815.72	2.381
816.02	19.608
816.32	12.500
816.62	2.439
816.93	0.000
817.23	28.571
817.53	29.167
817.84	15.217
818.14	25.000
818.44	-7.895
818.74	36.957
819.04	-7.500
819.35	43.243
819.65	11.765
819.95	8.333
820.25	9.524
820.56	42.500
820.86	-37.931
821.16	32.500
821.46	17.021
821.76	25.000
822.07	20.930
822.37	-5.405
822.67	18.750
822.97	-2.381
823.27	10.714
823.57	-20.000
823.88	3.704
824.18	42.857
824.48	20.588
824.78	38.710
825.08	30.435
825.38	18.182
825.69	16.667
825.99	15.789
826.29	5.556
826.59	0.000
826.89	-4.762
827.19	23.913
827.49	10.000
827.79	17.143
828.09	28.571
828.39	3.030
828.70	43.243
829.00	3.571
829.30	23.810
829.60	33.333
829.90	-3.125
830.20	13.158
830.50	-7.407
830.80	-8.696
831.10	-18.182
831.40	30.303
831.70	35.484
832.00	61.905
832.30	-14.286
832.60	33.333
832.90	34.483
833.20	50.000
833.50	48.485
833.80	25.926
834.10	46.154
834.40	31.250
834.70	22.222
835.00	68.421
835.30	61.538
835.60	46.667
835.90	9.677
836.20	22.727
836.50	42.857
836.80	0.000
837.10	14.286
837.40	-166.667
837.70	4.545
838.00	27.273
838.30	-4.348
838.60	61.538
838.90	45.455
839.19	28.571
839.49	46.667
839.79	-15.385
840.09	-25.000
840.39	50.000
840.69	21.429
840.99	19.231
841.29	15.789
841.59	10.000
841.88	90.909
842.18	110.000
842.48	37.500
842.78	40.000
843.08	18.519
843.38	-40.000
843.68	21.739
843.97	26.667
844.27	0.000
844.57	25.000
844.87	33.333
845.17	-14.286
845.47	40.000
845.76	38.095
846.06	58.824
846.36	-10.000
846.66	14.286
846.96	66.667
847.25	-37.500
847.55	-7.143
847.85	12.500
848.15	27.273
848.44	-400.000
848.74	45.000
849.04	25.926
849.34	18.182
849.63	0.000
849.93	-180.000
850.23	50.000
850.53	10.000
850.82	-7.692
851.12	-11.111
851.42	106.667
851.71	7.692
852.01	57.143
852.31	-150.000
852.61	9.091
852.90	35.000
853.20	-5.263
853.50	58.333
853.79	26.087
854.09	62.500
854.39	21.053
854.68	29.167
854.98	38.710
855.28	34.615
855.57	0.000
855.87	94.444
856.17	51.852
856.46	-14.286
856.76	-6.667
857.05	77.778
857.35	60.000
857.65	11.111
857.94	-30.769
858.24	37.931
858.53	38.889
858.83	48.148
859.13	13.636
859.42	30.435
859.72	75.000
860.01	-100.000
860.31	84.000
860.60	52.381
860.90	166.667
861.20	-53.333
861.49	-100.000
861.79	-20.000
862.08	10.000
862.38	140.000
862.67	-120.000
862.97	166.667
863.26	8.333
863.56	33.333
863.85	-300.000
864.15	44.444
864.44	60.000
864.74	100.000
865.03	100.000
865.33	-160.000
865.62	-66.667
865.92	91.667
866.21	50.000
866.51	112.500
866.80	18.182
867.10	0.000
867.39	58.333
867.69	0.000
867.98	38.462
868.27	-100.000
868.57	46.667
868.86	66.667
869.16	7.692
869.45	133.333
869.75	-1000.000
870.04	0.000
870.33	28.571
870.63	76.190
870.92	66.667
871.22	60.000
871.51	600.000
871.80	166.667
872.10	200.000
>>>>>End Processed Spectral Data<<<<<
