SpectraSuite Data File
++++++++++++++++++++++++++++++++++++
Date: Fri May 15 17:07:35 PDT 2015
User: schluterlab
Dark Spectrum Present: Yes
Reference Spectrum Present: Yes
Number of Sampled Component Spectra: 1
Spectrometers: USB2E3373
Integration Time (usec): 3000 (USB2E3373)
Spectra Averaged: 3 (USB2E3373)
Boxcar Smoothing: 0 (USB2E3373)
Correct for Electrical Dark: No (USB2E3373)
Strobe/Lamp Enabled: No (USB2E3373)
Correct for Detector Non-linearity: No (USB2E3373)
Correct for Stray Light: No (USB2E3373)
Number of Pixels in Processed Spectrum: 2048
>>>>>Begin Processed Spectral Data<<<<<
178.53	0.000
178.91	0.000
179.29	225.000
179.67	150.000
180.04	-285.714
180.42	575.000
180.80	1200.000
181.18	-366.667
181.56	-350.000
181.94	700.000
182.31	-600.000
182.69	100.000
183.07	266.667
183.45	200.000
183.83	-83.333
184.20	36.364
184.58	-22.222
184.96	-350.000
185.34	-166.667
185.72	-50.000
186.09	38.462
186.47	100.000
186.85	166.667
187.23	33.333
187.61	-800.000
187.98	33.333
188.36	111.111
188.74	200.000
189.12	29.412
189.49	44.444
189.87	0.000
190.25	71.429
190.63	900.000
191.00	266.667
191.38	42.105
191.76	700.000
192.14	-0.000
192.51	350.000
192.89	0.000
193.27	57.143
193.65	-66.667
194.02	118.182
194.40	100.000
194.78	-25.000
195.15	16.667
195.53	75.000
195.91	175.000
196.29	-25.000
196.66	-0.000
197.04	142.857
197.42	66.667
197.79	-166.667
198.17	-30.769
198.55	400.000
198.92	-233.333
199.30	-200.000
199.68	160.000
200.05	100.000
200.43	0.000
200.81	166.667
201.18	66.667
201.56	500.000
201.94	-150.000
202.31	-400.000
202.69	40.000
203.07	-25.000
203.44	500.000
203.82	0.000
204.19	135.714
204.57	-400.000
204.95	37.500
205.32	70.000
205.70	142.857
206.08	275.000
206.45	233.333
206.83	192.857
207.20	128.571
207.58	-400.000
207.96	-100.000
208.33	-70.000
208.71	275.000
209.08	-83.333
209.46	600.000
209.84	60.000
210.21	-300.000
210.59	157.143
210.96	83.333
211.34	225.000
211.71	133.333
212.09	-14.286
212.46	-1300.000
212.84	0.000
213.22	20.000
213.59	50.000
213.97	7.692
214.34	45.455
214.72	50.000
215.09	150.000
215.47	7.692
215.84	27.273
216.22	66.667
216.59	112.500
216.97	50.000
217.34	175.000
217.72	80.000
218.09	137.500
218.47	75.000
218.84	-200.000
219.22	22.222
219.59	80.000
219.97	133.333
220.34	175.000
220.72	100.000
221.09	100.000
221.47	0.000
221.84	0.000
222.22	-400.000
222.59	118.182
222.97	75.000
223.34	100.000
223.72	28.571
224.09	42.857
224.46	25.000
224.84	100.000
225.21	20.000
225.59	73.333
225.96	650.000
226.34	25.000
226.71	-42.857
227.08	116.667
227.46	50.000
227.83	-150.000
228.21	22.222
228.58	63.636
228.95	50.000
229.33	30.000
229.70	62.500
230.08	37.500
230.45	0.000
230.82	85.714
231.20	40.000
231.57	100.000
231.95	71.429
232.32	30.000
232.69	142.857
233.07	366.667
233.44	100.000
233.81	80.000
234.19	33.333
234.56	41.176
234.93	100.000
235.31	200.000
235.68	-100.000
236.05	-15.385
236.43	-10.000
236.80	35.294
237.17	37.500
237.55	25.000
237.92	-14.815
238.29	33.333
238.67	36.667
239.04	26.471
239.41	-7.317
239.79	3.333
240.16	39.024
240.53	-10.526
240.91	-2.174
241.28	28.571
241.65	25.000
242.02	21.918
242.40	-1.667
242.77	15.254
243.14	4.545
243.51	15.000
243.89	20.690
244.26	9.195
244.63	20.238
245.00	16.495
245.38	16.495
245.75	7.865
246.12	0.862
246.49	6.612
246.87	12.500
247.24	-4.202
247.61	3.509
247.98	9.756
248.36	3.750
248.73	9.211
249.10	9.091
249.47	-4.430
249.84	2.614
250.22	3.529
250.59	1.307
250.96	13.146
251.33	0.581
251.70	8.824
252.08	0.000
252.45	2.475
252.82	7.035
253.19	7.373
253.56	1.402
253.94	4.505
254.31	5.217
254.68	7.456
255.05	5.118
255.42	3.493
255.79	4.633
256.16	7.393
256.54	5.597
256.91	3.422
257.28	4.461
257.65	3.371
258.02	4.965
258.39	5.724
258.76	5.861
259.14	4.651
259.51	5.502
259.88	5.498
260.25	3.268
260.62	1.389
260.99	2.712
261.36	6.849
261.73	6.962
262.10	4.863
262.47	3.988
262.85	2.821
263.22	5.231
263.59	2.181
263.96	4.348
264.33	3.333
264.70	3.571
265.07	4.167
265.44	4.249
265.81	6.497
266.18	6.011
266.55	6.170
266.92	3.886
267.29	7.050
267.66	3.581
268.03	3.141
268.40	2.611
268.77	5.615
269.14	3.118
269.51	6.427
269.88	2.743
270.25	4.082
270.62	2.927
270.99	0.256
271.36	1.711
271.73	5.399
272.10	5.109
272.47	3.073
272.84	5.198
273.21	4.872
273.58	3.614
273.95	5.492
274.32	3.464
274.69	-0.226
275.06	3.795
275.43	4.082
275.80	3.532
276.17	2.069
276.54	4.497
276.91	3.070
277.28	1.528
277.65	5.785
278.02	3.404
278.39	3.282
278.76	3.983
279.13	0.000
279.50	4.622
279.87	5.184
280.23	2.581
280.60	4.483
280.97	3.838
281.34	4.423
281.71	6.776
282.08	1.227
282.45	1.761
282.82	3.282
283.19	3.868
283.56	1.734
283.92	1.518
284.29	2.692
284.66	2.519
285.03	2.554
285.40	3.214
285.77	2.988
286.14	3.249
286.51	1.107
286.87	2.011
287.24	2.026
287.61	1.235
287.98	5.789
288.35	3.466
288.72	3.327
289.08	2.604
289.45	3.163
289.82	3.322
290.19	2.218
290.56	2.230
290.93	1.684
291.29	2.311
291.66	3.622
292.03	1.435
292.40	3.226
292.77	2.073
293.13	2.435
293.50	1.973
293.87	4.885
294.24	3.864
294.60	3.428
294.97	3.869
295.34	2.301
295.71	1.192
296.08	2.691
296.44	0.569
296.81	3.333
297.18	2.319
297.55	4.201
297.91	2.877
298.28	5.805
298.65	2.307
299.02	3.235
299.38	-1.094
299.75	2.897
300.12	3.141
300.48	1.713
300.85	3.169
301.22	2.987
301.59	2.237
301.95	3.165
302.32	2.464
302.69	2.985
303.05	1.733
303.42	3.487
303.79	3.505
304.15	3.226
304.52	0.951
304.89	2.339
305.25	3.390
305.62	1.867
305.99	3.275
306.35	1.965
306.72	1.350
307.09	2.623
307.45	3.444
307.82	1.852
308.19	3.484
308.55	1.854
308.92	3.377
309.29	2.011
309.65	1.722
310.02	2.970
310.38	3.403
310.75	3.825
311.12	1.615
311.48	3.606
311.85	3.246
312.22	3.270
312.58	1.805
312.95	3.202
313.31	2.070
313.68	2.932
314.05	3.469
314.41	2.577
314.78	4.021
315.14	4.830
315.51	4.658
315.87	3.791
316.24	5.056
316.61	5.610
316.97	5.754
317.34	5.078
317.70	6.310
318.07	5.000
318.43	5.588
318.80	7.008
319.16	7.031
319.53	8.927
319.89	7.677
320.26	7.996
320.62	8.225
320.99	7.829
321.35	9.147
321.72	9.761
322.08	9.768
322.45	8.528
322.81	9.823
323.18	9.421
323.54	9.363
323.91	11.685
324.27	11.523
324.64	13.109
325.00	12.682
325.37	13.682
325.73	13.509
326.10	14.169
326.46	15.336
326.83	16.623
327.19	17.873
327.56	18.593
327.92	18.750
328.29	18.750
328.65	19.245
329.01	20.956
329.38	19.078
329.74	21.624
330.11	22.892
330.47	23.377
330.84	23.750
331.20	25.000
331.56	24.907
331.93	26.849
332.29	26.031
332.66	26.787
333.02	27.045
333.38	26.306
333.75	28.388
334.11	27.216
334.48	29.646
334.84	29.396
335.20	28.728
335.57	28.649
335.93	29.359
336.29	31.952
336.66	30.154
337.02	29.647
337.38	31.204
337.75	30.091
338.11	30.839
338.47	31.387
338.84	31.516
339.20	31.718
339.56	30.642
339.93	29.902
340.29	31.101
340.65	31.810
341.02	31.028
341.38	32.212
341.74	31.714
342.11	30.503
342.47	31.139
342.83	32.872
343.20	30.662
343.56	32.261
343.92	32.684
344.28	32.365
344.65	31.779
345.01	30.510
345.37	30.866
345.73	31.548
346.10	32.269
346.46	32.212
346.82	30.524
347.19	29.510
347.55	32.414
347.91	31.472
348.27	30.962
348.63	31.772
349.00	31.583
349.36	30.673
349.72	32.338
350.08	31.721
350.45	30.726
350.81	30.316
351.17	30.782
351.53	32.490
351.89	29.315
352.26	30.640
352.62	30.806
352.98	30.602
353.34	30.837
353.70	31.877
354.07	30.565
354.43	32.106
354.79	32.618
355.15	32.063
355.51	31.329
355.87	32.039
356.24	30.832
356.60	30.558
356.96	31.349
357.32	31.150
357.68	30.727
358.04	31.018
358.40	31.029
358.77	32.057
359.13	31.545
359.49	30.586
359.85	31.357
360.21	31.738
360.57	31.140
360.93	31.921
361.29	31.193
361.66	31.583
362.02	31.742
362.38	31.759
362.74	31.870
363.10	32.355
363.46	30.615
363.82	32.081
364.18	32.030
364.54	30.882
364.90	32.545
365.26	32.460
365.62	31.898
365.98	31.745
366.35	33.358
366.71	32.373
367.07	31.858
367.43	31.057
367.79	31.731
368.15	32.879
368.51	32.484
368.87	30.940
369.23	31.047
369.59	31.414
369.95	32.258
370.31	31.720
370.67	32.015
371.03	30.545
371.39	31.510
371.75	31.502
372.11	32.454
372.47	31.953
372.83	32.363
373.19	33.024
373.55	32.130
373.91	32.613
374.27	32.672
374.63	32.663
374.99	31.773
375.35	32.312
375.71	32.378
376.07	32.093
376.42	32.381
376.78	32.215
377.14	32.295
377.50	32.404
377.86	32.597
378.22	32.355
378.58	32.244
378.94	32.388
379.30	32.252
379.66	33.605
380.02	33.292
380.38	32.015
380.74	32.316
381.09	33.681
381.45	33.333
381.81	32.326
382.17	32.297
382.53	33.417
382.89	33.898
383.25	32.981
383.61	32.927
383.97	33.397
384.32	32.270
384.68	32.693
385.04	32.598
385.40	33.292
385.76	33.836
386.12	33.247
386.48	33.780
386.83	33.608
387.19	32.967
387.55	32.622
387.91	33.374
388.27	32.112
388.62	33.040
388.98	33.395
389.34	33.916
389.70	33.437
390.06	32.662
390.42	33.679
390.77	32.767
391.13	32.472
391.49	33.635
391.85	33.398
392.20	33.522
392.56	33.503
392.92	33.177
393.28	32.783
393.64	32.372
393.99	34.295
394.35	32.891
394.71	33.589
395.07	31.992
395.42	32.362
395.78	33.160
396.14	33.228
396.50	33.354
396.85	33.162
397.21	32.581
397.57	32.602
397.92	32.235
398.28	33.161
398.64	32.229
399.00	31.941
399.35	30.587
399.71	31.936
400.07	32.467
400.42	32.497
400.78	33.190
401.14	31.337
401.49	32.579
401.85	31.627
402.21	31.807
402.57	32.250
402.92	31.681
403.28	31.704
403.63	32.724
403.99	32.015
404.35	32.230
404.70	32.024
405.06	31.786
405.42	30.702
405.77	31.028
406.13	31.432
406.49	31.794
406.84	31.051
407.20	31.547
407.55	31.552
407.91	31.818
408.27	31.421
408.62	31.508
408.98	30.746
409.34	31.970
409.69	30.620
410.05	31.342
410.40	31.605
410.76	31.725
411.11	31.750
411.47	31.755
411.83	30.948
412.18	30.695
412.54	30.524
412.89	30.480
413.25	30.746
413.60	30.621
413.96	31.043
414.31	30.854
414.67	30.532
415.03	31.092
415.38	30.091
415.74	31.792
416.09	31.483
416.45	31.128
416.80	31.593
417.16	32.873
417.51	32.245
417.87	31.226
418.22	31.801
418.58	31.171
418.93	31.787
419.29	29.898
419.64	31.043
420.00	32.494
420.35	30.806
420.71	32.199
421.06	31.921
421.42	31.430
421.77	32.023
422.12	31.215
422.48	30.915
422.83	31.148
423.19	31.546
423.54	31.158
423.90	31.154
424.25	31.171
424.61	31.763
424.96	31.765
425.31	33.449
425.67	31.984
426.02	32.862
426.38	32.185
426.73	32.143
427.09	32.595
427.44	32.765
427.79	32.292
428.15	32.646
428.50	33.071
428.85	32.432
429.21	32.937
429.56	33.208
429.92	32.974
430.27	33.133
430.62	31.417
430.98	32.909
431.33	33.281
431.68	32.653
432.04	32.812
432.39	33.428
432.74	32.532
433.10	34.368
433.45	34.050
433.80	33.662
434.16	33.629
434.51	33.548
434.86	33.682
435.22	34.044
435.57	34.435
435.92	34.551
436.28	33.035
436.63	33.714
436.98	33.488
437.34	34.301
437.69	34.586
438.04	34.416
438.39	33.720
438.75	34.183
439.10	34.239
439.45	34.510
439.81	34.251
440.16	34.561
440.51	35.582
440.86	35.347
441.22	34.502
441.57	34.989
441.92	35.677
442.27	35.809
442.63	35.546
442.98	36.129
443.33	34.947
443.68	36.074
444.03	35.320
444.39	35.563
444.74	37.291
445.09	36.526
445.44	36.752
445.79	37.133
446.15	34.967
446.50	35.552
446.85	36.716
447.20	36.131
447.55	37.444
447.91	36.266
448.26	37.393
448.61	36.557
448.96	37.636
449.31	36.705
449.66	36.527
450.02	36.794
450.37	37.344
450.72	36.426
451.07	37.468
451.42	36.579
451.77	37.673
452.12	37.380
452.47	37.347
452.83	37.574
453.18	37.381
453.53	37.674
453.88	38.373
454.23	37.492
454.58	38.980
454.93	37.436
455.28	36.381
455.63	38.748
455.98	38.485
456.34	39.336
456.69	36.976
457.04	38.815
457.39	37.849
457.74	38.694
458.09	38.081
458.44	38.561
458.79	38.207
459.14	38.902
459.49	39.224
459.84	38.691
460.19	38.956
460.54	39.242
460.89	39.148
461.24	39.193
461.59	39.311
461.94	38.302
462.29	39.988
462.64	39.136
462.99	38.930
463.34	39.569
463.69	39.575
464.04	39.165
464.39	39.964
464.74	40.061
465.09	39.488
465.44	40.046
465.79	38.889
466.14	40.137
466.49	38.988
466.84	40.036
467.19	40.238
467.54	38.953
467.89	39.040
468.24	39.538
468.59	41.587
468.94	39.365
469.29	40.525
469.64	40.943
469.99	41.836
470.34	40.683
470.68	42.356
471.03	41.543
471.38	40.942
471.73	41.737
472.08	40.163
472.43	41.342
472.78	41.261
473.13	41.088
473.48	41.238
473.83	41.034
474.17	41.710
474.52	41.161
474.87	40.727
475.22	41.367
475.57	41.389
475.92	41.525
476.27	41.560
476.61	42.824
476.96	41.606
477.31	41.482
477.66	42.247
478.01	42.729
478.36	42.266
478.70	43.013
479.05	43.352
479.40	43.031
479.75	42.649
480.10	42.908
480.45	42.600
480.79	43.756
481.14	43.699
481.49	42.365
481.84	43.581
482.19	42.657
482.53	43.213
482.88	43.055
483.23	42.562
483.58	43.113
483.92	42.788
484.27	43.345
484.62	43.030
484.97	42.413
485.31	42.738
485.66	42.101
486.01	42.271
486.36	41.996
486.70	41.405
487.05	41.590
487.40	41.468
487.75	42.507
488.09	42.769
488.44	42.985
488.79	43.855
489.13	44.752
489.48	44.421
489.83	44.350
490.17	43.506
490.52	44.342
490.87	43.776
491.22	44.556
491.56	44.213
491.91	44.551
492.26	45.066
492.60	44.818
492.95	46.090
493.30	45.090
493.64	45.727
493.99	46.135
494.34	45.049
494.68	45.524
495.03	45.450
495.37	44.701
495.72	46.138
496.07	45.854
496.41	46.321
496.76	46.430
497.11	45.552
497.45	46.539
497.80	46.620
498.14	46.001
498.49	46.470
498.84	45.758
499.18	46.687
499.53	47.321
499.87	46.449
500.22	46.785
500.56	48.008
500.91	47.189
501.26	47.108
501.60	46.385
501.95	47.259
502.29	46.973
502.64	46.332
502.98	47.706
503.33	46.638
503.67	46.602
504.02	47.996
504.36	48.540
504.71	47.879
505.06	47.660
505.40	47.411
505.75	48.660
506.09	47.339
506.44	48.717
506.78	49.592
507.13	48.759
507.47	48.460
507.82	48.130
508.16	48.019
508.51	49.843
508.85	48.875
509.19	47.951
509.54	48.257
509.88	49.622
510.23	49.704
510.57	50.027
510.92	48.507
511.26	50.082
511.61	50.880
511.95	48.329
512.30	50.111
512.64	49.583
512.98	49.467
513.33	50.196
513.67	49.460
514.02	52.117
514.36	52.286
514.70	50.408
515.05	52.585
515.39	51.594
515.74	52.216
516.08	51.524
516.42	53.004
516.77	53.072
517.11	51.751
517.46	52.304
517.80	51.430
518.14	52.603
518.49	51.442
518.83	52.309
519.17	51.001
519.52	51.865
519.86	51.261
520.20	52.430
520.55	52.783
520.89	52.008
521.23	51.425
521.58	53.123
521.92	54.936
522.26	52.440
522.61	53.247
522.95	55.298
523.29	53.240
523.64	53.558
523.98	54.180
524.32	54.124
524.66	53.777
525.01	54.935
525.35	54.569
525.69	53.333
526.04	54.630
526.38	55.447
526.72	52.910
527.06	53.826
527.41	54.749
527.75	54.223
528.09	55.880
528.43	55.098
528.78	54.455
529.12	55.677
529.46	54.841
529.80	54.528
530.15	56.040
530.49	54.141
530.83	55.882
531.17	55.339
531.51	55.677
531.86	55.337
532.20	55.532
532.54	54.255
532.88	56.057
533.22	55.712
533.57	54.784
533.91	55.809
534.25	56.576
534.59	54.907
534.93	54.374
535.27	54.378
535.62	55.347
535.96	55.251
536.30	55.541
536.64	57.271
536.98	55.610
537.32	57.397
537.66	57.013
538.01	56.993
538.35	56.103
538.69	55.326
539.03	55.639
539.37	55.518
539.71	56.578
540.05	56.687
540.39	56.440
540.73	57.462
541.07	57.182
541.42	56.922
541.76	57.880
542.10	56.228
542.44	57.818
542.78	55.678
543.12	56.593
543.46	57.789
543.80	58.501
544.14	56.275
544.48	57.761
544.82	58.168
545.16	58.811
545.50	57.477
545.84	58.499
546.18	57.589
546.52	58.183
546.86	58.231
547.20	58.727
547.54	56.325
547.88	58.628
548.22	57.791
548.56	57.124
548.90	58.423
549.24	57.438
549.58	57.546
549.92	57.970
550.26	58.095
550.60	58.141
550.94	58.999
551.28	59.428
551.62	58.077
551.96	60.226
552.30	58.699
552.64	58.674
552.98	59.072
553.32	59.629
553.66	58.636
554.00	59.708
554.34	61.004
554.68	59.071
555.02	60.193
555.36	59.162
555.69	58.974
556.03	59.029
556.37	57.295
556.71	58.628
557.05	59.657
557.39	57.621
557.73	60.045
558.07	58.446
558.41	59.418
558.75	59.626
559.08	61.466
559.42	59.921
559.76	60.288
560.10	60.245
560.44	60.908
560.78	58.252
561.12	60.367
561.45	61.068
561.79	59.524
562.13	60.965
562.47	60.000
562.81	60.663
563.15	61.283
563.48	60.255
563.82	60.124
564.16	59.401
564.50	59.392
564.84	59.371
565.17	59.691
565.51	62.158
565.85	61.523
566.19	59.416
566.52	61.260
566.86	60.476
567.20	59.776
567.54	60.036
567.88	61.980
568.21	60.238
568.55	59.457
568.89	60.164
569.23	58.498
569.56	59.019
569.90	59.643
570.24	57.574
570.57	59.382
570.91	58.208
571.25	56.330
571.59	56.836
571.92	56.385
572.26	56.099
572.60	56.930
572.93	56.354
573.27	57.147
573.61	57.220
573.95	57.209
574.28	56.276
574.62	55.835
574.96	54.924
575.29	55.982
575.63	54.366
575.97	55.598
576.30	56.368
576.64	56.609
576.98	57.143
577.31	56.132
577.65	56.514
577.98	56.530
578.32	55.662
578.66	54.696
578.99	55.779
579.33	55.658
579.67	55.665
580.00	55.772
580.34	56.443
580.67	55.564
581.01	56.772
581.35	55.900
581.68	56.446
582.02	56.304
582.35	56.379
582.69	56.603
583.02	56.206
583.36	56.565
583.70	57.658
584.03	57.687
584.37	57.510
584.70	57.445
585.04	55.829
585.37	56.241
585.71	56.949
586.04	55.724
586.38	56.575
586.72	57.446
587.05	58.030
587.39	57.171
587.72	58.010
588.06	56.435
588.39	56.935
588.73	57.753
589.06	57.763
589.40	57.829
589.73	58.269
590.07	58.724
590.40	58.669
590.73	59.267
591.07	59.033
591.40	58.727
591.74	58.552
592.07	59.647
592.41	59.143
592.74	59.060
593.08	56.724
593.41	57.265
593.75	56.788
594.08	57.570
594.41	56.878
594.75	57.519
595.08	57.775
595.42	58.373
595.75	58.393
596.09	57.819
596.42	59.198
596.75	59.281
597.09	58.952
597.42	59.350
597.75	59.093
598.09	56.949
598.42	58.258
598.76	57.615
599.09	57.692
599.42	56.764
599.76	56.960
600.09	56.938
600.42	57.923
600.76	57.541
601.09	57.099
601.42	57.501
601.76	57.999
602.09	58.210
602.42	58.888
602.76	58.277
603.09	58.472
603.42	60.284
603.76	58.145
604.09	57.635
604.42	58.206
604.76	59.012
605.09	58.364
605.42	58.465
605.75	58.844
606.09	56.730
606.42	57.256
606.75	57.489
607.09	57.495
607.42	57.156
607.75	58.037
608.08	57.278
608.42	57.378
608.75	59.181
609.08	58.994
609.41	58.832
609.75	58.871
610.08	59.411
610.41	57.633
610.74	58.752
611.07	60.258
611.41	59.056
611.74	58.902
612.07	58.779
612.40	59.409
612.73	59.153
613.07	59.280
613.40	58.917
613.73	58.198
614.06	59.043
614.39	60.068
614.72	57.871
615.06	58.268
615.39	56.659
615.72	58.073
616.05	57.989
616.38	56.866
616.71	60.673
617.05	59.852
617.38	59.711
617.71	59.245
618.04	61.778
618.37	60.719
618.70	60.132
619.03	62.083
619.36	60.420
619.69	62.092
620.03	62.308
620.36	60.515
620.69	60.314
621.02	60.321
621.35	61.992
621.68	62.415
622.01	62.583
622.34	61.692
622.67	61.278
623.00	60.413
623.33	60.747
623.66	60.808
623.99	59.607
624.32	60.989
624.65	61.128
624.99	61.099
625.32	59.970
625.65	61.508
625.98	61.805
626.31	61.513
626.64	61.352
626.97	61.955
627.30	62.609
627.63	60.919
627.96	62.354
628.29	62.627
628.62	62.832
628.95	63.226
629.28	62.903
629.61	62.213
629.94	63.441
630.26	62.549
630.59	63.476
630.92	64.000
631.25	61.744
631.58	65.308
631.91	62.719
632.24	64.794
632.57	63.750
632.90	64.057
633.23	64.235
633.56	66.877
633.89	64.735
634.22	64.568
634.55	65.565
634.88	63.729
635.20	63.205
635.53	63.867
635.86	61.899
636.19	66.235
636.52	65.689
636.85	62.035
637.18	62.390
637.51	64.906
637.83	63.338
638.16	67.394
638.49	62.807
638.82	65.526
639.15	64.722
639.48	64.512
639.81	63.877
640.13	65.512
640.46	63.703
640.79	64.065
641.12	66.174
641.45	63.363
641.77	63.704
642.10	68.246
642.43	66.238
642.76	64.851
643.09	63.651
643.41	62.298
643.74	66.063
644.07	65.846
644.40	65.034
644.73	69.002
645.05	63.758
645.38	65.785
645.71	65.426
646.04	68.941
646.36	65.780
646.69	64.388
647.02	68.053
647.35	67.351
647.67	62.523
648.00	69.403
648.33	65.188
648.66	64.407
648.98	63.652
649.31	62.314
649.64	62.637
649.96	62.723
650.29	65.417
650.62	64.957
650.94	65.926
651.27	65.549
651.60	66.486
651.92	66.608
652.25	65.187
652.58	63.000
652.90	65.009
653.23	64.706
653.56	61.929
653.88	64.433
654.21	62.697
654.54	64.007
654.86	64.346
655.19	60.526
655.52	57.043
655.84	50.762
656.17	56.084
656.49	75.981
656.82	78.475
657.15	59.836
657.47	45.107
657.80	33.683
658.13	33.545
658.45	51.999
658.78	52.206
659.10	51.824
659.43	52.152
659.75	54.909
660.08	55.448
660.41	58.427
660.73	59.254
661.06	63.778
661.38	62.818
661.71	60.780
662.03	65.021
662.36	65.055
662.68	62.832
663.01	64.847
663.33	62.181
663.66	63.023
663.98	63.256
664.31	65.245
664.63	63.364
664.96	61.087
665.28	61.369
665.61	63.420
665.93	62.826
666.26	65.510
666.58	61.298
666.91	63.529
667.23	67.925
667.56	61.848
667.88	64.269
668.21	64.678
668.53	66.430
668.86	63.208
669.18	60.142
669.50	60.291
669.83	64.651
670.15	62.005
670.48	62.440
670.80	63.134
671.13	59.732
671.45	57.534
671.77	61.588
672.10	59.604
672.42	61.423
672.75	56.838
673.07	59.034
673.39	60.367
673.72	57.396
674.04	59.792
674.37	60.381
674.69	60.385
675.01	61.556
675.34	55.856
675.66	60.880
675.98	59.202
676.31	61.239
676.63	62.470
676.95	60.455
677.28	62.824
677.60	60.241
677.92	63.303
678.25	57.987
678.57	58.442
678.89	57.353
679.22	62.864
679.54	56.627
679.86	56.461
680.18	58.252
680.51	56.629
680.83	56.262
681.15	56.400
681.48	61.270
681.80	60.331
682.12	58.266
682.44	57.322
682.77	62.693
683.09	60.183
683.41	57.273
683.73	59.908
684.06	57.743
684.38	57.204
684.70	62.963
685.02	58.299
685.34	53.557
685.67	55.535
685.99	57.685
686.31	56.460
686.63	54.731
686.96	51.711
687.28	54.747
687.60	55.133
687.92	57.576
688.24	53.629
688.56	59.389
688.89	57.143
689.21	56.667
689.53	56.381
689.85	56.744
690.17	58.929
690.49	54.610
690.82	56.796
691.14	54.524
691.46	57.944
691.78	58.559
692.10	58.280
692.42	54.329
692.74	53.205
693.06	58.333
693.39	54.072
693.71	53.394
694.03	51.501
694.35	58.178
694.67	59.343
694.99	58.225
695.31	55.875
695.63	54.750
695.95	54.798
696.27	52.591
696.59	57.778
696.91	56.303
697.23	50.900
697.56	55.198
697.88	53.978
698.20	54.214
698.52	51.765
698.84	53.349
699.16	55.000
699.48	56.140
699.80	53.102
700.12	56.334
700.44	54.902
700.76	56.686
701.08	56.970
701.40	52.410
701.72	58.025
702.04	55.116
702.36	62.876
702.68	53.453
703.00	55.152
703.32	55.718
703.64	53.672
703.96	57.971
704.28	50.613
704.60	57.143
704.91	55.205
705.23	57.807
705.55	64.311
705.87	58.845
706.19	57.407
706.51	54.639
706.83	54.662
707.15	53.271
707.47	56.303
707.79	50.521
708.11	51.000
708.43	51.750
708.74	50.646
709.06	56.901
709.38	56.881
709.70	55.621
710.02	54.459
710.34	48.607
710.66	50.000
710.98	51.325
711.29	53.443
711.61	51.525
711.93	53.746
712.25	60.137
712.57	55.678
712.89	50.000
713.20	59.516
713.52	51.568
713.84	52.560
714.16	53.952
714.48	51.935
714.80	50.641
715.11	51.976
715.43	47.022
715.75	49.000
716.07	47.841
716.39	49.664
716.70	53.875
717.02	53.053
717.34	55.870
717.66	54.867
717.97	55.217
718.29	53.138
718.61	56.693
718.93	52.713
719.24	57.414
719.56	55.020
719.88	50.515
720.20	50.758
720.51	52.874
720.83	53.282
721.15	57.143
721.46	53.629
721.78	49.407
722.10	48.699
722.42	55.187
722.73	52.245
723.05	48.980
723.37	50.424
723.68	55.856
724.00	54.274
724.32	47.111
724.63	56.818
724.95	53.275
725.27	51.613
725.58	50.847
725.90	42.857
726.22	52.510
726.53	49.153
726.85	54.682
727.16	54.717
727.48	51.822
727.80	52.632
728.11	45.763
728.43	43.529
728.74	47.581
729.06	44.800
729.38	50.376
729.69	48.207
730.01	46.154
730.32	47.015
730.64	51.590
730.96	49.434
731.27	47.667
731.59	48.814
731.90	44.586
732.22	50.473
732.53	48.173
732.85	47.872
733.16	47.811
733.48	44.964
733.80	47.101
734.11	48.136
734.43	46.392
734.74	45.758
735.06	45.603
735.37	45.015
735.69	48.822
736.00	46.690
736.32	45.973
736.63	44.718
736.95	45.051
737.26	40.569
737.58	47.651
737.89	47.253
738.21	47.368
738.52	45.267
738.83	51.092
739.15	43.668
739.46	49.606
739.78	41.392
740.09	39.869
740.41	46.014
740.72	46.063
741.04	51.822
741.35	46.809
741.66	44.076
741.98	41.837
742.29	49.505
742.61	50.785
742.92	40.758
743.23	42.593
743.55	45.249
743.86	46.411
744.18	44.498
744.49	42.021
744.80	41.304
745.12	46.524
745.43	43.902
745.74	47.396
746.06	50.244
746.37	47.644
746.68	53.081
747.00	44.681
747.31	42.786
747.62	47.087
747.94	43.541
748.25	45.050
748.56	51.366
748.88	46.597
749.19	50.532
749.50	46.798
749.82	39.623
750.13	41.284
750.44	46.617
750.75	45.522
751.07	45.255
751.38	42.912
751.69	45.882
752.01	47.674
752.32	38.645
752.63	42.688
752.94	44.397
753.26	46.444
753.57	46.606
753.88	47.345
754.19	46.250
754.51	41.736
754.82	41.296
755.13	48.750
755.44	43.145
755.75	40.234
756.07	43.580
756.38	39.623
756.69	39.464
757.00	42.333
757.31	43.464
757.63	39.329
757.94	40.278
758.25	37.534
758.56	37.234
758.87	35.127
759.18	41.745
759.50	37.091
759.81	36.120
760.12	39.677
760.43	38.485
760.74	42.593
761.05	40.000
761.36	39.773
761.67	43.636
761.99	41.497
762.30	41.091
762.61	41.897
762.92	43.439
763.23	39.189
763.54	37.383
763.85	38.136
764.16	35.270
764.47	39.919
764.78	38.095
765.10	42.424
765.41	34.385
765.72	41.587
766.03	36.090
766.34	38.321
766.65	41.833
766.96	43.939
767.27	46.277
767.58	33.908
767.89	37.589
768.20	42.045
768.51	41.209
768.82	44.335
769.13	41.475
769.44	37.768
769.75	35.160
770.06	37.500
770.37	37.500
770.68	43.147
770.99	33.937
771.30	42.647
771.61	41.629
771.92	40.086
772.23	40.887
772.54	44.086
772.85	43.827
773.16	40.449
773.47	45.752
773.78	54.902
774.09	44.910
774.39	42.667
774.70	37.580
775.01	50.345
775.32	38.571
775.63	44.628
775.94	39.695
776.25	42.520
776.56	34.167
776.87	42.308
777.18	36.752
777.48	50.862
777.79	37.391
778.10	38.095
778.41	40.541
778.72	46.032
779.03	40.602
779.34	40.426
779.65	45.205
779.95	33.562
780.26	40.690
780.57	39.024
780.88	30.709
781.19	44.828
781.50	41.085
781.80	33.136
782.11	29.560
782.42	38.462
782.73	41.007
783.04	38.519
783.34	33.333
783.65	25.641
783.96	46.721
784.27	45.517
784.57	34.959
784.88	49.219
785.19	47.000
785.50	42.000
785.81	43.103
786.11	30.172
786.42	44.660
786.73	44.545
787.04	35.714
787.34	36.607
787.65	44.762
787.96	42.478
788.26	40.909
788.57	40.171
788.88	43.750
789.19	38.889
789.49	45.217
789.80	39.796
790.11	44.444
790.41	33.636
790.72	48.913
791.03	48.864
791.33	46.250
791.64	42.500
791.95	51.163
792.25	48.936
792.56	55.056
792.87	38.356
793.17	30.435
793.48	33.333
793.79	37.500
794.09	47.500
794.40	31.132
794.70	28.155
795.01	34.959
795.32	29.060
795.62	37.143
795.93	34.314
796.23	33.962
796.54	30.208
796.85	50.000
797.15	30.986
797.46	38.889
797.76	50.000
798.07	39.535
798.37	40.789
798.68	45.455
798.99	48.148
799.29	52.857
799.60	23.188
799.90	46.667
800.21	60.656
800.51	41.538
800.82	42.373
801.12	31.884
801.43	52.459
801.73	53.968
802.04	38.000
802.34	31.343
802.65	57.692
802.95	37.500
803.26	42.308
803.56	43.137
803.87	4.348
804.17	48.000
804.48	61.905
804.78	37.037
805.09	39.130
805.39	20.000
805.70	40.741
806.00	29.825
806.30	50.704
806.61	48.571
806.91	40.278
807.22	42.105
807.52	44.000
807.83	30.909
808.13	44.444
808.43	55.882
808.74	16.418
809.04	27.119
809.35	28.846
809.65	48.438
809.95	24.324
810.26	22.727
810.56	42.466
810.86	45.238
811.17	38.000
811.47	34.694
811.77	7.895
812.08	38.636
812.38	20.755
812.69	35.000
812.99	42.424
813.29	34.211
813.59	17.143
813.90	50.000
814.20	38.462
814.50	32.692
814.81	50.943
815.11	4.255
815.41	49.153
815.72	61.905
816.02	39.216
816.32	54.167
816.62	43.902
816.93	29.730
817.23	45.714
817.53	31.250
817.84	30.435
818.14	40.385
818.44	10.526
818.74	52.174
819.04	37.500
819.35	35.135
819.65	44.118
819.95	58.333
820.25	30.952
820.56	65.000
820.86	10.345
821.16	67.500
821.46	48.936
821.76	50.000
822.07	48.837
822.37	13.514
822.67	0.000
822.97	50.000
823.27	7.143
823.57	0.000
823.88	0.000
824.18	42.857
824.48	52.941
824.78	38.710
825.08	60.870
825.38	51.515
825.69	-8.333
825.99	23.684
826.29	52.778
826.59	100.000
826.89	33.333
827.19	47.826
827.49	40.000
827.79	68.571
828.09	82.143
828.39	84.848
828.70	72.973
829.00	46.429
829.30	33.333
829.60	40.000
829.90	31.250
830.20	36.842
830.50	55.556
830.80	56.522
831.10	50.000
831.40	63.636
831.70	80.645
832.00	28.571
832.30	-19.048
832.60	83.333
832.90	48.276
833.20	-20.000
833.50	57.576
833.80	33.333
834.10	53.846
834.40	43.750
834.70	22.222
835.00	94.737
835.30	73.077
835.60	93.333
835.90	32.258
836.20	9.091
836.50	78.571
836.80	-3.846
837.10	57.143
837.40	333.333
837.70	45.455
838.00	54.545
838.30	34.783
838.60	76.923
838.90	31.818
839.19	67.857
839.49	23.333
839.79	92.308
840.09	-25.000
840.39	60.714
840.69	25.000
840.99	73.077
841.29	21.053
841.59	0.000
841.88	9.091
842.18	80.000
842.48	81.250
842.78	33.333
843.08	55.556
843.38	-20.000
843.68	43.478
843.97	46.667
844.27	-6.667
844.57	50.000
844.87	66.667
845.17	47.619
845.47	106.667
845.76	38.095
846.06	58.824
846.36	40.000
846.66	42.857
846.96	66.667
847.25	-75.000
847.55	128.571
847.85	100.000
848.15	40.909
848.44	-300.000
848.74	65.000
849.04	59.259
849.34	145.455
849.63	116.667
849.93	-60.000
850.23	66.667
850.53	60.000
850.82	84.615
851.12	-11.111
851.42	93.333
851.71	23.077
852.01	14.286
852.31	50.000
852.61	0.000
852.90	55.000
853.20	42.105
853.50	83.333
853.79	43.478
854.09	58.333
854.39	57.895
854.68	20.833
854.98	61.290
855.28	69.231
855.57	70.000
855.87	100.000
856.17	59.259
856.46	100.000
856.76	66.667
857.05	166.667
857.35	64.000
857.65	100.000
857.94	38.462
858.24	44.828
858.53	61.111
858.83	33.333
859.13	54.545
859.42	17.391
859.72	475.000
860.01	-33.333
860.31	24.000
860.60	80.952
860.90	-233.333
861.20	20.000
861.49	50.000
861.79	20.000
862.08	35.000
862.38	120.000
862.67	-140.000
862.97	200.000
863.26	50.000
863.56	27.778
863.85	-300.000
864.15	27.778
864.44	70.000
864.74	64.286
865.03	25.000
865.33	20.000
865.62	183.333
865.92	150.000
866.21	0.000
866.51	68.750
866.80	9.091
867.10	450.000
867.39	166.667
867.69	0.000
867.98	84.615
868.27	-166.667
868.57	86.667
868.86	88.889
869.16	61.538
869.45	146.667
869.75	-200.000
870.04	0.000
870.33	-28.571
870.63	66.667
870.92	166.667
871.22	-160.000
871.51	1200.000
871.80	133.333
872.10	-66.667
>>>>>End Processed Spectral Data<<<<<
