SpectraSuite Data File
++++++++++++++++++++++++++++++++++++
Date: Fri May 15 17:05:39 PDT 2015
User: schluterlab
Dark Spectrum Present: Yes
Reference Spectrum Present: Yes
Number of Sampled Component Spectra: 1
Spectrometers: USB2E3373
Integration Time (usec): 3000 (USB2E3373)
Spectra Averaged: 3 (USB2E3373)
Boxcar Smoothing: 0 (USB2E3373)
Correct for Electrical Dark: No (USB2E3373)
Strobe/Lamp Enabled: No (USB2E3373)
Correct for Detector Non-linearity: No (USB2E3373)
Correct for Stray Light: No (USB2E3373)
Number of Pixels in Processed Spectrum: 2048
>>>>>Begin Processed Spectral Data<<<<<
178.53	0.000
178.91	0.000
179.29	137.500
179.67	0.000
180.04	57.143
180.42	-50.000
180.80	0.000
181.18	-366.667
181.56	-300.000
181.94	350.000
182.31	-1200.000
182.69	220.000
183.07	33.333
183.45	220.000
183.83	33.333
184.20	54.545
184.58	33.333
184.96	-75.000
185.34	-200.000
185.72	-150.000
186.09	30.769
186.47	700.000
186.85	83.333
187.23	-11.111
187.61	-1100.000
187.98	-100.000
188.36	144.444
188.74	-266.667
189.12	29.412
189.49	50.000
189.87	0.000
190.25	85.714
190.63	550.000
191.00	133.333
191.38	89.474
191.76	950.000
192.14	-300.000
192.51	700.000
192.89	100.000
193.27	114.286
193.65	16.667
194.02	9.091
194.40	30.000
194.78	-12.500
195.15	83.333
195.53	-50.000
195.91	100.000
196.29	50.000
196.66	92.308
197.04	-0.000
197.42	144.444
197.79	-333.333
198.17	-38.462
198.55	300.000
198.92	-66.667
199.30	900.000
199.68	200.000
200.05	0.000
200.43	0.000
200.81	266.667
201.18	433.333
201.56	-1100.000
201.94	300.000
202.31	-366.667
202.69	-140.000
203.07	25.000
203.44	1000.000
203.82	0.000
204.19	128.571
204.57	166.667
204.95	-50.000
205.32	120.000
205.70	142.857
206.08	200.000
206.45	244.444
206.83	171.429
207.20	214.286
207.58	300.000
207.96	333.333
208.33	-20.000
208.71	125.000
209.08	-50.000
209.46	-400.000
209.84	160.000
210.21	1400.000
210.59	57.143
210.96	66.667
211.34	250.000
211.71	66.667
212.09	28.571
212.46	-400.000
212.84	0.000
213.22	120.000
213.59	-150.000
213.97	92.308
214.34	63.636
214.72	16.667
215.09	225.000
215.47	100.000
215.84	63.636
216.22	166.667
216.59	50.000
216.97	500.000
217.34	175.000
217.72	-60.000
218.09	200.000
218.47	-150.000
218.84	600.000
219.22	55.556
219.59	40.000
219.97	-66.667
220.34	-0.000
220.72	71.429
221.09	125.000
221.47	-100.000
221.84	-50.000
222.22	100.000
222.59	136.364
222.97	150.000
223.34	33.333
223.72	35.714
224.09	57.143
224.46	53.571
224.84	133.333
225.21	190.000
225.59	73.333
225.96	600.000
226.34	-100.000
226.71	-200.000
227.08	216.667
227.46	100.000
227.83	300.000
228.21	166.667
228.58	100.000
228.95	-112.500
229.33	40.000
229.70	43.750
230.08	75.000
230.45	42.857
230.82	142.857
231.20	13.333
231.57	57.143
231.95	428.571
232.32	60.000
232.69	100.000
233.07	166.667
233.44	120.000
233.81	80.000
234.19	188.889
234.56	76.471
234.93	150.000
235.31	625.000
235.68	20.000
236.05	-15.385
236.43	5.000
236.80	-5.882
237.17	28.125
237.55	60.000
237.92	22.222
238.29	30.556
238.67	43.333
239.04	47.059
239.41	4.878
239.79	20.000
240.16	53.659
240.53	42.105
240.91	10.870
241.28	19.048
241.65	35.714
242.02	36.986
242.40	46.667
242.77	35.593
243.14	15.152
243.51	26.250
243.89	45.977
244.26	28.736
244.63	25.000
245.00	29.897
245.38	38.144
245.75	22.472
246.12	26.724
246.49	26.446
246.87	39.423
247.24	15.966
247.61	25.439
247.98	26.829
248.36	29.375
248.73	25.000
249.10	26.623
249.47	21.519
249.84	18.954
250.22	28.235
250.59	22.222
250.96	23.474
251.33	23.837
251.70	28.824
252.08	24.873
252.45	24.257
252.82	25.126
253.19	25.806
253.56	18.692
253.94	24.775
254.31	28.261
254.68	25.877
255.05	25.984
255.42	24.891
255.79	23.552
256.16	24.903
256.54	29.104
256.91	25.856
257.28	22.677
257.65	24.345
258.02	22.695
258.39	22.222
258.76	26.740
259.14	23.588
259.51	21.683
259.88	24.055
260.25	22.222
260.62	29.167
260.99	24.068
261.36	20.890
261.73	20.570
262.10	25.532
262.47	23.006
262.85	24.765
263.22	22.769
263.59	24.299
263.96	24.224
264.33	23.939
264.70	22.917
265.07	25.000
265.44	25.779
265.81	25.706
266.18	24.863
266.55	23.393
266.92	24.093
267.29	22.715
267.66	24.552
268.03	25.131
268.40	22.977
268.77	25.134
269.14	21.343
269.51	23.907
269.88	22.195
270.25	22.704
270.62	21.220
270.99	21.483
271.36	22.983
271.73	27.700
272.10	24.331
272.47	22.222
272.84	24.752
273.21	25.522
273.58	22.410
273.95	23.570
274.32	20.785
274.69	22.624
275.06	25.446
275.43	25.170
275.80	24.283
276.17	23.678
276.54	22.912
276.91	22.149
277.28	22.271
277.65	22.107
278.02	21.915
278.39	19.694
278.76	21.174
279.13	22.199
279.50	21.218
279.87	20.734
280.23	21.505
280.60	22.417
280.97	21.616
281.34	21.154
281.71	23.819
282.08	21.881
282.45	22.505
282.82	22.973
283.19	19.923
283.56	21.773
283.92	19.734
284.29	21.154
284.66	20.930
285.03	21.022
285.40	19.660
285.77	20.562
286.14	20.217
286.51	22.694
286.87	19.927
287.24	21.179
287.61	21.164
287.98	21.404
288.35	19.584
288.72	22.067
289.08	19.444
289.45	20.738
289.82	19.930
290.19	20.819
290.56	17.839
290.93	19.024
291.29	18.798
291.66	21.260
292.03	18.820
292.40	19.677
292.77	17.065
293.13	17.857
293.50	16.692
293.87	19.237
294.24	18.393
294.60	17.884
294.97	18.452
295.34	17.485
295.71	17.288
296.08	17.339
296.44	14.083
296.81	16.667
297.18	16.957
297.55	16.667
297.91	16.438
298.28	16.227
298.65	15.875
299.02	16.981
299.38	14.774
299.75	16.828
300.12	14.005
300.48	15.679
300.85	16.223
301.22	15.455
301.59	16.053
301.95	17.089
302.32	16.213
302.69	14.552
303.05	14.480
303.42	15.193
303.79	14.836
304.15	16.965
304.52	13.674
304.89	12.749
305.25	14.770
305.62	12.952
305.99	14.269
306.35	14.566
306.72	14.848
307.09	15.165
307.45	15.614
307.82	14.236
308.19	14.866
308.55	14.940
308.92	16.013
309.29	15.642
309.65	13.886
310.02	15.402
310.38	15.258
310.75	14.645
311.12	15.178
311.48	15.164
311.85	15.707
312.22	13.608
312.58	14.544
312.95	13.234
313.31	14.907
313.68	13.822
314.05	14.694
314.41	14.536
314.78	14.948
315.14	17.575
315.51	16.667
315.87	14.652
316.24	17.088
316.61	16.043
316.97	16.468
317.34	15.918
317.70	16.252
318.07	16.827
318.43	17.059
318.80	17.614
319.16	18.066
319.53	18.993
319.89	18.209
320.26	18.826
320.62	19.157
320.99	18.372
321.35	19.013
321.72	20.249
322.08	20.947
322.45	21.726
322.81	22.397
323.18	21.394
323.54	22.490
323.91	23.564
324.27	24.121
324.64	23.689
325.00	23.996
325.37	27.089
325.73	24.932
326.10	26.521
326.46	25.919
326.83	27.384
327.19	27.114
327.56	28.149
327.92	29.225
328.29	27.857
328.65	30.472
329.01	30.055
329.38	32.442
329.74	31.539
330.11	31.881
330.47	30.612
330.84	30.962
331.20	34.601
331.56	31.667
331.93	33.425
332.29	33.822
332.66	34.208
333.02	34.015
333.38	33.364
333.75	34.707
334.11	33.214
334.48	35.811
334.84	35.714
335.20	34.858
335.57	33.364
335.93	36.676
336.29	37.293
336.66	35.786
337.02	37.082
337.38	34.630
337.75	36.182
338.11	36.339
338.47	36.861
338.84	36.414
339.20	36.197
339.56	35.963
339.93	36.437
340.29	36.330
340.65	36.380
341.02	36.968
341.38	35.575
341.74	35.424
342.11	35.615
342.47	36.121
342.83	37.370
343.20	34.582
343.56	35.739
343.92	36.847
344.28	36.806
344.65	37.997
345.01	37.165
345.37	35.913
345.73	36.485
346.10	35.807
346.46	36.249
346.82	35.516
347.19	34.663
347.55	37.260
347.91	36.003
348.27	36.621
348.63	37.308
349.00	36.341
349.36	37.323
349.72	36.070
350.08	37.049
350.45	35.355
350.81	36.296
351.17	35.993
351.53	36.898
351.89	35.590
352.26	35.600
352.62	36.613
352.98	34.940
353.34	35.749
353.70	35.922
354.07	35.323
354.43	35.148
354.79	36.581
355.15	36.905
355.51	36.234
355.87	36.812
356.24	34.910
356.60	35.489
356.96	36.032
357.32	35.623
357.68	36.044
358.04	35.784
358.40	36.093
358.77	37.879
359.13	35.869
359.49	34.669
359.85	35.647
360.21	36.204
360.57	35.807
360.93	36.989
361.29	35.347
361.66	35.031
362.02	36.288
362.38	36.101
362.74	35.125
363.10	36.193
363.46	35.508
363.82	37.941
364.18	35.351
364.54	35.294
364.90	36.201
365.26	35.881
365.62	36.569
365.98	35.850
366.35	36.635
366.71	36.881
367.07	36.720
367.43	35.442
367.79	36.325
368.15	35.750
368.51	37.145
368.87	35.319
369.23	34.946
369.59	36.297
369.95	36.657
370.31	37.500
370.67	36.493
371.03	36.296
371.39	35.667
371.75	36.557
372.11	36.733
372.47	36.095
372.83	37.119
373.19	35.949
373.55	35.668
373.91	35.133
374.27	36.003
374.63	35.966
374.99	36.099
375.35	36.421
375.71	36.993
376.07	36.025
376.42	36.871
376.78	36.443
377.14	36.899
377.50	36.454
377.86	37.216
378.22	36.503
378.58	36.859
378.94	35.980
379.30	36.494
379.66	36.677
380.02	35.929
380.38	35.606
380.74	36.505
381.09	36.748
381.45	35.596
381.81	36.706
382.17	36.104
382.53	36.227
382.89	37.225
383.25	37.461
383.61	38.049
383.97	36.127
384.32	36.523
384.68	36.223
385.04	36.091
385.40	36.030
385.76	37.421
386.12	36.611
386.48	37.995
386.83	36.779
387.19	36.203
387.55	37.139
387.91	36.369
388.27	36.386
388.62	36.627
388.98	35.727
389.34	35.665
389.70	35.799
390.06	35.305
390.42	36.593
390.77	35.056
391.13	36.507
391.49	35.899
391.85	36.517
392.20	36.472
392.56	35.219
392.92	36.054
393.28	35.908
393.64	35.976
393.99	36.677
394.35	36.116
394.71	35.504
395.07	35.575
395.42	34.851
395.78	35.961
396.14	34.931
396.50	36.779
396.85	35.737
397.21	34.774
397.57	35.298
397.92	35.231
398.28	35.862
398.64	33.735
399.00	35.158
399.35	33.409
399.71	34.750
400.07	35.127
400.42	33.721
400.78	36.191
401.14	34.241
401.49	34.366
401.85	34.126
402.21	34.880
402.57	34.812
402.92	33.563
403.28	34.900
403.63	34.741
403.99	34.885
404.35	33.916
404.70	33.869
405.06	32.961
405.42	34.058
405.77	33.469
406.13	33.760
406.49	34.103
406.84	33.985
407.20	33.113
407.55	34.063
407.91	34.425
408.27	33.142
408.62	34.154
408.98	33.641
409.34	34.511
409.69	34.173
410.05	33.621
410.40	33.519
410.76	33.715
411.11	35.062
411.47	32.807
411.83	32.894
412.18	34.170
412.54	33.583
412.89	32.759
413.25	33.153
413.60	33.106
413.96	33.252
414.31	33.415
414.67	33.098
415.03	33.489
415.38	34.269
415.74	33.616
416.09	34.095
416.45	34.909
416.80	32.452
417.16	33.564
417.51	34.044
417.87	34.550
418.22	34.909
418.58	33.645
418.93	34.483
419.29	33.611
419.64	34.349
420.00	35.013
420.35	34.328
420.71	35.176
421.06	34.500
421.42	34.435
421.77	34.624
422.12	34.336
422.48	34.543
422.83	34.687
423.19	34.932
423.54	34.509
423.90	35.807
424.25	35.075
424.61	36.169
424.96	35.192
425.31	37.031
425.67	35.446
426.02	37.044
426.38	36.631
426.73	37.167
427.09	37.089
427.44	35.706
427.79	36.771
428.15	36.104
428.50	36.826
428.85	36.486
429.21	36.503
429.56	37.682
429.92	37.648
430.27	36.992
430.62	36.121
430.98	36.996
431.33	37.329
431.68	36.839
432.04	38.569
432.39	37.536
432.74	37.643
433.10	38.276
433.45	37.515
433.80	37.899
434.16	38.283
434.51	38.548
434.86	39.199
435.22	39.372
435.57	39.488
435.92	40.240
436.28	38.521
436.63	38.448
436.98	37.486
437.34	39.322
437.69	40.489
438.04	39.658
438.39	40.501
438.75	40.134
439.10	40.011
439.45	41.205
439.81	40.979
440.16	40.558
440.51	41.731
440.86	41.994
441.22	40.611
441.57	41.391
441.92	42.078
442.27	41.131
442.63	40.792
442.98	41.987
443.33	40.790
443.68	40.690
444.03	41.530
444.39	42.154
444.74	42.977
445.09	41.648
445.44	41.652
445.79	42.290
446.15	41.685
446.50	41.542
446.85	42.561
447.20	41.814
447.55	43.025
447.91	42.245
448.26	43.028
448.61	42.775
448.96	44.062
449.31	42.659
449.66	42.973
450.02	44.381
450.37	44.221
450.72	43.127
451.07	44.304
451.42	42.634
451.77	43.580
452.12	42.883
452.47	43.786
452.83	44.111
453.18	43.201
453.53	44.501
453.88	44.809
454.23	44.499
454.58	44.207
454.93	45.232
455.28	43.302
455.63	45.071
455.98	44.799
456.34	44.572
456.69	44.473
457.04	45.747
457.39	44.350
457.74	45.042
458.09	44.673
458.44	44.822
458.79	43.754
459.14	44.394
459.49	44.955
459.84	45.460
460.19	45.024
460.54	44.621
460.89	45.852
461.24	45.031
461.59	45.843
461.94	45.094
462.29	46.683
462.64	46.246
462.99	45.633
463.34	46.314
463.69	45.560
464.04	46.065
464.39	45.967
464.74	46.626
465.09	46.101
465.44	45.528
465.79	45.351
466.14	46.465
466.49	46.118
466.84	47.055
467.19	45.745
467.54	46.424
467.89	45.925
468.24	46.168
468.59	47.365
468.94	45.968
469.29	48.197
469.64	47.915
469.99	48.213
470.34	47.304
470.68	48.248
471.03	48.054
471.38	46.790
471.73	49.020
472.08	47.422
472.43	47.919
472.78	46.539
473.13	47.891
473.48	47.622
473.83	47.136
474.17	48.122
474.52	48.245
474.87	48.364
475.22	48.688
475.57	47.713
475.92	47.778
476.27	48.719
476.61	48.669
476.96	46.905
477.31	48.729
477.66	48.483
478.01	47.614
478.36	48.747
478.70	49.266
479.05	48.352
479.40	48.278
479.75	47.862
480.10	46.953
480.45	47.750
480.79	49.043
481.14	49.078
481.49	47.931
481.84	48.021
482.19	48.082
482.53	49.544
482.88	48.115
483.23	47.889
483.58	47.264
483.92	47.773
484.27	48.040
484.62	47.826
484.97	47.347
485.31	47.146
485.66	47.071
486.01	46.238
486.36	45.502
486.70	45.081
487.05	46.125
487.40	46.122
487.75	46.282
488.09	45.766
488.44	47.249
488.79	47.329
489.13	47.957
489.48	48.311
489.83	48.700
490.17	48.360
490.52	47.945
490.87	48.589
491.22	49.427
491.56	49.194
491.91	47.228
492.26	48.469
492.60	48.800
492.95	50.271
493.30	49.194
493.64	50.147
493.99	49.952
494.34	48.592
494.68	49.143
495.03	49.732
495.37	49.607
495.72	50.076
496.07	50.244
496.41	49.292
496.76	50.069
497.11	48.766
497.45	49.547
497.80	49.798
498.14	48.535
498.49	49.873
498.84	49.701
499.18	50.000
499.53	50.000
499.87	49.611
500.22	50.148
500.56	51.084
500.91	50.452
501.26	49.283
501.60	49.680
501.95	49.393
502.29	49.782
502.64	50.627
502.98	50.419
503.33	50.000
503.67	49.831
504.02	51.417
504.36	50.767
504.71	49.697
505.06	50.780
505.40	50.660
505.75	51.959
506.09	49.924
506.44	52.156
506.78	52.245
507.13	51.086
507.47	50.026
507.82	51.709
508.16	51.241
508.51	51.836
508.85	51.596
509.19	51.517
509.54	51.850
509.88	52.265
510.23	51.479
510.57	51.630
510.92	50.746
511.26	50.573
511.61	52.255
511.95	52.329
512.30	51.885
512.64	51.252
512.98	51.319
513.33	52.770
513.67	51.507
514.02	52.517
514.36	52.400
514.70	54.662
515.05	52.879
515.39	51.771
515.74	54.671
516.08	53.317
516.42	53.239
516.77	53.423
517.11	52.997
517.46	53.800
517.80	53.456
518.14	52.909
518.49	53.365
518.83	53.341
519.17	52.517
519.52	53.108
519.86	52.521
520.20	52.977
520.55	52.720
520.89	53.450
521.23	52.375
521.58	53.060
521.92	54.744
522.26	52.895
522.61	54.481
522.95	55.033
523.29	52.351
523.64	55.019
523.98	54.763
524.32	52.899
524.66	53.969
525.01	55.195
525.35	55.412
525.69	54.276
526.04	53.638
526.38	55.837
526.72	53.695
527.06	54.021
527.41	52.902
527.75	52.882
528.09	53.422
528.43	55.841
528.78	55.116
529.12	53.935
529.46	53.541
529.80	53.515
530.15	54.323
530.49	55.017
530.83	54.788
531.17	53.257
531.51	54.993
531.86	52.753
532.20	52.818
532.54	53.846
532.88	53.114
533.22	53.495
533.57	54.194
533.91	54.112
534.25	54.427
534.59	52.149
534.93	51.857
535.27	51.650
535.62	52.301
535.96	53.425
536.30	52.770
536.64	53.756
536.98	54.355
537.32	54.196
537.66	54.909
538.01	54.755
538.35	53.190
538.69	52.330
539.03	52.563
539.37	53.163
539.71	54.192
540.05	52.138
540.39	53.324
540.73	53.696
541.07	53.867
541.42	52.890
541.76	54.095
542.10	53.544
542.44	53.648
542.78	53.476
543.12	52.129
543.46	53.408
543.80	54.407
544.14	51.202
544.48	52.831
544.82	53.110
545.16	53.620
545.50	52.603
545.84	54.887
546.18	54.468
546.52	53.280
546.86	51.330
547.20	52.790
547.54	52.014
547.88	53.261
548.22	52.400
548.56	51.451
548.90	52.089
549.24	51.584
549.58	53.103
549.92	52.538
550.26	52.601
550.60	54.424
550.94	53.622
551.28	54.328
551.62	55.385
551.96	54.361
552.30	53.436
552.64	51.693
552.98	52.321
553.32	53.210
553.66	52.975
554.00	53.650
554.34	53.323
554.68	52.212
555.02	54.539
555.36	53.852
555.69	53.114
556.03	52.463
556.37	51.530
556.71	53.069
557.05	54.661
557.39	51.822
557.73	53.823
558.07	53.469
558.41	52.450
558.75	53.780
559.08	53.822
559.42	54.762
559.76	54.764
560.10	53.976
560.44	53.760
560.78	52.937
561.12	53.597
561.45	54.181
561.79	52.241
562.13	52.449
562.47	53.237
562.81	53.314
563.15	52.186
563.48	53.678
563.82	52.231
564.16	53.900
564.50	52.365
564.84	52.544
565.17	52.180
565.51	54.372
565.85	52.675
566.19	52.918
566.52	53.284
566.86	52.763
567.20	51.868
567.54	51.946
567.88	52.548
568.21	50.735
568.55	50.380
568.89	50.770
569.23	49.157
569.56	48.074
569.90	49.939
570.24	46.409
570.57	47.855
570.91	48.205
571.25	46.827
571.59	46.964
571.92	45.215
572.26	46.377
572.60	46.202
572.93	45.497
573.27	46.426
573.61	45.615
573.95	45.849
574.28	44.942
574.62	44.928
574.96	44.802
575.29	44.927
575.63	44.493
575.97	44.700
576.30	45.066
576.64	44.450
576.98	44.994
577.31	45.245
577.65	44.335
577.98	44.379
578.32	44.150
578.66	43.778
578.99	44.221
579.33	44.417
579.67	43.982
580.00	44.380
580.34	44.502
580.67	43.744
581.01	44.212
581.35	44.251
581.68	44.243
582.02	43.788
582.35	43.825
582.69	44.118
583.02	44.285
583.36	44.358
583.70	45.405
584.03	44.954
584.37	45.539
584.70	44.808
585.04	44.456
585.37	44.324
585.71	44.310
586.04	44.528
586.38	44.439
586.72	45.251
587.05	45.725
587.39	44.814
587.72	45.298
588.06	45.170
588.39	44.688
588.73	44.750
589.06	45.956
589.40	45.697
589.73	46.404
590.07	45.884
590.40	46.362
590.73	47.241
591.07	46.692
591.40	46.661
591.74	47.195
592.07	47.356
592.41	47.659
592.74	46.476
593.08	45.686
593.41	46.063
593.75	45.175
594.08	45.383
594.41	45.560
594.75	45.344
595.08	46.538
595.42	45.234
595.75	46.639
596.09	46.247
596.42	46.176
596.75	47.691
597.09	45.831
597.42	46.612
597.75	47.000
598.09	45.858
598.42	46.751
598.76	46.547
599.09	45.112
599.42	45.017
599.76	44.658
600.09	44.872
600.42	45.299
600.76	44.725
601.09	44.771
601.42	44.928
601.76	45.812
602.09	45.792
602.42	45.914
602.76	46.350
603.09	46.304
603.42	47.617
603.76	45.605
604.09	45.849
604.42	45.854
604.76	46.640
605.09	47.761
605.42	45.869
605.75	46.278
606.09	45.817
606.42	45.496
606.75	46.364
607.09	45.275
607.42	46.079
607.75	45.826
608.08	45.373
608.42	45.043
608.75	47.084
609.08	46.487
609.41	46.701
609.75	45.968
610.08	46.630
610.41	45.990
610.74	45.636
611.07	47.132
611.41	46.290
611.74	47.601
612.07	45.610
612.40	48.359
612.73	47.345
613.07	46.119
613.40	45.952
613.73	46.223
614.06	45.743
614.39	47.998
614.72	46.162
615.06	46.760
615.39	45.579
615.72	45.856
616.05	47.039
616.38	46.040
616.71	48.135
617.05	47.869
617.38	47.643
617.71	46.792
618.04	48.317
618.37	49.433
618.70	48.317
619.03	49.097
619.36	47.902
619.69	49.356
620.03	51.644
620.36	47.926
620.69	48.751
621.02	48.318
621.35	49.710
621.68	50.850
622.01	49.750
622.34	49.721
622.67	49.290
623.00	48.239
623.33	48.476
623.66	49.439
623.99	48.185
624.32	49.202
624.65	48.195
624.99	49.812
625.32	49.280
625.65	49.961
625.98	50.121
626.31	49.377
626.64	52.166
626.97	51.745
627.30	50.613
627.63	48.614
627.96	50.764
628.29	50.786
628.62	52.016
628.95	52.605
629.28	52.520
629.61	51.645
629.94	51.711
630.26	50.593
630.59	53.278
630.92	53.026
631.25	51.077
631.58	51.762
631.91	53.399
632.24	53.096
632.57	51.477
632.90	52.313
633.23	54.471
633.56	56.549
633.89	53.637
634.22	54.815
634.55	53.494
634.88	54.023
635.20	55.385
635.53	56.533
635.86	55.397
636.19	54.075
636.52	55.230
636.85	50.372
637.18	52.830
637.51	52.579
637.83	53.088
638.16	55.116
638.49	55.450
638.82	53.026
639.15	54.274
639.48	54.333
639.81	57.322
640.13	55.123
640.46	56.706
640.79	54.639
641.12	56.869
641.45	56.607
641.77	54.519
642.10	56.714
642.43	54.984
642.76	57.591
643.09	56.381
643.41	54.531
643.74	57.496
644.07	55.829
644.40	57.095
644.73	59.545
645.05	56.879
645.38	57.672
645.71	58.865
646.04	60.503
646.36	57.979
646.69	58.813
647.02	58.412
647.35	58.209
647.67	58.135
648.00	61.567
648.33	57.679
648.66	56.780
648.98	52.596
649.31	56.198
649.64	55.416
649.96	53.485
650.29	56.729
650.62	56.581
650.94	56.296
651.27	56.425
651.60	57.477
651.92	54.196
652.25	54.352
652.58	55.833
652.90	56.089
653.23	54.118
653.56	54.822
653.88	54.124
654.21	54.466
654.54	53.311
654.86	55.348
655.19	50.439
655.52	44.737
655.84	36.921
656.17	41.514
656.49	56.438
656.82	59.361
657.15	44.901
657.47	33.225
657.80	25.000
658.13	24.937
658.45	38.234
658.78	37.715
659.10	38.468
659.43	39.928
659.75	41.885
660.08	42.621
660.41	47.702
660.73	49.862
661.06	52.340
661.38	54.207
661.71	53.183
662.03	59.871
662.36	57.363
662.68	58.407
663.01	56.550
663.33	59.397
663.66	57.209
663.98	59.302
664.31	54.371
664.63	56.682
664.96	56.087
665.28	54.746
665.61	58.442
665.93	55.870
666.26	59.870
666.58	55.034
666.91	56.706
667.23	58.255
667.56	56.161
667.88	59.952
668.21	57.279
668.53	56.974
668.86	57.783
669.18	55.896
669.50	58.838
669.83	56.047
670.15	55.944
670.48	54.545
670.80	55.069
671.13	53.915
671.45	50.228
671.77	57.082
672.10	51.683
672.42	50.562
672.75	52.043
673.07	52.952
673.39	53.211
673.72	49.704
674.04	52.917
674.37	51.907
674.69	52.677
675.01	52.889
675.34	53.153
675.66	55.787
675.98	55.654
676.31	54.817
676.63	54.157
676.95	54.091
677.28	55.294
677.60	55.181
677.92	54.128
678.25	54.048
678.57	54.545
678.89	53.782
679.22	55.034
679.54	53.213
679.86	50.895
680.18	48.932
680.51	50.000
680.83	49.702
681.15	50.400
681.48	50.410
681.80	55.372
682.12	51.613
682.44	51.883
682.77	50.993
683.09	53.089
683.41	51.818
683.73	52.304
684.06	51.327
684.38	49.032
684.70	51.634
685.02	50.415
685.34	47.431
685.67	48.405
685.99	47.378
686.31	46.903
686.63	47.681
686.96	46.768
687.28	45.859
687.60	47.909
687.92	53.333
688.24	50.403
688.56	53.057
688.89	53.571
689.21	53.556
689.53	51.044
689.85	50.465
690.17	51.339
690.49	52.719
690.82	49.272
691.14	52.143
691.46	50.935
691.78	50.901
692.10	48.387
692.42	48.918
692.74	51.282
693.06	49.324
693.39	48.190
693.71	49.321
694.03	49.192
694.35	50.234
694.67	48.485
694.99	53.264
695.31	51.175
695.63	48.250
695.95	49.495
696.27	48.705
696.59	52.500
696.91	50.700
697.23	52.956
697.56	49.257
697.88	48.387
698.20	52.620
698.52	49.647
698.84	46.651
699.16	49.250
699.48	50.125
699.80	45.906
700.12	50.943
700.44	51.821
700.76	50.872
701.08	45.152
701.40	52.711
701.72	54.630
702.04	56.766
702.36	56.187
702.68	52.853
703.00	55.455
703.32	54.252
703.64	46.610
703.96	49.855
704.28	49.387
704.60	52.063
704.91	48.265
705.23	50.498
705.55	62.898
705.87	56.318
706.19	60.741
706.51	51.890
706.83	49.839
707.15	49.221
707.47	51.261
707.79	48.177
708.11	46.250
708.43	47.500
708.74	48.062
709.06	53.239
709.38	51.682
709.70	50.592
710.02	53.185
710.34	49.226
710.66	44.231
710.98	50.331
711.29	52.131
711.61	53.559
711.93	51.792
712.25	56.357
712.57	51.648
712.89	50.000
713.20	51.903
713.52	45.645
713.84	49.147
714.16	49.485
714.48	50.323
714.80	47.436
715.11	47.112
715.43	47.649
715.75	47.333
716.07	45.183
716.39	49.664
716.70	51.661
717.02	45.802
717.34	51.012
717.66	50.885
717.97	49.130
718.29	53.138
718.61	50.787
718.93	49.612
719.24	53.992
719.56	53.815
719.88	52.234
720.20	46.591
720.51	48.659
720.83	49.421
721.15	50.000
721.46	54.032
721.78	45.059
722.10	50.186
722.42	44.398
722.73	48.571
723.05	48.980
723.37	52.542
723.68	52.703
724.00	50.000
724.32	51.556
724.63	49.545
724.95	52.402
725.27	51.613
725.58	44.068
725.90	47.619
726.22	46.332
726.53	48.136
726.85	48.315
727.16	56.604
727.48	48.583
727.80	51.012
728.11	48.729
728.43	48.627
728.74	43.548
729.06	48.800
729.38	50.376
729.69	48.606
730.01	43.462
730.32	47.761
730.64	50.177
730.96	51.321
731.27	43.667
731.59	45.085
731.90	44.268
732.22	48.580
732.53	45.183
732.85	50.709
733.16	46.465
733.48	44.604
733.80	42.754
734.11	40.339
734.43	45.361
734.74	46.970
735.06	40.717
735.37	41.088
735.69	47.811
736.00	44.251
736.32	41.611
736.63	45.423
736.95	44.710
737.26	45.552
737.58	38.591
737.89	44.322
738.21	43.233
738.52	51.029
738.83	48.908
739.15	47.598
739.46	49.606
739.78	43.956
740.09	39.216
740.41	42.391
740.72	40.551
741.04	51.012
741.35	42.128
741.66	50.237
741.98	50.510
742.29	50.495
742.61	47.644
742.92	42.180
743.23	37.963
743.55	43.891
743.86	49.282
744.18	49.761
744.49	52.128
744.80	45.109
745.12	57.219
745.43	46.341
745.74	52.083
746.06	42.439
746.37	44.503
746.68	49.763
747.00	45.745
747.31	54.726
747.62	43.689
747.94	52.153
748.25	47.030
748.56	55.738
748.88	51.309
749.19	57.447
749.50	46.798
749.82	37.736
750.13	49.083
750.44	45.489
750.75	45.522
751.07	44.526
751.38	44.061
751.69	36.471
752.01	45.736
752.32	41.434
752.63	43.874
752.94	41.810
753.26	45.607
753.57	47.059
753.88	41.150
754.19	45.417
754.51	41.736
754.82	42.915
755.13	48.750
755.44	44.758
755.75	46.094
756.07	42.802
756.38	43.019
756.69	41.379
757.00	42.000
757.31	39.216
757.63	37.500
757.94	36.944
758.25	36.438
758.56	38.830
758.87	35.694
759.18	37.383
759.50	41.818
759.81	41.472
760.12	40.323
760.43	37.576
760.74	38.889
761.05	37.231
761.36	38.920
761.67	40.303
761.99	41.156
762.30	38.182
762.61	38.735
762.92	43.439
763.23	47.297
763.54	37.850
763.85	41.949
764.16	39.004
764.47	38.710
764.78	34.432
765.10	41.077
765.41	40.063
765.72	38.730
766.03	35.714
766.34	39.051
766.65	43.028
766.96	47.980
767.27	41.489
767.58	41.954
767.89	39.716
768.20	44.886
768.51	39.011
768.82	38.916
769.13	36.406
769.44	35.193
769.75	37.443
770.06	41.810
770.37	37.019
770.68	39.594
770.99	42.534
771.30	47.549
771.61	43.439
771.92	44.397
772.23	38.424
772.54	44.086
772.85	45.062
773.16	46.067
773.47	47.712
773.78	47.712
774.09	33.533
774.39	46.000
774.70	45.860
775.01	55.862
775.32	42.857
775.63	53.719
775.94	46.565
776.25	48.031
776.56	45.000
776.87	50.000
777.18	36.752
777.48	52.586
777.79	52.174
778.10	45.714
778.41	43.243
778.72	48.413
779.03	47.368
779.34	50.355
779.65	47.945
779.95	34.932
780.26	37.241
780.57	42.276
780.88	43.307
781.19	44.828
781.50	51.938
781.80	37.870
782.11	37.736
782.42	46.923
782.73	43.885
783.04	48.148
783.34	36.111
783.65	29.915
783.96	44.262
784.27	44.138
784.57	47.154
784.88	43.750
785.19	42.000
785.50	54.000
785.81	51.724
786.11	49.138
786.42	47.573
786.73	55.455
787.04	43.878
787.34	38.393
787.65	49.524
787.96	44.248
788.26	43.636
788.57	44.444
788.88	48.437
789.19	46.825
789.49	27.826
789.80	52.041
790.11	35.354
790.41	39.091
790.72	48.913
791.03	47.727
791.33	55.000
791.64	46.250
791.95	51.163
792.25	44.681
792.56	66.292
792.87	31.507
793.17	49.275
793.48	44.000
793.79	51.250
794.09	42.500
794.40	37.736
794.70	38.835
795.01	32.520
795.32	33.333
795.62	40.000
795.93	44.118
796.23	42.453
796.54	32.292
796.85	42.647
797.15	39.437
797.46	44.444
797.76	54.545
798.07	41.860
798.37	48.684
798.68	53.030
798.99	37.037
799.29	58.571
799.60	44.928
799.90	50.667
800.21	60.656
800.51	50.769
800.82	52.542
801.12	43.478
801.43	65.574
801.73	42.857
802.04	80.000
802.34	34.328
802.65	42.308
802.95	35.714
803.26	36.538
803.56	56.863
803.87	45.652
804.17	34.667
804.48	61.905
804.78	51.852
805.09	54.348
805.39	46.667
805.70	46.296
806.00	40.351
806.30	42.254
806.61	51.429
806.91	41.667
807.22	44.737
807.52	38.667
807.83	25.455
808.13	34.722
808.43	47.059
808.74	35.821
809.04	35.593
809.35	46.154
809.65	51.562
809.95	5.405
810.26	31.818
810.56	49.315
810.86	38.095
811.17	42.000
811.47	51.020
811.77	21.053
812.08	63.636
812.38	35.849
812.69	37.500
812.99	30.303
813.29	76.316
813.59	14.286
813.90	50.000
814.20	43.590
814.50	48.077
814.81	56.604
815.11	25.532
815.41	62.712
815.72	52.381
816.02	37.255
816.32	62.500
816.62	53.659
816.93	45.946
817.23	40.000
817.53	64.583
817.84	41.304
818.14	42.308
818.44	23.684
818.74	47.826
819.04	22.500
819.35	59.459
819.65	52.941
819.95	41.667
820.25	45.238
820.56	60.000
820.86	24.138
821.16	75.000
821.46	48.936
821.76	57.500
822.07	60.465
822.37	27.027
822.67	75.000
822.97	59.524
823.27	42.857
823.57	92.000
823.88	29.630
824.18	50.000
824.48	52.941
824.78	74.194
825.08	86.957
825.38	27.273
825.69	95.833
825.99	26.316
826.29	22.222
826.59	100.000
826.89	28.571
827.19	43.478
827.49	47.500
827.79	80.000
828.09	46.429
828.39	78.788
828.70	86.486
829.00	25.000
829.30	61.905
829.60	60.000
829.90	56.250
830.20	55.263
830.50	44.444
830.80	43.478
831.10	72.727
831.40	57.576
831.70	74.194
832.00	109.524
832.30	66.667
832.60	41.667
832.90	62.069
833.20	20.000
833.50	21.212
833.80	55.556
834.10	61.538
834.40	59.375
834.70	88.889
835.00	63.158
835.30	107.692
835.60	86.667
835.90	35.484
836.20	104.545
836.50	60.714
836.80	23.077
837.10	28.571
837.40	500.000
837.70	54.545
838.00	72.727
838.30	21.739
838.60	92.308
838.90	54.545
839.19	10.714
839.49	66.667
839.79	84.615
840.09	16.667
840.39	85.714
840.69	25.000
840.99	42.308
841.29	63.158
841.59	0.000
841.88	9.091
842.18	200.000
842.48	18.750
842.78	80.000
843.08	88.889
843.38	30.000
843.68	52.174
843.97	120.000
844.27	26.667
844.57	55.000
844.87	122.222
845.17	71.429
845.47	86.667
845.76	47.619
846.06	23.529
846.36	70.000
846.66	164.286
846.96	-6.667
847.25	25.000
847.55	135.714
847.85	75.000
848.15	27.273
848.44	-100.000
848.74	115.000
849.04	77.778
849.34	118.182
849.63	-66.667
849.93	-60.000
850.23	61.111
850.53	150.000
850.82	76.923
851.12	88.889
851.42	93.333
851.71	34.615
852.01	128.571
852.31	375.000
852.61	-27.273
852.90	70.000
853.20	84.211
853.50	58.333
853.79	52.174
854.09	70.833
854.39	89.474
854.68	41.667
854.98	70.968
855.28	80.769
855.57	30.000
855.87	111.111
856.17	81.481
856.46	135.714
856.76	60.000
857.05	222.222
857.35	44.000
857.65	72.222
857.94	76.923
858.24	58.621
858.53	61.111
858.83	55.556
859.13	104.545
859.42	47.826
859.72	0.000
860.01	-100.000
860.31	68.000
860.60	28.571
860.90	100.000
861.20	53.333
861.49	-50.000
861.79	33.333
862.08	125.000
862.38	120.000
862.67	80.000
862.97	350.000
863.26	50.000
863.56	88.889
863.85	-33.333
864.15	66.667
864.44	90.000
864.74	35.714
865.03	175.000
865.33	0.000
865.62	83.333
865.92	8.333
866.21	16.667
866.51	100.000
866.80	45.455
867.10	-300.000
867.39	58.333
867.69	0.000
867.98	161.538
868.27	-166.667
868.57	60.000
868.86	105.556
869.16	30.769
869.45	73.333
869.75	-1000.000
870.04	0.000
870.33	0.000
870.63	47.619
870.92	-266.667
871.22	-180.000
871.51	600.000
871.80	111.111
872.10	-0.000
>>>>>End Processed Spectral Data<<<<<
