SpectraSuite Data File
++++++++++++++++++++++++++++++++++++
Date: Fri May 15 17:29:52 PDT 2015
User: schluterlab
Dark Spectrum Present: Yes
Reference Spectrum Present: Yes
Number of Sampled Component Spectra: 1
Spectrometers: USB2E3373
Integration Time (usec): 3000 (USB2E3373)
Spectra Averaged: 3 (USB2E3373)
Boxcar Smoothing: 0 (USB2E3373)
Correct for Electrical Dark: No (USB2E3373)
Strobe/Lamp Enabled: No (USB2E3373)
Correct for Detector Non-linearity: No (USB2E3373)
Correct for Stray Light: No (USB2E3373)
Number of Pixels in Processed Spectrum: 2048
>>>>>Begin Processed Spectral Data<<<<<
178.53	0.000
178.91	0.000
179.29	62.500
179.67	-100.000
180.04	-42.857
180.42	0.000
180.80	0.000
181.18	-33.333
181.56	300.000
181.94	150.000
182.31	-100.000
182.69	180.000
183.07	-366.667
183.45	-20.000
183.83	150.000
184.20	-36.364
184.58	100.000
184.96	-175.000
185.34	133.333
185.72	-700.000
186.09	46.154
186.47	-400.000
186.85	66.667
187.23	155.556
187.61	-300.000
187.98	-466.667
188.36	11.111
188.74	0.000
189.12	11.765
189.49	33.333
189.87	0.000
190.25	21.429
190.63	250.000
191.00	-33.333
191.38	26.316
191.76	0.000
192.14	25.000
192.51	250.000
192.89	-11.111
193.27	14.286
193.65	33.333
194.02	63.636
194.40	160.000
194.78	-100.000
195.15	25.000
195.53	-37.500
195.91	425.000
196.29	125.000
196.66	161.538
197.04	57.143
197.42	11.111
197.79	-266.667
198.17	-38.462
198.55	1000.000
198.92	33.333
199.30	-500.000
199.68	100.000
200.05	-133.333
200.43	0.000
200.81	-133.333
201.18	-166.667
201.56	100.000
201.94	-500.000
202.31	-400.000
202.69	-100.000
203.07	150.000
203.44	500.000
203.82	0.000
204.19	42.857
204.57	-433.333
204.95	50.000
205.32	-40.000
205.70	-14.286
206.08	-25.000
206.45	211.111
206.83	35.714
207.20	-114.286
207.58	300.000
207.96	-133.333
208.33	0.000
208.71	-75.000
209.08	-133.333
209.46	-500.000
209.84	-20.000
210.21	-400.000
210.59	-85.714
210.96	-33.333
211.34	-100.000
211.71	26.667
212.09	-114.286
212.46	-1300.000
212.84	0.000
213.22	120.000
213.59	100.000
213.97	107.692
214.34	72.727
214.72	66.667
215.09	250.000
215.47	23.077
215.84	-18.182
216.22	-333.333
216.59	-62.500
216.97	350.000
217.34	-125.000
217.72	-260.000
218.09	50.000
218.47	137.500
218.84	-800.000
219.22	-133.333
219.59	-100.000
219.97	200.000
220.34	150.000
220.72	-14.286
221.09	125.000
221.47	-150.000
221.84	-250.000
222.22	-800.000
222.59	54.545
222.97	83.333
223.34	33.333
223.72	14.286
224.09	57.143
224.46	25.000
224.84	300.000
225.21	10.000
225.59	-13.333
225.96	550.000
226.34	300.000
226.71	57.143
227.08	-33.333
227.46	-50.000
227.83	-450.000
228.21	22.222
228.58	90.909
228.95	-12.500
229.33	150.000
229.70	37.500
230.08	12.500
230.45	57.143
230.82	128.571
231.20	-13.333
231.57	57.143
231.95	-42.857
232.32	0.000
232.69	-7.143
233.07	166.667
233.44	120.000
233.81	-20.000
234.19	-22.222
234.56	-29.412
234.93	450.000
235.31	-150.000
235.68	-20.000
236.05	23.077
236.43	-25.000
236.80	17.647
237.17	53.125
237.55	15.000
237.92	18.519
238.29	11.111
238.67	33.333
239.04	41.176
239.41	7.317
239.79	23.333
240.16	36.585
240.53	18.421
240.91	26.087
241.28	49.206
241.65	33.929
242.02	34.247
242.40	43.333
242.77	32.203
243.14	15.152
243.51	21.250
243.89	33.333
244.26	19.540
244.63	26.190
245.00	23.711
245.38	24.742
245.75	30.337
246.12	20.690
246.49	27.273
246.87	38.462
247.24	26.891
247.61	21.053
247.98	22.764
248.36	33.125
248.73	31.579
249.10	22.727
249.47	32.278
249.84	30.719
250.22	33.529
250.59	25.490
250.96	29.108
251.33	29.070
251.70	31.765
252.08	28.426
252.45	23.267
252.82	33.166
253.19	32.719
253.56	33.178
253.94	27.928
254.31	26.957
254.68	36.842
255.05	26.378
255.42	27.074
255.79	29.730
256.16	27.237
256.54	30.970
256.91	30.038
257.28	33.086
257.65	29.588
258.02	28.014
258.39	34.680
258.76	29.670
259.14	28.239
259.51	31.392
259.88	31.615
260.25	30.065
260.62	35.417
260.99	30.169
261.36	29.452
261.73	29.114
262.10	30.699
262.47	29.448
262.85	30.408
263.22	28.000
263.59	27.414
263.96	29.814
264.33	29.697
264.70	31.250
265.07	26.488
265.44	30.595
265.81	29.379
266.18	29.235
266.55	31.362
266.92	30.311
267.29	28.982
267.66	26.854
268.03	30.628
268.40	28.721
268.77	32.353
269.14	28.777
269.51	29.049
269.88	27.431
270.25	28.571
270.62	27.561
270.99	27.366
271.36	28.117
271.73	29.343
272.10	26.764
272.47	27.896
272.84	28.465
273.21	27.146
273.58	28.916
273.95	25.172
274.32	28.406
274.69	26.018
275.06	29.241
275.43	29.025
275.80	27.373
276.17	26.207
276.54	26.124
276.91	28.509
277.28	26.201
277.65	25.207
278.02	24.681
278.39	25.383
278.76	24.319
279.13	23.651
279.50	27.521
279.87	26.134
280.23	26.022
280.60	26.316
280.97	27.273
281.34	25.000
281.71	26.489
282.08	23.313
282.45	25.049
282.82	24.517
283.19	25.725
283.56	25.434
283.92	23.150
284.29	26.154
284.66	24.612
285.03	26.916
285.40	25.142
285.77	22.847
286.14	24.368
286.51	26.753
286.87	25.046
287.24	25.230
287.61	23.986
287.98	26.667
288.35	22.877
288.72	24.168
289.08	23.785
289.45	23.023
289.82	22.378
290.19	23.038
290.56	21.612
290.93	24.074
291.29	21.572
291.66	23.307
292.03	21.531
292.40	19.194
292.77	21.212
293.13	18.506
293.50	18.665
293.87	21.679
294.24	21.020
294.60	20.566
294.97	20.982
295.34	20.092
295.71	19.821
296.08	18.685
296.44	17.781
296.81	19.028
297.18	18.696
297.55	19.241
297.91	19.589
298.28	18.997
298.65	18.453
299.02	16.981
299.38	16.279
299.75	17.103
300.12	15.838
300.48	18.445
300.85	17.871
301.22	18.052
301.59	16.053
301.95	17.089
302.32	19.326
302.69	16.045
303.05	16.089
303.42	17.933
303.79	16.472
304.15	17.085
304.52	15.577
304.89	14.854
305.25	16.344
305.62	17.036
305.99	15.439
306.35	16.994
306.72	16.310
307.09	15.165
307.45	16.533
307.82	14.352
308.19	16.492
308.55	15.812
308.92	15.577
309.29	15.978
309.65	15.178
310.02	15.292
310.38	14.270
310.75	16.940
311.12	15.178
311.48	14.740
311.85	15.393
312.22	15.295
312.58	15.605
312.95	13.981
313.31	14.596
313.68	14.346
314.05	15.714
314.41	15.361
314.78	14.948
315.14	15.416
315.51	16.253
315.87	14.857
316.24	17.290
316.61	16.339
316.97	14.782
317.34	14.063
317.70	15.774
318.07	15.000
318.43	15.392
318.80	15.720
319.16	16.602
319.53	17.474
319.89	17.224
320.26	16.296
320.62	17.854
320.99	15.971
321.35	17.163
321.72	17.134
322.08	18.228
322.45	17.157
322.81	18.271
323.18	18.155
323.54	19.498
323.91	18.500
324.27	19.922
324.64	20.693
325.00	22.080
325.37	21.671
325.73	21.668
326.10	23.797
326.46	24.036
326.83	23.797
327.19	25.283
327.56	24.414
327.92	25.968
328.29	25.804
328.65	26.792
329.01	27.574
329.38	28.111
329.74	27.856
330.11	28.823
330.47	29.035
330.84	30.769
331.20	31.369
331.56	30.093
331.93	30.411
332.29	32.172
332.66	31.312
333.02	32.621
333.38	32.722
333.75	33.883
334.11	32.587
334.48	33.454
334.84	33.883
335.20	33.943
335.57	33.998
335.93	34.598
336.29	34.438
336.66	34.787
337.02	32.807
337.38	35.741
337.75	35.182
338.11	36.159
338.47	35.401
338.84	36.044
339.20	36.289
339.56	36.789
339.93	36.437
340.29	36.697
340.65	37.903
341.02	36.525
341.38	36.372
341.74	36.837
342.11	34.835
342.47	38.078
342.83	36.592
343.20	35.366
343.56	36.174
343.92	37.290
344.28	37.319
344.65	36.356
345.01	37.684
345.37	35.913
345.73	36.820
346.10	38.050
346.46	36.501
346.82	36.579
347.19	36.243
347.55	37.260
347.91	36.731
348.27	36.783
348.63	37.990
349.00	37.572
349.36	38.570
349.72	38.060
350.08	37.541
350.45	36.632
350.81	38.206
351.17	37.134
351.53	37.878
351.89	35.590
352.26	36.640
352.62	37.742
352.98	38.394
353.34	36.957
353.70	37.540
354.07	38.065
354.43	37.230
354.79	37.985
355.15	38.175
355.51	38.291
355.87	39.159
356.24	37.439
356.60	37.914
356.96	37.937
357.32	38.099
357.68	37.295
358.04	37.803
358.40	38.907
358.77	38.836
359.13	38.831
359.49	37.288
359.85	39.158
360.21	38.437
360.57	38.485
360.93	39.334
361.29	38.218
361.66	39.420
362.02	39.545
362.38	38.919
362.74	39.364
363.10	39.127
363.46	39.437
363.82	40.120
364.18	39.041
364.54	38.676
364.90	40.358
365.26	40.029
365.62	39.781
365.98	40.543
366.35	42.025
366.71	41.537
367.07	39.623
367.43	39.899
367.79	39.364
368.15	40.273
368.51	41.879
368.87	39.698
369.23	39.495
369.59	40.306
369.95	40.469
370.31	41.113
370.67	41.269
371.03	40.553
371.39	40.554
371.75	40.879
372.11	41.369
372.47	41.050
372.83	42.370
373.19	41.869
373.55	41.877
373.91	41.829
374.27	42.594
374.63	41.493
374.99	42.411
375.35	41.713
375.71	42.168
376.07	42.346
376.42	43.265
376.78	42.886
377.14	43.196
377.50	42.829
377.86	42.637
378.22	42.502
378.58	43.013
378.94	42.596
379.30	43.855
379.66	43.386
380.02	43.102
380.38	43.701
380.74	43.387
381.09	44.233
381.45	43.731
381.81	44.355
382.17	43.845
382.53	44.097
382.89	44.256
383.25	45.488
383.61	44.390
383.97	43.302
384.32	44.778
384.68	44.334
385.04	43.137
385.40	43.933
385.76	45.157
386.12	45.278
386.48	44.955
386.83	45.910
387.19	44.567
387.55	45.107
387.91	45.721
388.27	45.788
388.62	45.312
388.98	45.304
389.34	46.159
389.70	44.189
390.06	43.927
390.42	45.402
390.77	45.651
391.13	44.578
391.49	45.990
391.85	45.874
392.20	45.449
392.56	45.073
392.92	45.625
393.28	46.108
393.64	45.946
393.99	45.643
394.35	46.047
394.71	45.785
395.07	44.375
395.42	44.505
395.78	45.733
396.14	44.578
396.50	44.769
396.85	45.138
397.21	46.241
397.57	45.078
397.92	44.937
398.28	45.862
398.64	44.458
399.00	45.598
399.35	44.470
399.71	45.491
400.07	44.921
400.42	45.165
400.78	45.254
401.14	45.009
401.49	45.503
401.85	44.546
402.21	44.578
402.57	45.188
402.92	44.981
403.28	44.424
403.63	45.586
403.99	44.962
404.35	45.534
404.70	43.393
405.06	44.183
405.42	44.313
405.77	44.277
406.13	45.343
406.49	43.754
406.84	44.132
407.20	44.491
407.55	43.786
407.91	43.717
408.27	42.830
408.62	44.369
408.98	43.808
409.34	43.866
409.69	43.023
410.05	43.473
410.40	44.198
410.76	43.848
411.11	43.812
411.47	44.181
411.83	42.185
412.18	44.144
412.54	43.758
412.89	43.227
413.25	42.599
413.60	43.292
413.96	43.067
414.31	42.866
414.67	41.822
415.03	42.144
415.38	42.493
415.74	43.453
416.09	43.828
416.45	42.809
416.80	42.234
417.16	44.751
417.51	42.438
417.87	42.894
418.22	43.912
418.58	43.679
418.93	44.326
419.29	42.574
419.64	43.876
420.00	45.970
420.35	44.239
420.71	44.593
421.06	43.155
421.42	44.712
421.77	43.988
422.12	44.325
422.48	45.912
422.83	44.258
423.19	45.316
423.54	44.503
423.90	43.698
424.25	44.661
424.61	45.838
424.96	44.541
425.31	45.696
425.67	45.423
426.02	45.995
426.38	45.272
426.73	45.702
427.09	44.684
427.44	45.412
427.79	46.258
428.15	46.663
428.50	46.760
428.85	45.147
429.21	45.218
429.56	46.792
429.92	45.968
430.27	46.216
430.62	46.628
430.98	46.285
431.33	47.266
431.68	46.782
432.04	46.674
432.39	46.663
432.74	45.520
433.10	47.931
433.45	47.909
433.80	47.707
434.16	46.759
434.51	48.065
434.86	47.271
435.22	47.560
435.57	48.284
435.92	48.084
436.28	46.869
436.63	47.975
436.98	48.262
437.34	46.824
437.69	48.360
438.04	47.407
438.39	46.976
438.75	49.484
439.10	48.274
439.45	48.509
439.81	48.135
440.16	50.178
440.51	49.373
440.86	49.849
441.22	49.152
441.57	49.945
441.92	49.948
442.27	50.998
442.63	50.268
442.98	49.339
443.33	49.304
443.68	49.019
444.03	49.876
444.39	49.975
444.74	51.394
445.09	50.445
445.44	49.687
445.79	50.696
446.15	50.220
446.50	50.305
446.85	50.478
447.20	49.948
447.55	51.004
447.91	50.479
448.26	49.744
448.61	49.971
448.96	50.488
449.31	51.214
449.66	49.652
450.02	50.485
450.37	51.512
450.72	50.745
451.07	50.127
451.42	49.750
451.77	49.427
452.12	49.940
452.47	50.612
452.83	50.589
453.18	51.170
453.53	50.506
453.88	51.366
454.23	49.478
454.58	51.134
454.93	50.580
455.28	49.333
455.63	51.829
455.98	51.714
456.34	51.660
456.69	51.017
457.04	51.733
457.39	51.094
457.74	50.786
458.09	50.618
458.44	50.439
458.79	51.317
459.14	50.915
459.49	50.328
459.84	50.197
460.19	49.575
460.54	50.367
460.89	51.420
461.24	50.435
461.59	51.663
461.94	49.874
462.29	49.578
462.64	50.365
462.99	49.628
463.34	49.861
463.69	50.193
464.04	50.061
464.39	50.940
464.74	49.509
465.09	51.341
465.44	51.414
465.79	49.490
466.14	50.855
466.49	51.006
466.84	50.922
467.19	50.313
467.54	49.681
467.89	49.716
468.24	48.905
468.59	49.905
468.94	48.952
469.29	50.098
469.64	49.214
469.99	49.895
470.34	48.191
470.68	47.875
471.03	49.115
471.38	49.287
471.73	48.039
472.08	48.304
472.43	49.329
472.78	48.389
473.13	49.252
473.48	49.381
473.83	49.004
474.17	49.482
474.52	50.032
474.87	50.242
475.22	49.725
475.57	49.351
475.92	50.357
476.27	50.233
476.61	49.537
476.96	48.132
477.31	48.891
477.66	48.034
478.01	48.905
478.36	49.346
478.70	48.994
479.05	48.626
479.40	48.384
479.75	48.227
480.10	48.950
480.45	49.700
480.79	49.496
481.14	49.436
481.49	48.719
481.84	49.131
482.19	48.223
482.53	49.113
482.88	46.969
483.23	48.177
483.58	47.406
483.92	47.628
484.27	47.675
484.62	48.812
484.97	48.549
485.31	49.386
485.66	52.929
486.01	55.078
486.36	54.331
486.70	52.901
487.05	51.351
487.40	50.543
487.75	49.803
488.09	46.879
488.44	45.702
488.79	46.657
489.13	46.595
489.48	47.114
489.83	46.457
490.17	44.989
490.52	46.975
490.87	46.136
491.22	47.421
491.56	46.727
491.91	46.415
492.26	47.399
492.60	46.449
492.95	47.122
493.30	45.286
493.64	47.053
493.99	45.749
494.34	46.748
494.68	46.095
495.03	45.839
495.37	46.712
495.72	45.684
496.07	46.000
496.41	47.075
496.76	46.200
497.11	45.738
497.45	46.539
497.80	45.863
498.14	45.306
498.49	45.099
498.84	45.808
499.18	46.436
499.53	46.032
499.87	45.866
500.22	46.538
500.56	46.193
500.91	46.737
501.26	44.785
501.60	44.909
501.95	47.065
502.29	45.860
502.64	46.622
502.98	46.226
503.33	44.861
503.67	46.217
504.02	46.090
504.36	44.879
504.71	46.111
505.06	44.087
505.40	45.330
505.75	45.258
506.09	45.464
506.44	45.945
506.78	45.714
507.13	45.243
507.47	43.864
507.82	44.498
508.16	44.744
508.51	44.544
508.85	45.212
509.19	43.374
509.54	44.182
509.88	44.498
510.23	44.164
510.57	44.629
510.92	43.390
511.26	43.590
511.61	43.839
511.95	43.562
512.30	43.293
512.64	43.350
512.98	42.729
513.33	43.649
513.67	42.865
514.02	44.394
514.36	43.600
514.70	43.415
515.05	42.891
515.39	42.857
515.74	43.533
516.08	42.678
516.42	42.933
516.77	43.300
517.11	44.154
517.46	43.088
517.80	42.551
518.14	42.315
518.49	43.089
518.83	42.770
519.17	42.207
519.52	41.800
519.86	41.236
520.20	41.981
520.55	41.088
520.89	41.468
521.23	40.532
521.58	41.388
521.92	41.987
522.26	41.314
522.61	41.039
522.95	41.258
523.29	41.677
523.64	41.677
523.98	41.931
524.32	41.108
524.66	41.485
525.01	42.208
525.35	41.089
525.69	41.616
526.04	40.608
526.38	42.088
526.72	40.549
527.06	40.402
527.41	41.227
527.75	41.220
528.09	40.797
528.43	41.729
528.78	42.244
529.12	42.194
529.46	41.650
529.80	41.735
530.15	42.178
530.49	41.549
530.83	41.245
531.17	39.624
531.51	40.492
531.86	39.973
532.20	39.736
532.54	39.415
532.88	41.615
533.22	41.196
533.57	41.743
533.91	41.580
534.25	42.383
534.59	41.886
534.93	42.039
535.27	40.863
535.62	40.765
535.96	41.031
536.30	42.018
536.64	41.833
536.98	39.443
537.32	41.110
537.66	41.515
538.01	40.629
538.35	40.985
538.69	40.146
539.03	40.533
539.37	41.184
539.71	40.900
540.05	40.665
540.39	40.305
540.73	42.678
541.07	41.782
541.42	41.734
541.76	42.602
542.10	41.363
542.44	41.070
542.78	39.298
543.12	40.659
543.46	41.655
543.80	42.401
544.14	41.322
544.48	41.439
544.82	41.900
545.16	41.667
545.50	41.656
545.84	42.351
546.18	41.135
546.52	40.231
546.86	40.906
547.20	41.130
547.54	40.071
547.88	42.459
548.22	40.828
548.56	41.161
548.90	41.712
549.24	41.047
549.58	40.762
549.92	39.743
550.26	40.293
550.60	40.818
550.94	41.225
551.28	40.108
551.62	39.769
551.96	41.128
552.30	40.936
552.64	40.903
552.98	40.014
553.32	40.300
553.66	39.695
554.00	41.314
554.34	42.097
554.68	39.897
555.02	41.369
555.36	41.286
555.69	39.560
556.03	40.828
556.37	40.569
556.71	39.567
557.05	40.045
557.39	40.000
557.73	39.955
558.07	40.498
558.41	40.582
558.75	39.127
559.08	38.928
559.42	39.048
559.76	40.753
560.10	39.832
560.44	39.911
560.78	39.930
561.12	41.819
561.45	42.375
561.79	41.457
562.13	42.016
562.47	40.504
562.81	41.931
563.15	40.056
563.48	41.018
563.82	40.906
564.16	41.504
564.50	41.419
564.84	42.035
565.17	41.516
565.51	43.169
565.85	41.838
566.19	42.905
566.52	42.560
566.86	42.738
567.20	42.341
567.54	44.282
567.88	45.636
568.21	45.136
568.55	44.565
568.89	45.842
569.23	46.269
569.56	47.811
569.90	47.909
570.24	46.892
570.57	48.327
570.91	48.763
571.25	47.715
571.59	47.898
571.92	46.904
572.26	48.490
572.60	47.070
572.93	46.784
573.27	47.053
573.61	47.971
573.95	48.280
574.28	48.570
574.62	48.360
574.96	48.217
575.29	47.627
575.63	46.826
575.97	47.005
576.30	47.512
576.64	46.914
576.98	48.880
577.31	49.324
577.65	49.794
577.98	49.789
578.32	49.593
578.66	48.399
578.99	48.035
579.33	47.639
579.67	47.212
580.00	47.797
580.34	47.836
580.67	47.527
581.01	48.751
581.35	49.311
581.68	50.581
582.02	50.982
582.35	50.232
582.69	50.175
583.02	49.135
583.36	48.687
583.70	47.793
584.03	47.762
584.37	48.391
584.70	48.599
585.04	48.031
585.37	48.575
585.71	49.642
586.04	49.395
586.38	48.626
586.72	48.838
587.05	49.047
587.39	49.706
587.72	49.918
588.06	49.516
588.39	48.790
588.73	49.115
589.06	48.793
589.40	47.701
589.73	47.280
590.07	47.696
590.40	48.142
590.73	47.776
591.07	46.353
591.40	47.195
591.74	46.516
592.07	47.542
592.41	47.571
592.74	49.064
593.08	48.795
593.41	49.720
593.75	49.591
594.08	48.884
594.41	48.180
594.75	47.405
595.08	49.338
595.42	49.061
595.75	48.179
596.09	47.772
596.42	46.962
596.75	47.291
597.09	46.925
597.42	47.154
597.75	48.007
598.09	47.171
598.42	47.563
598.76	48.048
599.09	48.598
599.42	48.731
599.76	48.570
600.09	48.077
600.42	47.688
600.76	47.994
601.09	47.901
601.42	48.139
601.76	48.392
602.09	47.442
602.42	49.031
602.76	48.005
603.09	49.252
603.42	49.164
603.76	47.984
604.09	48.967
604.42	48.477
604.76	48.198
605.09	47.761
605.42	47.133
605.75	48.687
606.09	48.705
606.42	48.290
606.75	47.922
607.09	48.088
607.42	47.718
607.75	47.647
608.08	46.855
608.42	47.282
608.75	47.855
609.08	48.530
609.41	46.497
609.75	46.623
610.08	48.677
610.41	46.908
610.74	47.343
611.07	46.615
611.41	47.950
611.74	47.761
612.07	47.377
612.40	46.280
612.73	47.966
613.07	47.582
613.40	46.991
613.73	47.062
614.06	47.078
614.39	47.208
614.72	46.443
615.06	47.263
615.39	45.906
615.72	45.910
616.05	47.486
616.38	45.470
616.71	45.872
617.05	46.510
617.38	46.197
617.71	46.855
618.04	46.540
618.37	47.478
618.70	46.403
619.03	45.764
619.36	43.488
619.69	45.337
620.03	46.165
620.36	45.637
620.69	44.397
621.02	42.661
621.35	43.983
621.68	43.622
622.01	44.167
622.34	44.134
622.67	43.849
623.00	44.104
623.33	45.198
623.66	46.073
623.99	44.402
624.32	45.475
624.65	44.211
624.99	45.147
625.32	43.669
625.65	44.540
625.98	43.836
626.31	42.560
626.64	43.934
626.97	42.321
627.30	42.732
627.63	43.501
627.96	44.654
628.29	42.553
628.62	40.511
628.95	41.784
629.28	43.246
629.61	42.572
629.94	42.326
630.26	41.008
630.59	42.040
630.92	42.872
631.25	39.692
631.58	41.520
631.91	41.338
632.24	42.775
632.57	41.591
632.90	39.502
633.23	38.941
633.56	40.554
633.89	40.321
634.22	41.358
634.55	41.804
634.88	38.570
635.20	39.103
635.53	39.467
635.86	39.402
636.19	42.303
636.52	39.923
636.85	38.834
637.18	40.881
637.51	39.245
637.83	39.028
638.16	39.563
638.49	35.967
638.82	40.658
639.15	40.027
639.48	41.816
639.81	39.191
640.13	39.827
640.46	37.318
640.79	39.323
641.12	35.894
641.45	37.387
641.77	36.296
642.10	38.389
642.43	37.781
642.76	37.294
643.09	37.480
643.41	36.570
643.74	37.727
644.07	38.259
644.40	37.500
644.73	38.704
645.05	36.409
645.38	38.977
645.71	36.525
646.04	37.163
646.36	40.071
646.69	37.230
647.02	38.374
647.35	36.754
647.67	36.746
648.00	39.739
648.33	39.590
648.66	39.661
648.98	39.196
649.31	39.008
649.64	38.619
649.96	39.870
650.29	39.693
650.62	37.265
650.94	37.778
651.27	35.196
651.60	38.919
651.92	38.636
652.25	36.412
652.58	39.667
652.90	43.053
653.23	39.496
653.56	36.379
653.88	36.770
654.21	36.077
654.54	36.842
654.86	41.256
655.19	41.813
655.52	52.477
655.84	61.647
656.17	69.761
656.49	91.840
656.82	91.278
657.15	66.209
657.47	48.105
657.80	34.850
658.13	32.763
658.45	47.862
658.78	45.170
659.10	42.368
659.43	41.338
659.75	41.046
660.08	41.241
660.41	40.347
660.73	37.569
661.06	36.915
661.38	34.247
661.71	34.702
662.03	36.695
662.36	34.945
662.68	37.611
663.01	37.336
663.33	34.571
663.66	36.279
663.98	36.512
664.31	34.328
664.63	34.101
664.96	33.696
665.28	36.865
665.61	34.199
665.93	37.391
666.26	37.310
666.58	35.123
666.91	36.000
667.23	36.321
667.56	35.308
667.88	37.170
668.21	35.561
668.53	35.225
668.86	37.500
669.18	34.198
669.50	33.656
669.83	34.884
670.15	35.897
670.48	34.450
670.80	37.558
671.13	35.123
671.45	35.388
671.77	39.485
672.10	41.386
672.42	40.075
672.75	44.227
673.07	41.503
673.39	42.569
673.72	35.503
674.04	36.667
674.37	38.136
674.69	36.617
675.01	40.667
675.34	36.036
675.66	40.046
675.98	41.020
676.31	37.615
676.63	40.143
676.95	35.682
677.28	38.353
677.60	40.723
677.92	38.761
678.25	37.418
678.57	38.961
678.89	38.235
679.22	40.268
679.54	37.550
679.86	41.352
680.18	40.583
680.51	41.856
680.83	38.966
681.15	38.600
681.48	41.598
681.80	40.909
682.12	39.919
682.44	38.285
682.77	42.384
683.09	38.902
683.41	35.909
683.73	35.945
684.06	39.159
684.38	38.065
684.70	42.266
685.02	42.324
685.34	42.292
685.67	43.527
685.99	43.038
686.31	43.009
686.63	41.929
686.96	39.924
687.28	41.414
687.60	39.163
687.92	46.061
688.24	38.911
688.56	40.175
688.89	40.625
689.21	39.778
689.53	39.675
689.85	40.233
690.17	41.741
690.49	42.553
690.82	41.505
691.14	37.143
691.46	42.056
691.78	42.342
692.10	41.720
692.42	40.260
692.74	39.957
693.06	41.892
693.39	43.213
693.71	40.271
694.03	41.801
694.35	39.720
694.67	35.859
694.99	39.426
695.31	39.164
695.63	41.000
695.95	40.657
696.27	39.896
696.59	41.667
696.91	40.616
697.23	40.103
697.56	43.812
697.88	43.656
698.20	40.774
698.52	44.706
698.84	41.388
699.16	37.250
699.48	44.612
699.80	42.680
700.12	41.779
700.44	41.737
700.76	38.081
701.08	38.485
701.40	37.048
701.72	40.123
702.04	38.284
702.36	37.793
702.68	39.640
703.00	40.909
703.32	40.762
703.64	36.441
703.96	38.261
704.28	40.798
704.60	39.048
704.91	36.278
705.23	36.213
705.55	40.989
705.87	41.516
706.19	40.000
706.51	36.770
706.83	41.158
707.15	39.564
707.47	48.459
707.79	45.833
708.11	42.250
708.43	43.500
708.74	40.568
709.06	44.507
709.38	42.813
709.70	37.870
710.02	40.127
710.34	43.963
710.66	36.538
710.98	41.060
711.29	42.623
711.61	41.695
711.93	38.762
712.25	41.581
712.57	38.095
712.89	39.179
713.20	36.678
713.52	36.585
713.84	39.590
714.16	39.863
714.48	44.839
714.80	42.949
715.11	42.857
715.43	36.991
715.75	41.000
716.07	39.203
716.39	38.255
716.70	39.114
717.02	33.588
717.34	42.105
717.66	37.611
717.97	40.870
718.29	38.494
718.61	39.370
718.93	40.310
719.24	41.065
719.56	44.980
719.88	37.801
720.20	42.803
720.51	34.866
720.83	38.996
721.15	42.437
721.46	44.355
721.78	39.921
722.10	37.546
722.42	33.195
722.73	38.367
723.05	40.408
723.37	42.373
723.68	45.045
724.00	38.889
724.32	39.111
724.63	44.091
724.95	37.555
725.27	47.005
725.58	42.797
725.90	42.063
726.22	43.243
726.53	42.034
726.85	44.944
727.16	47.925
727.48	37.247
727.80	39.676
728.11	42.797
728.43	40.784
728.74	39.919
729.06	44.800
729.38	48.120
729.69	38.247
730.01	42.308
730.32	44.403
730.64	50.530
730.96	47.170
731.27	45.667
731.59	44.746
731.90	48.089
732.22	47.634
732.53	48.505
732.85	48.227
733.16	42.761
733.48	47.122
733.80	46.014
734.11	43.051
734.43	51.203
734.74	47.879
735.06	46.580
735.37	44.109
735.69	49.158
736.00	45.645
736.32	43.624
736.63	48.239
736.95	49.488
737.26	49.822
737.58	44.966
737.89	47.985
738.21	47.368
738.52	47.737
738.83	46.288
739.15	40.611
739.46	48.425
739.78	42.491
740.09	47.059
740.41	48.188
740.72	42.913
741.04	44.130
741.35	43.830
741.66	39.336
741.98	41.837
742.29	46.535
742.61	37.696
742.92	40.758
743.23	39.815
743.55	43.891
743.86	38.278
744.18	43.541
744.49	39.894
744.80	41.848
745.12	44.385
745.43	38.049
745.74	51.562
746.06	47.805
746.37	45.026
746.68	41.232
747.00	37.766
747.31	43.284
747.62	40.291
747.94	48.804
748.25	51.485
748.56	48.634
748.88	44.503
749.19	48.936
749.50	42.857
749.82	41.038
750.13	42.661
750.44	52.256
750.75	51.866
751.07	50.000
751.38	49.425
751.69	44.706
752.01	46.512
752.32	49.801
752.63	47.036
752.94	46.552
753.26	49.791
753.57	47.511
753.88	48.230
754.19	44.167
754.51	47.107
754.82	46.964
755.13	51.250
755.44	45.968
755.75	50.391
756.07	50.584
756.38	48.679
756.69	47.893
757.00	50.667
757.31	48.039
757.63	48.171
757.94	49.444
758.25	51.507
758.56	49.468
758.87	46.176
759.18	46.106
759.50	51.273
759.81	47.492
760.12	53.548
760.43	52.121
760.74	53.395
761.05	51.692
761.36	50.568
761.67	53.333
761.99	49.320
762.30	45.818
762.61	46.245
762.92	46.606
763.23	44.595
763.54	51.402
763.85	48.305
764.16	43.983
764.47	47.984
764.78	45.055
765.10	54.209
765.41	49.527
765.72	52.698
766.03	51.504
766.34	48.540
766.65	54.183
766.96	48.485
767.27	47.340
767.58	41.954
767.89	39.007
768.20	38.068
768.51	45.055
768.82	44.828
769.13	47.465
769.44	47.639
769.75	47.945
770.06	48.276
770.37	47.115
770.68	44.670
770.99	46.154
771.30	51.961
771.61	53.846
771.92	56.466
772.23	52.709
772.54	47.849
772.85	48.148
773.16	50.000
773.47	60.131
773.78	52.288
774.09	46.707
774.39	40.667
774.70	41.401
775.01	47.586
775.32	37.857
775.63	38.017
775.94	47.328
776.25	46.457
776.56	40.833
776.87	38.462
777.18	42.735
777.48	35.345
777.79	47.826
778.10	33.333
778.41	34.234
778.72	38.889
779.03	44.361
779.34	46.099
779.65	44.521
779.95	42.466
780.26	40.000
780.57	44.715
780.88	39.370
781.19	50.862
781.50	50.388
781.80	49.112
782.11	39.623
782.42	53.846
782.73	46.043
783.04	43.704
783.34	42.361
783.65	35.043
783.96	47.541
784.27	46.897
784.57	44.715
784.88	43.750
785.19	51.000
785.50	67.000
785.81	43.966
786.11	54.310
786.42	51.456
786.73	50.909
787.04	30.612
787.34	38.393
787.65	41.905
787.96	43.363
788.26	47.273
788.57	47.009
788.88	43.750
789.19	43.651
789.49	51.304
789.80	47.959
790.11	43.434
790.41	21.818
790.72	46.739
791.03	36.364
791.33	55.000
791.64	36.250
791.95	50.000
792.25	46.809
792.56	39.326
792.87	43.836
793.17	42.029
793.48	25.333
793.79	36.250
794.09	57.500
794.40	39.623
794.70	50.485
795.01	52.033
795.32	41.026
795.62	42.857
795.93	47.059
796.23	49.057
796.54	50.000
796.85	55.882
797.15	30.986
797.46	36.111
797.76	59.091
798.07	47.674
798.37	47.368
798.68	51.515
798.99	44.444
799.29	44.286
799.60	36.232
799.90	46.667
800.21	73.770
800.51	43.077
800.82	52.542
801.12	37.681
801.43	39.344
801.73	30.159
802.04	42.000
802.34	35.821
802.65	67.308
802.95	28.571
803.26	25.000
803.56	31.373
803.87	19.565
804.17	28.000
804.48	46.032
804.78	37.037
805.09	43.478
805.39	51.111
805.70	42.593
806.00	17.544
806.30	46.479
806.61	32.857
806.91	31.944
807.22	56.579
807.52	53.333
807.83	30.909
808.13	37.500
808.43	47.059
808.74	25.373
809.04	30.508
809.35	53.846
809.65	45.313
809.95	0.000
810.26	38.636
810.56	26.027
810.86	14.286
811.17	18.000
811.47	59.184
811.77	18.421
812.08	43.182
812.38	15.094
812.69	47.500
812.99	6.061
813.29	28.947
813.59	22.857
813.90	63.636
814.20	53.846
814.50	55.769
814.81	52.830
815.11	25.532
815.41	47.458
815.72	38.095
816.02	49.020
816.32	35.417
816.62	43.902
816.93	13.514
817.23	20.000
817.53	41.667
817.84	30.435
818.14	32.692
818.44	31.579
818.74	63.043
819.04	27.500
819.35	27.027
819.65	38.235
819.95	-8.333
820.25	40.476
820.56	47.500
820.86	13.793
821.16	75.000
821.46	19.149
821.76	25.000
822.07	27.907
822.37	8.108
822.67	9.375
822.97	38.095
823.27	14.286
823.57	44.000
823.88	0.000
824.18	10.714
824.48	14.706
824.78	48.387
825.08	21.739
825.38	18.182
825.69	16.667
825.99	55.263
826.29	25.000
826.59	60.000
826.89	19.048
827.19	45.652
827.49	22.500
827.79	62.857
828.09	64.286
828.39	18.182
828.70	72.973
829.00	46.429
829.30	61.905
829.60	30.000
829.90	53.125
830.20	57.895
830.50	-14.815
830.80	26.087
831.10	40.909
831.40	48.485
831.70	45.161
832.00	76.190
832.30	4.762
832.60	-16.667
832.90	-13.793
833.20	15.000
833.50	36.364
833.80	22.222
834.10	23.077
834.40	6.250
834.70	44.444
835.00	5.263
835.30	65.385
835.60	106.667
835.90	16.129
836.20	40.909
836.50	10.714
836.80	-19.231
837.10	14.286
837.40	33.333
837.70	50.000
838.00	-9.091
838.30	8.696
838.60	46.154
838.90	72.727
839.19	17.857
839.49	36.667
839.79	15.385
840.09	-8.333
840.39	71.429
840.69	21.429
840.99	30.769
841.29	-52.632
841.59	-40.000
841.88	54.545
842.18	70.000
842.48	18.750
842.78	6.667
843.08	48.148
843.38	-100.000
843.68	13.043
843.97	53.333
844.27	20.000
844.57	30.000
844.87	0.000
845.17	-33.333
845.47	-13.333
845.76	28.571
846.06	-23.529
846.36	80.000
846.66	-21.429
846.96	26.667
847.25	-75.000
847.55	64.286
847.85	25.000
848.15	27.273
848.44	-333.333
848.74	10.000
849.04	44.444
849.34	-27.273
849.63	-133.333
849.93	-100.000
850.23	11.111
850.53	110.000
850.82	38.462
851.12	-33.333
851.42	80.000
851.71	3.846
852.01	-14.286
852.31	-325.000
852.61	100.000
852.90	15.000
853.20	73.684
853.50	-25.000
853.79	30.435
854.09	58.333
854.39	36.842
854.68	58.333
854.98	38.710
855.28	88.462
855.57	40.000
855.87	50.000
856.17	62.963
856.46	-7.143
856.76	26.667
857.05	44.444
857.35	0.000
857.65	50.000
857.94	92.308
858.24	55.172
858.53	66.667
858.83	66.667
859.13	22.727
859.42	0.000
859.72	25.000
860.01	-433.333
860.31	16.000
860.60	-4.762
860.90	0.000
861.20	26.667
861.49	-100.000
861.79	53.333
862.08	10.000
862.38	146.667
862.67	-80.000
862.97	0.000
863.26	50.000
863.56	38.889
863.85	-566.667
864.15	66.667
864.44	-10.000
864.74	64.286
865.03	-50.000
865.33	0.000
865.62	66.667
865.92	16.667
866.21	-133.333
866.51	-12.500
866.80	-9.091
867.10	300.000
867.39	-33.333
867.69	0.000
867.98	-46.154
868.27	-100.000
868.57	53.333
868.86	50.000
869.16	-15.385
869.45	73.333
869.75	-900.000
870.04	0.000
870.33	-171.429
870.63	42.857
870.92	333.333
871.22	-180.000
871.51	-700.000
871.80	55.556
872.10	100.000
>>>>>End Processed Spectral Data<<<<<
