SpectraSuite Data File
++++++++++++++++++++++++++++++++++++
Date: Fri May 15 20:05:43 PDT 2015
User: schluterlab
Dark Spectrum Present: Yes
Reference Spectrum Present: Yes
Number of Sampled Component Spectra: 1
Spectrometers: USB2E3373
Integration Time (usec): 3000 (USB2E3373)
Spectra Averaged: 3 (USB2E3373)
Boxcar Smoothing: 0 (USB2E3373)
Correct for Electrical Dark: No (USB2E3373)
Strobe/Lamp Enabled: No (USB2E3373)
Correct for Detector Non-linearity: No (USB2E3373)
Correct for Stray Light: No (USB2E3373)
Number of Pixels in Processed Spectrum: 2048
>>>>>Begin Processed Spectral Data<<<<<
178.53	0.000
178.91	0.000
179.29	150.000
179.67	200.000
180.04	128.571
180.42	-50.000
180.80	-1000.000
181.18	333.333
181.56	600.000
181.94	-100.000
182.31	400.000
182.69	-80.000
183.07	-33.333
183.45	-20.000
183.83	166.667
184.20	9.091
184.58	-0.000
184.96	-0.000
185.34	33.333
185.72	-250.000
186.09	107.692
186.47	200.000
186.85	83.333
187.23	166.667
187.61	-1000.000
187.98	-300.000
188.36	88.889
188.74	233.333
189.12	23.529
189.49	33.333
189.87	0.000
190.25	21.429
190.63	-150.000
191.00	-33.333
191.38	10.526
191.76	550.000
192.14	150.000
192.51	0.000
192.89	-11.111
193.27	-142.857
193.65	16.667
194.02	100.000
194.40	20.000
194.78	-137.500
195.15	0.000
195.53	-37.500
195.91	400.000
196.29	-175.000
196.66	61.538
197.04	185.714
197.42	-55.556
197.79	-166.667
198.17	-7.692
198.55	1000.000
198.92	-266.667
199.30	0.000
199.68	-100.000
200.05	-200.000
200.43	0.000
200.81	-233.333
201.18	133.333
201.56	1200.000
201.94	-150.000
202.31	100.000
202.69	-220.000
203.07	50.000
203.44	700.000
203.82	0.000
204.19	71.429
204.57	-333.333
204.95	125.000
205.32	40.000
205.70	42.857
206.08	25.000
206.45	122.222
206.83	92.857
207.20	-57.143
207.58	-0.000
207.96	-266.667
208.33	-240.000
208.71	-100.000
209.08	200.000
209.46	-100.000
209.84	-20.000
210.21	-900.000
210.59	85.714
210.96	-100.000
211.34	-25.000
211.71	0.000
212.09	-85.714
212.46	-1200.000
212.84	0.000
213.22	130.000
213.59	350.000
213.97	53.846
214.34	36.364
214.72	100.000
215.09	50.000
215.47	-15.385
215.84	0.000
216.22	66.667
216.59	-37.500
216.97	0.000
217.34	25.000
217.72	-100.000
218.09	-12.500
218.47	75.000
218.84	100.000
219.22	-66.667
219.59	40.000
219.97	466.667
220.34	150.000
220.72	-100.000
221.09	0.000
221.47	250.000
221.84	-200.000
222.22	-300.000
222.59	63.636
222.97	75.000
223.34	-200.000
223.72	-28.571
224.09	19.048
224.46	28.571
224.84	-0.000
225.21	30.000
225.59	46.667
225.96	250.000
226.34	225.000
226.71	-100.000
227.08	-150.000
227.46	-125.000
227.83	-350.000
228.21	11.111
228.58	27.273
228.95	-37.500
229.33	180.000
229.70	-6.250
230.08	-100.000
230.45	-100.000
230.82	28.571
231.20	-13.333
231.57	92.857
231.95	-100.000
232.32	-100.000
232.69	21.429
233.07	400.000
233.44	20.000
233.81	-50.000
234.19	77.778
234.56	-23.529
234.93	-150.000
235.31	-25.000
235.68	-180.000
236.05	-100.000
236.43	5.000
236.80	-41.176
237.17	18.750
237.55	5.000
237.92	-14.815
238.29	2.778
238.67	26.667
239.04	23.529
239.41	14.634
239.79	33.333
240.16	43.902
240.53	10.526
240.91	13.043
241.28	11.111
241.65	23.214
242.02	27.397
242.40	13.333
242.77	13.559
243.14	-7.576
243.51	18.750
243.89	25.287
244.26	22.989
244.63	20.238
245.00	19.588
245.38	22.680
245.75	12.360
246.12	10.345
246.49	15.702
246.87	22.115
247.24	10.084
247.61	7.018
247.98	14.634
248.36	20.625
248.73	18.421
249.10	16.234
249.47	10.127
249.84	17.647
250.22	13.529
250.59	20.261
250.96	22.066
251.33	13.372
251.70	21.176
252.08	15.736
252.45	11.881
252.82	16.583
253.19	24.885
253.56	15.421
253.94	18.018
254.31	23.478
254.68	12.719
255.05	16.142
255.42	18.341
255.79	15.058
256.16	14.008
256.54	20.896
256.91	16.350
257.28	17.100
257.65	18.352
258.02	18.794
258.39	18.182
258.76	20.879
259.14	21.927
259.51	16.828
259.88	18.900
260.25	17.647
260.62	17.014
260.99	12.203
261.36	12.329
261.73	18.354
262.10	19.149
262.47	15.951
262.85	20.376
263.22	21.231
263.59	18.069
263.96	22.050
264.33	17.576
264.70	19.643
265.07	17.560
265.44	19.547
265.81	16.667
266.18	19.126
266.55	21.851
266.92	19.948
267.29	19.582
267.66	20.460
268.03	19.895
268.40	18.277
268.77	19.251
269.14	17.746
269.51	18.766
269.88	18.454
270.25	15.306
270.62	16.829
270.99	17.647
271.36	18.337
271.73	20.188
272.10	20.681
272.47	19.149
272.84	17.079
273.21	19.490
273.58	19.277
273.95	18.535
274.32	16.166
274.69	17.421
275.06	20.313
275.43	18.367
275.80	16.556
276.17	17.471
276.54	16.916
276.91	16.667
277.28	15.721
277.65	17.769
278.02	16.809
278.39	19.037
278.76	17.191
279.13	16.390
279.50	17.017
279.87	18.143
280.23	15.054
280.60	15.789
280.97	16.768
281.34	15.769
281.71	19.302
282.08	16.360
282.45	14.090
282.82	16.988
283.19	16.441
283.56	16.956
283.92	16.129
284.29	16.538
284.66	16.860
285.03	17.682
285.40	16.257
285.77	14.411
286.14	18.773
286.51	17.528
286.87	15.356
287.24	17.311
287.61	15.344
287.98	16.842
288.35	16.118
288.72	17.163
289.08	17.014
289.45	16.696
289.82	15.734
290.19	16.553
290.56	15.094
290.93	13.805
291.29	14.176
291.66	16.220
292.03	15.789
292.40	15.806
292.77	14.195
293.13	11.201
293.50	13.809
293.87	16.031
294.24	15.147
294.60	14.456
294.97	13.839
295.34	12.883
295.71	14.605
296.08	12.556
296.44	12.660
296.81	12.639
297.18	14.493
297.55	14.634
297.91	12.740
298.28	13.061
298.65	13.704
299.02	14.420
299.38	10.670
299.75	12.552
300.12	12.304
300.48	10.935
300.85	13.561
301.22	13.506
301.59	12.237
301.95	13.165
302.32	12.970
302.69	13.930
303.05	12.129
303.42	13.200
303.79	13.201
304.15	14.337
304.52	12.247
304.89	11.228
305.25	11.259
305.62	10.735
305.99	11.228
306.35	10.520
306.72	10.349
307.09	12.543
307.45	12.514
307.82	11.921
308.19	12.776
308.55	11.232
308.92	13.290
309.29	10.950
309.65	11.948
310.02	12.101
310.38	11.636
310.75	12.787
311.12	12.702
311.48	11.983
311.85	11.728
312.22	12.131
312.58	11.253
312.95	12.593
313.31	11.077
313.68	12.984
314.05	11.633
314.41	12.784
314.78	12.887
315.14	13.669
315.51	11.491
315.87	13.525
316.24	14.965
316.61	13.484
316.97	13.690
317.34	13.965
317.70	13.958
318.07	13.173
318.43	15.686
318.80	16.572
319.16	16.699
319.53	16.144
319.89	15.945
320.26	16.700
320.62	18.255
320.99	17.119
321.35	18.602
321.72	20.249
322.08	20.745
322.45	20.508
322.81	19.941
323.18	21.786
323.54	22.008
323.91	23.174
324.27	23.535
324.64	26.498
325.00	28.285
325.37	29.017
325.73	30.100
326.10	31.153
326.46	32.377
326.83	33.771
327.19	34.612
327.56	36.751
327.92	38.028
328.29	38.482
328.65	40.189
329.01	41.452
329.38	41.935
329.74	42.304
330.11	43.466
330.47	44.156
330.84	44.904
331.20	48.479
331.56	47.500
331.93	49.041
332.29	50.321
332.66	50.679
333.02	50.836
333.38	50.137
333.75	52.473
334.11	50.940
334.48	54.669
334.84	53.388
335.20	55.169
335.57	54.669
335.93	54.743
336.29	53.959
336.66	56.767
337.02	55.948
337.38	55.370
337.75	57.273
338.11	55.906
338.47	57.391
338.84	58.503
339.20	59.598
339.56	59.541
339.93	57.296
340.29	59.633
340.65	58.244
341.02	58.511
341.38	60.442
341.74	59.541
342.11	56.932
342.47	59.164
342.83	60.381
343.20	59.321
343.56	60.261
343.92	59.876
344.28	59.436
344.65	61.744
345.01	60.156
345.37	59.546
345.73	60.000
346.10	61.519
346.46	60.723
346.82	60.638
347.19	59.019
347.55	59.733
347.91	60.113
348.27	61.358
348.63	62.692
349.00	60.952
349.36	61.180
349.72	62.438
350.08	60.574
350.45	59.537
350.81	59.801
351.17	59.283
351.53	61.714
351.89	58.794
352.26	60.720
352.62	60.968
352.98	59.438
353.34	61.514
353.70	61.246
354.07	61.452
354.43	61.249
354.79	62.593
355.15	60.794
355.51	59.731
355.87	62.298
356.24	61.582
356.60	62.167
356.96	62.857
357.32	62.300
357.68	61.767
358.04	61.389
358.40	62.379
358.77	63.317
359.13	61.409
359.49	62.327
359.85	63.105
360.21	63.557
360.57	63.428
360.93	62.481
361.29	61.556
361.66	64.107
362.02	64.621
362.38	63.366
362.74	66.162
363.10	64.936
363.46	65.159
363.82	65.364
364.18	63.838
364.54	63.015
364.90	65.305
365.26	65.357
365.62	65.547
365.98	64.663
366.35	65.477
366.71	66.297
367.07	66.038
367.43	65.205
367.79	64.594
368.15	66.260
368.51	67.444
368.87	66.475
369.23	64.982
369.59	67.493
369.95	67.742
370.31	67.630
370.67	67.313
371.03	65.123
371.39	66.302
371.75	66.886
372.11	66.334
372.47	67.751
372.83	68.630
373.19	66.619
373.55	67.148
373.91	68.107
374.27	68.037
374.63	68.055
374.99	67.872
375.35	68.593
375.71	69.930
376.07	70.225
376.42	69.524
376.78	69.732
377.14	69.465
377.50	70.252
377.86	69.478
378.22	69.304
378.58	69.872
378.94	70.258
379.30	69.682
379.66	71.536
380.02	70.877
380.38	70.177
380.74	70.138
381.09	71.534
381.45	72.538
381.81	71.931
382.17	71.003
382.53	71.205
382.89	73.132
383.25	72.993
383.61	71.707
383.97	73.333
384.32	70.231
384.68	74.118
385.04	71.507
385.40	72.744
385.76	75.975
386.12	74.256
386.48	74.777
386.83	72.796
387.19	72.894
387.55	74.906
387.91	74.878
388.27	73.871
388.62	74.323
388.98	75.322
389.34	74.079
389.70	74.580
390.06	72.687
390.42	74.611
390.77	75.474
391.13	73.960
391.49	75.162
391.85	74.724
392.20	75.141
392.56	75.779
392.92	75.279
393.28	75.590
393.64	75.075
393.99	77.743
394.35	75.332
394.71	75.543
395.07	74.293
395.42	73.710
395.78	74.853
396.14	74.401
396.50	76.728
396.85	75.467
397.21	76.754
397.57	76.426
397.92	74.895
398.28	75.115
398.64	73.735
399.00	76.637
399.35	74.097
399.71	73.751
400.07	75.635
400.42	74.541
400.78	73.974
401.14	74.168
401.49	74.926
401.85	74.040
402.21	74.398
402.57	73.938
402.92	74.780
403.28	74.624
403.63	76.230
403.99	74.490
404.35	75.328
404.70	73.512
405.06	74.207
405.42	73.835
405.77	73.388
406.13	75.611
406.49	73.475
406.84	76.100
407.20	74.172
407.55	73.342
407.91	73.195
408.27	73.869
408.62	73.108
408.98	72.027
409.34	74.721
409.69	72.933
410.05	73.276
410.40	73.642
410.76	74.125
411.11	73.250
411.47	74.162
411.83	73.132
412.18	75.804
412.54	72.659
412.89	73.522
413.25	74.729
413.60	74.845
413.96	72.270
414.31	74.695
414.67	73.188
415.03	72.836
415.38	73.303
415.74	74.788
416.09	74.657
416.45	74.882
416.80	74.091
417.16	76.588
417.51	74.017
417.87	74.641
418.22	74.935
418.58	75.452
418.93	74.671
419.29	73.303
419.64	74.854
420.00	75.504
420.35	73.791
420.71	74.970
421.06	74.279
421.42	74.159
421.77	76.185
422.12	76.277
422.48	75.095
422.83	74.942
423.19	75.169
423.54	75.779
423.90	74.087
424.25	76.464
424.61	76.193
424.96	76.829
425.31	77.527
425.67	78.052
426.02	77.739
426.38	78.209
426.73	77.482
427.09	77.975
427.44	77.000
427.79	78.845
428.15	77.549
428.50	78.074
428.85	77.641
429.21	78.834
429.56	80.485
429.92	79.507
430.27	77.594
430.62	79.247
430.98	79.406
431.33	79.285
431.68	78.964
432.04	79.150
432.39	77.867
432.74	78.172
433.10	79.770
433.45	79.271
433.80	79.454
434.16	78.892
434.51	80.269
434.86	79.559
435.22	80.314
435.57	81.472
435.92	79.461
436.28	79.368
436.63	80.434
436.98	79.143
437.34	79.855
437.69	81.395
438.04	80.912
438.39	81.491
438.75	81.664
439.10	79.570
439.45	81.923
439.81	82.936
440.16	84.323
440.51	82.030
440.86	84.834
441.22	82.127
441.57	82.781
441.92	83.683
442.27	84.479
442.63	82.869
442.98	82.998
443.33	81.247
443.68	83.236
444.03	82.712
444.39	83.227
444.74	86.232
445.09	84.243
445.44	82.051
445.79	85.817
446.15	82.709
446.50	83.250
446.85	84.538
447.20	82.951
447.55	84.821
447.91	83.305
448.26	84.519
448.61	84.111
448.96	84.968
449.31	85.260
449.66	82.927
450.02	85.853
450.37	85.240
450.72	83.963
451.07	85.380
451.42	83.833
451.77	83.966
452.12	84.510
452.47	84.288
452.83	83.687
453.18	83.871
453.53	84.576
453.88	85.064
454.23	84.880
454.58	85.579
454.93	83.698
455.28	84.063
455.63	84.687
455.98	83.764
456.34	84.802
456.69	86.086
457.04	85.129
457.39	84.143
457.74	84.704
458.09	83.755
458.44	83.909
458.79	82.689
459.14	84.497
459.49	85.015
459.84	84.490
460.19	85.012
460.54	86.002
460.89	86.080
461.24	84.224
461.59	84.264
461.94	85.283
462.29	86.007
462.64	84.319
462.99	83.954
463.34	84.631
463.69	85.779
464.04	84.140
464.39	85.021
464.74	84.785
465.09	86.588
465.44	86.093
465.79	84.467
466.14	86.032
466.49	84.704
466.84	86.377
467.19	85.106
467.54	85.313
467.89	84.523
468.24	84.915
468.59	85.143
468.94	83.619
469.29	84.918
469.64	84.621
469.99	87.807
470.34	83.823
470.68	85.981
471.03	85.563
471.38	86.091
471.73	84.454
472.08	84.057
472.43	86.107
472.78	83.756
473.13	85.578
473.48	83.844
473.83	83.313
474.17	85.427
474.52	83.854
474.87	84.667
475.22	85.113
475.57	85.093
475.92	84.202
476.27	85.856
476.61	86.169
476.96	83.324
477.31	85.181
477.66	83.596
478.01	85.401
478.36	85.076
478.70	85.808
479.05	86.374
479.40	86.328
479.75	83.525
480.10	84.127
480.45	84.550
480.79	85.750
481.14	85.861
481.49	84.335
481.84	86.631
482.19	85.781
482.53	85.324
482.88	85.442
483.23	84.789
483.58	84.953
483.92	85.770
484.27	84.913
484.62	85.253
484.97	83.665
485.31	85.694
485.66	85.680
486.01	88.391
486.36	87.665
486.70	87.928
487.05	87.581
487.40	86.324
487.75	86.310
488.09	84.333
488.44	83.322
488.79	83.937
489.13	83.173
489.48	84.181
489.83	85.112
490.17	84.360
490.52	84.342
490.87	83.758
491.22	85.291
491.56	84.393
491.91	83.317
492.26	83.957
492.60	83.445
492.95	85.785
493.30	83.293
493.64	85.118
493.99	84.300
494.34	82.330
494.68	84.714
495.03	83.844
495.37	84.593
495.72	83.746
496.07	85.902
496.41	84.104
496.76	84.892
497.11	83.372
497.45	83.580
497.80	85.015
498.14	82.365
498.49	83.748
498.84	83.283
499.18	84.137
499.53	85.268
499.87	84.095
500.22	85.114
500.56	84.771
500.91	84.187
501.26	82.501
501.60	85.243
501.95	85.735
502.29	85.375
502.64	84.894
502.98	85.446
503.33	82.949
503.67	84.145
504.02	84.848
504.36	85.007
504.71	83.030
505.06	82.989
505.40	82.843
505.75	84.742
506.09	83.021
506.44	85.113
506.78	83.724
507.13	84.281
507.47	83.029
507.82	82.906
508.16	83.201
508.51	85.310
508.85	84.144
509.19	83.023
509.54	83.271
509.88	83.711
510.23	84.992
510.57	83.859
510.92	81.077
511.26	84.179
511.61	84.433
511.95	84.384
512.30	84.313
512.64	81.469
512.98	82.426
513.33	82.037
513.67	81.922
514.02	86.098
514.36	84.343
514.70	84.324
515.05	84.430
515.39	81.759
515.74	85.389
516.08	85.057
516.42	84.688
516.77	83.382
517.11	83.798
517.46	84.261
517.80	82.122
518.14	83.956
518.49	82.632
518.83	82.199
519.17	83.626
519.52	84.133
519.86	83.193
520.20	83.050
520.55	81.989
520.89	82.371
521.23	82.711
521.58	82.713
521.92	84.038
522.26	81.848
522.61	82.857
522.95	83.775
523.29	83.227
523.64	82.783
523.98	83.668
524.32	84.021
524.66	83.547
525.01	83.506
525.35	83.409
525.69	82.963
526.04	83.267
526.38	83.528
526.72	80.903
527.06	83.204
527.41	82.784
527.75	82.038
528.09	80.997
528.43	82.714
528.78	82.376
529.12	80.774
529.46	83.431
529.80	82.141
530.15	82.376
530.49	83.098
530.83	84.268
531.17	81.733
531.51	82.832
531.86	81.917
532.20	81.211
532.54	82.777
532.88	83.778
533.22	83.602
533.57	84.010
533.91	83.747
534.25	83.984
534.59	81.911
534.93	80.554
535.27	82.995
535.62	81.983
535.96	82.779
536.30	82.388
536.64	83.873
536.98	81.115
537.32	84.851
537.66	83.801
538.01	83.007
538.35	83.981
538.69	80.826
539.03	82.843
539.37	82.301
539.71	82.140
540.05	81.195
540.39	82.618
540.73	82.706
541.07	82.804
541.42	82.056
541.76	83.345
542.10	80.798
542.44	83.808
542.78	81.762
543.12	82.418
543.46	83.727
543.80	83.900
544.14	80.307
544.48	82.278
544.82	84.211
545.16	83.607
545.50	82.577
545.84	83.853
546.18	83.901
546.52	81.831
546.86	81.380
547.20	83.119
547.54	81.625
547.88	83.764
548.22	82.051
548.56	82.190
548.90	83.086
549.24	82.851
549.58	80.889
549.92	80.629
550.26	83.516
550.60	82.379
550.94	84.466
551.28	82.689
551.62	83.231
551.96	82.632
552.30	83.480
552.64	82.370
552.98	82.700
553.32	82.026
553.66	81.132
554.00	83.650
554.34	82.866
554.68	81.490
555.02	81.101
555.36	82.423
555.69	82.125
556.03	81.513
556.37	82.420
556.71	83.755
557.05	82.177
557.39	81.413
557.73	82.609
558.07	82.730
558.41	82.619
558.75	82.151
559.08	81.639
559.42	83.492
559.76	82.066
560.10	82.798
560.44	83.917
560.78	82.238
561.12	84.133
561.45	83.696
561.79	83.894
562.13	83.038
562.47	82.806
562.81	83.213
563.15	82.017
563.48	84.017
563.82	82.773
564.16	84.262
564.50	81.554
564.84	84.137
565.17	84.038
565.51	84.495
565.85	84.499
566.19	85.212
566.52	84.584
566.86	83.869
567.20	83.686
567.54	85.341
567.88	86.057
568.21	86.482
568.55	86.359
568.89	85.780
569.23	84.930
569.56	87.259
569.90	88.672
570.24	86.863
570.57	88.291
570.91	87.138
571.25	86.057
571.59	86.328
571.92	85.156
572.26	85.900
572.60	86.698
572.93	85.315
573.27	85.392
573.61	86.456
573.95	85.472
574.28	85.885
574.62	85.482
574.96	85.415
575.29	86.017
575.63	84.063
575.97	85.145
576.30	84.959
576.64	85.245
576.98	86.821
577.31	86.581
577.65	87.018
577.98	87.468
578.32	86.632
578.66	85.407
578.99	84.815
579.33	84.711
579.67	83.851
580.00	85.291
580.34	84.776
580.67	85.089
581.01	85.447
581.35	85.853
581.68	87.188
582.02	87.355
582.35	87.521
582.69	87.398
583.02	85.601
583.36	86.089
583.70	86.656
584.03	86.544
584.37	86.533
584.70	85.412
585.04	84.922
585.37	85.528
585.71	86.892
586.04	86.687
586.38	86.023
586.72	86.514
587.05	87.002
587.39	86.916
587.72	87.261
588.06	86.521
588.39	86.500
588.73	87.088
589.06	87.508
589.40	85.171
589.73	85.615
590.07	86.518
590.40	86.455
590.73	89.209
591.07	85.708
591.40	86.153
591.74	86.380
592.07	85.529
592.41	86.484
592.74	86.380
593.08	85.784
593.41	88.468
593.75	86.850
594.08	86.062
594.41	87.154
594.75	86.450
595.08	86.757
595.42	87.744
595.75	87.308
596.09	87.725
596.42	85.986
596.75	84.725
597.09	85.148
597.42	86.314
597.75	86.945
598.09	85.876
598.42	85.650
598.76	86.315
599.09	86.779
599.42	85.563
599.76	86.456
600.09	85.784
600.42	86.050
600.76	85.550
601.09	85.992
601.42	85.272
601.76	86.344
602.09	86.469
602.42	87.195
602.76	86.672
603.09	86.794
603.42	87.375
603.76	85.605
604.09	86.270
604.42	86.083
604.76	86.604
605.09	86.243
605.42	85.147
605.75	85.989
606.09	86.030
606.42	84.987
606.75	86.667
607.09	85.099
607.42	85.423
607.75	84.547
608.08	84.322
608.42	84.513
608.75	86.169
609.08	85.999
609.41	85.635
609.75	84.627
610.08	85.771
610.41	85.797
610.74	85.324
611.07	86.770
611.41	86.196
611.74	85.768
612.07	85.653
612.40	85.394
612.73	86.836
613.07	85.039
613.40	84.300
613.73	84.499
614.06	84.530
614.39	84.602
614.72	84.538
615.06	85.084
615.39	83.406
615.72	85.576
616.05	84.860
616.38	84.103
616.71	85.076
617.05	85.732
617.38	84.475
617.71	84.843
618.04	86.095
618.37	84.931
618.70	85.215
619.03	85.764
619.36	85.311
619.69	86.126
620.03	85.245
620.36	84.335
620.69	83.940
621.02	82.110
621.35	85.975
621.68	84.184
622.01	83.417
622.34	84.198
622.67	83.044
623.00	83.155
623.33	84.604
623.66	83.470
623.99	83.283
624.32	84.791
624.65	83.083
624.99	85.628
625.32	83.245
625.65	84.289
625.98	84.690
626.31	83.957
626.64	85.009
626.97	84.119
627.30	85.289
627.63	83.276
627.96	82.749
628.29	82.331
628.62	83.677
628.95	80.862
629.28	85.786
629.61	82.951
629.94	83.871
630.26	81.225
630.59	85.952
630.92	83.385
631.25	82.359
631.58	83.921
631.91	83.443
632.24	83.830
632.57	83.977
632.90	82.800
633.23	81.765
633.56	83.123
633.89	83.231
634.22	85.556
634.55	82.973
634.88	80.971
635.20	81.667
635.53	85.200
635.86	84.265
636.19	85.123
636.52	82.526
636.85	82.630
637.18	80.252
637.51	80.503
637.83	78.844
638.16	84.175
638.49	78.610
638.82	83.158
639.15	83.582
639.48	81.431
639.81	80.753
640.13	81.962
640.46	80.612
640.79	82.769
641.12	77.400
641.45	81.532
641.77	80.593
642.10	84.518
642.43	82.154
642.76	80.363
643.09	81.583
643.41	77.184
643.74	79.242
644.07	80.952
644.40	79.730
644.73	82.662
645.05	78.859
645.38	79.541
645.71	82.447
646.04	84.022
646.36	83.156
646.69	80.755
647.02	82.231
647.35	82.649
647.67	80.987
648.00	85.075
648.33	79.863
648.66	81.695
648.98	81.407
649.31	80.661
649.64	79.435
649.96	81.524
650.29	79.898
650.62	81.880
650.94	82.963
651.27	77.840
651.60	79.099
651.92	80.245
652.25	79.218
652.58	80.167
652.90	83.019
653.23	79.832
653.56	77.327
653.88	81.100
654.21	78.109
654.54	77.759
654.86	79.796
655.19	81.433
655.52	90.248
655.84	91.747
656.17	99.949
656.49	100.000
656.82	100.000
657.15	100.000
657.47	100.000
657.80	98.867
658.13	54.045
658.45	83.191
658.78	80.794
659.10	78.732
659.43	77.324
659.75	77.356
660.08	76.000
660.41	76.302
660.73	78.867
661.06	80.243
661.38	77.495
661.71	74.743
662.03	78.755
662.36	77.802
662.68	79.646
663.01	79.258
663.33	78.654
663.66	79.070
663.98	77.907
664.31	77.399
664.63	79.263
664.96	75.652
665.28	76.821
665.61	76.840
665.93	80.000
666.26	81.345
666.58	79.642
666.91	80.235
667.23	76.651
667.56	77.962
667.88	77.458
668.21	76.611
668.53	78.487
668.86	76.887
669.18	75.943
669.50	76.029
669.83	72.093
670.15	76.224
670.48	78.230
670.80	76.728
671.13	70.694
671.45	77.397
671.77	79.828
672.10	76.238
672.42	79.775
672.75	78.863
673.07	81.574
673.39	77.431
673.72	75.345
674.04	78.125
674.37	80.932
674.69	76.445
675.01	78.889
675.34	75.450
675.66	78.472
675.98	74.723
676.31	76.376
676.63	79.572
676.95	75.682
677.28	76.471
677.60	79.277
677.92	81.422
678.25	77.899
678.57	80.519
678.89	82.143
679.22	80.089
679.54	75.100
679.86	77.137
680.18	78.835
680.51	81.439
680.83	75.547
681.15	79.800
681.48	79.303
681.80	78.926
682.12	78.831
682.44	76.151
682.77	80.795
683.09	76.659
683.41	75.455
683.73	74.194
684.06	77.434
684.38	80.430
684.70	82.135
685.02	77.593
685.34	77.075
685.67	80.300
685.99	79.928
686.31	77.345
686.63	78.479
686.96	76.426
687.28	80.404
687.60	77.947
687.92	80.808
688.24	78.024
688.56	80.786
688.89	75.446
689.21	78.222
689.53	78.886
689.85	77.674
690.17	77.009
690.49	79.196
690.82	79.369
691.14	77.619
691.46	78.037
691.78	80.631
692.10	78.280
692.42	74.459
692.74	74.573
693.06	77.477
693.39	76.244
693.71	76.697
694.03	77.598
694.35	78.271
694.67	77.525
694.99	75.196
695.31	81.462
695.63	77.000
695.95	76.010
696.27	74.093
696.59	73.611
696.91	70.868
697.23	74.036
697.56	78.713
697.88	79.355
698.20	78.360
698.52	78.118
698.84	77.033
699.16	77.250
699.48	77.694
699.80	73.449
700.12	76.550
700.44	78.151
700.76	73.837
701.08	76.364
701.40	76.506
701.72	79.630
702.04	80.198
702.36	84.281
702.68	72.072
703.00	80.606
703.32	77.713
703.64	72.034
703.96	74.203
704.28	73.313
704.60	75.873
704.91	70.978
705.23	72.757
705.55	80.212
705.87	76.173
706.19	73.704
706.51	73.540
706.83	77.492
707.15	76.947
707.47	80.392
707.79	75.781
708.11	75.750
708.43	75.500
708.74	73.902
709.06	77.183
709.38	82.569
709.70	73.077
710.02	76.752
710.34	70.588
710.66	72.756
710.98	75.497
711.29	78.689
711.61	76.271
711.93	74.919
712.25	79.725
712.57	75.092
712.89	76.493
713.20	68.858
713.52	74.913
713.84	72.696
714.16	77.663
714.48	74.839
714.80	78.526
715.11	78.116
715.43	74.608
715.75	79.000
716.07	74.086
716.39	74.161
716.70	74.170
717.02	73.282
717.34	71.660
717.66	74.779
717.97	70.000
718.29	76.987
718.61	72.441
718.93	76.744
719.24	73.384
719.56	75.100
719.88	69.416
720.20	77.273
720.51	65.517
720.83	71.815
721.15	78.992
721.46	69.355
721.78	75.494
722.10	71.004
722.42	71.784
722.73	79.184
723.05	79.184
723.37	74.153
723.68	76.577
724.00	70.085
724.32	76.444
724.63	70.455
724.95	72.052
725.27	81.106
725.58	75.424
725.90	68.651
726.22	77.220
726.53	75.254
726.85	76.404
727.16	79.623
727.48	70.850
727.80	71.255
728.11	78.814
728.43	75.686
728.74	70.968
729.06	74.800
729.38	72.932
729.69	77.689
730.01	71.923
730.32	72.388
730.64	73.145
730.96	79.623
731.27	80.000
731.59	77.288
731.90	75.796
732.22	75.394
732.53	80.731
732.85	77.660
733.16	74.747
733.48	70.504
733.80	78.623
734.11	71.525
734.43	80.756
734.74	78.788
735.06	80.130
735.37	78.852
735.69	81.481
736.00	76.307
736.32	71.812
736.63	74.296
736.95	71.672
737.26	76.868
737.58	75.168
737.89	77.656
738.21	73.308
738.52	81.481
738.83	78.603
739.15	75.546
739.46	74.016
739.78	75.824
740.09	70.915
740.41	78.261
740.72	70.472
741.04	77.328
741.35	70.638
741.66	75.829
741.98	73.469
742.29	66.832
742.61	76.440
742.92	67.773
743.23	65.741
743.55	72.398
743.86	70.813
744.18	65.550
744.49	70.213
744.80	79.348
745.12	78.610
745.43	63.902
745.74	81.250
746.06	70.244
746.37	76.440
746.68	68.246
747.00	68.617
747.31	76.617
747.62	69.417
747.94	77.033
748.25	72.277
748.56	75.956
748.88	80.628
749.19	77.660
749.50	67.488
749.82	73.113
750.13	78.899
750.44	72.932
750.75	72.388
751.07	75.547
751.38	76.628
751.69	75.294
752.01	74.806
752.32	78.884
752.63	73.518
752.94	70.690
753.26	79.916
753.57	72.398
753.88	74.336
754.19	72.500
754.51	78.099
754.82	76.923
755.13	75.000
755.44	66.935
755.75	75.781
756.07	72.374
756.38	72.453
756.69	78.544
757.00	69.667
757.31	72.876
757.63	72.561
757.94	69.722
758.25	69.863
758.56	69.947
758.87	70.822
759.18	72.586
759.50	75.636
759.81	74.247
760.12	72.258
760.43	75.758
760.74	75.926
761.05	77.538
761.36	73.864
761.67	76.061
761.99	73.129
762.30	69.818
762.61	67.984
762.92	69.231
763.23	74.775
763.54	72.897
763.85	75.424
764.16	72.199
764.47	75.000
764.78	68.132
765.10	70.707
765.41	74.448
765.72	74.286
766.03	74.812
766.34	72.628
766.65	66.932
766.96	76.768
767.27	65.426
767.58	60.345
767.89	70.213
768.20	65.341
768.51	71.429
768.82	76.847
769.13	70.046
769.44	66.524
769.75	73.059
770.06	62.069
770.37	66.827
770.68	68.528
770.99	69.231
771.30	77.941
771.61	70.588
771.92	74.569
772.23	73.399
772.54	74.731
772.85	70.370
773.16	66.292
773.47	79.739
773.78	80.392
774.09	65.269
774.39	77.333
774.70	65.605
775.01	63.448
775.32	73.571
775.63	68.595
775.94	67.176
776.25	66.142
776.56	58.333
776.87	76.923
777.18	61.538
777.48	65.517
777.79	70.435
778.10	68.571
778.41	68.468
778.72	68.254
779.03	72.932
779.34	69.504
779.65	68.493
779.95	66.438
780.26	73.793
780.57	64.228
780.88	70.866
781.19	66.379
781.50	84.496
781.80	60.947
782.11	67.925
782.42	73.077
782.73	66.187
783.04	62.222
783.34	66.667
783.65	69.231
783.96	73.770
784.27	68.276
784.57	67.480
784.88	63.281
785.19	75.000
785.50	72.000
785.81	76.724
786.11	73.276
786.42	70.874
786.73	68.182
787.04	63.265
787.34	63.393
787.65	63.810
787.96	61.947
788.26	77.273
788.57	73.504
788.88	69.531
789.19	70.635
789.49	68.696
789.80	65.306
790.11	60.606
790.41	59.091
790.72	68.478
791.03	69.318
791.33	72.500
791.64	60.000
791.95	66.279
792.25	55.319
792.56	58.427
792.87	54.795
793.17	65.217
793.48	58.667
793.79	58.750
794.09	86.250
794.40	54.717
794.70	65.049
795.01	56.911
795.32	67.521
795.62	64.762
795.93	79.412
796.23	58.491
796.54	55.208
796.85	85.294
797.15	74.648
797.46	72.222
797.76	87.879
798.07	55.814
798.37	53.947
798.68	46.970
798.99	44.444
799.29	58.571
799.60	69.565
799.90	62.667
800.21	70.492
800.51	56.923
800.82	54.237
801.12	43.478
801.43	83.607
801.73	58.730
802.04	78.000
802.34	68.657
802.65	63.462
802.95	46.429
803.26	48.077
803.56	68.627
803.87	32.609
804.17	41.333
804.48	71.429
804.78	46.296
805.09	65.217
805.39	60.000
805.70	74.074
806.00	47.368
806.30	70.423
806.61	60.000
806.91	61.111
807.22	67.105
807.52	72.000
807.83	50.909
808.13	59.722
808.43	50.000
808.74	46.269
809.04	44.068
809.35	59.615
809.65	65.625
809.95	62.162
810.26	40.909
810.56	50.685
810.86	42.857
811.17	48.000
811.47	73.469
811.77	36.842
812.08	59.091
812.38	43.396
812.69	65.000
812.99	51.515
813.29	44.737
813.59	31.429
813.90	68.182
814.20	58.974
814.50	50.000
814.81	54.717
815.11	42.553
815.41	67.797
815.72	61.905
816.02	31.373
816.32	22.917
816.62	65.854
816.93	67.568
817.23	68.571
817.53	89.583
817.84	39.130
818.14	21.154
818.44	34.211
818.74	67.391
819.04	17.500
819.35	51.351
819.65	26.471
819.95	44.444
820.25	23.810
820.56	70.000
820.86	55.172
821.16	80.000
821.46	44.681
821.76	72.500
822.07	48.837
822.37	40.541
822.67	34.375
822.97	76.190
823.27	53.571
823.57	64.000
823.88	44.444
824.18	67.857
824.48	41.176
824.78	74.194
825.08	82.609
825.38	48.485
825.69	-4.167
825.99	57.895
826.29	36.111
826.59	120.000
826.89	66.667
827.19	36.957
827.49	55.000
827.79	74.286
828.09	32.143
828.39	75.758
828.70	75.676
829.00	14.286
829.30	33.333
829.60	36.667
829.90	65.625
830.20	26.316
830.50	70.370
830.80	56.522
831.10	54.545
831.40	81.818
831.70	64.516
832.00	61.905
832.30	47.619
832.60	75.000
832.90	10.345
833.20	25.000
833.50	33.333
833.80	29.630
834.10	46.154
834.40	59.375
834.70	44.444
835.00	26.316
835.30	107.692
835.60	93.333
835.90	29.032
836.20	63.636
836.50	53.571
836.80	42.308
837.10	17.857
837.40	33.333
837.70	63.636
838.00	27.273
838.30	13.043
838.60	-23.077
838.90	9.091
839.19	21.429
839.49	43.333
839.79	92.308
840.09	25.000
840.39	107.143
840.69	25.000
840.99	26.923
841.29	-36.842
841.59	30.000
841.88	100.000
842.18	-10.000
842.48	-25.000
842.78	60.000
843.08	11.111
843.38	-60.000
843.68	26.087
843.97	53.333
844.27	0.000
844.57	-30.000
844.87	83.333
845.17	-14.286
845.47	-20.000
845.76	-14.286
846.06	17.647
846.36	10.000
846.66	21.429
846.96	0.000
847.25	-75.000
847.55	0.000
847.85	12.500
848.15	22.727
848.44	-433.333
848.74	50.000
849.04	81.481
849.34	18.182
849.63	-133.333
849.93	-40.000
850.23	27.778
850.53	140.000
850.82	30.769
851.12	-44.444
851.42	33.333
851.71	7.692
852.01	14.286
852.31	-50.000
852.61	-36.364
852.90	-5.000
853.20	63.158
853.50	50.000
853.79	21.739
854.09	37.500
854.39	-5.263
854.68	58.333
854.98	45.161
855.28	84.615
855.57	95.000
855.87	72.222
856.17	70.370
856.46	92.857
856.76	86.667
857.05	22.222
857.35	32.000
857.65	77.778
857.94	-15.385
858.24	68.966
858.53	72.222
858.83	59.259
859.13	9.091
859.42	-8.696
859.72	-200.000
860.01	-33.333
860.31	40.000
860.60	0.000
860.90	-533.333
861.20	33.333
861.49	-750.000
861.79	-40.000
862.08	10.000
862.38	46.667
862.67	-160.000
862.97	-66.667
863.26	58.333
863.56	16.667
863.85	-233.333
864.15	44.444
864.44	-40.000
864.74	85.714
865.03	175.000
865.33	-180.000
865.62	0.000
865.92	66.667
866.21	-50.000
866.51	50.000
866.80	18.182
867.10	-50.000
867.39	116.667
867.69	0.000
867.98	46.154
868.27	-166.667
868.57	0.000
868.86	94.444
869.16	-69.231
869.45	26.667
869.75	-400.000
870.04	0.000
870.33	-42.857
870.63	66.667
870.92	200.000
871.22	-20.000
871.51	200.000
871.80	100.000
872.10	366.667
>>>>>End Processed Spectral Data<<<<<
