SpectraSuite Data File
++++++++++++++++++++++++++++++++++++
Date: Fri May 15 17:28:30 PDT 2015
User: schluterlab
Dark Spectrum Present: Yes
Reference Spectrum Present: Yes
Number of Sampled Component Spectra: 1
Spectrometers: USB2E3373
Integration Time (usec): 3000 (USB2E3373)
Spectra Averaged: 3 (USB2E3373)
Boxcar Smoothing: 0 (USB2E3373)
Correct for Electrical Dark: No (USB2E3373)
Strobe/Lamp Enabled: No (USB2E3373)
Correct for Detector Non-linearity: No (USB2E3373)
Correct for Stray Light: No (USB2E3373)
Number of Pixels in Processed Spectrum: 2048
>>>>>Begin Processed Spectral Data<<<<<
178.53	0.000
178.91	0.000
179.29	50.000
179.67	-350.000
180.04	-71.429
180.42	150.000
180.80	100.000
181.18	-133.333
181.56	250.000
181.94	100.000
182.31	300.000
182.69	320.000
183.07	-400.000
183.45	80.000
183.83	-100.000
184.20	9.091
184.58	100.000
184.96	-25.000
185.34	-66.667
185.72	-400.000
186.09	84.615
186.47	-300.000
186.85	166.667
187.23	22.222
187.61	-0.000
187.98	-300.000
188.36	88.889
188.74	33.333
189.12	-5.882
189.49	50.000
189.87	0.000
190.25	92.857
190.63	0.000
191.00	-33.333
191.38	36.842
191.76	-50.000
192.14	-150.000
192.51	-200.000
192.89	-11.111
193.27	-42.857
193.65	83.333
194.02	81.818
194.40	70.000
194.78	-62.500
195.15	-50.000
195.53	87.500
195.91	225.000
196.29	150.000
196.66	92.308
197.04	71.429
197.42	-77.778
197.79	-200.000
198.17	-100.000
198.55	1600.000
198.92	-33.333
199.30	-500.000
199.68	160.000
200.05	-66.667
200.43	0.000
200.81	166.667
201.18	133.333
201.56	1000.000
201.94	200.000
202.31	-300.000
202.69	160.000
203.07	-100.000
203.44	-500.000
203.82	0.000
204.19	14.286
204.57	-233.333
204.95	-0.000
205.32	10.000
205.70	28.571
206.08	150.000
206.45	311.111
206.83	35.714
207.20	-42.857
207.58	-200.000
207.96	133.333
208.33	-80.000
208.71	-25.000
209.08	-133.333
209.46	1000.000
209.84	-60.000
210.21	200.000
210.59	128.571
210.96	116.667
211.34	50.000
211.71	86.667
212.09	-128.571
212.46	400.000
212.84	0.000
213.22	20.000
213.59	300.000
213.97	107.692
214.34	45.455
214.72	150.000
215.09	-0.000
215.47	30.769
215.84	-54.545
216.22	-33.333
216.59	50.000
216.97	500.000
217.34	50.000
217.72	-20.000
218.09	25.000
218.47	62.500
218.84	-200.000
219.22	-55.556
219.59	-60.000
219.97	-133.333
220.34	175.000
220.72	-85.714
221.09	50.000
221.47	100.000
221.84	-400.000
222.22	-450.000
222.59	63.636
222.97	58.333
223.34	-100.000
223.72	28.571
224.09	0.000
224.46	50.000
224.84	366.667
225.21	-40.000
225.59	100.000
225.96	-150.000
226.34	200.000
226.71	-71.429
227.08	50.000
227.46	87.500
227.83	0.000
228.21	22.222
228.58	163.636
228.95	100.000
229.33	30.000
229.70	81.250
230.08	-62.500
230.45	14.286
230.82	-42.857
231.20	20.000
231.57	92.857
231.95	57.143
232.32	-110.000
232.69	14.286
233.07	-33.333
233.44	200.000
233.81	20.000
234.19	155.556
234.56	29.412
234.93	350.000
235.31	225.000
235.68	-160.000
236.05	0.000
236.43	0.000
236.80	64.706
237.17	46.875
237.55	15.000
237.92	7.407
238.29	47.222
238.67	6.667
239.04	38.235
239.41	-2.439
239.79	10.000
240.16	65.854
240.53	34.211
240.91	21.739
241.28	22.222
241.65	30.357
242.02	36.986
242.40	30.000
242.77	30.508
243.14	34.848
243.51	35.000
243.89	49.425
244.26	20.690
244.63	19.048
245.00	25.773
245.38	36.082
245.75	24.719
246.12	32.759
246.49	29.752
246.87	37.500
247.24	27.731
247.61	29.825
247.98	22.764
248.36	31.250
248.73	33.553
249.10	22.078
249.47	36.709
249.84	30.065
250.22	26.471
250.59	35.294
250.96	34.742
251.33	25.581
251.70	26.471
252.08	28.934
252.45	24.752
252.82	30.151
253.19	28.111
253.56	26.168
253.94	29.730
254.31	29.565
254.68	31.579
255.05	27.953
255.42	31.004
255.79	32.432
256.16	30.739
256.54	29.478
256.91	27.376
257.28	30.112
257.65	25.843
258.02	28.723
258.39	32.323
258.76	32.967
259.14	30.897
259.51	28.155
259.88	29.210
260.25	23.529
260.62	29.514
260.99	26.441
261.36	24.658
261.73	28.165
262.10	29.483
262.47	30.368
262.85	29.154
263.22	27.385
263.59	27.103
263.96	29.814
264.33	32.424
264.70	29.167
265.07	30.952
265.44	26.912
265.81	27.684
266.18	28.962
266.55	29.049
266.92	27.720
267.29	28.982
267.66	28.645
268.03	28.796
268.40	28.982
268.77	28.610
269.14	27.818
269.51	28.535
269.88	25.187
270.25	26.276
270.62	24.878
270.99	27.110
271.36	25.428
271.73	30.516
272.10	28.467
272.47	29.551
272.84	29.208
273.21	28.770
273.58	26.506
273.95	29.062
274.32	29.330
274.69	24.887
275.06	28.795
275.43	24.490
275.80	29.139
276.17	24.828
276.54	28.694
276.91	28.509
277.28	25.983
277.65	26.033
278.02	26.170
278.39	27.133
278.76	25.577
279.13	24.689
279.50	28.782
279.87	25.486
280.23	24.946
280.60	28.850
280.97	27.879
281.34	24.423
281.71	29.774
282.08	25.767
282.45	23.679
282.82	24.324
283.19	25.338
283.56	26.782
283.92	24.288
284.29	28.462
284.66	24.031
285.03	23.969
285.40	25.520
285.77	23.023
286.14	24.729
286.51	27.122
286.87	25.594
287.24	27.624
287.61	22.046
287.98	27.018
288.35	24.090
288.72	25.044
289.08	23.611
289.45	26.362
289.82	23.427
290.19	24.403
290.56	21.612
290.93	22.559
291.29	21.880
291.66	22.362
292.03	23.604
292.40	23.226
292.77	22.010
293.13	20.617
293.50	20.334
293.87	22.290
294.24	21.947
294.60	20.119
294.97	22.768
295.34	22.546
295.71	23.398
296.08	20.478
296.44	18.777
296.81	21.528
297.18	19.855
297.55	21.816
297.91	20.274
298.28	21.240
298.65	20.217
299.02	19.946
299.38	19.425
299.75	19.172
300.12	19.764
300.48	19.763
300.85	19.265
301.22	19.351
301.59	19.474
301.95	20.127
302.32	21.790
302.69	20.149
303.05	19.059
303.42	20.548
303.79	19.743
304.15	20.072
304.52	19.738
304.89	18.480
305.25	19.976
305.62	19.137
305.99	18.363
306.35	21.040
306.72	18.785
307.09	20.981
307.45	20.321
307.82	20.139
308.19	20.557
308.55	19.193
308.92	21.242
309.29	20.000
309.65	19.591
310.02	19.912
310.38	20.856
310.75	21.202
311.12	20.883
311.48	20.361
311.85	21.571
312.22	22.046
312.58	20.488
312.95	21.558
313.31	19.876
313.68	21.466
314.05	21.735
314.41	22.784
314.78	22.887
315.14	23.433
315.51	22.671
315.87	23.463
316.24	25.076
316.61	25.098
316.97	23.909
317.34	24.316
317.70	23.805
318.07	25.385
318.43	26.961
318.80	25.189
319.16	27.246
319.53	27.350
319.89	28.051
320.26	27.227
320.62	28.686
320.99	28.392
321.35	28.983
321.72	29.283
322.08	29.809
322.45	29.543
322.81	28.684
323.18	29.342
323.54	30.502
323.91	31.548
324.27	32.227
324.64	32.865
325.00	34.398
325.37	35.354
325.73	34.451
326.10	35.150
326.46	36.771
326.83	37.445
327.19	38.971
327.56	39.183
327.92	40.141
328.29	40.714
328.65	41.415
329.01	42.004
329.38	42.396
329.74	41.643
330.11	43.930
330.47	44.341
330.84	43.558
331.20	46.388
331.56	43.519
331.93	45.023
332.29	45.738
332.66	45.611
333.02	46.840
333.38	44.913
333.75	45.879
334.11	45.568
334.48	46.782
334.84	46.520
335.20	47.850
335.57	47.053
335.93	47.967
336.29	48.435
336.66	48.865
337.02	48.141
337.38	47.315
337.75	47.545
338.11	47.701
338.47	47.993
338.84	49.630
339.20	49.086
339.56	48.991
339.93	48.165
340.29	48.349
340.65	47.401
341.02	48.227
341.38	47.699
341.74	48.057
342.11	47.574
342.47	48.488
342.83	48.443
343.20	49.564
343.56	47.217
343.92	48.096
344.28	48.420
344.65	49.136
345.01	48.487
345.37	46.257
345.73	49.456
346.10	48.663
346.46	47.014
346.82	48.363
347.19	46.966
347.55	49.373
347.91	48.382
348.27	49.151
348.63	49.915
349.00	49.303
349.36	49.958
349.72	48.673
350.08	47.869
350.45	47.805
350.81	47.176
351.17	49.104
351.53	49.143
351.89	48.142
352.26	50.160
352.62	49.274
352.98	47.470
353.34	49.034
353.70	49.191
354.07	48.387
354.43	47.798
354.79	49.794
355.15	50.476
355.51	50.079
355.87	50.566
356.24	49.755
356.60	49.151
356.96	50.873
357.32	50.479
357.68	49.726
358.04	50.565
358.40	50.723
358.77	50.558
359.13	51.001
359.49	48.382
359.85	50.468
360.21	51.754
360.57	50.650
360.93	50.151
361.29	50.302
361.66	51.724
362.02	52.045
362.38	52.323
362.74	52.536
363.10	53.800
363.46	52.928
363.82	52.968
364.18	52.620
364.54	51.838
364.90	52.688
365.26	51.674
365.62	53.577
365.98	53.812
366.35	55.208
366.71	53.215
367.07	52.758
367.43	54.062
367.79	53.569
368.15	55.061
368.51	55.135
368.87	54.487
369.23	54.946
369.59	54.519
369.95	55.059
370.31	55.636
370.67	57.537
371.03	54.966
371.39	55.288
371.75	56.337
372.11	54.922
372.47	56.879
372.83	56.281
373.19	56.134
373.55	54.513
373.91	56.947
374.27	56.839
374.63	57.502
374.99	57.376
375.35	58.496
375.71	59.510
376.07	58.848
376.42	58.844
376.78	58.658
377.14	57.211
377.50	58.765
377.86	59.705
378.22	59.923
378.58	61.282
378.94	58.727
379.30	59.139
379.66	60.940
380.02	60.086
380.38	61.290
380.74	61.221
381.09	62.945
381.45	60.979
381.81	61.444
382.17	60.470
382.53	61.337
382.89	62.461
383.25	62.974
383.61	63.415
383.97	63.873
384.32	62.727
384.68	62.972
385.04	63.664
385.40	62.974
385.76	64.906
386.12	65.265
386.48	65.326
386.83	64.997
387.19	64.469
387.55	66.750
387.91	65.954
388.27	64.774
388.62	66.268
388.98	65.439
389.34	64.210
389.70	66.128
390.06	64.695
390.42	66.062
390.77	65.795
391.13	66.078
391.49	67.335
391.85	66.407
392.20	66.102
392.56	66.624
392.92	66.471
393.28	68.042
393.64	66.847
393.99	69.342
394.35	67.995
394.71	68.072
395.07	66.059
395.42	67.213
395.78	69.186
396.14	67.465
396.50	68.738
396.85	68.191
397.21	68.546
397.57	68.903
397.92	67.705
398.28	68.851
398.64	67.229
399.00	68.792
399.35	68.059
399.71	67.318
400.07	69.105
400.42	67.993
400.78	69.198
401.14	68.603
401.49	68.970
401.85	68.190
402.21	67.349
402.57	69.375
402.92	68.570
403.28	69.486
403.63	69.546
403.99	69.834
404.35	69.706
404.70	68.452
405.06	67.509
405.42	68.863
405.77	68.507
406.13	68.801
406.49	68.561
406.84	69.743
407.20	69.777
407.55	67.804
407.91	68.650
408.27	68.515
408.62	69.477
408.98	68.885
409.34	69.455
409.69	69.574
410.05	68.473
410.40	68.272
410.76	68.697
411.11	68.312
411.47	69.757
411.83	68.550
412.18	70.270
412.54	67.853
412.89	68.042
413.25	68.893
413.60	69.068
413.96	68.098
414.31	68.902
414.67	68.441
415.03	69.041
415.38	68.603
415.74	68.078
416.09	70.346
416.45	69.953
416.80	68.605
417.16	69.890
417.51	70.220
417.87	68.970
418.22	70.207
418.58	70.301
418.93	70.784
419.29	67.606
419.64	71.095
420.00	71.537
420.35	69.373
420.71	71.689
421.06	71.332
421.42	71.575
421.77	71.850
422.12	72.020
422.48	71.305
422.83	72.274
423.19	69.865
423.54	70.958
423.90	71.555
424.25	71.871
424.61	74.296
424.96	72.997
425.31	72.328
425.67	73.709
426.02	72.674
426.38	74.890
426.73	73.184
427.09	74.494
427.44	73.941
427.79	72.893
428.15	72.209
428.50	74.621
428.85	73.526
429.21	73.345
429.56	74.717
429.92	73.806
430.27	73.784
430.62	74.543
430.98	75.743
431.33	75.184
431.68	73.626
432.04	73.728
432.39	72.961
432.74	74.083
433.10	74.310
433.45	75.508
433.80	75.972
434.16	76.454
434.51	76.129
434.86	75.900
435.22	75.939
435.57	76.419
435.92	74.731
436.28	74.776
436.63	76.212
436.98	74.971
437.34	77.011
437.69	76.506
438.04	74.758
438.39	75.687
438.75	77.413
439.10	76.684
439.45	78.332
439.81	75.657
440.16	77.850
440.51	77.194
440.86	77.039
441.22	77.262
441.57	77.925
441.92	78.909
442.27	79.656
442.63	78.319
442.98	77.542
443.33	77.295
443.68	76.976
444.03	77.894
444.39	75.553
444.74	78.595
445.09	78.898
445.44	78.689
445.79	78.546
446.15	77.753
446.50	76.816
446.85	77.418
447.20	77.112
447.55	76.507
447.91	77.045
448.26	78.884
448.61	77.432
448.96	78.887
449.31	77.572
449.66	77.062
450.02	77.125
450.37	78.660
450.72	76.002
451.07	77.278
451.42	75.531
451.77	76.793
452.12	76.376
452.47	77.270
452.83	76.325
453.18	76.407
453.53	76.612
453.88	78.021
454.23	76.030
454.58	77.015
454.93	76.869
455.28	75.873
455.63	77.743
455.98	78.292
456.34	77.905
456.69	76.938
457.04	78.135
457.39	77.764
457.74	77.328
458.09	76.045
458.44	77.589
458.79	77.143
459.14	76.888
459.49	77.970
459.84	77.157
460.19	76.274
460.54	77.323
460.89	76.875
461.24	77.578
461.59	76.010
461.94	75.472
462.29	76.116
462.64	76.279
462.99	74.340
463.34	76.495
463.69	75.483
464.04	75.363
464.39	75.500
464.74	76.442
465.09	76.669
465.44	77.726
465.79	74.717
466.14	77.594
466.49	75.561
466.84	75.669
467.19	77.222
467.54	74.266
467.89	75.553
468.24	75.000
468.59	74.413
468.94	73.587
469.29	74.426
469.64	73.342
469.99	74.912
470.34	73.379
470.68	74.422
471.03	73.885
471.38	72.611
471.73	73.880
472.08	73.609
472.43	74.564
472.78	73.269
473.13	74.490
473.48	73.941
473.83	73.163
474.17	74.093
474.52	73.325
474.87	74.121
475.22	73.581
475.57	73.461
475.92	74.877
476.27	74.272
476.61	73.669
476.96	73.173
477.31	72.688
477.66	72.191
478.01	73.442
478.36	72.603
478.70	75.041
479.05	73.516
479.40	73.291
479.75	73.358
480.10	74.603
480.45	73.500
480.79	74.572
481.14	75.820
481.49	73.547
481.84	74.324
482.19	72.544
482.53	74.293
482.88	71.695
483.23	73.273
483.58	72.028
483.92	72.604
484.27	71.194
484.62	72.299
484.97	72.761
485.31	73.555
485.66	77.808
486.01	82.047
486.36	80.821
486.70	79.387
487.05	77.105
487.40	75.982
487.75	74.000
488.09	71.384
488.44	70.873
488.79	69.817
489.13	70.954
489.48	70.286
489.83	70.090
490.17	69.798
490.52	70.162
490.87	69.320
491.22	71.394
491.56	69.165
491.91	69.168
492.26	70.783
492.60	69.338
492.95	71.028
493.30	69.565
493.64	70.776
493.99	69.324
494.34	69.078
494.68	70.476
495.03	69.489
495.37	69.284
495.72	69.864
496.07	70.000
496.41	69.198
496.76	69.691
497.11	68.421
497.45	69.069
497.80	70.131
498.14	67.462
498.49	68.563
498.84	68.014
499.18	69.327
499.53	69.742
499.87	68.531
500.22	68.744
500.56	70.146
500.91	68.524
501.26	67.721
501.60	68.618
501.95	70.112
502.29	69.395
502.64	68.967
502.98	69.956
503.33	67.963
503.67	67.807
504.02	68.719
504.36	69.570
504.71	66.616
505.06	67.388
505.40	69.137
505.75	70.052
506.09	66.599
506.44	68.789
506.78	68.980
507.13	67.373
507.47	65.274
507.82	67.361
508.16	66.561
508.51	67.996
508.85	67.347
509.19	66.897
509.54	67.078
509.88	66.235
510.23	68.155
510.57	65.954
510.92	64.339
511.26	66.012
511.61	67.052
511.95	66.740
512.30	65.576
512.64	66.221
512.98	65.974
513.33	65.305
513.67	65.719
514.02	66.304
514.36	66.286
514.70	66.492
515.05	65.981
515.39	64.640
515.74	65.928
516.08	64.555
516.42	65.607
516.77	64.775
517.11	65.757
517.46	65.290
517.80	64.422
518.14	63.931
518.49	63.341
518.83	63.913
519.17	64.585
519.52	63.410
519.86	63.866
520.20	63.123
520.55	63.039
520.89	62.547
521.23	63.141
521.58	63.091
521.92	63.846
522.26	63.175
522.61	63.182
522.95	64.371
523.29	63.151
523.64	63.532
523.98	64.485
524.32	63.080
524.66	63.892
525.01	62.922
525.35	62.216
525.69	62.155
526.04	61.243
526.38	62.451
526.72	61.936
527.06	61.479
527.41	62.401
527.75	62.601
528.09	61.860
528.43	62.863
528.78	63.234
529.12	62.000
529.46	62.768
529.80	61.748
530.15	63.168
530.49	62.088
530.83	62.585
531.17	61.585
531.51	62.791
531.86	61.183
532.20	62.143
532.54	60.449
532.88	62.628
533.22	62.500
533.57	61.992
533.91	62.859
534.25	63.021
534.59	62.027
534.93	62.052
535.27	62.056
535.62	63.966
535.96	62.753
536.30	62.203
536.64	62.646
536.98	61.951
537.32	62.660
537.66	62.412
538.01	62.448
538.35	62.205
538.69	61.119
539.03	61.791
539.37	63.190
539.71	61.827
540.05	61.711
540.39	61.842
540.73	61.785
541.07	62.224
541.42	63.978
541.76	62.767
542.10	62.285
542.44	61.987
542.78	61.115
543.12	62.088
543.46	61.405
543.80	63.012
544.14	60.547
544.48	62.225
544.82	64.183
545.16	62.568
545.50	61.348
545.84	62.890
546.18	62.553
546.52	59.841
546.86	60.891
547.20	61.731
547.54	61.201
547.88	62.840
548.22	62.393
548.56	61.807
548.90	64.218
549.24	61.019
549.58	61.142
549.92	59.971
550.26	60.659
550.60	62.082
550.94	60.269
551.28	60.278
551.62	60.615
551.96	60.677
552.30	62.135
552.64	61.072
552.98	62.307
553.32	60.342
553.66	61.176
554.00	63.066
554.34	61.226
554.68	60.251
555.02	59.896
555.36	61.182
555.69	60.293
556.03	61.313
556.37	61.210
556.71	61.300
557.05	60.701
557.39	60.372
557.73	61.019
558.07	60.558
558.41	60.949
558.75	61.263
559.08	60.126
559.42	59.048
559.76	58.847
560.10	61.009
560.44	61.430
560.78	60.979
561.12	61.636
561.45	64.441
561.79	62.605
562.13	61.675
562.47	60.935
562.81	61.744
563.15	60.367
563.48	61.810
563.82	61.977
564.16	63.579
564.50	62.027
564.84	62.249
565.17	60.899
565.51	63.525
565.85	63.786
566.19	63.395
566.52	63.740
566.86	63.689
567.20	63.387
567.54	65.754
567.88	65.788
568.21	67.081
568.55	67.283
568.89	67.197
569.23	68.609
569.56	69.396
569.90	71.052
570.24	70.525
570.57	71.491
570.91	71.907
571.25	71.687
571.59	70.694
571.92	70.548
572.26	70.048
572.60	69.736
572.93	69.407
573.27	70.313
573.61	71.331
573.95	71.491
574.28	71.081
574.62	70.837
574.96	71.154
575.29	70.798
575.63	69.707
575.97	69.152
576.30	69.244
576.64	70.040
576.98	71.866
577.31	72.696
577.65	73.073
577.98	73.035
578.32	73.055
578.66	70.750
578.99	70.051
579.33	69.023
579.67	68.862
580.00	70.734
580.34	70.124
580.67	69.931
581.01	70.653
581.35	72.717
581.68	73.489
582.02	73.775
582.35	73.649
582.69	72.049
583.02	72.250
583.36	71.138
583.70	70.223
584.03	70.503
584.37	70.271
584.70	69.753
585.04	69.845
585.37	71.622
585.71	72.920
586.04	71.483
586.38	71.406
586.72	70.904
587.05	72.704
587.39	72.407
587.72	73.592
588.06	72.544
588.39	70.778
588.73	70.116
589.06	71.265
589.40	68.510
589.73	69.843
590.07	70.431
590.40	69.814
590.73	69.275
591.07	68.193
591.40	68.522
591.74	68.009
592.07	68.785
592.41	69.125
592.74	70.410
593.08	71.184
593.41	72.488
593.75	71.050
594.08	69.344
594.41	69.541
594.75	70.420
595.08	70.034
595.42	71.255
595.75	70.560
596.09	69.703
596.42	67.259
596.75	67.851
597.09	67.699
597.42	67.841
597.75	69.675
598.09	68.221
598.42	68.186
598.76	70.356
599.09	69.872
599.42	70.254
599.76	70.090
600.09	69.910
600.42	69.522
600.76	69.539
601.09	69.733
601.42	68.508
601.76	69.234
602.09	69.183
602.42	69.587
602.76	68.421
603.09	69.352
603.42	71.028
603.76	69.556
604.09	69.097
604.42	70.220
604.76	69.515
605.09	69.196
605.42	68.758
605.75	69.308
606.09	70.106
606.42	69.058
606.75	68.831
607.09	66.989
607.42	68.675
607.75	68.295
608.08	67.430
608.42	66.103
608.75	68.530
609.08	67.813
609.41	67.614
609.75	66.734
610.08	68.447
610.41	67.729
610.74	67.089
611.07	68.837
611.41	68.552
611.74	68.177
612.07	67.559
612.40	66.028
612.73	67.966
613.07	65.861
613.40	65.810
613.73	66.928
614.06	66.945
614.39	67.456
614.72	65.042
615.06	67.486
615.39	67.085
615.72	66.846
616.05	66.313
616.38	64.444
616.71	65.260
617.05	65.843
617.38	67.002
617.71	66.478
618.04	66.921
618.37	67.654
618.70	66.007
619.03	65.208
619.36	63.531
619.69	64.367
620.03	66.399
620.36	65.021
620.69	63.812
621.02	63.609
621.35	61.992
621.68	60.799
622.01	63.667
622.34	63.767
622.67	63.565
623.00	63.323
623.33	62.957
623.66	64.248
623.99	62.330
624.32	64.791
624.65	63.534
624.99	65.312
625.32	62.244
625.65	63.158
625.98	66.076
626.31	61.347
626.64	62.825
626.97	61.257
627.30	61.734
627.63	61.612
627.96	61.995
628.29	61.980
628.62	59.292
628.95	58.517
629.28	61.089
629.61	60.120
629.94	60.802
630.26	57.411
630.59	60.250
630.92	60.615
631.25	58.359
631.58	59.141
631.91	59.430
632.24	58.486
632.57	59.773
632.90	57.058
633.23	57.059
633.56	58.312
633.89	56.350
634.22	59.012
634.55	58.831
634.88	57.216
635.20	55.769
635.53	60.000
635.86	56.697
636.19	59.120
636.52	60.842
636.85	56.824
637.18	56.981
637.51	57.610
637.83	54.928
638.16	57.708
638.49	52.589
638.82	56.184
639.15	56.174
639.48	56.809
639.81	56.206
640.13	55.556
640.46	56.560
640.79	54.197
641.12	54.948
641.45	53.604
641.77	53.778
642.10	57.662
642.43	54.502
642.76	55.776
643.09	52.019
643.41	53.398
643.74	53.213
644.07	54.023
644.40	53.716
644.73	55.342
645.05	51.007
645.38	54.145
645.71	54.255
646.04	56.194
646.36	52.128
646.69	53.237
647.02	52.174
647.35	52.612
647.67	51.920
648.00	55.224
648.33	51.706
648.66	56.610
648.98	53.434
649.31	59.669
649.64	54.788
649.96	54.295
650.29	58.773
650.62	55.556
650.94	53.519
651.27	55.493
651.60	51.892
651.92	53.147
652.25	53.464
652.58	57.000
652.90	58.662
653.23	55.630
653.56	54.484
653.88	54.124
654.21	55.166
654.54	54.329
654.86	54.160
655.19	58.187
655.52	73.375
655.84	84.527
656.17	94.601
656.49	100.000
656.82	100.000
657.15	100.000
657.47	100.000
657.80	49.642
658.13	46.103
658.45	67.635
658.78	64.190
659.10	60.269
659.43	59.060
659.75	58.362
660.08	56.483
660.41	55.975
660.73	54.558
661.06	53.899
661.38	51.663
661.71	47.228
662.03	52.575
662.36	49.670
662.68	50.442
663.01	52.183
663.33	51.276
663.66	50.000
663.98	51.163
664.31	50.959
664.63	52.765
664.96	49.130
665.28	54.084
665.61	57.143
665.93	55.217
666.26	51.627
666.58	50.112
666.91	52.471
667.23	50.708
667.56	50.000
667.88	50.360
668.21	51.313
668.53	50.827
668.86	56.132
669.18	47.406
669.50	51.090
669.83	50.233
670.15	50.117
670.48	52.153
670.80	48.387
671.13	52.125
671.45	47.260
671.77	53.219
672.10	55.842
672.42	55.243
672.75	55.062
673.07	59.392
673.39	56.330
673.72	51.479
674.04	55.208
674.37	53.390
674.69	54.818
675.01	55.333
675.34	52.928
675.66	52.546
675.98	50.333
676.31	53.440
676.63	51.781
676.95	50.455
677.28	54.588
677.60	59.518
677.92	54.358
678.25	54.486
678.57	55.411
678.89	54.622
679.22	57.271
679.54	55.020
679.86	56.064
680.18	57.670
680.51	58.523
680.83	56.461
681.15	56.200
681.48	55.943
681.80	55.579
682.12	57.056
682.44	53.347
682.77	56.954
683.09	56.293
683.41	52.500
683.73	55.760
684.06	55.531
684.38	55.484
684.70	56.209
685.02	56.432
685.34	59.881
685.67	58.161
685.99	61.302
686.31	59.823
686.63	62.338
686.96	59.506
687.28	54.949
687.60	57.985
687.92	60.404
688.24	56.855
688.56	57.424
688.89	55.580
689.21	55.333
689.53	58.005
689.85	56.279
690.17	55.804
690.49	56.501
690.82	56.068
691.14	58.333
691.46	60.047
691.78	60.360
692.10	58.280
692.42	58.009
692.74	53.632
693.06	55.405
693.39	54.977
693.71	56.561
694.03	57.506
694.35	54.907
694.67	56.566
694.99	55.352
695.31	56.658
695.63	54.000
695.95	56.566
696.27	55.181
696.59	53.056
696.91	50.420
697.23	52.699
697.56	61.139
697.88	60.215
698.20	62.870
698.52	57.882
698.84	54.785
699.16	54.000
699.48	57.895
699.80	54.342
700.12	55.795
700.44	55.462
700.76	51.744
701.08	51.818
701.40	52.711
701.72	58.025
702.04	53.795
702.36	58.528
702.68	53.453
703.00	56.970
703.32	57.771
703.64	55.367
703.96	56.522
704.28	50.920
704.60	54.603
704.91	49.211
705.23	49.834
705.55	55.477
705.87	54.874
706.19	51.481
706.51	50.859
706.83	50.804
707.15	51.713
707.47	64.426
707.79	59.375
708.11	59.000
708.43	59.000
708.74	58.915
709.06	64.225
709.38	59.327
709.70	53.550
710.02	56.051
710.34	57.585
710.66	49.038
710.98	53.974
711.29	60.000
711.61	56.271
711.93	53.094
712.25	57.388
712.57	56.410
712.89	53.731
713.20	56.747
713.52	61.324
713.84	53.242
714.16	56.701
714.48	58.710
714.80	65.385
715.11	62.614
715.43	58.621
715.75	59.667
716.07	57.143
716.39	55.705
716.70	58.303
717.02	53.053
717.34	56.275
717.66	57.522
717.97	53.043
718.29	55.230
718.61	57.087
718.93	53.101
719.24	56.654
719.56	58.233
719.88	53.952
720.20	54.167
720.51	55.939
720.83	55.598
721.15	61.765
721.46	57.661
721.78	57.312
722.10	47.584
722.42	54.357
722.73	57.143
723.05	57.143
723.37	57.203
723.68	60.811
724.00	55.983
724.32	51.556
724.63	59.091
724.95	58.952
725.27	55.760
725.58	58.051
725.90	57.540
726.22	58.687
726.53	57.966
726.85	57.678
727.16	63.396
727.48	56.680
727.80	61.538
728.11	61.864
728.43	53.333
728.74	58.871
729.06	60.800
729.38	62.782
729.69	63.347
730.01	59.615
730.32	63.060
730.64	60.071
730.96	67.925
731.27	61.667
731.59	61.695
731.90	63.376
732.22	66.246
732.53	67.442
732.85	61.348
733.16	63.636
733.48	60.072
733.80	67.391
734.11	60.000
734.43	65.979
734.74	68.182
735.06	68.730
735.37	65.559
735.69	61.279
736.00	65.505
736.32	61.745
736.63	65.141
736.95	63.823
737.26	62.633
737.58	61.074
737.89	67.033
738.21	59.774
738.52	61.317
738.83	60.699
739.15	61.135
739.46	63.386
739.78	62.271
740.09	58.170
740.41	64.130
740.72	62.205
741.04	64.777
741.35	57.872
741.66	60.664
741.98	58.673
742.29	56.931
742.61	56.021
742.92	54.502
743.23	57.407
743.55	62.443
743.86	60.766
744.18	55.024
744.49	57.979
744.80	53.261
745.12	66.310
745.43	51.707
745.74	64.062
746.06	60.000
746.37	68.063
746.68	55.924
747.00	62.766
747.31	54.229
747.62	60.680
747.94	62.201
748.25	60.891
748.56	65.027
748.88	55.497
749.19	60.106
749.50	57.143
749.82	62.264
750.13	68.807
750.44	65.414
750.75	69.030
751.07	67.153
751.38	62.069
751.69	62.745
752.01	62.791
752.32	66.932
752.63	63.636
752.94	61.638
753.26	69.456
753.57	57.466
753.88	65.487
754.19	63.333
754.51	69.835
754.82	64.372
755.13	69.167
755.44	62.903
755.75	67.969
756.07	67.704
756.38	64.906
756.69	69.732
757.00	65.000
757.31	69.608
757.63	65.549
757.94	66.667
758.25	70.959
758.56	70.479
758.87	62.040
759.18	62.928
759.50	66.545
759.81	70.903
760.12	69.032
760.43	68.182
760.74	72.531
761.05	72.923
761.36	65.909
761.67	68.788
761.99	69.388
762.30	64.364
762.61	54.941
762.92	64.253
763.23	61.712
763.54	68.224
763.85	70.763
764.16	66.805
764.47	61.694
764.78	67.399
765.10	71.380
765.41	67.508
765.72	69.206
766.03	68.797
766.34	64.964
766.65	65.737
766.96	63.131
767.27	58.511
767.58	64.368
767.89	66.667
768.20	57.386
768.51	57.692
768.82	63.547
769.13	69.585
769.44	69.099
769.75	65.297
770.06	64.224
770.37	60.096
770.68	61.421
770.99	63.801
771.30	70.588
771.61	69.683
771.92	68.534
772.23	66.995
772.54	62.903
772.85	63.580
773.16	66.854
773.47	76.471
773.78	62.092
774.09	54.491
774.39	55.333
774.70	63.694
775.01	62.759
775.32	57.143
775.63	58.678
775.94	55.725
776.25	51.181
776.56	61.667
776.87	59.615
777.18	45.299
777.48	59.483
777.79	55.652
778.10	60.000
778.41	54.054
778.72	60.317
779.03	57.143
779.34	67.376
779.65	69.863
779.95	60.959
780.26	59.310
780.57	53.659
780.88	55.118
781.19	58.621
781.50	68.992
781.80	65.089
782.11	60.377
782.42	76.154
782.73	60.432
783.04	67.407
783.34	54.167
783.65	54.701
783.96	69.672
784.27	64.828
784.57	69.919
784.88	56.250
785.19	64.000
785.50	67.000
785.81	63.793
786.11	54.310
786.42	60.194
786.73	58.182
787.04	58.163
787.34	59.821
787.65	57.143
787.96	69.027
788.26	77.273
788.57	60.684
788.88	59.375
789.19	51.587
789.49	58.261
789.80	64.286
790.11	58.586
790.41	50.000
790.72	60.870
791.03	59.091
791.33	55.000
791.64	66.250
791.95	67.442
792.25	64.894
792.56	52.809
792.87	64.384
793.17	46.377
793.48	50.667
793.79	43.750
794.09	57.500
794.40	58.491
794.70	69.903
795.01	60.976
795.32	53.846
795.62	56.190
795.93	56.863
796.23	58.491
796.54	55.208
796.85	75.000
797.15	43.662
797.46	48.611
797.76	56.061
798.07	44.186
798.37	46.053
798.68	62.121
798.99	58.025
799.29	51.429
799.60	46.377
799.90	58.667
800.21	63.934
800.51	64.615
800.82	74.576
801.12	55.072
801.43	78.689
801.73	52.381
802.04	44.000
802.34	56.716
802.65	51.923
802.95	42.857
803.26	26.923
803.56	49.020
803.87	56.522
804.17	53.333
804.48	49.206
804.78	53.704
805.09	65.217
805.39	46.667
805.70	53.704
806.00	35.088
806.30	43.662
806.61	60.000
806.91	54.167
807.22	71.053
807.52	70.667
807.83	58.182
808.13	62.500
808.43	51.471
808.74	34.328
809.04	49.153
809.35	46.154
809.65	43.750
809.95	59.459
810.26	34.091
810.56	47.945
810.86	71.429
811.17	32.000
811.47	71.429
811.77	52.632
812.08	61.364
812.38	32.075
812.69	45.000
812.99	57.576
813.29	55.263
813.59	42.857
813.90	70.455
814.20	43.590
814.50	61.538
814.81	50.943
815.11	46.809
815.41	45.763
815.72	66.667
816.02	56.863
816.32	37.500
816.62	19.512
816.93	45.946
817.23	48.571
817.53	47.917
817.84	50.000
818.14	38.462
818.44	34.211
818.74	58.696
819.04	32.500
819.35	29.730
819.65	58.824
819.95	22.222
820.25	28.571
820.56	42.500
820.86	10.345
821.16	77.500
821.46	53.191
821.76	82.500
822.07	46.512
822.37	8.108
822.67	18.750
822.97	71.429
823.27	64.286
823.57	80.000
823.88	18.519
824.18	35.714
824.48	38.235
824.78	64.516
825.08	60.870
825.38	33.333
825.69	25.000
825.99	57.895
826.29	25.000
826.59	73.333
826.89	85.714
827.19	56.522
827.49	65.000
827.79	57.143
828.09	14.286
828.39	48.485
828.70	67.568
829.00	42.857
829.30	28.571
829.60	60.000
829.90	65.625
830.20	23.684
830.50	33.333
830.80	39.130
831.10	59.091
831.40	60.606
831.70	54.839
832.00	33.333
832.30	-4.762
832.60	33.333
832.90	37.931
833.20	0.000
833.50	60.606
833.80	33.333
834.10	53.846
834.40	68.750
834.70	100.000
835.00	36.842
835.30	96.154
835.60	60.000
835.90	48.387
836.20	72.727
836.50	25.000
836.80	46.154
837.10	53.571
837.40	166.667
837.70	40.909
838.00	-36.364
838.30	26.087
838.60	15.385
838.90	31.818
839.19	21.429
839.49	23.333
839.79	53.846
840.09	-16.667
840.39	46.429
840.69	10.714
840.99	7.692
841.29	36.842
841.59	70.000
841.88	118.182
842.18	40.000
842.48	25.000
842.78	-6.667
843.08	7.407
843.38	-70.000
843.68	43.478
843.97	0.000
844.27	-33.333
844.57	35.000
844.87	33.333
845.17	23.810
845.47	86.667
845.76	42.857
846.06	70.588
846.36	-80.000
846.66	-42.857
846.96	40.000
847.25	-200.000
847.55	64.286
847.85	62.500
848.15	13.636
848.44	-33.333
848.74	45.000
849.04	62.963
849.34	-9.091
849.63	-33.333
849.93	-160.000
850.23	50.000
850.53	60.000
850.82	-23.077
851.12	77.778
851.42	33.333
851.71	-26.923
852.01	57.143
852.31	0.000
852.61	45.455
852.90	65.000
853.20	57.895
853.50	-50.000
853.79	17.391
854.09	100.000
854.39	57.895
854.68	83.333
854.98	58.065
855.28	84.615
855.57	65.000
855.87	100.000
856.17	48.148
856.46	14.286
856.76	80.000
857.05	200.000
857.35	40.000
857.65	22.222
857.94	107.692
858.24	89.655
858.53	27.778
858.83	44.444
859.13	36.364
859.42	17.391
859.72	125.000
860.01	-66.667
860.31	28.000
860.60	52.381
860.90	100.000
861.20	40.000
861.49	150.000
861.79	33.333
862.08	55.000
862.38	120.000
862.67	-40.000
862.97	-66.667
863.26	16.667
863.56	38.889
863.85	33.333
864.15	11.111
864.44	20.000
864.74	0.000
865.03	125.000
865.33	-240.000
865.62	83.333
865.92	50.000
866.21	-50.000
866.51	131.250
866.80	27.273
867.10	-250.000
867.39	66.667
867.69	0.000
867.98	38.462
868.27	66.667
868.57	80.000
868.86	50.000
869.16	-69.231
869.45	80.000
869.75	100.000
870.04	0.000
870.33	-14.286
870.63	33.333
870.92	333.333
871.22	-100.000
871.51	-500.000
871.80	133.333
872.10	233.333
>>>>>End Processed Spectral Data<<<<<
