SpectraSuite Data File
++++++++++++++++++++++++++++++++++++
Date: Fri May 15 17:26:35 PDT 2015
User: schluterlab
Dark Spectrum Present: Yes
Reference Spectrum Present: Yes
Number of Sampled Component Spectra: 1
Spectrometers: USB2E3373
Integration Time (usec): 3000 (USB2E3373)
Spectra Averaged: 3 (USB2E3373)
Boxcar Smoothing: 0 (USB2E3373)
Correct for Electrical Dark: No (USB2E3373)
Strobe/Lamp Enabled: No (USB2E3373)
Correct for Detector Non-linearity: No (USB2E3373)
Correct for Stray Light: No (USB2E3373)
Number of Pixels in Processed Spectrum: 2048
>>>>>Begin Processed Spectral Data<<<<<
178.53	0.000
178.91	0.000
179.29	75.000
179.67	-750.000
180.04	28.571
180.42	25.000
180.80	100.000
181.18	33.333
181.56	350.000
181.94	50.000
182.31	600.000
182.69	-180.000
183.07	-100.000
183.45	-120.000
183.83	133.333
184.20	54.545
184.58	177.778
184.96	-375.000
185.34	33.333
185.72	-250.000
186.09	-7.692
186.47	-700.000
186.85	66.667
187.23	66.667
187.61	-200.000
187.98	-266.667
188.36	22.222
188.74	-266.667
189.12	-11.765
189.49	16.667
189.87	0.000
190.25	135.714
190.63	100.000
191.00	-66.667
191.38	0.000
191.76	150.000
192.14	-75.000
192.51	500.000
192.89	-77.778
193.27	-200.000
193.65	66.667
194.02	172.727
194.40	30.000
194.78	-50.000
195.15	25.000
195.53	37.500
195.91	300.000
196.29	150.000
196.66	76.923
197.04	200.000
197.42	22.222
197.79	-166.667
198.17	0.000
198.55	1000.000
198.92	-133.333
199.30	200.000
199.68	-80.000
200.05	-233.333
200.43	0.000
200.81	33.333
201.18	-300.000
201.56	1200.000
201.94	100.000
202.31	33.333
202.69	-80.000
203.07	275.000
203.44	300.000
203.82	0.000
204.19	92.857
204.57	-266.667
204.95	250.000
205.32	-70.000
205.70	71.429
206.08	-50.000
206.45	177.778
206.83	114.286
207.20	-14.286
207.58	-400.000
207.96	0.000
208.33	-130.000
208.71	50.000
209.08	-66.667
209.46	-200.000
209.84	-200.000
210.21	500.000
210.59	-71.429
210.96	-83.333
211.34	175.000
211.71	73.333
212.09	-14.286
212.46	-600.000
212.84	0.000
213.22	70.000
213.59	500.000
213.97	0.000
214.34	36.364
214.72	33.333
215.09	225.000
215.47	23.077
215.84	-27.273
216.22	-366.667
216.59	-12.500
216.97	0.000
217.34	125.000
217.72	-140.000
218.09	62.500
218.47	150.000
218.84	200.000
219.22	-77.778
219.59	60.000
219.97	-100.000
220.34	150.000
220.72	-14.286
221.09	-400.000
221.47	100.000
221.84	-500.000
222.22	-500.000
222.59	63.636
222.97	25.000
223.34	-266.667
223.72	0.000
224.09	23.810
224.46	10.714
224.84	133.333
225.21	0.000
225.59	113.333
225.96	-150.000
226.34	150.000
226.71	-57.143
227.08	-100.000
227.46	75.000
227.83	-50.000
228.21	-33.333
228.58	45.455
228.95	25.000
229.33	30.000
229.70	43.750
230.08	-12.500
230.45	-28.571
230.82	85.714
231.20	-6.667
231.57	114.286
231.95	128.571
232.32	-60.000
232.69	78.571
233.07	66.667
233.44	60.000
233.81	-70.000
234.19	88.889
234.56	0.000
234.93	100.000
235.31	175.000
235.68	-160.000
236.05	23.077
236.43	55.000
236.80	17.647
237.17	34.375
237.55	45.000
237.92	88.889
238.29	63.889
238.67	43.333
239.04	55.882
239.41	12.195
239.79	96.667
240.16	60.976
240.53	18.421
240.91	50.000
241.28	55.556
241.65	76.786
242.02	67.123
242.40	80.000
242.77	84.746
243.14	48.485
243.51	63.750
243.89	63.218
244.26	56.322
244.63	60.714
245.00	69.072
245.38	72.165
245.75	65.169
246.12	55.172
246.49	61.983
246.87	63.462
247.24	57.143
247.61	65.789
247.98	58.537
248.36	55.000
248.73	67.763
249.10	66.234
249.47	65.823
249.84	69.281
250.22	65.882
250.59	67.974
250.96	66.667
251.33	64.535
251.70	72.941
252.08	59.898
252.45	64.356
252.82	67.839
253.19	65.438
253.56	65.888
253.94	69.369
254.31	66.522
254.68	68.860
255.05	64.961
255.42	67.686
255.79	66.023
256.16	64.981
256.54	65.672
256.91	64.259
257.28	64.684
257.65	61.798
258.02	63.830
258.39	63.636
258.76	66.667
259.14	69.103
259.51	66.019
259.88	71.134
260.25	64.052
260.62	67.361
260.99	70.847
261.36	66.781
261.73	68.038
262.10	65.046
262.47	65.337
262.85	65.204
263.22	66.462
263.59	67.601
263.96	68.634
264.33	67.879
264.70	66.667
265.07	70.536
265.44	72.238
265.81	69.209
266.18	67.213
266.55	67.095
266.92	66.839
267.29	67.102
267.66	65.473
268.03	67.277
268.40	66.057
268.77	70.856
269.14	64.029
269.51	64.524
269.88	63.092
270.25	66.071
270.62	62.927
270.99	68.798
271.36	64.303
271.73	65.023
272.10	65.937
272.47	64.066
272.84	64.851
273.21	65.197
273.58	66.024
273.95	66.133
274.32	62.818
274.69	62.443
275.06	66.741
275.43	65.079
275.80	64.459
276.17	64.368
276.54	62.955
276.91	67.325
277.28	67.031
277.65	64.463
278.02	61.489
278.39	65.864
278.76	63.941
279.13	62.656
279.50	63.866
279.87	60.259
280.23	61.935
280.60	63.353
280.97	64.444
281.34	60.577
281.71	66.735
282.08	61.554
282.45	61.252
282.82	61.776
283.19	63.056
283.56	61.657
283.92	60.721
284.29	60.000
284.66	61.434
285.03	63.261
285.40	61.626
285.77	58.875
286.14	57.942
286.51	61.624
286.87	58.867
287.24	61.694
287.61	60.494
287.98	58.070
288.35	56.326
288.72	60.595
289.08	57.812
289.45	57.469
289.82	56.993
290.19	57.509
290.56	56.775
290.93	56.397
291.29	53.313
291.66	53.386
292.03	53.907
292.40	51.935
292.77	50.239
293.13	52.435
293.50	50.531
293.87	52.214
294.24	51.159
294.60	50.522
294.97	48.958
295.34	50.767
295.71	49.329
296.08	47.683
296.44	46.942
296.81	49.583
297.18	48.116
297.55	46.477
297.91	47.945
298.28	47.230
298.65	45.726
299.02	45.148
299.38	44.460
299.75	45.931
300.12	44.764
300.48	44.796
300.85	45.501
301.22	44.286
301.59	44.211
301.95	44.684
302.32	45.136
302.69	44.279
303.05	43.936
303.42	41.843
303.79	42.874
304.15	45.281
304.52	42.331
304.89	41.287
305.25	42.373
305.62	41.307
305.99	43.158
306.35	43.006
306.72	41.395
307.09	41.961
307.45	41.906
307.82	40.509
308.19	43.322
308.55	41.767
308.92	43.246
309.29	41.899
309.65	39.612
310.02	40.154
310.38	41.712
310.75	42.514
311.12	42.088
311.48	39.343
311.85	41.257
312.22	39.768
312.58	41.295
312.95	40.875
313.31	40.890
313.68	40.000
314.05	39.592
314.41	39.691
314.78	40.619
315.14	40.082
315.51	40.683
315.87	40.984
316.24	40.950
316.61	39.665
316.97	39.782
317.34	38.770
317.70	39.771
318.07	38.750
318.43	40.588
318.80	38.068
319.16	39.355
319.53	39.601
319.89	39.469
320.26	39.676
320.62	39.819
320.99	37.787
321.35	39.568
321.72	39.875
322.08	39.174
322.45	38.173
322.81	38.900
323.18	39.156
323.54	37.548
323.91	37.780
324.27	39.355
324.64	39.139
325.00	38.412
325.37	38.935
325.73	36.990
326.10	38.874
326.46	38.834
326.83	38.845
327.19	38.710
327.56	38.315
327.92	38.468
328.29	37.768
328.65	36.604
329.01	38.971
329.38	37.327
329.74	37.205
330.11	37.813
330.47	35.529
330.84	38.365
331.20	38.308
331.56	36.667
331.93	36.895
332.29	37.214
332.66	35.837
333.02	36.617
333.38	36.114
333.75	38.645
334.11	34.288
334.48	36.718
334.84	36.722
335.20	36.962
335.57	35.993
335.93	37.218
336.29	35.451
336.66	35.876
337.02	35.967
337.38	35.741
337.75	37.000
338.11	35.437
338.47	37.135
338.84	35.952
339.20	36.106
339.56	37.064
339.93	36.437
340.29	37.156
340.65	36.111
341.02	36.170
341.38	35.929
341.74	35.777
342.11	34.835
342.47	35.676
342.83	36.159
343.20	34.321
343.56	36.435
343.92	36.404
344.28	35.440
344.65	34.629
345.01	36.128
345.37	34.315
345.73	36.904
346.10	34.858
346.46	35.240
346.82	33.061
347.19	34.248
347.55	35.923
347.91	35.680
348.27	33.387
348.63	35.009
349.00	35.193
349.36	35.245
349.72	34.909
350.08	34.344
350.45	32.801
350.81	33.887
351.17	33.632
351.53	35.918
351.89	33.939
352.26	33.440
352.62	34.113
352.98	33.173
353.34	33.897
353.70	35.356
354.07	33.387
354.43	33.867
354.79	34.187
355.15	33.651
355.51	33.940
355.87	33.091
356.24	32.953
356.60	33.306
356.96	34.127
357.32	32.987
357.68	33.620
358.04	32.876
358.40	33.360
358.77	33.573
359.13	34.908
359.49	31.125
359.85	33.385
360.21	33.254
360.57	33.129
360.93	33.359
361.29	33.459
361.66	34.404
362.02	32.955
362.38	34.196
362.74	33.232
363.10	33.484
363.46	32.617
363.82	33.509
364.18	31.882
364.54	32.647
364.90	32.186
365.26	33.552
365.62	34.161
365.98	31.818
366.35	33.795
366.71	33.333
367.07	33.890
367.43	33.789
367.79	32.509
368.15	32.520
368.51	33.430
368.87	32.663
369.23	32.347
369.59	33.601
369.95	33.944
370.31	32.081
370.67	33.060
371.03	32.263
371.39	32.385
371.75	31.868
372.11	32.668
372.47	33.432
372.83	33.002
373.19	31.812
373.55	31.336
373.91	31.102
374.27	32.743
374.63	32.304
374.99	32.553
375.35	31.267
375.71	32.448
376.07	32.725
376.42	31.905
376.78	32.685
377.14	31.415
377.50	30.611
377.86	32.329
378.22	32.674
378.58	32.436
378.94	31.254
379.30	31.753
379.66	32.853
380.02	31.453
380.38	32.441
380.74	31.299
381.09	32.270
381.45	33.028
381.81	32.202
382.17	31.980
382.53	32.292
382.89	31.262
383.25	32.732
383.61	32.195
383.97	32.635
384.32	31.019
384.68	31.641
385.04	31.189
385.40	30.741
385.76	32.453
386.12	32.471
386.48	32.567
386.83	31.959
387.19	31.746
387.55	31.870
387.91	30.807
388.27	30.952
388.62	32.096
388.98	31.246
389.34	32.542
389.70	32.256
390.06	31.278
390.42	30.311
390.77	31.328
391.13	31.400
391.49	31.953
391.85	31.644
392.20	31.952
392.56	32.549
392.92	31.239
393.28	31.840
393.64	31.772
393.99	32.539
394.35	31.499
394.71	33.397
395.07	32.370
395.42	31.330
395.78	31.661
396.14	32.346
396.50	31.706
396.85	32.582
397.21	31.328
397.57	30.345
397.92	31.396
398.28	31.609
398.64	30.843
399.00	32.167
399.35	30.474
399.71	31.706
400.07	32.225
400.42	31.579
400.78	32.027
401.14	32.184
401.49	32.043
401.85	32.054
402.21	31.928
402.57	32.250
402.92	31.368
403.28	31.391
403.63	31.904
403.99	32.207
404.35	32.979
404.70	31.548
405.06	31.199
405.42	32.567
405.77	30.970
406.13	30.559
406.49	31.498
406.84	31.846
407.20	31.607
407.55	31.487
407.91	30.682
408.27	31.485
408.62	32.554
408.98	31.608
409.34	31.351
409.69	31.202
410.05	31.773
410.40	31.049
410.76	32.027
411.11	32.250
411.47	31.953
411.83	31.262
412.18	32.947
412.54	31.336
412.89	31.527
413.25	31.167
413.60	31.429
413.96	30.613
414.31	31.402
414.67	30.340
415.03	32.024
415.38	31.070
415.74	32.248
416.09	31.940
416.45	31.465
416.80	31.527
417.16	32.113
417.51	32.445
417.87	30.443
418.22	32.319
418.58	32.241
418.93	32.226
419.29	30.346
419.64	31.497
420.00	32.872
420.35	31.284
420.71	32.139
421.06	32.719
421.42	32.332
421.77	31.618
422.12	30.931
422.48	31.294
422.83	31.961
423.19	31.095
423.54	30.159
423.90	30.860
424.25	31.343
424.61	31.151
424.96	31.359
425.31	32.005
425.67	31.279
426.02	32.214
426.38	31.371
426.73	31.295
427.09	31.456
427.44	32.353
427.79	32.233
428.15	31.371
428.50	32.465
428.85	31.020
429.21	31.522
429.56	32.291
429.92	30.971
430.27	31.228
430.62	31.835
430.98	30.786
431.33	31.546
431.68	31.345
432.04	31.805
432.39	30.576
432.74	31.088
433.10	31.667
433.45	31.541
433.80	30.876
434.16	30.194
434.51	31.505
434.86	31.823
435.22	30.791
435.57	32.314
435.92	31.677
436.28	31.306
436.63	31.489
436.98	31.170
437.34	30.853
437.69	32.200
438.04	32.194
438.39	31.704
438.75	31.451
439.10	31.409
439.45	32.258
439.81	31.070
440.16	31.473
440.51	31.761
440.86	32.749
441.22	31.561
441.57	30.905
441.92	32.949
442.27	32.539
442.63	32.066
442.98	31.993
443.33	31.608
443.68	31.300
444.03	32.538
444.39	30.939
444.74	33.110
445.09	32.238
445.44	30.997
445.79	33.007
446.15	30.947
446.50	31.392
446.85	31.084
447.20	31.335
447.55	31.920
447.91	30.626
448.26	31.360
448.61	32.412
448.96	31.899
449.31	31.561
449.66	31.940
450.02	31.204
450.37	31.713
450.72	30.813
451.07	31.266
451.42	30.836
451.77	32.731
452.12	31.160
452.47	31.423
452.83	31.567
453.18	31.056
453.53	30.721
453.88	31.876
454.23	31.776
454.58	31.801
454.93	31.379
455.28	31.175
455.63	31.494
455.98	32.231
456.34	32.056
456.69	31.830
457.04	32.262
457.39	31.774
457.74	30.593
458.09	31.018
458.44	30.895
458.79	31.092
459.14	31.350
459.49	32.418
459.84	31.416
460.19	31.978
460.54	32.213
460.89	32.159
461.24	31.553
461.59	32.067
461.94	31.069
462.29	30.881
462.64	32.691
462.99	32.227
463.34	30.320
463.69	30.309
464.04	31.235
464.39	31.170
464.74	31.656
465.09	31.129
465.44	31.275
465.79	31.746
466.14	31.243
466.49	31.512
466.84	32.778
467.19	31.164
467.54	31.098
467.89	31.586
468.24	31.569
468.59	31.937
468.94	31.492
469.29	32.459
469.64	30.622
469.99	32.446
470.34	29.761
470.68	31.096
471.03	31.706
471.38	31.526
471.73	31.162
472.08	30.054
472.43	31.275
472.78	31.117
473.13	31.156
473.48	30.945
473.83	30.884
474.17	32.124
474.52	31.461
474.87	32.000
475.22	30.140
475.57	30.322
475.92	31.322
476.27	32.014
476.61	31.655
476.96	30.340
477.31	31.368
477.66	31.348
478.01	30.320
478.36	31.209
478.70	31.539
479.05	32.582
479.40	32.061
479.75	31.283
480.10	31.490
480.45	32.050
480.79	31.823
481.14	32.275
481.49	31.182
481.84	31.274
482.19	30.636
482.53	31.847
482.88	31.408
483.23	31.286
483.58	31.462
483.92	30.058
484.27	29.854
484.62	30.973
484.97	30.348
485.31	30.600
485.66	30.575
486.01	31.507
486.36	31.430
486.70	31.730
487.05	31.405
487.40	31.075
487.75	31.211
488.09	30.346
488.44	29.642
488.79	30.743
489.13	30.609
489.48	30.141
489.83	31.031
490.17	30.337
490.52	31.547
490.87	30.865
491.22	31.089
491.56	30.123
491.91	30.736
492.26	31.065
492.60	31.142
492.95	31.481
493.30	30.826
493.64	31.827
493.99	31.256
494.34	30.583
494.68	31.143
495.03	29.976
495.37	31.060
495.72	30.338
496.07	31.415
496.41	30.802
496.76	31.598
497.11	30.508
497.45	30.549
497.80	31.181
498.14	30.502
498.49	31.031
498.84	30.788
499.18	30.924
499.53	30.754
499.87	29.961
500.22	30.465
500.56	31.770
500.91	30.271
501.26	30.203
501.60	30.448
501.95	31.344
502.29	30.266
502.64	31.322
502.98	32.166
503.33	29.779
503.67	30.120
504.02	31.427
504.36	31.470
504.71	29.798
505.06	30.498
505.40	31.472
505.75	31.237
506.09	30.461
506.44	31.314
506.78	31.224
507.13	32.058
507.47	30.235
507.82	30.395
508.16	31.220
508.51	31.165
508.85	30.455
509.19	30.655
509.54	30.777
509.88	30.636
510.23	30.823
510.57	32.175
510.92	30.277
511.26	30.496
511.61	30.363
511.95	30.247
512.30	29.545
512.64	30.662
512.98	30.095
513.33	31.058
513.67	30.699
514.02	30.378
514.36	31.543
514.70	31.643
515.05	31.140
515.39	30.224
515.74	30.958
516.08	30.783
516.42	31.861
516.77	31.480
517.11	30.682
517.46	30.999
517.80	30.453
518.14	29.884
518.49	30.529
518.83	30.923
519.17	29.654
519.52	30.847
519.86	30.492
520.20	31.045
520.55	30.832
520.89	31.430
521.23	31.919
521.58	31.356
521.92	30.897
522.26	30.254
522.61	30.195
522.95	31.854
523.29	31.067
523.64	30.241
523.98	31.692
524.32	30.863
524.66	31.050
525.01	30.649
525.35	31.756
525.69	30.168
526.04	30.093
526.38	32.166
526.72	30.412
527.06	29.702
527.41	30.277
527.75	30.496
528.09	30.432
528.43	31.465
528.78	31.023
529.12	31.484
529.46	31.969
529.80	30.462
530.15	31.617
530.49	31.111
530.83	31.464
531.17	29.214
531.51	31.669
531.86	29.776
532.20	30.480
532.54	31.178
532.88	30.732
533.22	30.712
533.57	29.817
533.91	31.723
534.25	31.510
534.59	30.340
534.93	30.208
535.27	30.774
535.62	31.756
535.96	31.963
536.30	31.728
536.64	31.496
536.98	31.777
537.32	31.081
537.66	32.188
538.01	31.469
538.35	31.068
538.69	31.292
539.03	30.280
539.37	32.840
539.71	31.357
540.05	31.229
540.39	30.332
540.73	31.381
541.07	31.492
541.42	32.191
541.76	32.209
542.10	30.970
542.44	31.063
542.78	29.938
543.12	30.907
543.46	31.919
543.80	30.049
544.14	30.040
544.48	31.779
544.82	30.895
545.16	32.309
545.50	32.176
545.84	30.737
546.18	31.206
546.52	31.651
546.86	30.625
547.20	31.044
547.54	30.813
547.88	32.133
548.22	29.980
548.56	30.211
548.90	30.997
549.24	30.579
549.58	31.523
549.92	29.235
550.26	30.623
550.60	31.375
550.94	32.338
551.28	31.066
551.62	30.615
551.96	30.602
552.30	30.263
552.64	29.337
552.98	30.380
553.32	30.599
553.66	30.116
554.00	31.095
554.34	30.576
554.68	30.752
555.02	31.101
555.36	30.217
555.69	30.256
556.03	31.406
556.37	30.107
556.71	31.264
557.05	30.500
557.39	30.112
557.73	30.810
558.07	31.523
558.41	31.240
558.75	29.618
559.08	29.236
559.42	30.952
559.76	31.145
560.10	30.810
560.44	30.007
560.78	29.860
561.12	31.453
561.45	32.256
561.79	31.303
562.13	32.292
562.47	30.576
562.81	30.331
563.15	30.606
563.48	31.117
563.82	31.160
564.16	31.825
564.50	30.811
564.84	30.924
565.17	30.449
565.51	31.489
565.85	32.442
566.19	31.830
566.52	32.105
566.86	32.262
567.20	30.946
567.54	31.448
567.88	32.220
568.21	32.014
568.55	31.467
568.89	31.314
569.23	31.536
569.56	31.699
569.90	31.506
570.24	31.113
570.57	31.636
570.91	32.276
571.25	30.944
571.59	31.579
571.92	31.052
572.26	30.888
572.60	31.225
572.93	30.970
573.27	30.502
573.61	31.354
573.95	31.649
574.28	31.356
574.62	31.223
574.96	31.090
575.29	31.424
575.63	30.241
575.97	30.903
576.30	30.475
576.64	30.808
576.98	31.480
577.31	31.973
577.65	31.445
577.98	31.636
578.32	31.366
578.66	30.668
578.99	30.721
579.33	30.227
579.67	31.340
580.00	31.139
580.34	31.219
580.67	31.479
581.01	30.716
581.35	31.223
581.68	31.411
582.02	31.235
582.35	31.495
582.69	31.028
583.02	30.912
583.36	31.015
583.70	30.633
584.03	31.582
584.37	31.903
584.70	31.456
585.04	30.207
585.37	31.155
585.71	31.029
586.04	31.014
586.38	30.915
586.72	31.105
587.05	31.514
587.39	31.507
587.72	31.575
588.06	30.805
588.39	30.590
588.73	31.074
589.06	31.311
589.40	31.628
589.73	31.617
590.07	31.873
590.40	31.269
590.73	32.084
591.07	31.595
591.40	30.810
591.74	31.493
592.07	31.633
592.41	31.670
592.74	31.223
593.08	30.073
593.41	31.631
593.75	31.011
594.08	31.033
594.41	30.713
594.75	30.305
595.08	31.669
595.42	31.542
595.75	31.243
596.09	30.571
596.42	31.666
596.75	31.039
597.09	30.342
597.42	30.578
597.75	31.058
598.09	30.512
598.42	30.912
598.76	30.202
599.09	30.929
599.42	30.352
599.76	30.587
600.09	30.505
600.42	30.591
600.76	30.869
601.09	30.573
601.42	30.082
601.76	30.488
602.09	30.569
602.42	31.719
602.76	31.324
603.09	31.395
603.42	31.773
603.76	30.484
604.09	30.498
604.42	31.430
604.76	31.331
605.09	31.947
605.42	31.512
605.75	31.261
606.09	31.295
606.42	30.901
606.75	31.255
607.09	31.165
607.42	30.306
607.75	30.906
608.08	29.560
608.42	29.100
608.75	31.325
609.08	31.739
609.41	31.117
609.75	29.839
610.08	31.053
610.41	29.903
610.74	30.912
611.07	30.594
611.41	30.618
611.74	31.450
612.07	29.390
612.40	31.291
612.73	31.412
613.07	30.090
613.40	31.893
613.73	30.386
614.06	30.607
614.39	31.077
614.72	30.028
615.06	30.670
615.39	29.749
615.72	29.763
616.05	30.223
616.38	29.801
616.71	31.988
617.05	30.883
617.38	30.861
617.71	31.321
618.04	31.492
618.37	31.400
618.70	31.287
619.03	30.694
619.36	29.740
619.69	31.691
620.03	31.994
620.36	31.187
620.69	30.835
621.02	30.657
621.35	31.452
621.68	30.867
622.01	31.000
622.34	30.247
622.67	30.599
623.00	30.475
623.33	30.259
623.66	29.993
623.99	31.694
624.32	30.722
624.65	30.000
624.99	31.151
625.32	30.629
625.65	31.658
625.98	31.104
626.31	30.923
626.64	31.802
626.97	30.716
627.30	30.385
627.63	29.983
627.96	31.267
628.29	31.175
628.62	31.957
628.95	28.257
629.28	32.661
629.61	29.113
629.94	30.596
630.26	30.040
630.59	32.154
630.92	30.667
631.25	29.026
631.58	31.498
631.91	29.605
632.24	28.784
632.57	31.705
632.90	30.368
633.23	31.529
633.56	30.856
633.89	31.196
634.22	31.235
634.55	30.623
634.88	30.524
635.20	30.769
635.53	30.267
635.86	30.559
636.19	30.789
636.52	32.270
636.85	29.404
637.18	29.434
637.51	30.440
637.83	29.829
638.16	32.196
638.49	27.248
638.82	32.500
639.15	30.529
639.48	33.150
639.81	29.568
640.13	30.592
640.46	31.633
640.79	29.897
641.12	30.871
641.45	29.880
641.77	30.667
642.10	32.227
642.43	28.939
642.76	29.868
643.09	30.856
643.41	30.744
643.74	27.348
644.07	31.527
644.40	29.730
644.73	32.574
645.05	29.866
645.38	32.275
645.71	30.142
646.04	33.214
646.36	30.496
646.69	32.374
647.02	31.947
647.35	30.410
647.67	29.433
648.00	31.530
648.33	31.399
648.66	29.492
648.98	30.318
649.31	29.587
649.64	29.199
649.96	29.660
650.29	30.324
650.62	30.256
650.94	30.741
651.27	28.678
651.60	31.351
651.92	32.517
652.25	28.597
652.58	31.167
652.90	30.532
653.23	30.252
653.56	31.303
653.88	29.725
654.21	27.320
654.54	29.542
654.86	32.598
655.19	28.509
655.52	31.347
655.84	31.655
656.17	36.038
656.49	48.712
656.82	50.179
657.15	37.735
657.47	27.919
657.80	20.365
658.13	19.814
658.45	29.342
658.78	29.865
659.10	29.461
659.43	29.873
659.75	29.847
660.08	30.207
660.41	30.848
660.73	28.039
661.06	29.463
661.38	29.159
661.71	26.489
662.03	30.687
662.36	30.549
662.68	30.752
663.01	33.624
663.33	26.218
663.66	29.767
663.98	32.326
664.31	28.785
664.63	29.032
664.96	25.217
665.28	29.581
665.61	30.087
665.93	29.565
666.26	32.755
666.58	27.740
666.91	30.118
667.23	30.896
667.56	31.280
667.88	34.772
668.21	28.640
668.53	30.260
668.86	30.660
669.18	29.009
669.50	29.298
669.83	27.442
670.15	31.469
670.48	30.383
670.80	32.488
671.13	30.425
671.45	27.854
671.77	32.618
672.10	29.703
672.42	31.461
672.75	30.906
673.07	32.379
673.39	32.110
673.72	26.824
674.04	30.833
674.37	28.178
674.69	28.694
675.01	31.111
675.34	31.306
675.66	28.704
675.98	29.268
676.31	31.193
676.63	28.979
676.95	30.455
677.28	29.647
677.60	33.735
677.92	26.606
678.25	31.072
678.57	29.004
678.89	30.042
679.22	30.649
679.54	30.723
679.86	30.616
680.18	30.485
680.51	32.576
680.83	29.622
681.15	29.200
681.48	32.582
681.80	30.165
682.12	29.435
682.44	27.824
682.77	29.360
683.09	28.375
683.41	32.273
683.73	29.263
684.06	28.097
684.38	28.387
684.70	31.808
685.02	30.498
685.34	31.423
685.67	30.019
685.99	28.752
686.31	27.788
686.63	30.612
686.96	30.418
687.28	27.475
687.60	29.658
687.92	33.333
688.24	31.855
688.56	31.004
688.89	30.580
689.21	31.333
689.53	27.842
689.85	29.070
690.17	27.679
690.49	30.260
690.82	27.184
691.14	30.000
691.46	29.907
691.78	29.279
692.10	32.258
692.42	28.571
692.74	30.342
693.06	31.532
693.39	28.054
693.71	26.697
694.03	29.099
694.35	28.505
694.67	31.061
694.99	28.460
695.31	29.243
695.63	29.500
695.95	25.253
696.27	27.720
696.59	29.722
696.91	32.493
697.23	28.021
697.56	31.683
697.88	32.258
698.20	27.563
698.52	29.412
698.84	27.273
699.16	28.250
699.48	29.574
699.80	26.055
700.12	28.571
700.44	29.412
700.76	28.488
701.08	28.788
701.40	29.819
701.72	30.247
702.04	30.693
702.36	31.438
702.68	31.532
703.00	32.424
703.32	30.499
703.64	24.576
703.96	28.116
704.28	28.834
704.60	32.063
704.91	26.498
705.23	28.904
705.55	34.982
705.87	29.603
706.19	25.556
706.51	29.897
706.83	29.260
707.15	23.988
707.47	31.373
707.79	29.948
708.11	33.000
708.43	28.250
708.74	27.649
709.06	32.958
709.38	30.581
709.70	30.473
710.02	28.662
710.34	31.889
710.66	27.244
710.98	28.477
711.29	31.803
711.61	30.169
711.93	30.293
712.25	32.990
712.57	31.502
712.89	30.597
713.20	30.796
713.52	28.223
713.84	25.939
714.16	27.835
714.48	30.323
714.80	30.449
715.11	25.228
715.43	26.646
715.75	31.333
716.07	27.907
716.39	30.537
716.70	24.354
717.02	30.153
717.34	31.579
717.66	29.204
717.97	24.783
718.29	28.452
718.61	29.528
718.93	30.233
719.24	31.179
719.56	26.908
719.88	30.928
720.20	30.682
720.51	30.268
720.83	27.413
721.15	36.134
721.46	30.242
721.78	28.063
722.10	30.483
722.42	28.631
722.73	31.429
723.05	36.327
723.37	25.847
723.68	35.586
724.00	24.786
724.32	27.111
724.63	30.000
724.95	26.201
725.27	29.493
725.58	30.085
725.90	29.762
726.22	32.819
726.53	29.831
726.85	27.715
727.16	32.830
727.48	29.960
727.80	30.769
728.11	30.508
728.43	28.235
728.74	26.613
729.06	29.200
729.38	31.955
729.69	26.295
730.01	28.462
730.32	33.209
730.64	29.682
730.96	36.981
731.27	27.333
731.59	28.475
731.90	28.344
732.22	31.546
732.53	31.229
732.85	34.043
733.16	34.343
733.48	26.619
733.80	32.609
734.11	31.186
734.43	30.584
734.74	30.909
735.06	28.664
735.37	33.233
735.69	31.987
736.00	29.617
736.32	29.866
736.63	30.282
736.95	27.304
737.26	30.961
737.58	28.523
737.89	26.374
738.21	32.331
738.52	30.041
738.83	26.201
739.15	29.694
739.46	31.496
739.78	26.007
740.09	28.105
740.41	32.971
740.72	25.984
741.04	30.769
741.35	29.362
741.66	31.280
741.98	35.204
742.29	35.149
742.61	32.461
742.92	25.592
743.23	24.074
743.55	30.317
743.86	30.144
744.18	30.144
744.49	24.468
744.80	30.435
745.12	29.412
745.43	22.927
745.74	34.375
746.06	29.756
746.37	31.937
746.68	30.806
747.00	27.660
747.31	32.836
747.62	26.699
747.94	32.536
748.25	27.723
748.56	30.055
748.88	31.937
749.19	31.915
749.50	31.034
749.82	30.189
750.13	29.817
750.44	27.444
750.75	33.209
751.07	30.292
751.38	32.950
751.69	27.451
752.01	29.845
752.32	31.076
752.63	30.040
752.94	28.448
753.26	37.238
753.57	33.937
753.88	29.646
754.19	26.667
754.51	28.512
754.82	27.126
755.13	34.167
755.44	31.452
755.75	35.156
756.07	30.350
756.38	27.547
756.69	31.418
757.00	28.667
757.31	28.758
757.63	27.439
757.94	32.778
758.25	28.219
758.56	26.330
758.87	27.479
759.18	31.464
759.50	29.818
759.81	30.769
760.12	33.871
760.43	26.970
760.74	35.802
761.05	31.385
761.36	30.114
761.67	34.848
761.99	35.714
762.30	26.909
762.61	25.296
762.92	27.149
763.23	23.874
763.54	23.364
763.85	30.932
764.16	31.950
764.47	26.613
764.78	30.403
765.10	28.283
765.41	30.915
765.72	30.476
766.03	32.331
766.34	29.562
766.65	30.279
766.96	24.747
767.27	27.128
767.58	24.138
767.89	21.986
768.20	31.818
768.51	32.418
768.82	29.064
769.13	26.728
769.44	27.897
769.75	24.658
770.06	30.603
770.37	25.962
770.68	30.457
770.99	26.697
771.30	34.314
771.61	28.054
771.92	31.466
772.23	32.020
772.54	31.720
772.85	25.926
773.16	25.843
773.47	42.484
773.78	29.412
774.09	29.940
774.39	28.667
774.70	29.936
775.01	31.034
775.32	24.286
775.63	20.661
775.94	32.061
776.25	33.071
776.56	19.167
776.87	42.308
777.18	25.641
777.48	35.345
777.79	26.957
778.10	18.095
778.41	25.225
778.72	21.429
779.03	24.060
779.34	33.333
779.65	32.192
779.95	29.452
780.26	36.552
780.57	32.520
780.88	34.646
781.19	31.034
781.50	34.109
781.80	25.444
782.11	26.415
782.42	30.769
782.73	28.777
783.04	28.148
783.34	28.472
783.65	18.803
783.96	27.869
784.27	37.241
784.57	22.764
784.88	34.375
785.19	27.000
785.50	29.000
785.81	34.483
786.11	22.414
786.42	28.155
786.73	35.455
787.04	31.633
787.34	29.464
787.65	20.952
787.96	24.779
788.26	30.000
788.57	28.205
788.88	32.031
789.19	31.746
789.49	30.435
789.80	37.755
790.11	30.303
790.41	30.000
790.72	34.783
791.03	34.091
791.33	37.500
791.64	35.000
791.95	27.907
792.25	25.532
792.56	28.090
792.87	20.548
793.17	23.188
793.48	16.000
793.79	23.750
794.09	26.250
794.40	24.528
794.70	29.126
795.01	27.642
795.32	30.769
795.62	27.619
795.93	33.333
796.23	35.849
796.54	27.083
796.85	36.765
797.15	26.761
797.46	36.111
797.76	39.394
798.07	26.744
798.37	25.000
798.68	27.273
798.99	20.988
799.29	22.857
799.60	26.087
799.90	36.000
800.21	22.951
800.51	35.385
800.82	47.458
801.12	36.232
801.43	32.787
801.73	22.222
802.04	14.000
802.34	22.388
802.65	38.462
802.95	7.143
803.26	26.923
803.56	29.412
803.87	-6.522
804.17	36.000
804.48	34.921
804.78	31.481
805.09	10.870
805.39	8.889
805.70	25.926
806.00	19.298
806.30	38.028
806.61	38.571
806.91	30.556
807.22	40.789
807.52	48.000
807.83	32.727
808.13	31.944
808.43	29.412
808.74	23.881
809.04	13.559
809.35	11.538
809.65	37.500
809.95	-13.514
810.26	45.455
810.56	19.178
810.86	21.429
811.17	40.000
811.47	26.531
811.77	23.684
812.08	40.909
812.38	28.302
812.69	17.500
812.99	45.455
813.29	52.632
813.59	-14.286
813.90	18.182
814.20	35.897
814.50	34.615
814.81	32.075
815.11	8.511
815.41	30.508
815.72	28.571
816.02	15.686
816.32	27.083
816.62	31.707
816.93	0.000
817.23	17.143
817.53	20.833
817.84	41.304
818.14	26.923
818.44	13.158
818.74	54.348
819.04	-17.500
819.35	18.919
819.65	41.176
819.95	36.111
820.25	16.667
820.56	37.500
820.86	-34.483
821.16	35.000
821.46	21.277
821.76	37.500
822.07	30.233
822.37	13.514
822.67	-12.500
822.97	40.476
823.27	32.143
823.57	0.000
823.88	7.407
824.18	17.857
824.48	32.353
824.78	16.129
825.08	0.000
825.38	24.242
825.69	8.333
825.99	15.789
826.29	16.667
826.59	80.000
826.89	-9.524
827.19	32.609
827.49	17.500
827.79	11.429
828.09	14.286
828.39	54.545
828.70	56.757
829.00	35.714
829.30	23.810
829.60	-10.000
829.90	31.250
830.20	5.263
830.50	18.519
830.80	-30.435
831.10	27.273
831.40	39.394
831.70	45.161
832.00	9.524
832.30	19.048
832.60	58.333
832.90	51.724
833.20	-20.000
833.50	45.455
833.80	22.222
834.10	11.538
834.40	53.125
834.70	11.111
835.00	-42.105
835.30	46.154
835.60	33.333
835.90	32.258
836.20	18.182
836.50	42.857
836.80	19.231
837.10	10.714
837.40	-166.667
837.70	45.455
838.00	-63.636
838.30	-17.391
838.60	30.769
838.90	50.000
839.19	17.857
839.49	10.000
839.79	7.692
840.09	-66.667
840.39	92.857
840.69	10.714
840.99	-11.538
841.29	5.263
841.59	60.000
841.88	-9.091
842.18	100.000
842.48	-6.250
842.78	80.000
843.08	48.148
843.38	-60.000
843.68	4.348
843.97	6.667
844.27	-66.667
844.57	15.000
844.87	33.333
845.17	-9.524
845.47	26.667
845.76	28.571
846.06	35.294
846.36	70.000
846.66	42.857
846.96	20.000
847.25	50.000
847.55	28.571
847.85	-25.000
848.15	31.818
848.44	-533.333
848.74	5.000
849.04	7.407
849.34	100.000
849.63	-16.667
849.93	-160.000
850.23	33.333
850.53	230.000
850.82	-38.462
851.12	33.333
851.42	33.333
851.71	-15.385
852.01	-57.143
852.31	-175.000
852.61	-63.636
852.90	20.000
853.20	21.053
853.50	58.333
853.79	-8.696
854.09	66.667
854.39	36.842
854.68	-16.667
854.98	3.226
855.28	23.077
855.57	55.000
855.87	22.222
856.17	66.667
856.46	35.714
856.76	-6.667
857.05	55.556
857.35	48.000
857.65	55.556
857.94	23.077
858.24	62.069
858.53	16.667
858.83	44.444
859.13	36.364
859.42	0.000
859.72	-100.000
860.01	-333.333
860.31	28.000
860.60	9.524
860.90	-133.333
861.20	-100.000
861.49	-450.000
861.79	20.000
862.08	35.000
862.38	100.000
862.67	-220.000
862.97	-116.667
863.26	0.000
863.56	38.889
863.85	-366.667
864.15	38.889
864.44	10.000
864.74	28.571
865.03	225.000
865.33	-20.000
865.62	0.000
865.92	-66.667
866.21	-66.667
866.51	56.250
866.80	-109.091
867.10	-700.000
867.39	66.667
867.69	0.000
867.98	-30.769
868.27	0.000
868.57	40.000
868.86	16.667
869.16	-7.692
869.45	106.667
869.75	-100.000
870.04	0.000
870.33	-28.571
870.63	66.667
870.92	33.333
871.22	-200.000
871.51	-100.000
871.80	77.778
872.10	500.000
>>>>>End Processed Spectral Data<<<<<
