SpectraSuite Data File
++++++++++++++++++++++++++++++++++++
Date: Fri May 15 17:14:05 PDT 2015
User: schluterlab
Dark Spectrum Present: Yes
Reference Spectrum Present: Yes
Number of Sampled Component Spectra: 1
Spectrometers: USB2E3373
Integration Time (usec): 3000 (USB2E3373)
Spectra Averaged: 3 (USB2E3373)
Boxcar Smoothing: 0 (USB2E3373)
Correct for Electrical Dark: No (USB2E3373)
Strobe/Lamp Enabled: No (USB2E3373)
Correct for Detector Non-linearity: No (USB2E3373)
Correct for Stray Light: No (USB2E3373)
Number of Pixels in Processed Spectrum: 2048
>>>>>Begin Processed Spectral Data<<<<<
178.53	0.000
178.91	0.000
179.29	87.500
179.67	-100.000
180.04	-57.143
180.42	100.000
180.80	-1000.000
181.18	66.667
181.56	500.000
181.94	0.000
182.31	900.000
182.69	60.000
183.07	166.667
183.45	-40.000
183.83	166.667
184.20	81.818
184.58	22.222
184.96	-200.000
185.34	-33.333
185.72	-100.000
186.09	46.154
186.47	-300.000
186.85	-16.667
187.23	-11.111
187.61	200.000
187.98	0.000
188.36	55.556
188.74	100.000
189.12	58.824
189.49	72.222
189.87	0.000
190.25	0.000
190.63	-100.000
191.00	333.333
191.38	0.000
191.76	400.000
192.14	-150.000
192.51	1000.000
192.89	11.111
193.27	28.571
193.65	50.000
194.02	90.909
194.40	40.000
194.78	-25.000
195.15	33.333
195.53	50.000
195.91	225.000
196.29	-75.000
196.66	115.385
197.04	85.714
197.42	100.000
197.79	-433.333
198.17	-130.769
198.55	1500.000
198.92	133.333
199.30	700.000
199.68	-80.000
200.05	-266.667
200.43	0.000
200.81	366.667
201.18	100.000
201.56	400.000
201.94	-400.000
202.31	-300.000
202.69	-100.000
203.07	-25.000
203.44	500.000
203.82	0.000
204.19	78.571
204.57	-333.333
204.95	37.500
205.32	0.000
205.70	185.714
206.08	300.000
206.45	144.444
206.83	50.000
207.20	-28.571
207.58	500.000
207.96	133.333
208.33	30.000
208.71	125.000
209.08	-150.000
209.46	100.000
209.84	60.000
210.21	-800.000
210.59	100.000
210.96	133.333
211.34	25.000
211.71	13.333
212.09	-85.714
212.46	-1600.000
212.84	0.000
213.22	110.000
213.59	350.000
213.97	7.692
214.34	63.636
214.72	50.000
215.09	350.000
215.47	7.692
215.84	-63.636
216.22	-300.000
216.59	-50.000
216.97	600.000
217.34	225.000
217.72	120.000
218.09	137.500
218.47	12.500
218.84	1100.000
219.22	-44.444
219.59	140.000
219.97	133.333
220.34	100.000
220.72	28.571
221.09	-100.000
221.47	250.000
221.84	-100.000
222.22	-550.000
222.59	54.545
222.97	125.000
223.34	-100.000
223.72	14.286
224.09	28.571
224.46	32.143
224.84	133.333
225.21	40.000
225.59	60.000
225.96	-50.000
226.34	100.000
226.71	-57.143
227.08	16.667
227.46	75.000
227.83	100.000
228.21	11.111
228.58	18.182
228.95	12.500
229.33	10.000
229.70	37.500
230.08	50.000
230.45	-85.714
230.82	42.857
231.20	86.667
231.57	35.714
231.95	57.143
232.32	-10.000
232.69	92.857
233.07	233.333
233.44	-100.000
233.81	-70.000
234.19	55.556
234.56	-11.765
234.93	-300.000
235.31	150.000
235.68	-100.000
236.05	-30.769
236.43	-25.000
236.80	41.176
237.17	50.000
237.55	-5.000
237.92	0.000
238.29	19.444
238.67	46.667
239.04	41.176
239.41	-4.878
239.79	0.000
240.16	9.756
240.53	-10.526
240.91	19.565
241.28	17.460
241.65	21.429
242.02	32.877
242.40	31.667
242.77	22.034
243.14	6.061
243.51	18.750
243.89	21.839
244.26	12.644
244.63	14.286
245.00	13.402
245.38	24.742
245.75	1.124
246.12	10.345
246.49	23.967
246.87	27.885
247.24	15.126
247.61	12.281
247.98	13.821
248.36	11.875
248.73	20.395
249.10	13.636
249.47	17.089
249.84	15.033
250.22	12.941
250.59	14.379
250.96	17.840
251.33	12.209
251.70	16.471
252.08	13.706
252.45	21.287
252.82	8.040
253.19	21.659
253.56	11.215
253.94	18.018
254.31	20.000
254.68	18.421
255.05	16.142
255.42	14.847
255.79	13.514
256.16	15.564
256.54	18.657
256.91	12.928
257.28	15.242
257.65	16.854
258.02	11.702
258.39	19.865
258.76	14.286
259.14	13.953
259.51	17.152
259.88	12.371
260.25	11.765
260.62	18.403
260.99	15.932
261.36	12.671
261.73	14.241
262.10	13.678
262.47	13.497
262.85	10.972
263.22	16.000
263.59	14.953
263.96	18.323
264.33	13.636
264.70	11.310
265.07	14.583
265.44	20.113
265.81	18.079
266.18	15.574
266.55	17.995
266.92	17.876
267.29	16.449
267.66	14.578
268.03	16.492
268.40	14.883
268.77	18.717
269.14	14.149
269.51	16.452
269.88	13.466
270.25	12.755
270.62	13.171
270.99	13.043
271.36	14.425
271.73	11.972
272.10	9.732
272.47	13.475
272.84	14.109
273.21	15.777
273.58	14.940
273.95	13.501
274.32	14.319
274.69	13.348
275.06	13.616
275.43	13.605
275.80	17.219
276.17	12.874
276.54	15.203
276.91	14.912
277.28	13.974
277.65	16.529
278.02	15.532
278.39	15.536
278.76	13.417
279.13	12.863
279.50	16.176
279.87	14.471
280.23	12.688
280.60	14.815
280.97	16.162
281.34	13.654
281.71	14.579
282.08	15.133
282.45	12.720
282.82	12.934
283.19	11.992
283.56	15.414
283.92	12.334
284.29	14.615
284.66	12.984
285.03	13.949
285.40	13.043
285.77	13.357
286.14	13.538
286.51	14.945
286.87	11.883
287.24	11.050
287.61	11.993
287.98	13.158
288.35	12.652
288.72	13.835
289.08	13.368
289.45	13.005
289.82	12.587
290.19	14.505
290.56	12.521
290.93	12.290
291.29	10.632
291.66	12.126
292.03	10.686
292.40	12.903
292.77	9.091
293.13	10.714
293.50	12.747
293.87	11.145
294.24	10.355
294.60	10.730
294.97	13.095
295.34	11.656
295.71	10.432
296.08	11.659
296.44	10.242
296.81	11.389
297.18	8.986
297.55	12.602
297.91	10.274
298.28	11.214
298.65	11.940
299.02	9.838
299.38	6.840
299.75	10.897
300.12	9.555
300.48	10.013
300.85	11.407
301.22	9.481
301.59	9.211
301.95	10.000
302.32	10.376
302.69	10.075
303.05	10.025
303.42	10.461
303.79	10.631
304.15	11.470
304.52	8.323
304.89	9.942
305.25	10.412
305.62	7.935
305.99	8.655
306.35	10.173
306.72	9.336
307.09	9.806
307.45	10.218
307.82	10.301
308.19	9.640
308.55	10.033
308.92	11.220
309.29	9.721
309.65	9.365
310.02	10.891
310.38	9.879
310.75	8.962
311.12	10.764
311.48	9.014
311.85	9.634
312.22	9.177
312.58	9.766
312.95	9.178
313.31	10.352
313.68	10.471
314.05	8.980
314.41	9.381
314.78	11.134
315.14	9.764
315.51	10.248
315.87	9.836
316.24	11.325
316.61	11.122
316.97	11.111
317.34	10.937
317.70	10.612
318.07	10.385
318.43	11.569
318.80	11.932
319.16	12.109
319.53	11.681
319.89	12.008
320.26	10.830
320.62	11.434
320.99	10.856
321.35	12.436
321.72	12.773
322.08	12.387
322.45	12.183
322.81	13.360
323.18	11.286
323.54	12.259
323.91	12.853
324.27	12.988
324.64	13.577
325.00	14.234
325.37	16.162
325.73	13.237
326.10	14.986
326.46	14.978
326.83	14.786
327.19	14.908
327.56	14.422
327.92	14.789
328.29	15.000
328.65	16.132
329.01	16.452
329.38	15.300
329.74	14.731
330.11	16.126
330.47	15.399
330.84	16.154
331.20	17.395
331.56	15.648
331.93	17.169
332.29	16.499
332.66	16.652
333.02	15.985
333.38	14.940
333.75	17.766
334.11	16.652
334.48	17.860
334.84	16.941
335.20	17.200
335.57	17.044
335.93	16.621
336.29	17.219
336.66	16.530
337.02	16.450
337.38	16.944
337.75	17.727
338.11	16.862
338.47	18.704
338.84	16.451
339.20	17.459
339.56	18.073
339.93	18.353
340.29	17.064
340.65	18.638
341.02	16.667
341.38	16.814
341.74	16.166
342.11	16.551
342.47	16.815
342.83	17.820
343.20	16.202
343.56	18.174
343.92	18.335
344.28	18.104
344.65	17.012
345.01	16.681
345.37	16.905
345.73	18.996
346.10	18.550
346.46	17.241
346.82	17.021
347.19	16.791
347.55	16.959
347.91	18.123
348.27	17.462
348.63	17.376
349.00	17.145
349.36	17.623
349.72	17.993
350.08	17.623
350.45	17.318
350.81	16.611
351.17	17.182
351.53	17.878
351.89	17.176
352.26	17.600
352.62	17.742
352.98	17.108
353.34	17.713
353.70	17.557
354.07	17.419
354.43	17.774
354.79	16.846
355.15	18.968
355.51	19.066
355.87	17.557
356.24	18.352
356.60	17.947
356.96	18.175
357.32	17.812
357.68	16.497
358.04	18.174
358.40	17.605
358.77	18.581
359.13	17.694
359.49	18.182
359.85	18.175
360.21	18.022
360.57	18.133
360.93	18.684
361.29	17.069
361.66	18.103
362.02	18.409
362.38	19.269
362.74	17.790
363.10	18.435
363.46	17.791
363.82	19.684
364.18	19.041
364.54	18.235
364.90	18.136
365.26	18.705
365.62	18.978
365.98	17.522
366.35	19.301
366.71	18.847
367.07	19.594
367.43	18.045
367.79	18.587
368.15	18.880
368.51	19.228
368.87	17.875
369.23	18.484
369.59	18.294
369.95	18.768
370.31	18.425
370.67	18.806
371.03	18.596
371.39	18.381
371.75	19.560
372.11	19.544
372.47	19.601
372.83	19.021
373.19	19.330
373.55	18.412
373.91	19.150
374.27	19.986
374.63	19.957
374.99	19.220
375.35	19.359
375.71	19.720
376.07	19.803
376.42	19.728
376.78	19.732
377.14	18.619
377.50	19.057
377.86	19.946
378.22	20.230
378.58	20.513
378.94	19.282
379.30	20.586
379.66	19.937
380.02	19.375
380.38	19.111
380.74	19.928
381.09	20.245
381.45	19.939
381.81	20.173
382.17	20.812
382.53	20.050
382.89	20.339
383.25	20.784
383.61	20.976
383.97	19.683
384.32	20.013
384.68	20.681
385.04	19.975
385.40	19.913
385.76	20.629
386.12	20.893
386.48	21.137
386.83	20.165
387.19	21.429
387.55	21.832
387.91	21.333
388.27	21.673
388.62	21.145
388.98	20.196
389.34	20.987
389.70	20.945
390.06	21.712
390.42	21.438
390.77	21.060
391.13	20.618
391.49	21.475
391.85	21.248
392.20	21.343
392.56	20.470
392.92	21.315
393.28	21.167
393.64	20.901
393.99	22.257
394.35	21.695
394.71	21.775
395.07	21.056
395.42	21.919
395.78	21.173
396.14	21.753
396.50	21.623
396.85	22.086
397.21	21.053
397.57	21.755
397.92	21.330
398.28	21.839
398.64	20.663
399.00	21.783
399.35	21.332
399.71	21.539
400.07	21.463
400.42	22.093
400.78	21.310
401.14	21.779
401.49	22.454
401.85	21.268
402.21	22.349
402.57	22.875
402.92	20.954
403.28	22.306
403.63	21.564
403.99	21.429
404.35	21.799
404.70	21.488
405.06	21.798
405.42	20.945
405.77	21.499
406.13	21.944
406.49	21.610
406.84	21.944
407.20	21.312
407.55	21.378
407.91	22.126
408.27	21.415
408.62	21.846
408.98	22.674
409.34	21.623
409.69	23.385
410.05	22.106
410.40	21.296
410.76	21.894
411.11	21.375
411.47	22.091
411.83	21.469
412.18	21.750
412.54	21.536
412.89	21.367
413.25	21.420
413.60	22.112
413.96	21.779
414.31	21.280
414.67	21.296
415.03	21.571
415.38	21.410
415.74	22.280
416.09	21.881
416.45	22.080
416.80	22.274
417.16	23.343
417.51	22.385
417.87	22.360
418.22	22.474
418.58	22.007
418.93	23.197
419.29	22.087
419.64	22.683
420.00	23.804
420.35	23.164
420.71	22.904
421.06	22.161
421.42	22.957
421.77	22.832
422.12	22.701
422.48	22.794
422.83	22.448
423.19	22.912
423.54	22.340
423.90	22.438
424.25	23.077
424.61	23.868
424.96	22.938
425.31	23.628
425.67	22.887
426.02	23.734
426.38	23.669
426.73	24.031
427.09	25.063
427.44	23.529
427.79	23.689
428.15	23.726
428.50	23.622
428.85	24.324
429.21	24.392
429.56	24.151
429.92	24.551
430.27	23.659
430.62	23.628
430.98	24.045
431.33	24.501
431.68	23.653
432.04	24.427
432.39	24.244
432.74	23.752
433.10	25.517
433.45	23.955
433.80	25.131
434.16	23.989
434.51	24.247
434.86	25.377
435.22	25.407
435.57	25.889
435.92	26.287
436.28	25.224
436.63	24.872
436.98	25.087
437.34	25.045
437.69	25.462
438.04	26.268
438.39	26.206
438.75	25.562
439.10	25.127
439.45	25.441
439.81	25.138
440.16	26.069
440.51	26.149
440.86	26.767
441.22	26.244
441.57	26.269
441.92	26.600
442.27	25.388
442.63	27.034
442.98	26.364
443.33	26.099
443.68	26.790
444.03	26.329
444.39	26.709
444.74	26.867
445.09	26.893
445.44	26.154
445.79	26.766
446.15	26.817
446.50	26.012
446.85	27.630
447.20	26.903
447.55	27.121
447.91	27.580
448.26	28.401
448.61	26.943
448.96	27.653
449.31	27.052
449.66	27.526
450.02	26.811
450.37	27.090
450.72	27.549
451.07	28.228
451.42	27.528
451.77	27.848
452.12	27.273
452.47	27.817
452.83	27.974
453.18	27.451
453.53	27.939
453.88	27.383
454.23	27.351
454.58	28.023
454.93	30.026
455.28	27.619
455.63	28.766
455.98	28.623
456.34	28.289
456.69	29.161
457.04	27.977
457.39	27.764
457.74	27.811
458.09	27.192
458.44	27.794
458.79	27.003
459.14	27.574
459.49	28.776
459.84	27.975
460.19	29.126
460.54	28.484
460.89	29.375
461.24	29.006
461.59	29.097
461.94	28.302
462.29	28.589
462.64	30.100
462.99	29.316
463.34	27.955
463.69	28.443
464.04	29.479
464.39	28.381
464.74	29.202
465.09	29.195
465.44	28.794
465.79	28.798
466.14	28.848
466.49	28.235
466.84	28.733
467.19	29.349
467.54	29.183
467.89	28.869
468.24	30.170
468.59	30.159
468.94	29.778
469.29	30.623
469.64	31.852
469.99	31.605
470.34	29.283
470.68	30.500
471.03	31.210
471.38	30.385
471.73	31.723
472.08	30.326
472.43	30.671
472.78	29.952
473.13	30.476
473.48	28.925
473.83	28.954
474.17	30.440
474.52	29.419
474.87	29.273
475.22	30.262
475.57	30.378
475.92	30.389
476.27	30.792
476.61	30.729
476.96	29.782
477.31	31.585
477.66	29.551
478.01	30.545
478.36	29.956
478.70	31.267
479.05	31.264
479.40	30.790
479.75	29.771
480.10	30.568
480.45	30.400
480.79	30.665
481.14	30.789
481.49	30.296
481.84	30.647
482.19	30.309
482.53	30.024
482.88	30.597
483.23	30.854
483.58	30.566
483.92	30.397
484.27	30.583
484.62	29.762
484.97	30.100
485.31	29.697
485.66	28.318
486.01	27.991
486.36	27.107
486.70	27.820
487.05	28.055
487.40	29.162
487.75	29.042
488.09	28.461
488.44	30.055
488.79	30.669
489.13	31.250
489.48	30.312
489.83	31.345
490.17	31.281
490.52	31.270
490.87	31.236
491.22	31.614
491.56	31.689
491.91	30.545
492.26	31.648
492.60	31.046
492.95	32.415
493.30	31.510
493.64	32.024
493.99	32.077
494.34	31.748
494.68	31.714
495.03	31.290
495.37	32.188
495.72	31.550
496.07	32.341
496.41	31.368
496.76	32.427
497.11	30.927
497.45	32.124
497.80	32.543
498.14	32.240
498.49	32.910
498.84	32.585
499.18	32.631
499.53	31.994
499.87	31.372
500.22	32.295
500.56	32.526
500.91	32.430
501.26	32.081
501.60	32.169
501.95	33.236
502.29	32.833
502.64	31.950
502.98	33.300
503.33	31.412
503.67	32.193
504.02	33.187
504.36	33.548
504.71	32.222
505.06	32.914
505.40	32.792
505.75	32.474
506.09	32.489
506.44	33.008
506.78	33.112
507.13	33.247
507.47	32.846
507.82	33.280
508.16	33.281
508.51	33.631
508.85	33.490
509.19	34.007
509.54	33.298
509.88	32.902
510.23	33.728
510.57	34.206
510.92	32.623
511.26	33.824
511.61	34.213
511.95	33.808
512.30	33.758
512.64	33.723
512.98	33.970
513.33	34.695
513.67	34.565
514.02	34.668
514.36	35.429
514.70	34.615
515.05	33.901
515.39	34.888
515.74	35.210
516.08	34.608
516.42	35.925
516.77	36.805
517.11	35.786
517.46	36.146
517.80	35.578
518.14	36.375
518.49	36.058
518.83	36.209
519.17	34.930
519.52	34.577
519.86	35.174
520.20	36.330
520.55	34.834
520.89	35.947
521.23	36.859
521.58	37.098
521.92	36.859
522.26	36.304
522.61	36.039
522.95	37.219
523.29	35.769
523.64	36.213
523.98	36.423
524.32	35.760
524.66	36.428
525.01	37.273
525.35	36.552
525.69	36.700
526.04	36.905
526.38	37.808
526.72	35.906
527.06	37.095
527.41	36.148
527.75	36.930
528.09	36.744
528.43	37.745
528.78	35.908
529.12	36.581
529.46	35.997
529.80	35.845
530.15	36.634
530.49	37.508
530.83	37.278
531.17	35.930
531.51	37.415
531.86	36.370
532.20	36.465
532.54	36.828
532.88	36.824
533.22	36.828
533.57	36.435
533.91	36.162
534.25	37.305
534.59	35.471
534.93	35.368
535.27	34.962
535.62	36.163
535.96	36.204
536.30	36.544
536.64	37.147
536.98	35.958
537.32	37.838
537.66	37.798
538.01	37.343
538.35	36.963
538.69	36.818
539.03	36.159
539.37	37.887
539.71	35.310
540.05	36.456
540.39	37.673
540.73	36.192
541.07	38.052
541.42	37.231
541.76	37.164
542.10	37.853
542.44	36.345
542.78	34.893
543.12	36.264
543.46	36.300
543.80	37.058
544.14	35.047
544.48	36.442
544.82	37.799
545.16	37.090
545.50	36.782
545.84	37.465
546.18	38.227
546.52	37.563
546.86	37.455
547.20	36.695
547.54	36.820
547.88	36.889
548.22	35.832
548.56	36.807
548.90	36.927
549.24	36.570
549.58	36.601
549.92	36.383
550.26	37.509
550.60	38.141
550.94	37.864
551.28	37.867
551.62	39.923
551.96	37.068
552.30	37.719
552.64	36.107
552.98	35.935
553.32	36.305
553.66	37.083
554.00	39.051
554.34	38.700
554.68	38.053
555.02	38.021
555.36	37.996
555.69	37.070
556.03	37.473
556.37	36.940
556.71	37.978
557.05	37.435
557.39	37.175
557.73	38.456
558.07	38.914
558.41	38.208
558.75	37.880
559.08	38.377
559.42	38.333
559.76	38.671
560.10	38.379
560.44	37.975
560.78	37.622
561.12	38.011
561.45	37.105
561.79	36.905
562.13	38.325
562.47	38.058
562.81	36.671
563.15	39.281
563.48	37.199
563.82	38.710
564.16	38.092
564.50	37.162
564.84	37.216
565.17	36.821
565.51	39.276
565.85	37.791
566.19	37.931
566.52	38.070
566.86	37.018
567.20	36.488
567.54	36.740
567.88	37.141
568.21	36.538
568.55	35.761
568.89	35.575
569.23	35.628
569.56	34.501
569.90	33.821
570.24	33.457
570.57	34.036
570.91	33.322
571.25	32.424
571.59	32.108
571.92	31.615
572.26	31.793
572.60	31.566
572.93	32.664
573.27	32.414
573.61	32.130
573.95	31.513
574.28	30.906
574.62	30.613
574.96	30.117
575.29	30.893
575.63	30.060
575.97	30.794
576.30	30.897
576.64	30.834
576.98	31.274
577.31	30.990
577.65	30.252
577.98	30.431
578.32	30.198
578.66	29.744
578.99	30.182
579.33	30.277
579.67	30.053
580.00	31.392
580.34	30.846
580.67	30.391
581.01	31.028
581.35	29.974
581.68	30.211
582.02	29.749
582.35	29.638
582.69	30.327
583.02	30.229
583.36	30.163
583.70	31.101
584.03	31.860
584.37	32.213
584.70	31.703
585.04	30.699
585.37	31.057
585.71	31.103
586.04	30.635
586.38	31.208
586.72	31.535
587.05	32.005
587.39	31.703
587.72	31.629
588.06	32.051
588.39	31.786
588.73	32.784
589.06	32.616
589.40	32.700
589.73	33.297
590.07	33.799
590.40	33.746
590.73	34.267
591.07	34.775
591.40	35.129
591.74	35.339
592.07	35.019
592.41	34.541
592.74	33.771
593.08	31.715
593.41	33.048
593.75	32.777
594.08	32.990
594.41	32.678
594.75	33.359
595.08	33.787
595.42	33.714
595.75	34.172
596.09	34.128
596.42	34.394
596.75	34.813
597.09	34.989
597.42	33.740
597.75	35.227
598.09	34.088
598.42	33.800
598.76	34.964
599.09	33.534
599.42	32.588
599.76	32.844
600.09	33.522
600.42	32.714
600.76	33.210
601.09	33.053
601.42	32.354
601.76	33.227
602.09	34.117
602.42	34.920
602.76	35.017
603.09	34.842
603.42	35.075
603.76	33.911
604.09	33.981
604.42	33.883
604.76	35.470
605.09	34.963
605.42	35.395
605.75	34.895
606.09	34.352
606.42	34.028
606.75	34.286
607.09	34.593
607.42	34.160
607.75	34.147
608.08	34.097
608.42	33.668
608.75	34.843
609.08	35.426
609.41	35.127
609.75	35.030
610.08	35.597
610.41	35.314
610.74	35.202
611.07	36.382
611.41	35.703
611.74	36.141
612.07	36.135
612.40	36.543
612.73	36.102
613.07	35.208
613.40	37.746
613.73	36.486
614.06	36.895
614.39	36.943
614.72	36.527
615.06	35.475
615.39	36.190
615.72	35.684
616.05	36.145
616.38	35.442
616.71	35.963
617.05	37.060
617.38	38.341
617.71	38.113
618.04	36.444
618.37	38.714
618.70	38.416
619.03	39.583
619.36	39.074
619.69	39.651
620.03	39.299
620.36	39.270
620.69	38.330
621.02	38.685
621.35	40.332
621.68	41.497
622.01	40.500
622.34	40.303
622.67	39.984
623.00	38.897
623.33	39.634
623.66	38.369
623.99	39.259
624.32	39.316
624.65	38.120
624.99	39.804
625.32	39.500
625.65	41.555
625.98	41.821
626.31	40.233
626.64	41.248
626.97	41.972
627.30	42.907
627.63	41.248
627.96	42.408
628.29	42.553
628.62	44.739
628.95	43.888
629.28	46.371
629.61	44.167
629.94	44.868
630.26	44.664
630.59	47.034
630.92	44.615
631.25	44.205
631.58	45.595
631.91	45.395
632.24	46.101
632.57	46.023
632.90	45.314
633.23	45.765
633.56	46.725
633.89	46.239
634.22	47.531
634.55	47.141
634.88	48.404
635.20	48.333
635.53	46.800
635.86	46.684
636.19	47.865
636.52	47.704
636.85	47.395
637.18	45.283
637.51	48.050
637.83	47.306
638.16	49.386
638.49	47.003
638.82	46.184
639.15	47.083
639.48	49.106
639.81	47.420
640.13	49.351
640.46	50.729
640.79	48.159
641.12	48.597
641.45	49.700
641.77	51.556
642.10	50.237
642.43	48.875
642.76	52.640
643.09	50.404
643.41	47.735
643.74	51.236
644.07	50.411
644.40	52.872
644.73	53.765
645.05	50.503
645.38	50.794
645.71	52.305
646.04	54.219
646.36	50.532
646.69	52.698
647.02	55.766
647.35	51.493
647.67	53.199
648.00	53.172
648.33	50.683
648.66	49.831
648.98	46.399
649.31	50.083
649.64	49.765
649.96	49.757
650.29	50.426
650.62	51.282
650.94	52.593
651.27	53.259
651.60	51.532
651.92	52.622
652.25	53.641
652.58	50.667
652.90	51.286
653.23	49.412
653.56	49.746
653.88	51.203
654.21	49.737
654.54	48.387
654.86	51.104
655.19	46.199
655.52	39.551
655.84	30.146
656.17	33.688
656.49	44.765
656.82	47.266
657.15	35.980
657.47	27.476
657.80	20.782
658.13	20.807
658.45	32.087
658.78	32.884
659.10	33.614
659.43	34.901
659.75	37.296
660.08	38.759
660.41	43.514
660.73	47.238
661.06	50.953
661.38	52.055
661.71	52.156
662.03	57.511
662.36	52.308
662.68	54.867
663.01	55.022
663.33	55.452
663.66	53.953
663.98	55.116
664.31	56.077
664.63	51.843
664.96	48.478
665.28	52.318
665.61	53.463
665.93	55.217
666.26	57.267
666.58	52.349
666.91	54.353
667.23	53.302
667.56	58.531
667.88	54.916
668.21	55.370
668.53	56.974
668.86	56.604
669.18	52.594
669.50	57.869
669.83	51.860
670.15	55.245
670.48	55.981
670.80	53.687
671.13	51.454
671.45	52.511
671.77	54.721
672.10	51.485
672.42	46.816
672.75	49.734
673.07	49.911
673.39	51.193
673.72	48.126
674.04	50.208
674.37	53.814
674.69	50.749
675.01	51.556
675.34	52.027
675.66	52.546
675.98	54.545
676.31	54.587
676.63	54.394
676.95	54.091
677.28	54.353
677.60	56.867
677.92	51.147
678.25	54.267
678.57	51.082
678.89	50.420
679.22	52.573
679.54	48.394
679.86	48.907
680.18	50.874
680.51	50.379
680.83	49.702
681.15	51.600
681.48	53.484
681.80	51.033
682.12	50.202
682.44	50.837
682.77	56.291
683.09	50.801
683.41	53.409
683.73	52.765
684.06	50.664
684.38	50.538
684.70	51.416
685.02	53.320
685.34	48.814
685.67	49.531
685.99	47.740
686.31	47.788
686.63	49.165
686.96	46.388
687.28	46.465
687.60	46.958
687.92	51.111
688.24	48.992
688.56	48.472
688.89	52.232
689.21	52.667
689.53	52.900
689.85	53.256
690.17	51.116
690.49	50.827
690.82	51.456
691.14	50.476
691.46	51.168
691.78	53.604
692.10	52.473
692.42	47.835
692.74	52.564
693.06	48.198
693.39	48.869
693.71	50.679
694.03	48.961
694.35	54.907
694.67	53.535
694.99	51.958
695.31	53.786
695.63	51.000
695.95	51.768
696.27	51.813
696.59	54.722
696.91	54.342
697.23	54.242
697.56	52.723
697.88	49.247
698.20	52.164
698.52	49.882
698.84	49.282
699.16	50.000
699.48	48.622
699.80	51.613
700.12	54.447
700.44	53.782
700.76	53.488
701.08	55.152
701.40	53.313
701.72	63.272
702.04	54.785
702.36	61.204
702.68	55.255
703.00	52.424
703.32	52.493
703.64	48.870
703.96	53.623
704.28	57.669
704.60	56.190
704.91	53.943
705.23	58.140
705.55	60.071
705.87	57.401
706.19	56.296
706.51	56.014
706.83	56.592
707.15	55.763
707.47	53.501
707.79	49.479
708.11	51.000
708.43	50.000
708.74	49.871
709.06	51.268
709.38	51.988
709.70	52.367
710.02	56.369
710.34	53.251
710.66	47.756
710.98	53.311
711.29	60.984
711.61	54.576
711.93	54.397
712.25	54.639
712.57	58.608
712.89	55.970
713.20	55.363
713.52	54.355
713.84	53.925
714.16	56.014
714.48	51.613
714.80	52.564
715.11	52.888
715.43	47.649
715.75	50.000
716.07	52.492
716.39	52.685
716.70	53.506
717.02	55.725
717.34	59.919
717.66	60.619
717.97	61.304
718.29	55.649
718.61	56.299
718.93	57.752
719.24	56.654
719.56	56.627
719.88	52.921
720.20	56.439
720.51	56.705
720.83	50.579
721.15	58.403
721.46	58.871
721.78	54.941
722.10	51.301
722.42	58.921
722.73	54.694
723.05	54.694
723.37	58.898
723.68	58.559
724.00	55.556
724.32	53.333
724.63	56.818
724.95	56.332
725.27	58.065
725.58	54.661
725.90	50.794
726.22	52.896
726.53	52.203
726.85	53.933
727.16	61.132
727.48	51.822
727.80	54.251
728.11	52.542
728.43	55.294
728.74	52.823
729.06	55.200
729.38	52.632
729.69	56.175
730.01	52.308
730.32	53.731
730.64	51.943
730.96	52.075
731.27	48.333
731.59	51.186
731.90	50.318
732.22	51.104
732.53	47.508
732.85	54.255
733.16	52.862
733.48	55.036
733.80	52.174
734.11	49.831
734.43	48.797
734.74	49.394
735.06	49.186
735.37	45.619
735.69	51.852
736.00	51.916
736.32	43.624
736.63	47.183
736.95	49.488
737.26	48.754
737.58	48.658
737.89	53.480
738.21	51.504
738.52	49.794
738.83	54.148
739.15	52.838
739.46	53.543
739.78	50.549
740.09	45.752
740.41	48.551
740.72	50.787
741.04	52.632
741.35	51.064
741.66	54.502
741.98	56.633
742.29	61.386
742.61	59.162
742.92	48.341
743.23	52.778
743.55	48.869
743.86	61.244
744.18	54.067
744.49	50.000
744.80	57.609
745.12	67.380
745.43	57.073
745.74	60.417
746.06	58.537
746.37	59.162
746.68	60.664
747.00	57.979
747.31	63.184
747.62	60.680
747.94	58.852
748.25	57.921
748.56	58.470
748.88	59.162
749.19	66.489
749.50	59.113
749.82	54.245
750.13	55.505
750.44	54.887
750.75	50.000
751.07	55.474
751.38	49.042
751.69	52.549
752.01	57.364
752.32	52.988
752.63	48.221
752.94	51.293
753.26	57.322
753.57	54.299
753.88	54.867
754.19	49.167
754.51	52.066
754.82	54.251
755.13	52.500
755.44	52.419
755.75	51.172
756.07	47.860
756.38	51.698
756.69	53.640
757.00	49.000
757.31	47.386
757.63	46.341
757.94	45.000
758.25	44.384
758.56	43.883
758.87	42.493
759.18	47.664
759.50	50.909
759.81	46.823
760.12	47.419
760.43	43.939
760.74	49.691
761.05	48.000
761.36	49.148
761.67	49.091
761.99	50.000
762.30	46.909
762.61	48.617
762.92	53.394
763.23	52.703
763.54	54.673
763.85	56.780
764.16	54.772
764.47	42.742
764.78	49.084
765.10	48.822
765.41	43.533
765.72	46.032
766.03	46.617
766.34	50.365
766.65	51.394
766.96	55.051
767.27	49.468
767.58	47.126
767.89	61.702
768.20	53.409
768.51	46.703
768.82	51.724
769.13	52.074
769.44	43.348
769.75	50.228
770.06	53.448
770.37	53.365
770.68	52.284
770.99	49.321
771.30	50.980
771.61	46.154
771.92	50.431
772.23	54.680
772.54	52.151
772.85	57.407
773.16	50.000
773.47	68.627
773.78	68.627
774.09	53.293
774.39	52.000
774.70	50.955
775.01	61.379
775.32	59.286
775.63	50.413
775.94	60.305
776.25	59.055
776.56	56.667
776.87	58.654
777.18	64.103
777.48	57.759
777.79	60.000
778.10	61.905
778.41	63.063
778.72	55.556
779.03	62.406
779.34	57.447
779.65	50.000
779.95	51.370
780.26	53.793
780.57	54.472
780.88	52.756
781.19	52.586
781.50	62.791
781.80	53.846
782.11	50.314
782.42	62.308
782.73	51.799
783.04	59.259
783.34	56.944
783.65	53.846
783.96	63.934
784.27	56.552
784.57	59.350
784.88	53.125
785.19	75.000
785.50	70.000
785.81	54.310
786.11	56.897
786.42	66.019
786.73	63.636
787.04	55.102
787.34	58.036
787.65	58.095
787.96	56.637
788.26	65.455
788.57	59.829
788.88	59.375
789.19	50.000
789.49	53.913
789.80	58.163
790.11	55.556
790.41	51.818
790.72	63.043
791.03	56.818
791.33	71.250
791.64	67.500
791.95	56.977
792.25	52.128
792.56	58.427
792.87	49.315
793.17	72.464
793.48	57.333
793.79	53.750
794.09	73.750
794.40	49.057
794.70	54.369
795.01	42.276
795.32	53.846
795.62	53.333
795.93	53.922
796.23	53.774
796.54	58.333
796.85	57.353
797.15	57.746
797.46	86.111
797.76	65.152
798.07	37.209
798.37	57.895
798.68	57.576
798.99	50.617
799.29	61.429
799.60	60.870
799.90	65.333
800.21	68.852
800.51	58.462
800.82	76.271
801.12	69.565
801.43	49.180
801.73	90.476
802.04	66.000
802.34	62.687
802.65	63.462
802.95	48.214
803.26	55.769
803.56	62.745
803.87	67.391
804.17	46.667
804.48	68.254
804.78	79.630
805.09	60.870
805.39	60.000
805.70	74.074
806.00	54.386
806.30	52.113
806.61	60.000
806.91	34.722
807.22	67.105
807.52	62.667
807.83	43.636
808.13	43.056
808.43	63.235
808.74	43.284
809.04	55.932
809.35	63.462
809.65	57.813
809.95	56.757
810.26	56.818
810.56	38.356
810.86	69.048
811.17	66.000
811.47	59.184
811.77	76.316
812.08	68.182
812.38	41.509
812.69	70.000
812.99	42.424
813.29	73.684
813.59	54.286
813.90	68.182
814.20	30.769
814.50	78.846
814.81	62.264
815.11	46.809
815.41	55.932
815.72	76.190
816.02	58.824
816.32	56.250
816.62	56.098
816.93	45.946
817.23	80.000
817.53	56.250
817.84	54.348
818.14	51.923
818.44	50.000
818.74	56.522
819.04	32.500
819.35	81.081
819.65	44.118
819.95	66.667
820.25	78.571
820.56	87.500
820.86	17.241
821.16	55.000
821.46	57.447
821.76	77.500
822.07	39.535
822.37	54.054
822.67	25.000
822.97	78.571
823.27	71.429
823.57	64.000
823.88	55.556
824.18	42.857
824.48	79.412
824.78	54.839
825.08	86.957
825.38	75.758
825.69	58.333
825.99	55.263
826.29	63.889
826.59	220.000
826.89	90.476
827.19	63.043
827.49	55.000
827.79	65.714
828.09	78.571
828.39	60.606
828.70	94.595
829.00	42.857
829.30	57.143
829.60	86.667
829.90	68.750
830.20	44.737
830.50	70.370
830.80	52.174
831.10	90.909
831.40	103.030
831.70	83.871
832.00	109.524
832.30	38.095
832.60	66.667
832.90	55.172
833.20	40.000
833.50	75.758
833.80	29.630
834.10	69.231
834.40	62.500
834.70	66.667
835.00	31.579
835.30	100.000
835.60	66.667
835.90	41.935
836.20	40.909
836.50	85.714
836.80	3.846
837.10	75.000
837.40	400.000
837.70	63.636
838.00	163.636
838.30	82.609
838.60	92.308
838.90	45.455
839.19	71.429
839.49	53.333
839.79	146.154
840.09	91.667
840.39	60.714
840.69	64.286
840.99	-7.692
841.29	26.316
841.59	80.000
841.88	90.909
842.18	160.000
842.48	62.500
842.78	-13.333
843.08	77.778
843.38	-10.000
843.68	39.130
843.97	120.000
844.27	60.000
844.57	20.000
844.87	55.556
845.17	100.000
845.47	93.333
845.76	47.619
846.06	100.000
846.36	150.000
846.66	92.857
846.96	113.333
847.25	-37.500
847.55	214.286
847.85	150.000
848.15	36.364
848.44	-100.000
848.74	55.000
849.04	48.148
849.34	63.636
849.63	33.333
849.93	-20.000
850.23	44.444
850.53	120.000
850.82	53.846
851.12	88.889
851.42	60.000
851.71	53.846
852.01	92.857
852.31	200.000
852.61	63.636
852.90	35.000
853.20	47.368
853.50	50.000
853.79	69.565
854.09	70.833
854.39	52.632
854.68	62.500
854.98	32.258
855.28	103.846
855.57	60.000
855.87	100.000
856.17	70.370
856.46	121.429
856.76	40.000
857.05	100.000
857.35	92.000
857.65	38.889
857.94	107.692
858.24	68.966
858.53	55.556
858.83	37.037
859.13	22.727
859.42	78.261
859.72	200.000
860.01	-233.333
860.31	40.000
860.60	66.667
860.90	-100.000
861.20	-6.667
861.49	-250.000
861.79	66.667
862.08	75.000
862.38	113.333
862.67	140.000
862.97	216.667
863.26	75.000
863.56	83.333
863.85	-233.333
864.15	138.889
864.44	0.000
864.74	100.000
865.03	25.000
865.33	80.000
865.62	266.667
865.92	50.000
866.21	-66.667
866.51	87.500
866.80	36.364
867.10	250.000
867.39	150.000
867.69	0.000
867.98	46.154
868.27	-100.000
868.57	73.333
868.86	50.000
869.16	15.385
869.45	106.667
869.75	300.000
870.04	0.000
870.33	14.286
870.63	61.905
870.92	-0.000
871.22	160.000
871.51	0.000
871.80	266.667
872.10	-100.000
>>>>>End Processed Spectral Data<<<<<
