SpectraSuite Data File
++++++++++++++++++++++++++++++++++++
Date: Fri May 15 17:16:06 PDT 2015
User: schluterlab
Dark Spectrum Present: Yes
Reference Spectrum Present: Yes
Number of Sampled Component Spectra: 1
Spectrometers: USB2E3373
Integration Time (usec): 3000 (USB2E3373)
Spectra Averaged: 3 (USB2E3373)
Boxcar Smoothing: 0 (USB2E3373)
Correct for Electrical Dark: No (USB2E3373)
Strobe/Lamp Enabled: No (USB2E3373)
Correct for Detector Non-linearity: No (USB2E3373)
Correct for Stray Light: No (USB2E3373)
Number of Pixels in Processed Spectrum: 2048
>>>>>Begin Processed Spectral Data<<<<<
178.53	0.000
178.91	0.000
179.29	175.000
179.67	-200.000
180.04	-128.571
180.42	250.000
180.80	500.000
181.18	33.333
181.56	-0.000
181.94	200.000
182.31	900.000
182.69	140.000
183.07	33.333
183.45	140.000
183.83	-0.000
184.20	-18.182
184.58	44.444
184.96	-25.000
185.34	-166.667
185.72	-50.000
186.09	69.231
186.47	-300.000
186.85	133.333
187.23	144.444
187.61	200.000
187.98	-200.000
188.36	55.556
188.74	33.333
189.12	5.882
189.49	72.222
189.87	0.000
190.25	14.286
190.63	-100.000
191.00	200.000
191.38	26.316
191.76	950.000
192.14	-0.000
192.51	150.000
192.89	-55.556
193.27	0.000
193.65	200.000
194.02	54.545
194.40	30.000
194.78	-25.000
195.15	8.333
195.53	37.500
195.91	175.000
196.29	75.000
196.66	61.538
197.04	-14.286
197.42	33.333
197.79	-133.333
198.17	-61.538
198.55	700.000
198.92	166.667
199.30	1400.000
199.68	200.000
200.05	-133.333
200.43	0.000
200.81	66.667
201.18	166.667
201.56	500.000
201.94	100.000
202.31	-166.667
202.69	0.000
203.07	-0.000
203.44	-800.000
203.82	0.000
204.19	121.429
204.57	-433.333
204.95	112.500
205.32	140.000
205.70	142.857
206.08	325.000
206.45	188.889
206.83	50.000
207.20	114.286
207.58	-300.000
207.96	0.000
208.33	80.000
208.71	150.000
209.08	-33.333
209.46	200.000
209.84	-20.000
210.21	400.000
210.59	100.000
210.96	83.333
211.34	75.000
211.71	126.667
212.09	-71.429
212.46	-100.000
212.84	0.000
213.22	0.000
213.59	100.000
213.97	107.692
214.34	9.091
214.72	33.333
215.09	125.000
215.47	-15.385
215.84	45.455
216.22	-100.000
216.59	50.000
216.97	850.000
217.34	125.000
217.72	-120.000
218.09	200.000
218.47	-0.000
218.84	600.000
219.22	-33.333
219.59	140.000
219.97	-133.333
220.34	500.000
220.72	400.000
221.09	225.000
221.47	50.000
221.84	-250.000
222.22	-300.000
222.59	109.091
222.97	75.000
223.34	33.333
223.72	71.429
224.09	66.667
224.46	39.286
224.84	133.333
225.21	60.000
225.59	60.000
225.96	150.000
226.34	75.000
226.71	28.571
227.08	166.667
227.46	150.000
227.83	-350.000
228.21	133.333
228.58	36.364
228.95	62.500
229.33	30.000
229.70	50.000
230.08	-62.500
230.45	114.286
230.82	28.571
231.20	13.333
231.57	107.143
231.95	114.286
232.32	10.000
232.69	64.286
233.07	33.333
233.44	20.000
233.81	-10.000
234.19	111.111
234.56	29.412
234.93	-350.000
235.31	75.000
235.68	-100.000
236.05	38.462
236.43	-5.000
236.80	23.529
237.17	34.375
237.55	30.000
237.92	11.111
238.29	-19.444
238.67	36.667
239.04	-5.882
239.41	-9.756
239.79	-10.000
240.16	26.829
240.53	-15.789
240.91	2.174
241.28	15.873
241.65	12.500
242.02	28.767
242.40	25.000
242.77	-5.085
243.14	-9.091
243.51	11.250
243.89	14.943
244.26	2.299
244.63	17.857
245.00	-2.062
245.38	12.371
245.75	-6.742
246.12	3.448
246.49	8.264
246.87	5.769
247.24	-3.361
247.61	7.895
247.98	-5.691
248.36	1.875
248.73	-3.289
249.10	3.247
249.47	10.759
249.84	-0.654
250.22	2.353
250.59	5.882
250.96	4.695
251.33	-4.651
251.70	0.588
252.08	-0.508
252.45	-1.485
252.82	-1.005
253.19	7.373
253.56	-2.804
253.94	3.604
254.31	3.043
254.68	5.702
255.05	2.362
255.42	3.493
255.79	0.772
256.16	0.778
256.54	4.478
256.91	-0.380
257.28	2.230
257.65	1.124
258.02	-1.418
258.39	3.367
258.76	2.564
259.14	1.993
259.51	0.647
259.88	1.031
260.25	0.980
260.62	2.778
260.99	-0.339
261.36	0.000
261.73	2.532
262.10	2.432
262.47	0.000
262.85	-0.940
263.22	5.846
263.59	2.804
263.96	2.795
264.33	3.030
264.70	-0.893
265.07	-0.893
265.44	3.683
265.81	4.237
266.18	1.366
266.55	2.571
266.92	0.518
267.29	3.916
267.66	0.000
268.03	1.571
268.40	1.044
268.77	5.080
269.14	3.118
269.51	1.799
269.88	0.249
270.25	-0.255
270.62	-0.976
270.99	-1.535
271.36	2.689
271.73	2.582
272.10	1.217
272.47	2.128
272.84	-0.248
273.21	0.464
273.58	3.373
273.95	3.432
274.32	2.079
274.69	-0.679
275.06	1.116
275.43	0.907
275.80	0.221
276.17	-0.230
276.54	5.567
276.91	0.658
277.28	0.000
277.65	3.099
278.02	1.064
278.39	-1.751
278.76	0.419
279.13	0.000
279.50	1.891
279.87	3.024
280.23	-1.290
280.60	3.899
280.97	1.616
281.34	0.962
281.71	3.491
282.08	-1.022
282.45	0.391
282.82	-0.579
283.19	1.354
283.56	1.541
283.92	-0.569
284.29	0.385
284.66	0.581
285.03	-0.982
285.40	-0.378
285.77	1.054
286.14	-0.181
286.51	1.292
286.87	0.914
287.24	-0.184
287.61	-1.940
287.98	2.105
288.35	1.213
288.72	2.277
289.08	0.868
289.45	2.636
289.82	2.273
290.19	1.024
290.56	-0.686
290.93	1.010
291.29	2.157
291.66	0.945
292.03	0.638
292.40	0.484
292.77	-0.319
293.13	-0.974
293.50	-0.303
293.87	1.221
294.24	1.546
294.60	1.043
294.97	2.679
295.34	1.687
295.71	1.788
296.08	0.448
296.44	-0.996
296.81	0.972
297.18	1.159
297.55	1.355
297.91	1.781
298.28	1.979
298.65	0.678
299.02	0.539
299.38	0.274
299.75	0.690
300.12	1.440
300.48	-0.395
300.85	2.535
301.22	0.519
301.59	1.053
301.95	1.139
302.32	3.632
302.69	0.746
303.05	0.124
303.42	1.245
303.79	1.636
304.15	2.151
304.52	-0.595
304.89	0.702
305.25	0.000
305.62	-0.233
305.99	0.936
306.35	-0.116
306.72	-0.562
307.09	0.912
307.45	1.263
307.82	-0.116
308.19	1.045
308.55	1.418
308.92	0.980
309.29	-0.335
309.65	-0.108
310.02	0.440
310.38	1.976
310.75	1.421
311.12	0.538
311.48	-0.318
311.85	0.838
312.22	0.633
312.58	1.486
312.95	1.921
313.31	-0.207
313.68	0.000
314.05	0.714
314.41	2.062
314.78	0.928
315.14	2.364
315.51	2.277
315.87	2.049
316.24	3.539
316.61	2.067
316.97	2.976
317.34	3.125
317.70	4.111
318.07	3.077
318.43	3.137
318.80	4.451
319.16	4.199
319.53	6.078
319.89	5.020
320.26	5.972
320.62	6.520
320.99	5.324
321.35	6.269
321.72	7.788
322.08	7.553
322.45	7.716
322.81	8.841
323.18	8.047
323.54	8.784
323.91	9.542
324.27	12.305
324.64	12.360
325.00	13.321
325.37	14.692
325.73	13.418
326.10	14.260
326.46	16.861
326.83	18.023
327.19	18.221
327.56	19.548
327.92	20.775
328.29	20.625
328.65	22.830
329.01	23.254
329.38	23.779
329.74	24.363
330.11	25.301
330.47	24.861
330.84	26.923
331.20	27.567
331.56	26.759
331.93	30.776
332.29	30.522
332.66	29.683
333.02	31.041
333.38	30.156
333.75	33.608
334.11	30.797
334.48	33.182
334.84	33.608
335.20	33.760
335.57	33.545
335.93	35.050
336.29	35.543
336.66	34.332
337.02	34.851
337.38	35.926
337.75	37.636
338.11	36.339
338.47	36.314
338.84	38.817
339.20	36.654
339.56	36.606
339.93	37.601
340.29	38.716
340.65	38.441
341.02	37.855
341.38	38.319
341.74	38.516
342.11	37.608
342.47	38.523
342.83	39.014
343.20	38.153
343.56	39.478
343.92	41.010
344.28	40.478
344.65	39.378
345.01	39.239
345.37	39.108
345.73	39.665
346.10	41.242
346.46	40.118
346.82	39.116
347.19	37.905
347.55	40.685
347.91	40.453
348.27	39.369
348.63	40.716
349.00	38.802
349.36	40.233
349.72	42.123
350.08	41.885
350.45	40.862
350.81	41.528
351.17	40.228
351.53	41.469
351.89	40.710
352.26	40.960
352.62	41.371
352.98	41.124
353.34	40.338
353.70	42.152
354.07	40.565
354.43	41.713
354.79	42.197
355.15	41.667
355.51	42.642
355.87	43.285
356.24	41.191
356.60	43.250
356.96	42.857
357.32	41.134
357.68	41.595
358.04	42.246
358.40	42.765
358.77	42.982
359.13	42.754
359.49	40.524
359.85	42.434
360.21	44.099
360.57	43.076
360.93	42.965
361.29	42.372
361.66	43.966
362.02	45.152
362.38	43.260
362.74	43.528
363.10	44.771
363.46	43.958
363.82	44.929
364.18	44.207
364.54	43.162
364.90	44.803
365.26	45.197
365.62	46.277
365.98	45.088
366.35	45.375
366.71	46.489
367.07	47.170
367.43	46.154
367.79	45.724
368.15	44.724
368.51	45.885
368.87	46.159
369.23	44.621
369.59	47.595
369.95	46.701
370.31	46.387
370.67	46.866
371.03	46.079
371.39	47.192
371.75	47.546
372.11	46.220
372.47	48.299
372.83	47.906
373.19	47.789
373.55	48.014
373.91	47.372
374.27	49.681
374.63	48.313
374.99	48.723
375.35	49.930
375.71	50.210
376.07	49.017
376.42	50.136
376.78	49.732
377.14	50.034
377.50	49.602
377.86	50.134
378.22	50.223
378.58	50.962
378.94	49.716
379.30	50.655
379.66	51.724
380.02	51.993
380.38	51.248
380.74	51.167
381.09	53.190
381.45	51.070
381.81	52.313
382.17	53.299
382.53	52.530
382.89	53.107
383.25	53.951
383.61	53.598
383.97	52.952
384.32	54.034
384.68	53.189
385.04	52.819
385.40	54.014
385.76	54.528
386.12	56.080
386.48	54.917
386.83	53.393
387.19	54.518
387.55	55.834
387.91	55.807
388.27	51.770
388.62	56.451
388.98	55.617
389.34	55.153
389.70	55.935
390.06	54.877
390.42	55.894
390.77	54.872
391.13	54.855
391.49	55.304
391.85	54.971
392.20	54.802
392.56	55.817
392.92	56.195
393.28	57.075
393.64	55.075
393.99	56.364
394.35	56.483
394.71	55.683
395.07	54.683
395.42	55.009
395.78	57.003
396.14	55.990
396.50	56.373
396.85	57.308
397.21	55.952
397.57	55.737
397.92	56.561
398.28	57.241
398.64	54.518
399.00	55.305
399.35	56.208
399.71	56.002
400.07	56.288
400.42	55.814
400.78	56.644
401.14	56.443
401.49	56.522
401.85	56.368
402.21	56.325
402.57	55.875
402.92	54.517
403.28	54.699
403.63	56.873
403.99	56.952
404.35	56.902
404.70	55.774
405.06	54.642
405.42	55.500
405.77	55.665
406.13	55.879
406.49	55.891
406.84	55.562
407.20	56.231
407.55	53.574
407.91	56.217
408.27	55.641
408.62	55.754
408.98	55.268
409.34	56.506
409.69	55.814
410.05	52.956
410.40	55.679
410.76	55.669
411.11	55.625
411.47	55.095
411.83	55.304
412.18	55.598
412.54	54.682
412.89	54.680
413.25	55.776
413.60	54.969
413.96	54.294
414.31	56.463
414.67	54.843
415.03	54.794
415.38	54.112
415.74	55.244
416.09	55.976
416.45	54.828
416.80	54.660
417.16	55.870
417.51	55.630
417.87	54.889
418.22	55.699
418.58	55.652
418.93	56.426
419.29	54.802
419.64	56.384
420.00	57.305
420.35	54.925
420.71	55.711
421.06	56.108
421.42	56.731
421.77	56.821
422.12	55.789
422.48	56.470
422.83	56.032
423.19	55.982
423.54	56.437
423.90	56.066
424.25	57.865
424.61	57.038
424.96	56.214
425.31	58.174
425.67	57.746
426.02	58.775
426.38	58.485
426.73	57.627
427.09	58.228
427.44	57.824
427.79	58.103
428.15	57.767
428.50	58.025
428.85	57.617
429.21	57.895
429.56	59.892
429.92	58.654
430.27	57.343
430.62	58.547
430.98	58.705
431.33	58.570
431.68	57.614
432.04	58.860
432.39	57.787
432.74	59.351
433.10	60.345
433.45	59.140
433.80	59.779
434.16	58.560
434.51	59.247
434.86	60.221
435.22	59.282
435.57	61.572
435.92	59.880
436.28	59.213
436.63	60.125
436.98	60.023
437.34	59.165
437.69	61.061
438.04	61.254
438.39	60.538
438.75	61.870
439.10	60.498
439.45	62.873
439.81	59.878
440.16	62.945
440.51	60.418
440.86	63.625
441.22	61.143
441.57	63.190
441.92	62.907
442.27	62.971
442.63	62.099
442.98	63.699
443.33	62.604
443.68	62.653
444.03	63.487
444.39	62.076
444.74	62.932
445.09	63.029
445.44	64.957
445.79	64.466
446.15	62.720
446.50	62.230
446.85	64.240
447.20	63.816
447.55	63.170
447.91	64.749
448.26	64.371
448.61	64.249
448.96	63.396
449.31	63.873
449.66	63.240
450.02	63.092
450.37	64.730
450.72	64.548
451.07	64.684
451.42	64.295
451.77	64.256
452.12	63.696
452.47	63.941
452.83	63.722
453.18	62.872
453.53	63.717
453.88	65.088
454.23	64.290
454.58	65.239
454.93	64.884
455.28	63.556
455.63	63.484
455.98	65.845
456.34	64.368
456.69	64.740
457.04	65.658
457.39	65.492
457.74	66.022
458.09	63.626
458.44	64.892
458.79	63.361
459.14	65.217
459.49	64.896
459.84	64.749
460.19	65.716
460.54	65.831
460.89	65.568
461.24	66.646
461.59	64.371
461.94	64.025
462.29	63.752
462.64	67.243
462.99	65.403
463.34	64.117
463.69	65.508
464.04	65.194
464.39	65.919
464.74	64.908
465.09	65.377
465.44	66.532
465.79	64.116
466.14	64.994
466.49	65.382
466.84	65.616
467.19	65.332
467.54	65.390
467.89	65.256
468.24	64.294
468.59	65.587
468.94	64.635
469.29	65.311
469.64	64.115
469.99	64.891
470.34	64.437
470.68	65.772
471.03	64.827
471.38	64.551
471.73	65.476
472.08	63.365
472.43	64.966
472.78	63.811
473.13	65.578
473.48	64.625
473.83	64.321
474.17	65.479
474.52	65.475
474.87	64.061
475.22	64.063
475.57	63.467
475.92	64.893
476.27	64.726
476.61	65.567
476.96	63.023
477.31	64.684
477.66	64.775
478.01	64.627
478.36	64.815
478.70	65.905
479.05	65.879
479.40	66.296
479.75	64.234
480.10	64.107
480.45	64.250
480.79	65.509
481.14	66.291
481.49	64.187
481.84	65.010
482.19	65.762
482.53	65.420
482.88	63.246
483.23	63.820
483.58	64.764
483.92	65.102
484.27	63.628
484.62	64.097
484.97	64.552
485.31	65.860
485.66	66.308
486.01	66.588
486.36	66.533
486.70	65.658
487.05	65.513
487.40	64.995
487.75	64.732
488.09	63.999
488.44	64.099
488.79	63.653
489.13	64.704
489.48	63.232
489.83	64.260
490.17	63.371
490.52	63.372
490.87	62.980
491.22	64.852
491.56	63.852
491.91	62.189
492.26	64.803
492.60	63.244
492.95	64.879
493.30	62.970
493.64	64.784
493.99	63.961
494.34	63.932
494.68	63.857
495.03	62.822
495.37	63.935
495.72	64.160
496.07	64.293
496.41	63.679
496.76	64.210
497.11	64.183
497.45	63.341
497.80	64.480
498.14	62.891
498.49	63.992
498.84	63.673
499.18	63.404
499.53	63.343
499.87	64.446
500.22	63.501
500.56	63.187
500.91	62.851
501.26	64.014
501.60	64.191
501.95	64.047
502.29	63.245
502.64	64.044
502.98	65.170
503.33	64.553
503.67	63.133
504.02	63.783
504.36	63.681
504.71	62.525
505.06	63.312
505.40	63.096
505.75	64.433
506.09	62.646
506.44	64.117
506.78	64.235
507.13	63.444
507.47	62.768
507.82	62.447
508.16	62.229
508.51	64.008
508.85	63.579
509.19	61.416
509.54	61.609
509.88	63.323
510.23	62.883
510.57	63.656
510.92	61.780
511.26	63.175
511.61	63.146
511.95	62.740
512.30	62.029
512.64	62.549
512.98	61.538
513.33	62.507
513.67	61.740
514.02	64.245
514.36	63.200
514.70	64.103
515.05	64.336
515.39	62.397
515.74	64.132
516.08	63.299
516.42	63.899
516.77	63.604
517.11	63.205
517.46	62.238
517.80	62.515
518.14	63.013
518.49	61.118
518.83	63.123
519.17	61.007
519.52	62.404
519.86	62.005
520.20	62.697
520.55	62.351
520.89	62.108
521.23	62.381
521.58	62.334
521.92	63.269
522.26	62.394
522.61	62.662
522.95	63.642
523.29	62.198
523.64	62.643
523.98	62.735
524.32	61.469
524.66	62.676
525.01	62.662
525.35	63.448
525.69	62.424
526.04	61.839
526.38	62.776
526.72	61.413
527.06	60.311
527.41	62.071
527.75	61.461
528.09	61.130
528.43	61.918
528.78	61.452
529.12	62.065
529.46	61.533
529.80	60.418
530.15	62.112
530.49	63.098
530.83	63.133
531.17	62.324
531.51	62.380
531.86	61.115
532.20	61.308
532.54	61.334
532.88	61.465
533.22	60.887
533.57	61.468
533.91	60.509
534.25	62.826
534.59	61.514
534.93	59.912
535.27	59.518
535.62	60.531
535.96	61.122
536.30	61.544
536.64	60.924
536.98	62.300
537.32	63.940
537.66	61.501
538.01	61.469
538.35	62.483
538.69	60.786
539.03	60.834
539.37	62.046
539.71	60.464
540.05	61.236
540.39	61.496
540.73	60.251
541.07	61.464
541.42	61.358
541.76	61.390
542.10	60.564
542.44	61.779
542.78	61.803
543.12	60.302
543.46	60.431
543.80	61.485
544.14	58.879
544.48	61.359
544.82	61.244
545.16	60.997
545.50	61.549
545.84	62.606
546.18	60.851
546.52	61.139
546.86	59.885
547.20	61.302
547.54	60.283
547.88	61.481
548.22	59.829
548.56	60.356
548.90	60.580
549.24	60.331
549.58	59.803
549.92	59.471
550.26	60.073
550.60	60.372
550.94	60.045
551.28	60.278
551.62	60.846
551.96	60.902
552.30	61.769
552.64	60.367
552.98	60.338
553.32	60.271
553.66	60.885
554.00	61.898
554.34	60.931
554.68	58.333
555.02	60.789
555.36	61.481
555.69	59.560
556.03	58.815
556.37	60.427
556.71	60.722
557.05	60.030
557.39	59.554
557.73	59.745
558.07	61.086
558.41	60.720
558.75	60.561
559.08	59.259
559.42	60.000
559.76	61.809
560.10	60.550
560.44	60.313
560.78	59.860
561.12	60.931
561.45	60.576
561.79	61.275
562.13	61.036
562.47	59.784
562.81	60.879
563.15	58.886
563.48	59.760
563.82	61.359
564.16	60.446
564.50	60.135
564.84	59.237
565.17	60.094
565.51	61.202
565.85	61.591
566.19	60.610
566.52	61.528
566.86	61.247
567.20	60.834
567.54	61.192
567.88	62.390
568.21	62.500
568.55	61.739
568.89	61.910
569.23	61.290
569.56	62.084
569.90	63.622
570.24	60.588
570.57	62.255
570.91	61.868
571.25	61.361
571.59	61.788
571.92	60.148
572.26	60.839
572.60	60.713
572.93	59.805
573.27	60.658
573.61	60.740
573.95	60.677
574.28	60.885
574.62	60.183
574.96	60.035
575.29	60.222
575.63	59.057
575.97	59.447
576.30	60.135
576.64	59.735
576.98	60.489
577.31	60.727
577.65	60.872
577.98	61.412
578.32	61.502
578.66	59.746
578.99	59.569
579.33	59.331
579.67	58.718
580.00	59.544
580.34	60.498
580.67	59.471
581.01	60.134
581.35	60.164
581.68	60.441
582.02	60.874
582.35	60.799
582.69	60.849
583.02	59.987
583.36	59.924
583.70	60.566
584.03	60.328
584.37	60.982
584.70	60.440
585.04	60.078
585.37	60.369
585.71	60.084
586.04	60.187
586.38	59.483
586.72	60.316
587.05	60.947
587.39	60.917
587.72	61.646
588.06	61.306
588.39	59.784
588.73	59.615
589.06	60.568
589.40	59.074
589.73	61.008
590.07	60.234
590.40	60.565
590.73	60.420
591.07	60.221
591.40	60.374
591.74	61.312
592.07	60.714
592.41	60.954
592.74	60.056
593.08	59.902
593.41	61.087
593.75	60.680
594.08	60.419
594.41	59.461
594.75	59.275
595.08	60.386
595.42	61.023
595.75	60.909
596.09	59.656
596.42	58.950
596.75	60.080
597.09	59.134
597.42	59.846
597.75	61.017
598.09	58.941
598.42	59.116
598.76	59.631
599.09	60.016
599.42	58.507
599.76	59.255
600.09	59.578
600.42	59.818
600.76	58.321
601.09	59.809
601.42	59.694
601.76	59.905
602.09	58.540
602.42	60.489
602.76	58.659
603.09	59.551
603.42	62.124
603.76	60.161
604.09	59.822
604.42	60.533
604.76	59.724
605.09	58.729
605.42	59.323
605.75	58.844
606.09	59.321
606.42	59.133
606.75	58.615
607.09	59.824
607.42	59.637
607.75	60.124
608.08	57.188
608.42	57.378
608.75	59.759
609.08	59.492
609.41	59.746
609.75	58.821
610.08	59.261
610.41	58.792
610.74	60.361
611.07	59.535
611.41	60.353
611.74	59.968
612.07	58.137
612.40	59.464
612.73	59.492
613.07	58.043
613.40	59.300
613.73	58.814
614.06	58.208
614.39	59.786
614.72	57.983
615.06	59.665
615.39	58.352
615.72	58.019
616.05	58.380
616.38	57.778
616.71	58.716
617.05	59.419
617.38	58.894
617.71	59.497
618.04	60.127
618.37	59.899
618.70	60.660
619.03	59.583
619.36	57.959
619.69	60.349
620.03	59.021
620.36	60.086
620.69	59.172
621.02	58.792
621.35	60.083
621.68	59.949
622.01	59.000
622.34	59.777
622.67	58.360
623.00	59.112
623.33	59.375
623.66	58.639
623.99	58.548
624.32	59.544
624.65	58.045
624.99	59.293
625.32	59.287
625.65	59.073
625.98	59.871
626.31	57.523
626.64	59.272
626.97	57.766
627.30	59.632
627.63	59.185
627.96	60.198
628.29	58.187
628.62	59.685
628.95	58.417
629.28	59.375
629.61	59.023
629.94	57.674
630.26	58.004
630.59	60.978
630.92	60.410
631.25	56.103
631.58	59.361
631.91	59.978
632.24	57.569
632.57	58.182
632.90	60.380
633.23	58.353
633.56	61.587
633.89	60.419
634.22	59.630
634.55	60.737
634.88	58.876
635.20	57.051
635.53	57.600
635.86	57.347
636.19	60.285
636.52	58.418
636.85	58.685
637.18	58.868
637.51	56.604
637.83	60.053
638.16	61.528
638.49	56.403
638.82	56.579
639.15	59.566
639.48	61.623
639.81	58.438
640.13	58.009
640.46	59.038
640.79	58.468
641.12	58.493
641.45	59.159
641.77	60.889
642.10	58.452
642.43	59.164
642.76	58.911
643.09	60.582
643.41	57.929
643.74	57.825
644.07	57.307
644.40	57.939
644.73	58.844
645.05	58.725
645.38	59.965
645.71	56.383
646.04	61.400
646.36	61.702
646.69	61.511
647.02	61.248
647.35	57.836
647.67	57.404
648.00	58.769
648.33	58.191
648.66	58.475
648.98	58.961
649.31	60.826
649.64	58.713
649.96	57.861
650.29	57.581
650.62	58.291
650.94	58.519
651.27	57.728
651.60	55.495
651.92	58.042
652.25	56.661
652.58	60.500
652.90	60.206
653.23	56.807
653.56	58.883
653.88	58.935
654.21	54.991
654.54	58.913
654.86	57.895
655.19	57.310
655.52	58.437
655.84	58.737
656.17	67.070
656.49	89.035
656.82	91.448
657.15	68.365
657.47	50.158
657.80	37.781
658.13	36.259
658.45	55.500
658.78	53.785
659.10	52.357
659.43	52.514
659.75	54.514
660.08	54.276
660.41	56.486
660.73	56.077
661.06	56.672
661.38	54.012
661.71	54.415
662.03	57.725
662.36	61.099
662.68	58.186
663.01	60.044
663.33	58.933
663.66	58.605
663.98	56.744
664.31	56.077
664.63	55.530
664.96	53.478
665.28	54.967
665.61	57.792
665.93	56.087
666.26	57.918
666.58	57.047
666.91	57.176
667.23	57.311
667.56	58.768
667.88	58.513
668.21	56.802
668.53	59.811
668.86	59.434
669.18	55.189
669.50	58.111
669.83	55.349
670.15	59.674
670.48	58.612
670.80	58.065
671.13	56.152
671.45	56.849
671.77	56.438
672.10	56.832
672.42	57.865
672.75	56.838
673.07	59.034
673.39	59.083
673.72	55.227
674.04	58.333
674.37	60.805
674.69	55.675
675.01	59.778
675.34	56.757
675.66	57.870
675.98	57.650
676.31	53.899
676.63	56.295
676.95	54.318
677.28	56.000
677.60	53.735
677.92	57.110
678.25	56.674
678.57	57.359
678.89	56.933
679.22	59.508
679.54	56.426
679.86	55.865
680.18	57.476
680.51	53.409
680.83	54.672
681.15	57.200
681.48	59.631
681.80	56.405
682.12	56.250
682.44	56.067
682.77	58.278
683.09	55.378
683.41	52.727
683.73	55.991
684.06	53.761
684.38	54.409
684.70	57.734
685.02	56.639
685.34	54.150
685.67	53.471
685.99	55.515
686.31	56.637
686.63	55.659
686.96	54.563
687.28	52.121
687.60	54.183
687.92	57.172
688.24	52.419
688.56	58.734
688.89	58.036
689.21	54.444
689.53	57.077
689.85	53.721
690.17	57.366
690.49	54.374
690.82	54.854
691.14	57.143
691.46	58.411
691.78	56.306
692.10	56.129
692.42	53.896
692.74	52.350
693.06	54.279
693.39	53.620
693.71	53.846
694.03	53.580
694.35	55.607
694.67	58.333
694.99	54.569
695.31	57.963
695.63	53.500
695.95	54.040
696.27	56.218
696.59	58.333
696.91	52.941
697.23	54.756
697.56	53.218
697.88	56.774
698.20	54.442
698.52	56.706
698.84	51.196
699.16	54.250
699.48	54.887
699.80	50.124
700.12	55.795
700.44	57.143
700.76	53.198
701.08	55.455
701.40	52.108
701.72	56.790
702.04	58.416
702.36	62.542
702.68	52.252
703.00	54.545
703.32	53.959
703.64	51.412
703.96	52.754
704.28	54.294
704.60	54.921
704.91	51.104
705.23	50.831
705.55	62.898
705.87	60.650
706.19	58.889
706.51	55.326
706.83	55.627
707.15	48.287
707.47	56.303
707.79	56.250
708.11	58.500
708.43	52.500
708.74	55.297
709.06	55.211
709.38	55.352
709.70	51.183
710.02	55.732
710.34	54.489
710.66	46.795
710.98	56.623
711.29	55.410
711.61	54.915
711.93	59.609
712.25	59.450
712.57	52.381
712.89	56.343
713.20	56.055
713.52	49.826
713.84	54.266
714.16	53.952
714.48	55.484
714.80	55.769
715.11	54.407
715.43	52.351
715.75	54.000
716.07	51.827
716.39	48.993
716.70	56.089
717.02	53.435
717.34	61.943
717.66	57.080
717.97	53.478
718.29	53.975
718.61	55.118
718.93	53.876
719.24	54.373
719.56	54.618
719.88	50.859
720.20	52.273
720.51	56.705
720.83	55.985
721.15	59.664
721.46	53.629
721.78	55.731
722.10	49.442
722.42	48.548
722.73	51.429
723.05	55.918
723.37	57.203
723.68	57.207
724.00	58.547
724.32	54.667
724.63	52.727
724.95	57.205
725.27	55.300
725.58	59.746
725.90	52.381
726.22	53.668
726.53	51.864
726.85	54.682
727.16	59.245
727.48	53.441
727.80	52.227
728.11	53.390
728.43	50.588
728.74	48.790
729.06	56.000
729.38	53.383
729.69	46.215
730.01	50.000
730.32	57.463
730.64	54.064
730.96	56.981
731.27	51.333
731.59	54.237
731.90	48.726
732.22	56.151
732.53	52.159
732.85	57.447
733.16	56.229
733.48	49.281
733.80	54.348
734.11	54.237
734.43	52.921
734.74	58.182
735.06	53.420
735.37	52.266
735.69	55.219
736.00	54.704
736.32	51.342
736.63	51.056
736.95	53.925
737.26	51.246
737.58	50.671
737.89	52.747
738.21	53.008
738.52	53.498
738.83	53.712
739.15	48.472
739.46	57.480
739.78	50.549
740.09	51.307
740.41	56.159
740.72	49.213
741.04	54.656
741.35	48.085
741.66	49.289
741.98	55.612
742.29	50.495
742.61	57.068
742.92	43.602
743.23	51.852
743.55	47.059
743.86	50.718
744.18	49.282
744.49	52.128
744.80	57.609
745.12	60.428
745.43	52.195
745.74	58.854
746.06	53.171
746.37	57.592
746.68	57.346
747.00	52.660
747.31	59.204
747.62	47.087
747.94	52.153
748.25	50.000
748.56	59.016
748.88	52.356
749.19	60.106
749.50	57.143
749.82	50.000
750.13	48.624
750.44	56.015
750.75	57.463
751.07	55.839
751.38	52.490
751.69	51.765
752.01	49.612
752.32	49.004
752.63	48.617
752.94	53.879
753.26	56.067
753.57	56.109
753.88	54.867
754.19	51.250
754.51	54.132
754.82	49.798
755.13	55.000
755.44	53.629
755.75	53.906
756.07	51.362
756.38	50.943
756.69	51.341
757.00	50.667
757.31	51.307
757.63	48.476
757.94	47.500
758.25	47.397
758.56	50.266
758.87	44.476
759.18	46.417
759.50	50.909
759.81	48.495
760.12	54.839
760.43	48.788
760.74	53.395
761.05	51.692
761.36	51.136
761.67	47.879
761.99	48.639
762.30	50.545
762.61	46.640
762.92	45.701
763.23	53.604
763.54	44.860
763.85	50.000
764.16	52.697
764.47	45.565
764.78	50.916
765.10	52.189
765.41	46.688
765.72	48.571
766.03	54.135
766.34	47.080
766.65	52.590
766.96	50.505
767.27	46.809
767.58	46.552
767.89	46.099
768.20	48.864
768.51	49.451
768.82	52.217
769.13	42.857
769.44	51.502
769.75	45.205
770.06	43.966
770.37	49.038
770.68	52.284
770.99	44.344
771.30	55.392
771.61	52.036
771.92	51.724
772.23	54.680
772.54	46.774
772.85	58.025
773.16	46.629
773.47	59.477
773.78	54.248
774.09	40.719
774.39	56.000
774.70	48.408
775.01	53.793
775.32	42.143
775.63	40.496
775.94	43.511
776.25	53.543
776.56	53.333
776.87	46.154
777.18	47.009
777.48	52.586
777.79	44.348
778.10	41.905
778.41	45.946
778.72	48.413
779.03	52.632
779.34	58.156
779.65	57.534
779.95	50.000
780.26	42.069
780.57	49.593
780.88	48.819
781.19	44.828
781.50	62.791
781.80	39.053
782.11	44.654
782.42	57.692
782.73	38.849
783.04	42.963
783.34	48.611
783.65	43.590
783.96	45.082
784.27	46.897
784.57	47.154
784.88	38.281
785.19	60.000
785.50	58.000
785.81	43.966
786.11	55.172
786.42	46.602
786.73	44.545
787.04	40.816
787.34	49.107
787.65	51.429
787.96	50.442
788.26	51.818
788.57	47.009
788.88	48.437
789.19	46.032
789.49	47.826
789.80	50.000
790.11	42.424
790.41	43.636
790.72	56.522
791.03	51.136
791.33	56.250
791.64	37.500
791.95	43.023
792.25	54.255
792.56	55.056
792.87	41.096
793.17	47.826
793.48	38.667
793.79	43.750
794.09	62.500
794.40	44.340
794.70	51.456
795.01	44.715
795.32	41.026
795.62	42.857
795.93	39.216
796.23	37.736
796.54	39.583
796.85	51.471
797.15	53.521
797.46	47.222
797.76	62.121
798.07	40.698
798.37	44.737
798.68	54.545
798.99	39.506
799.29	60.000
799.60	36.232
799.90	52.000
800.21	57.377
800.51	53.846
800.82	59.322
801.12	55.072
801.43	47.541
801.73	55.556
802.04	56.000
802.34	53.731
802.65	69.231
802.95	28.571
803.26	26.923
803.56	56.863
803.87	30.435
804.17	36.000
804.48	63.492
804.78	37.037
805.09	45.652
805.39	53.333
805.70	50.000
806.00	26.316
806.30	46.479
806.61	52.857
806.91	34.722
807.22	47.368
807.52	54.667
807.83	38.182
808.13	54.167
808.43	36.765
808.74	44.776
809.04	37.288
809.35	40.385
809.65	57.813
809.95	48.649
810.26	18.182
810.56	34.247
810.86	30.952
811.17	46.000
811.47	63.265
811.77	42.105
812.08	59.091
812.38	54.717
812.69	52.500
812.99	36.364
813.29	42.105
813.59	42.857
813.90	61.364
814.20	58.974
814.50	51.923
814.81	54.717
815.11	42.553
815.41	57.627
815.72	23.810
816.02	49.020
816.32	50.000
816.62	75.610
816.93	45.946
817.23	25.714
817.53	41.667
817.84	26.087
818.14	40.385
818.44	28.947
818.74	47.826
819.04	27.500
819.35	45.946
819.65	55.882
819.95	36.111
820.25	42.857
820.56	65.000
820.86	20.690
821.16	65.000
821.46	48.936
821.76	55.000
822.07	51.163
822.37	32.432
822.67	46.875
822.97	45.238
823.27	39.286
823.57	56.000
823.88	3.704
824.18	64.286
824.48	44.118
824.78	64.516
825.08	56.522
825.38	60.606
825.69	25.000
825.99	31.579
826.29	63.889
826.59	40.000
826.89	19.048
827.19	58.696
827.49	32.500
827.79	54.286
828.09	67.857
828.39	36.364
828.70	64.865
829.00	46.429
829.30	33.333
829.60	26.667
829.90	75.000
830.20	50.000
830.50	37.037
830.80	30.435
831.10	31.818
831.40	75.758
831.70	54.839
832.00	66.667
832.30	14.286
832.60	75.000
832.90	37.931
833.20	10.000
833.50	36.364
833.80	33.333
834.10	34.615
834.40	59.375
834.70	100.000
835.00	84.211
835.30	88.462
835.60	73.333
835.90	64.516
836.20	13.636
836.50	35.714
836.80	30.769
837.10	46.429
837.40	233.333
837.70	36.364
838.00	-9.091
838.30	43.478
838.60	0.000
838.90	104.545
839.19	21.429
839.49	26.667
839.79	100.000
840.09	25.000
840.39	67.857
840.69	21.429
840.99	73.077
841.29	21.053
841.59	-80.000
841.88	-18.182
842.18	90.000
842.48	81.250
842.78	-40.000
843.08	40.741
843.38	-30.000
843.68	21.739
843.97	66.667
844.27	-6.667
844.57	20.000
844.87	50.000
845.17	33.333
845.47	66.667
845.76	23.810
846.06	70.588
846.36	130.000
846.66	78.571
846.96	0.000
847.25	0.000
847.55	42.857
847.85	137.500
848.15	-9.091
848.44	-300.000
848.74	25.000
849.04	55.556
849.34	54.545
849.63	66.667
849.93	0.000
850.23	22.222
850.53	190.000
850.82	53.846
851.12	0.000
851.42	113.333
851.71	42.308
852.01	-7.143
852.31	25.000
852.61	0.000
852.90	35.000
853.20	52.632
853.50	-16.667
853.79	26.087
854.09	54.167
854.39	42.105
854.68	37.500
854.98	61.290
855.28	61.538
855.57	20.000
855.87	100.000
856.17	59.259
856.46	42.857
856.76	66.667
857.05	55.556
857.35	84.000
857.65	33.333
857.94	53.846
858.24	48.276
858.53	94.444
858.83	59.259
859.13	54.545
859.42	34.783
859.72	100.000
860.01	-233.333
860.31	80.000
860.60	66.667
860.90	-400.000
861.20	66.667
861.49	-250.000
861.79	113.333
862.08	10.000
862.38	166.667
862.67	20.000
862.97	16.667
863.26	133.333
863.56	94.444
863.85	-133.333
864.15	88.889
864.44	40.000
864.74	78.571
865.03	75.000
865.33	-100.000
865.62	33.333
865.92	83.333
866.21	50.000
866.51	62.500
866.80	-72.727
867.10	100.000
867.39	25.000
867.69	0.000
867.98	84.615
868.27	433.333
868.57	26.667
868.86	100.000
869.16	107.692
869.45	53.333
869.75	-300.000
870.04	0.000
870.33	14.286
870.63	28.571
870.92	366.667
871.22	-40.000
871.51	600.000
871.80	44.444
872.10	100.000
>>>>>End Processed Spectral Data<<<<<
