SpectraSuite Data File
++++++++++++++++++++++++++++++++++++
Date: Fri May 15 17:26:58 PDT 2015
User: schluterlab
Dark Spectrum Present: Yes
Reference Spectrum Present: Yes
Number of Sampled Component Spectra: 1
Spectrometers: USB2E3373
Integration Time (usec): 3000 (USB2E3373)
Spectra Averaged: 3 (USB2E3373)
Boxcar Smoothing: 0 (USB2E3373)
Correct for Electrical Dark: No (USB2E3373)
Strobe/Lamp Enabled: No (USB2E3373)
Correct for Detector Non-linearity: No (USB2E3373)
Correct for Stray Light: No (USB2E3373)
Number of Pixels in Processed Spectrum: 2048
>>>>>Begin Processed Spectral Data<<<<<
178.53	0.000
178.91	0.000
179.29	150.000
179.67	-250.000
180.04	-0.000
180.42	150.000
180.80	-400.000
181.18	300.000
181.56	550.000
181.94	50.000
182.31	400.000
182.69	40.000
183.07	-400.000
183.45	-60.000
183.83	-16.667
184.20	54.545
184.58	44.444
184.96	-75.000
185.34	166.667
185.72	-100.000
186.09	69.231
186.47	-400.000
186.85	100.000
187.23	77.778
187.61	200.000
187.98	-233.333
188.36	133.333
188.74	66.667
189.12	17.647
189.49	72.222
189.87	0.000
190.25	64.286
190.63	500.000
191.00	66.667
191.38	-21.053
191.76	200.000
192.14	75.000
192.51	200.000
192.89	-22.222
193.27	-28.571
193.65	-133.333
194.02	200.000
194.40	40.000
194.78	-100.000
195.15	8.333
195.53	-87.500
195.91	-50.000
196.29	-150.000
196.66	161.538
197.04	-0.000
197.42	33.333
197.79	-333.333
198.17	-61.538
198.55	900.000
198.92	-166.667
199.30	-900.000
199.68	-60.000
200.05	133.333
200.43	0.000
200.81	-33.333
201.18	-333.333
201.56	1700.000
201.94	-200.000
202.31	-66.667
202.69	-220.000
203.07	200.000
203.44	1100.000
203.82	0.000
204.19	121.429
204.57	-566.667
204.95	100.000
205.32	-20.000
205.70	128.571
206.08	75.000
206.45	144.444
206.83	128.571
207.20	-100.000
207.58	1300.000
207.96	-233.333
208.33	0.000
208.71	300.000
209.08	-150.000
209.46	-300.000
209.84	-300.000
210.21	0.000
210.59	71.429
210.96	233.333
211.34	0.000
211.71	33.333
212.09	-28.571
212.46	-500.000
212.84	0.000
213.22	10.000
213.59	450.000
213.97	30.769
214.34	72.727
214.72	-83.333
215.09	250.000
215.47	7.692
215.84	54.545
216.22	266.667
216.59	-125.000
216.97	100.000
217.34	-50.000
217.72	-80.000
218.09	-37.500
218.47	125.000
218.84	-300.000
219.22	-22.222
219.59	-80.000
219.97	266.667
220.34	375.000
220.72	28.571
221.09	-100.000
221.47	50.000
221.84	-450.000
222.22	-900.000
222.59	36.364
222.97	16.667
223.34	66.667
223.72	-7.143
224.09	-9.524
224.46	7.143
224.84	233.333
225.21	10.000
225.59	6.667
225.96	-200.000
226.34	50.000
226.71	0.000
227.08	-16.667
227.46	50.000
227.83	100.000
228.21	55.556
228.58	54.545
228.95	25.000
229.33	80.000
229.70	25.000
230.08	-37.500
230.45	-157.143
230.82	85.714
231.20	-6.667
231.57	42.857
231.95	57.143
232.32	-40.000
232.69	71.429
233.07	-66.667
233.44	-80.000
233.81	0.000
234.19	11.111
234.56	-5.882
234.93	450.000
235.31	-300.000
235.68	-180.000
236.05	-146.154
236.43	-30.000
236.80	-35.294
237.17	-9.375
237.55	-25.000
237.92	-11.111
238.29	-27.778
238.67	6.667
239.04	-8.824
239.41	0.000
239.79	3.333
240.16	7.317
240.53	-10.526
240.91	-8.696
241.28	6.349
241.65	8.929
242.02	5.479
242.40	-10.000
242.77	0.000
243.14	-1.515
243.51	5.000
243.89	4.598
244.26	-6.897
244.63	4.762
245.00	2.062
245.38	8.247
245.75	-8.989
246.12	-8.621
246.49	0.826
246.87	3.846
247.24	-4.202
247.61	-13.158
247.98	-1.626
248.36	0.625
248.73	2.632
249.10	-1.299
249.47	0.633
249.84	-3.268
250.22	-1.765
250.59	1.961
250.96	6.103
251.33	-0.581
251.70	1.176
252.08	4.061
252.45	-3.960
252.82	-2.010
253.19	1.382
253.56	-5.140
253.94	1.351
254.31	4.783
254.68	0.877
255.05	1.575
255.42	-3.493
255.79	2.703
256.16	3.891
256.54	3.358
256.91	-1.901
257.28	-0.372
257.65	-3.371
258.02	-2.482
258.39	1.347
258.76	2.564
259.14	0.997
259.51	0.971
259.88	-2.749
260.25	0.000
260.62	0.347
260.99	0.000
261.36	-4.795
261.73	1.266
262.10	-1.824
262.47	-0.613
262.85	0.000
263.22	0.308
263.59	-1.246
263.96	1.242
264.33	0.909
264.70	-0.298
265.07	-2.381
265.44	0.567
265.81	-0.565
266.18	-1.639
266.55	1.799
266.92	2.850
267.29	2.089
267.66	-0.512
268.03	2.880
268.40	-2.350
268.77	5.080
269.14	1.199
269.51	2.314
269.88	-0.249
270.25	-1.020
270.62	-0.488
270.99	0.000
271.36	-3.423
271.73	0.939
272.10	-0.487
272.47	0.709
272.84	-0.495
273.21	2.088
273.58	1.446
273.95	1.373
274.32	0.000
274.69	0.226
275.06	-0.223
275.43	-0.454
275.80	2.428
276.17	0.000
276.54	-0.214
276.91	-1.535
277.28	0.218
277.65	1.446
278.02	-0.213
278.39	-1.313
278.76	-0.839
279.13	-2.490
279.50	0.840
279.87	-0.216
280.23	0.215
280.60	0.780
280.97	-0.404
281.34	0.000
281.71	2.053
282.08	-0.818
282.45	-0.587
282.82	-2.317
283.19	1.161
283.56	1.734
283.92	-1.139
284.29	-0.769
284.66	0.194
285.03	0.196
285.40	0.756
285.77	-0.176
286.14	0.181
286.51	-0.369
286.87	-1.280
287.24	0.184
287.61	-1.058
287.98	1.053
288.35	0.000
288.72	0.525
289.08	0.000
289.45	3.515
289.82	0.874
290.19	-0.853
290.56	0.343
290.93	-1.515
291.29	-0.462
291.66	2.520
292.03	-1.754
292.40	0.645
292.77	-0.319
293.13	-2.760
293.50	-1.214
293.87	-0.458
294.24	0.773
294.60	0.298
294.97	1.488
295.34	0.307
295.71	-1.043
296.08	-0.897
296.44	-2.134
296.81	-0.833
297.18	0.145
297.55	1.626
297.91	0.685
298.28	1.055
298.65	1.221
299.02	0.674
299.38	-1.778
299.75	0.966
300.12	0.262
300.48	0.395
300.85	0.127
301.22	-0.130
301.59	0.789
301.95	1.266
302.32	1.556
302.69	0.746
303.05	0.371
303.42	1.494
303.79	1.402
304.15	0.597
304.52	-1.308
304.89	0.468
305.25	0.484
305.62	-1.400
305.99	0.000
306.35	0.000
306.72	-0.450
307.09	0.456
307.45	0.574
307.82	-0.231
308.19	0.813
308.55	-0.218
308.92	1.416
309.29	-1.564
309.65	0.431
310.02	-0.110
310.38	-0.439
310.75	0.000
311.12	0.000
311.48	-0.424
311.85	0.628
312.22	0.000
312.58	0.531
312.95	-0.534
313.31	-0.207
313.68	0.838
314.05	0.000
314.41	-0.103
314.78	0.206
315.14	1.233
315.51	0.828
315.87	-0.615
316.24	1.820
316.61	1.673
316.97	2.083
317.34	0.293
317.70	1.147
318.07	0.577
318.43	1.078
318.80	1.042
319.16	1.172
319.53	2.089
319.89	1.870
320.26	1.316
320.62	2.106
320.99	1.148
321.35	1.953
321.72	2.388
322.08	2.316
322.45	1.827
322.81	2.259
323.18	1.079
323.54	1.062
323.91	2.726
324.27	2.539
324.64	4.026
325.00	5.109
325.37	5.142
325.73	4.352
326.10	3.906
326.46	4.215
326.83	4.374
327.19	5.405
327.56	7.211
327.92	6.602
328.29	5.804
328.65	6.132
329.01	7.261
329.38	8.018
329.74	6.893
330.11	8.619
330.47	8.442
330.84	7.885
331.20	11.312
331.56	9.907
331.93	11.324
332.29	12.007
332.66	11.855
333.02	11.896
333.38	12.007
333.75	14.469
334.11	13.429
334.48	14.053
334.84	14.011
335.20	15.554
335.57	14.506
335.93	15.447
336.29	14.365
336.66	15.531
337.02	14.126
337.38	15.556
337.75	15.727
338.11	15.690
338.47	15.967
338.84	15.065
339.20	16.088
339.56	16.881
339.93	17.816
340.29	16.514
340.65	17.025
341.02	17.110
341.38	16.460
341.74	16.343
342.11	16.378
342.47	17.705
342.83	16.609
343.20	16.376
343.56	16.435
343.92	17.626
344.28	17.079
344.65	16.580
345.01	17.113
345.37	16.484
345.73	16.234
346.10	16.566
346.46	18.839
346.82	16.858
347.19	16.293
347.55	16.708
347.91	16.909
348.27	16.572
348.63	16.184
349.00	15.176
349.36	16.376
349.72	17.579
350.08	16.230
350.45	17.239
350.81	16.113
351.17	16.287
351.53	16.653
351.89	16.185
352.26	16.240
352.62	17.419
352.98	16.305
353.34	16.586
353.70	17.799
354.07	15.726
354.43	15.773
354.79	17.258
355.15	16.905
355.51	17.168
355.87	16.667
356.24	15.498
356.60	15.764
356.96	17.143
357.32	16.773
357.68	16.497
358.04	16.801
358.40	16.479
358.77	17.145
359.13	17.694
359.49	16.487
359.85	17.005
360.21	16.667
360.57	16.603
360.93	17.776
361.29	15.861
361.66	17.790
362.02	17.500
362.38	17.517
362.74	17.638
363.10	17.908
363.46	17.124
363.82	17.731
364.18	16.753
364.54	17.574
364.90	16.487
365.26	17.031
365.62	18.905
365.98	17.082
366.35	17.553
366.71	17.960
367.07	18.070
367.43	17.182
367.79	16.961
368.15	17.588
368.51	17.626
368.87	16.368
369.23	17.040
369.59	17.566
369.95	18.035
370.31	18.931
370.67	17.687
371.03	17.550
371.39	18.308
371.75	18.242
372.11	18.260
372.47	19.157
372.83	17.530
373.19	18.260
373.55	18.123
373.91	19.150
374.27	18.498
374.63	19.167
374.99	18.652
375.35	19.220
375.71	19.441
376.07	18.188
376.42	20.136
376.78	19.866
377.14	19.770
377.50	18.858
377.86	20.482
378.22	19.336
378.58	20.000
378.94	19.660
379.30	19.588
379.66	20.439
380.02	20.172
380.38	20.268
380.74	19.629
381.09	20.982
381.45	20.550
381.81	20.049
382.17	19.987
382.53	20.487
382.89	20.402
383.25	20.597
383.61	21.890
383.97	21.651
384.32	20.888
384.68	21.300
385.04	21.507
385.40	21.220
385.76	21.509
386.12	21.345
386.48	22.031
386.83	21.306
387.19	22.039
387.55	21.518
387.91	22.372
388.27	21.551
388.62	21.838
388.98	21.793
389.34	22.861
389.70	22.436
390.06	21.020
390.42	22.280
390.77	22.237
391.13	22.636
391.49	23.092
391.85	22.287
392.20	22.724
392.56	22.505
392.92	22.842
393.28	22.111
393.64	21.321
393.99	24.263
394.35	22.201
394.71	22.989
395.07	21.245
395.42	22.344
395.78	22.410
396.14	21.942
396.50	22.067
396.85	23.117
397.21	22.118
397.57	22.571
397.92	22.528
398.28	22.874
398.64	22.169
399.00	23.138
399.35	22.122
399.71	23.205
400.07	22.551
400.42	23.011
400.78	22.535
401.14	22.142
401.49	21.680
401.85	22.669
402.21	22.651
402.57	21.750
402.92	21.706
403.28	22.368
403.63	21.816
403.99	21.173
404.35	22.486
404.70	21.726
405.06	21.387
405.42	22.996
405.77	20.976
406.13	22.526
406.49	21.729
406.84	22.494
407.20	22.336
407.55	20.992
407.91	22.059
408.27	21.797
408.62	22.338
408.98	21.503
409.34	22.429
409.69	21.512
410.05	21.490
410.40	22.407
410.76	22.799
411.11	22.375
411.47	23.077
411.83	21.469
412.18	22.136
412.54	21.973
412.89	20.813
413.25	22.262
413.60	21.988
413.96	21.963
414.31	23.171
414.67	22.707
415.03	21.372
415.38	21.540
415.74	22.410
416.09	22.861
416.45	22.620
416.80	21.745
417.16	22.790
417.51	22.585
417.87	22.425
418.22	22.733
418.58	22.475
418.93	22.508
419.29	21.703
419.64	21.257
420.00	23.929
420.35	22.269
420.71	23.208
421.06	22.284
421.42	22.536
421.77	23.179
422.12	22.645
422.48	22.306
422.83	21.578
423.19	23.025
423.54	22.928
423.90	22.968
424.25	22.905
424.61	23.439
424.96	22.300
425.31	24.841
425.67	23.885
426.02	24.205
426.38	23.168
426.73	24.395
427.09	24.114
427.44	23.647
427.79	22.982
428.15	23.726
428.50	23.380
428.85	22.727
429.21	23.260
429.56	23.774
429.92	23.729
430.27	23.459
430.62	23.366
430.98	22.824
431.33	24.395
431.68	24.333
432.04	23.421
432.39	23.731
432.74	23.632
433.10	25.460
433.45	24.134
433.80	23.099
434.16	23.324
434.51	24.946
434.86	25.029
435.22	24.734
435.57	24.641
435.92	25.329
436.28	24.747
436.63	25.043
436.98	23.696
437.34	25.166
437.69	24.508
438.04	25.185
438.39	24.252
438.75	24.529
439.10	25.241
439.45	25.380
439.81	24.465
440.16	25.416
440.51	25.493
440.86	26.163
441.22	25.792
441.57	25.110
441.92	25.708
442.27	26.441
442.63	26.071
442.98	25.790
443.33	25.487
443.68	25.411
444.03	26.031
444.39	26.119
444.74	26.756
445.09	26.615
445.44	26.553
445.79	27.540
446.15	25.661
446.50	25.402
446.85	26.355
447.20	26.590
447.55	27.065
447.91	25.719
448.26	27.205
448.61	27.001
448.96	26.449
449.31	26.069
449.66	28.223
450.02	26.298
450.37	26.675
450.72	26.117
451.07	26.456
451.42	27.528
451.77	26.763
452.12	26.734
452.47	26.916
452.83	27.150
453.18	26.818
453.53	27.370
453.88	27.505
454.23	27.843
454.58	28.841
454.93	27.835
455.28	27.175
455.63	28.084
455.98	27.901
456.34	27.842
456.69	27.192
457.04	27.221
457.39	27.217
457.74	27.267
458.09	26.427
458.44	26.799
458.79	26.443
459.14	27.460
459.49	27.821
459.84	27.750
460.19	26.699
460.54	27.689
460.89	27.330
461.24	26.708
461.59	27.910
461.94	26.604
462.29	28.287
462.64	28.970
462.99	27.624
463.34	27.677
463.69	27.091
464.04	27.724
464.39	27.714
464.74	27.730
465.09	27.137
465.44	27.813
465.79	27.664
466.14	27.765
466.49	27.545
466.84	28.138
467.19	27.847
467.54	27.267
467.89	27.606
468.24	27.251
468.59	28.381
468.94	27.937
469.29	28.590
469.64	27.751
469.99	28.381
470.34	28.396
470.68	27.890
471.03	28.167
471.38	27.960
471.73	28.361
472.08	27.273
472.43	27.651
472.78	27.142
473.13	28.435
473.48	27.883
473.83	27.646
474.17	29.145
474.52	28.207
474.87	27.758
475.22	29.286
475.57	27.724
475.92	29.073
476.27	29.045
476.61	28.530
476.96	27.384
477.31	29.151
477.66	27.303
478.01	28.411
478.36	28.050
478.70	29.473
479.05	28.956
479.40	28.405
479.75	27.789
480.10	28.571
480.45	28.350
480.79	28.348
481.14	28.996
481.49	28.473
481.84	27.799
482.19	28.064
482.53	28.969
482.88	28.544
483.23	27.687
483.58	27.830
483.92	27.880
484.27	28.031
484.62	27.163
484.97	27.612
485.31	27.890
485.66	27.431
486.01	27.539
486.36	27.224
486.70	27.820
487.05	27.764
487.40	27.921
487.75	27.465
488.09	27.627
488.44	27.889
488.79	28.539
489.13	28.405
489.48	28.431
489.83	28.206
490.17	27.371
490.52	27.852
490.87	26.701
491.22	28.319
491.56	28.416
491.91	27.486
492.26	28.245
492.60	28.119
492.95	27.890
493.30	27.797
493.64	28.438
493.99	28.164
494.34	27.718
494.68	28.619
495.03	27.251
495.37	28.018
495.72	28.723
496.07	29.366
496.41	27.877
496.76	28.282
497.11	26.362
497.45	28.735
497.80	28.809
498.14	27.571
498.49	28.136
498.84	27.645
499.18	28.564
499.53	28.869
499.87	27.286
500.22	27.596
500.56	27.988
500.91	28.514
501.26	28.522
501.60	28.037
501.95	27.171
502.29	27.990
502.64	28.185
502.98	28.811
503.33	27.522
503.67	27.807
504.02	29.228
504.36	28.649
504.71	28.030
505.06	28.133
505.40	27.716
505.75	28.505
506.09	27.015
506.44	28.645
506.78	28.316
507.13	28.128
507.47	27.415
507.82	28.632
508.16	28.209
508.51	28.594
508.85	28.310
509.19	27.621
509.54	28.311
509.88	27.832
510.23	28.133
510.57	29.770
510.92	27.559
511.26	28.805
511.61	28.658
511.95	28.767
512.30	29.324
512.64	29.215
512.98	28.411
513.33	28.707
513.67	29.562
514.02	30.034
514.36	30.000
514.70	29.312
515.05	30.082
515.39	29.988
515.74	30.299
516.08	28.751
516.42	30.153
516.77	29.842
517.11	29.733
517.46	30.042
517.80	29.559
518.14	29.577
518.49	29.808
518.83	29.405
519.17	28.623
519.52	29.781
519.86	28.271
520.20	29.405
520.55	30.081
520.89	29.046
521.23	29.892
521.58	30.473
521.92	30.449
522.26	30.449
522.61	29.610
522.95	30.861
523.29	30.114
523.64	30.686
523.98	30.590
524.32	29.188
524.66	30.410
525.01	29.870
525.35	30.979
525.69	29.697
526.04	30.093
526.38	31.842
526.72	28.777
527.06	29.507
527.41	30.937
527.75	29.424
528.09	30.033
528.43	31.668
528.78	29.373
529.12	30.581
529.46	30.669
529.80	29.639
530.15	32.871
530.49	30.438
530.83	30.917
531.17	29.819
531.51	32.421
531.86	30.387
532.20	30.411
532.54	30.293
532.88	31.280
533.22	29.973
533.57	30.996
533.91	30.287
534.25	31.120
534.59	29.891
534.93	29.767
535.27	29.505
535.62	29.812
535.96	30.267
536.30	31.201
536.64	31.633
536.98	30.105
537.32	31.294
537.66	30.715
538.01	31.538
538.35	30.721
538.69	30.692
539.03	30.485
539.37	30.081
539.71	31.220
540.05	30.075
540.39	30.886
540.73	31.172
541.07	31.285
541.42	30.376
541.76	31.246
542.10	30.764
542.44	30.716
542.78	29.456
543.12	31.113
543.46	31.363
543.80	31.783
544.14	29.706
544.48	29.913
544.82	31.511
545.16	31.626
545.50	30.708
545.84	31.161
546.18	31.560
546.52	30.497
546.86	31.344
547.20	30.544
547.54	29.187
547.88	30.503
548.22	29.520
548.56	30.211
548.90	30.795
549.24	29.683
549.58	29.196
549.92	30.093
550.26	29.890
550.60	31.078
550.94	31.143
551.28	30.989
551.62	31.154
551.96	30.827
552.30	30.921
552.64	30.748
552.98	30.731
553.32	31.170
553.66	30.189
554.00	31.314
554.34	30.207
554.68	30.236
555.02	30.506
555.36	31.264
555.69	29.597
556.03	29.907
556.37	30.676
556.71	30.686
557.05	30.723
557.39	29.591
557.73	31.109
558.07	30.769
558.41	30.475
558.75	30.631
559.08	30.733
559.42	30.873
559.76	30.905
560.10	30.122
560.44	30.454
560.78	31.538
561.12	30.959
561.45	31.131
561.79	30.602
562.13	31.512
562.47	30.719
562.81	30.187
563.15	31.100
563.48	31.966
563.82	31.709
564.16	31.128
564.50	30.608
564.84	31.191
565.17	30.584
565.51	32.104
565.85	31.070
566.19	30.968
566.52	32.373
566.86	31.941
567.20	30.448
567.54	31.387
567.88	30.990
568.21	31.222
568.55	31.087
568.89	30.903
569.23	31.777
569.56	31.743
569.90	31.384
570.24	31.150
570.57	30.909
570.91	31.718
571.25	30.385
571.59	29.897
571.92	29.630
572.26	30.254
572.60	29.984
572.93	30.405
573.27	29.937
573.61	29.982
573.95	30.366
574.28	29.952
574.62	29.392
574.96	29.594
575.29	29.657
575.63	29.464
575.97	29.547
576.30	29.435
576.64	29.377
576.98	29.627
577.31	30.204
577.65	30.206
577.98	30.262
578.32	29.677
578.66	29.443
578.99	29.691
579.33	29.028
579.67	29.220
580.00	29.747
580.34	29.950
580.67	29.228
581.01	29.923
581.35	29.931
581.68	29.817
582.02	29.932
582.35	30.121
582.69	29.821
583.02	29.865
583.36	29.737
583.70	30.633
584.03	30.609
584.37	30.463
584.70	29.890
585.04	29.637
585.37	29.926
585.71	29.993
586.04	29.728
586.38	29.901
586.72	30.789
587.05	30.474
587.39	30.584
587.72	30.809
588.06	30.086
588.39	30.333
588.73	30.311
589.06	31.148
589.40	30.729
589.73	31.325
590.07	30.778
590.40	31.037
590.73	30.601
591.07	30.958
591.40	30.766
591.74	32.081
592.07	31.772
592.41	31.581
592.74	30.546
593.08	30.108
593.41	30.906
593.75	31.207
594.08	30.759
594.41	31.259
594.75	30.992
595.08	30.420
595.42	31.321
595.75	31.581
596.09	30.844
596.42	30.963
596.75	31.661
597.09	31.116
597.42	31.527
597.75	31.929
598.09	30.330
598.42	30.551
598.76	31.403
599.09	30.929
599.42	30.125
599.76	30.775
600.09	30.468
600.42	30.743
600.76	31.055
601.09	30.458
601.42	30.161
601.76	30.925
602.09	31.312
602.42	31.297
602.76	30.985
603.09	31.395
603.42	31.982
603.76	30.766
604.09	30.701
604.42	31.472
604.76	32.221
605.09	31.536
605.42	31.061
605.75	31.349
606.09	31.253
606.42	30.400
606.75	31.082
607.09	31.824
607.42	30.749
607.75	30.728
608.08	30.952
608.42	30.836
608.75	31.518
609.08	31.938
609.41	31.218
609.75	32.611
610.08	32.052
610.41	31.014
610.74	31.399
611.07	31.266
611.41	32.434
611.74	31.876
612.07	31.906
612.40	32.330
612.73	32.599
613.07	31.496
613.40	31.783
613.73	31.953
614.06	32.276
614.39	30.964
614.72	31.597
615.06	32.291
615.39	31.987
615.72	31.001
616.05	30.950
616.38	30.541
616.71	31.193
617.05	32.366
617.38	32.684
617.71	32.013
618.04	32.635
618.37	33.039
618.70	33.069
619.03	32.708
619.36	31.042
619.69	32.752
620.03	34.259
620.36	32.976
620.69	33.119
621.02	31.575
621.35	33.693
621.68	33.418
622.01	33.750
622.34	33.360
622.67	33.123
623.00	32.542
623.33	32.393
623.66	31.937
623.99	33.585
624.32	32.471
624.65	32.105
624.99	33.258
625.32	32.070
625.65	33.621
625.98	33.441
626.31	32.253
626.64	33.709
626.97	32.635
627.30	34.326
627.63	34.055
627.96	32.884
628.29	32.840
628.62	33.727
628.95	33.467
629.28	34.778
629.61	33.300
629.94	35.093
630.26	33.103
630.59	33.403
630.92	34.769
631.25	32.718
631.58	32.269
631.91	32.127
632.24	33.257
632.57	35.455
632.90	34.401
633.23	33.412
633.56	33.627
633.89	34.402
634.22	34.938
634.55	33.418
634.88	32.695
635.20	35.256
635.53	35.333
635.86	32.120
636.19	35.188
636.52	34.949
636.85	32.506
637.18	34.591
637.51	34.591
637.83	33.377
638.16	35.471
638.49	33.515
638.82	36.053
639.15	34.464
639.48	34.250
639.81	32.775
640.13	33.333
640.46	33.819
640.79	32.106
641.12	33.235
641.45	35.736
641.77	34.519
642.10	34.281
642.43	33.601
642.76	33.828
643.09	36.026
643.41	33.819
643.74	34.596
644.07	36.617
644.40	35.304
644.73	35.727
645.05	34.564
645.38	34.568
645.71	35.106
646.04	34.470
646.36	34.929
646.69	37.050
647.02	35.917
647.35	35.075
647.67	34.552
648.00	36.754
648.33	35.154
648.66	34.237
648.98	32.998
649.31	32.231
649.64	33.909
649.96	33.549
650.29	35.605
650.62	35.385
650.94	32.407
651.27	33.706
651.60	34.775
651.92	33.566
652.25	34.991
652.58	35.000
652.90	37.393
653.23	34.622
653.56	32.318
653.88	35.911
654.21	35.727
654.54	34.465
654.86	36.503
655.19	32.310
655.52	32.121
655.84	31.701
656.17	35.144
656.49	47.937
656.82	48.995
657.15	37.224
657.47	27.562
657.80	20.101
658.13	19.909
658.45	30.018
658.78	29.772
659.10	29.714
659.43	29.042
659.75	29.847
660.08	30.276
660.41	32.380
660.73	32.597
661.06	34.142
661.38	32.877
661.71	31.828
662.03	37.768
662.36	34.725
662.68	35.398
663.01	38.210
663.33	32.947
663.66	34.651
663.98	33.488
664.31	36.034
664.63	33.641
664.96	31.957
665.28	34.216
665.61	36.364
665.93	36.739
666.26	35.358
666.58	35.347
666.91	33.412
667.23	36.321
667.56	34.123
667.88	35.731
668.21	34.845
668.53	36.407
668.86	33.962
669.18	34.198
669.50	35.109
669.83	33.256
670.15	37.296
670.48	35.407
670.80	36.175
671.13	33.781
671.45	34.247
671.77	36.695
672.10	34.059
672.42	33.708
672.75	32.860
673.07	36.136
673.39	35.963
673.72	30.769
674.04	32.292
674.37	34.110
674.69	33.833
675.01	37.111
675.34	33.108
675.66	39.120
675.98	35.698
676.31	33.945
676.63	32.779
676.95	35.227
677.28	36.941
677.60	35.181
677.92	35.550
678.25	34.354
678.57	33.117
678.89	36.134
679.22	36.018
679.54	34.739
679.86	29.423
680.18	33.592
680.51	32.955
680.83	34.592
681.15	32.200
681.48	35.656
681.80	34.298
682.12	33.266
682.44	33.473
682.77	34.658
683.09	34.325
683.41	34.545
683.73	32.949
684.06	34.735
684.38	32.043
684.70	33.769
685.02	33.402
685.34	30.632
685.67	32.083
685.99	34.177
686.31	31.150
686.63	34.508
686.96	30.038
687.28	31.111
687.60	33.080
687.92	33.333
688.24	31.855
688.56	34.279
688.89	31.920
689.21	35.111
689.53	34.803
689.85	31.860
690.17	32.812
690.49	32.624
690.82	31.311
691.14	33.571
691.46	34.346
691.78	35.586
692.10	33.118
692.42	34.199
692.74	35.256
693.06	34.910
693.39	30.769
693.71	32.579
694.03	31.640
694.35	34.346
694.67	34.596
694.99	30.287
695.31	33.943
695.63	33.000
695.95	33.333
696.27	31.865
696.59	37.778
696.91	35.574
697.23	30.591
697.56	32.921
697.88	35.699
698.20	34.396
698.52	36.000
698.84	31.100
699.16	33.750
699.48	33.835
699.80	33.251
700.12	30.728
700.44	34.454
700.76	30.233
701.08	33.030
701.40	32.831
701.72	40.741
702.04	35.314
702.36	37.124
702.68	35.435
703.00	37.273
703.32	31.965
703.64	31.073
703.96	33.333
704.28	31.902
704.60	35.873
704.91	32.177
705.23	32.558
705.55	36.042
705.87	35.740
706.19	32.963
706.51	36.426
706.83	37.299
707.15	30.530
707.47	34.734
707.79	32.813
708.11	30.500
708.43	34.000
708.74	31.525
709.06	32.676
709.38	33.333
709.70	35.799
710.02	34.395
710.34	34.985
710.66	31.731
710.98	33.775
711.29	37.049
711.61	31.525
711.93	34.202
712.25	36.426
712.57	33.700
712.89	31.716
713.20	38.062
713.52	29.965
713.84	34.130
714.16	30.928
714.48	32.258
714.80	36.859
715.11	34.650
715.43	28.527
715.75	34.000
716.07	30.233
716.39	31.544
716.70	31.365
717.02	30.916
717.34	34.413
717.66	37.611
717.97	33.478
718.29	32.636
718.61	31.102
718.93	32.946
719.24	35.361
719.56	34.137
719.88	33.333
720.20	34.848
720.51	32.567
720.83	32.432
721.15	36.134
721.46	34.274
721.78	30.435
722.10	34.201
722.42	28.216
722.73	31.429
723.05	37.959
723.37	33.051
723.68	39.189
724.00	33.761
724.32	32.000
724.63	29.091
724.95	31.878
725.27	33.180
725.58	37.288
725.90	27.778
726.22	34.749
726.53	35.254
726.85	34.082
727.16	35.472
727.48	31.579
727.80	34.818
728.11	30.932
728.43	34.510
728.74	28.226
729.06	37.600
729.38	36.466
729.69	27.490
730.01	28.462
730.32	33.955
730.64	32.862
730.96	33.208
731.27	32.000
731.59	33.559
731.90	33.121
732.22	33.438
732.53	37.874
732.85	35.106
733.16	34.343
733.48	29.496
733.80	33.696
734.11	32.542
734.43	30.928
734.74	31.818
735.06	27.362
735.37	29.305
735.69	31.650
736.00	37.631
736.32	28.523
736.63	31.338
736.95	35.154
737.26	31.673
737.58	31.544
737.89	33.333
738.21	29.699
738.52	30.864
738.83	34.934
739.15	29.258
739.46	34.646
739.78	31.136
740.09	29.739
740.41	32.971
740.72	32.677
741.04	32.794
741.35	23.404
741.66	30.806
741.98	31.633
742.29	25.743
742.61	31.414
742.92	22.275
743.23	31.481
743.55	33.937
743.86	29.665
744.18	32.536
744.49	27.128
744.80	33.152
745.12	35.829
745.43	29.268
745.74	34.375
746.06	34.634
746.37	34.555
746.68	34.123
747.00	27.128
747.31	38.308
747.62	28.155
747.94	31.100
748.25	29.703
748.56	36.066
748.88	29.319
749.19	35.106
749.50	31.034
749.82	28.302
750.13	29.817
750.44	30.827
750.75	34.328
751.07	30.292
751.38	28.736
751.69	29.804
752.01	31.008
752.32	29.880
752.63	33.597
752.94	31.897
753.26	32.636
753.57	25.792
753.88	32.301
754.19	30.417
754.51	30.992
754.82	31.579
755.13	37.500
755.44	27.419
755.75	35.937
756.07	28.405
756.38	23.396
756.69	28.736
757.00	27.667
757.31	27.451
757.63	31.098
757.94	26.667
758.25	25.753
758.56	31.117
758.87	25.779
759.18	29.283
759.50	29.818
759.81	30.769
760.12	28.710
760.43	25.455
760.74	30.864
761.05	28.000
761.36	29.545
761.67	31.818
761.99	30.272
762.30	26.182
762.61	26.877
762.92	27.602
763.23	26.577
763.54	29.439
763.85	29.661
764.16	32.780
764.47	30.242
764.78	29.670
765.10	27.946
765.41	30.915
765.72	30.794
766.03	25.940
766.34	28.832
766.65	33.068
766.96	30.303
767.27	31.915
767.58	29.885
767.89	26.241
768.20	27.841
768.51	32.418
768.82	33.990
769.13	31.336
769.44	25.322
769.75	25.571
770.06	31.466
770.37	28.365
770.68	28.934
770.99	27.602
771.30	31.863
771.61	29.864
771.92	31.034
772.23	33.005
772.54	30.108
772.85	30.864
773.16	28.090
773.47	33.333
773.78	32.026
774.09	27.545
774.39	24.667
774.70	33.758
775.01	33.793
775.32	29.286
775.63	24.793
775.94	21.374
776.25	27.559
776.56	27.500
776.87	29.808
777.18	23.932
777.48	26.724
777.79	20.870
778.10	24.762
778.41	25.225
778.72	30.952
779.03	26.316
779.34	26.241
779.65	30.137
779.95	26.027
780.26	28.276
780.57	21.138
780.88	36.220
781.19	18.103
781.50	31.008
781.80	27.811
782.11	17.610
782.42	30.769
782.73	31.655
783.04	28.148
783.34	27.778
783.65	17.094
783.96	23.770
784.27	30.345
784.57	28.455
784.88	25.781
785.19	28.000
785.50	26.000
785.81	25.862
786.11	24.138
786.42	30.097
786.73	31.818
787.04	29.592
787.34	22.321
787.65	30.476
787.96	28.319
788.26	34.545
788.57	27.350
788.88	30.469
789.19	27.778
789.49	20.870
789.80	32.653
790.11	28.283
790.41	19.091
790.72	27.174
791.03	20.455
791.33	33.750
791.64	12.500
791.95	22.093
792.25	28.723
792.56	33.708
792.87	30.137
793.17	26.087
793.48	22.667
793.79	25.000
794.09	16.250
794.40	28.302
794.70	24.272
795.01	30.081
795.32	22.222
795.62	30.476
795.93	37.255
796.23	33.019
796.54	35.417
796.85	27.941
797.15	23.944
797.46	34.722
797.76	48.485
798.07	20.930
798.37	22.368
798.68	25.758
798.99	20.988
799.29	41.429
799.60	39.130
799.90	28.000
800.21	39.344
800.51	29.231
800.82	28.814
801.12	23.188
801.43	29.508
801.73	33.333
802.04	20.000
802.34	17.910
802.65	46.154
802.95	3.571
803.26	19.231
803.56	19.608
803.87	21.739
804.17	25.333
804.48	34.921
804.78	11.111
805.09	26.087
805.39	13.333
805.70	24.074
806.00	3.509
806.30	39.437
806.61	35.714
806.91	16.667
807.22	31.579
807.52	36.000
807.83	12.727
808.13	27.778
808.43	26.471
808.74	4.478
809.04	28.814
809.35	38.462
809.65	43.750
809.95	-2.703
810.26	6.818
810.56	30.137
810.86	38.095
811.17	18.000
811.47	26.531
811.77	13.158
812.08	34.091
812.38	22.642
812.69	12.500
812.99	39.394
813.29	26.316
813.59	11.429
813.90	11.364
814.20	2.564
814.50	17.308
814.81	28.302
815.11	25.532
815.41	44.068
815.72	4.762
816.02	17.647
816.32	29.167
816.62	24.390
816.93	10.811
817.23	28.571
817.53	31.250
817.84	19.565
818.14	42.308
818.44	0.000
818.74	15.217
819.04	-7.500
819.35	35.135
819.65	17.647
819.95	13.889
820.25	9.524
820.56	12.500
820.86	-24.138
821.16	42.500
821.46	23.404
821.76	12.500
822.07	6.977
822.37	-13.514
822.67	15.625
822.97	52.381
823.27	10.714
823.57	24.000
823.88	-22.222
824.18	50.000
824.48	29.412
824.78	38.710
825.08	47.826
825.38	27.273
825.69	-20.833
825.99	31.579
826.29	0.000
826.59	66.667
826.89	-14.286
827.19	23.913
827.49	0.000
827.79	17.143
828.09	7.143
828.39	24.242
828.70	40.541
829.00	46.429
829.30	14.286
829.60	40.000
829.90	12.500
830.20	21.053
830.50	7.407
830.80	-17.391
831.10	0.000
831.40	30.303
831.70	16.129
832.00	33.333
832.30	-4.762
832.60	-25.000
832.90	-13.793
833.20	-10.000
833.50	39.394
833.80	3.704
834.10	34.615
834.40	21.875
834.70	-44.444
835.00	10.526
835.30	65.385
835.60	-26.667
835.90	19.355
836.20	40.909
836.50	28.571
836.80	-38.462
837.10	10.714
837.40	-233.333
837.70	31.818
838.00	0.000
838.30	-4.348
838.60	23.077
838.90	40.909
839.19	60.714
839.49	6.667
839.79	-53.846
840.09	-25.000
840.39	50.000
840.69	-25.000
840.99	0.000
841.29	-15.789
841.59	-20.000
841.88	18.182
842.18	50.000
842.48	50.000
842.78	-6.667
843.08	11.111
843.38	-60.000
843.68	4.348
843.97	26.667
844.27	-80.000
844.57	30.000
844.87	-11.111
845.17	4.762
845.47	53.333
845.76	-19.048
846.06	82.353
846.36	120.000
846.66	-21.429
846.96	60.000
847.25	-275.000
847.55	-7.143
847.85	-25.000
848.15	0.000
848.44	-466.667
848.74	25.000
849.04	51.852
849.34	-45.455
849.63	-83.333
849.93	-160.000
850.23	16.667
850.53	0.000
850.82	-7.692
851.12	77.778
851.42	80.000
851.71	-11.538
852.01	-14.286
852.31	-150.000
852.61	-36.364
852.90	65.000
853.20	10.526
853.50	8.333
853.79	60.870
854.09	45.833
854.39	26.316
854.68	-4.167
854.98	45.161
855.28	23.077
855.57	0.000
855.87	-11.111
856.17	66.667
856.46	64.286
856.76	-6.667
857.05	22.222
857.35	68.000
857.65	33.333
857.94	100.000
858.24	20.690
858.53	38.889
858.83	37.037
859.13	59.091
859.42	-17.391
859.72	50.000
860.01	-500.000
860.31	24.000
860.60	28.571
860.90	-100.000
861.20	-13.333
861.49	-450.000
861.79	-20.000
862.08	35.000
862.38	106.667
862.67	-180.000
862.97	-100.000
863.26	-50.000
863.56	38.889
863.85	-400.000
864.15	22.222
864.44	-40.000
864.74	42.857
865.03	200.000
865.33	-260.000
865.62	133.333
865.92	-8.333
866.21	-100.000
866.51	12.500
866.80	27.273
867.10	550.000
867.39	83.333
867.69	0.000
867.98	23.077
868.27	-266.667
868.57	0.000
868.86	44.444
869.16	-38.462
869.45	60.000
869.75	-1400.000
870.04	0.000
870.33	-14.286
870.63	52.381
870.92	533.333
871.22	-240.000
871.51	500.000
871.80	88.889
872.10	333.333
>>>>>End Processed Spectral Data<<<<<
