SpectraSuite Data File
++++++++++++++++++++++++++++++++++++
Date: Fri May 15 17:06:03 PDT 2015
User: schluterlab
Dark Spectrum Present: Yes
Reference Spectrum Present: Yes
Number of Sampled Component Spectra: 1
Spectrometers: USB2E3373
Integration Time (usec): 3000 (USB2E3373)
Spectra Averaged: 3 (USB2E3373)
Boxcar Smoothing: 0 (USB2E3373)
Correct for Electrical Dark: No (USB2E3373)
Strobe/Lamp Enabled: No (USB2E3373)
Correct for Detector Non-linearity: No (USB2E3373)
Correct for Stray Light: No (USB2E3373)
Number of Pixels in Processed Spectrum: 2048
>>>>>Begin Processed Spectral Data<<<<<
178.53	0.000
178.91	0.000
179.29	187.500
179.67	250.000
180.04	-100.000
180.42	575.000
180.80	100.000
181.18	-433.333
181.56	-200.000
181.94	100.000
182.31	-700.000
182.69	220.000
183.07	-33.333
183.45	120.000
183.83	-33.333
184.20	145.455
184.58	44.444
184.96	-275.000
185.34	-266.667
185.72	350.000
186.09	38.462
186.47	600.000
186.85	-50.000
187.23	100.000
187.61	-1400.000
187.98	0.000
188.36	111.111
188.74	200.000
189.12	117.647
189.49	116.667
189.87	0.000
190.25	85.714
190.63	700.000
191.00	-133.333
191.38	57.895
191.76	150.000
192.14	-275.000
192.51	750.000
192.89	111.111
193.27	128.571
193.65	50.000
194.02	-81.818
194.40	210.000
194.78	37.500
195.15	41.667
195.53	0.000
195.91	200.000
196.29	150.000
196.66	-0.000
197.04	-71.429
197.42	44.444
197.79	33.333
198.17	-69.231
198.55	300.000
198.92	166.667
199.30	1300.000
199.68	80.000
200.05	0.000
200.43	0.000
200.81	166.667
201.18	133.333
201.56	400.000
201.94	600.000
202.31	-366.667
202.69	20.000
203.07	-175.000
203.44	1500.000
203.82	0.000
204.19	142.857
204.57	-300.000
204.95	-75.000
205.32	100.000
205.70	142.857
206.08	250.000
206.45	277.778
206.83	142.857
207.20	28.571
207.58	-300.000
207.96	200.000
208.33	120.000
208.71	100.000
209.08	16.667
209.46	700.000
209.84	200.000
210.21	600.000
210.59	142.857
210.96	183.333
211.34	25.000
211.71	146.667
212.09	0.000
212.46	-1100.000
212.84	0.000
213.22	140.000
213.59	350.000
213.97	146.154
214.34	145.455
214.72	33.333
215.09	250.000
215.47	23.077
215.84	36.364
216.22	166.667
216.59	162.500
216.97	650.000
217.34	0.000
217.72	40.000
218.09	137.500
218.47	150.000
218.84	-600.000
219.22	111.111
219.59	120.000
219.97	-33.333
220.34	-250.000
220.72	142.857
221.09	150.000
221.47	450.000
221.84	-50.000
222.22	-250.000
222.59	54.545
222.97	175.000
223.34	100.000
223.72	-7.143
224.09	52.381
224.46	60.714
224.84	-66.667
225.21	140.000
225.59	93.333
225.96	300.000
226.34	-25.000
226.71	71.429
227.08	83.333
227.46	37.500
227.83	100.000
228.21	55.556
228.58	63.636
228.95	125.000
229.33	-30.000
229.70	25.000
230.08	62.500
230.45	-14.286
230.82	271.429
231.20	46.667
231.57	85.714
231.95	228.571
232.32	-30.000
232.69	85.714
233.07	666.667
233.44	240.000
233.81	-80.000
234.19	133.333
234.56	29.412
234.93	-300.000
235.31	425.000
235.68	80.000
236.05	76.923
236.43	5.000
236.80	17.647
237.17	53.125
237.55	85.000
237.92	44.444
238.29	61.111
238.67	90.000
239.04	47.059
239.41	51.220
239.79	63.333
240.16	82.927
240.53	50.000
240.91	47.826
241.28	33.333
241.65	66.071
242.02	54.795
242.40	51.667
242.77	61.017
243.14	69.697
243.51	52.500
243.89	58.621
244.26	56.322
244.63	66.667
245.00	63.918
245.38	57.732
245.75	51.685
246.12	45.690
246.49	66.116
246.87	71.154
247.24	42.857
247.61	49.123
247.98	51.220
248.36	56.875
248.73	55.263
249.10	52.597
249.47	55.696
249.84	55.556
250.22	54.118
250.59	60.131
250.96	49.296
251.33	54.070
251.70	58.235
252.08	53.807
252.45	52.970
252.82	58.794
253.19	52.995
253.56	50.000
253.94	52.703
254.31	54.783
254.68	56.140
255.05	53.150
255.42	52.838
255.79	53.282
256.16	49.027
256.54	55.597
256.91	52.091
257.28	56.134
257.65	52.434
258.02	53.191
258.39	52.189
258.76	56.410
259.14	56.146
259.51	51.780
259.88	52.921
260.25	50.654
260.62	56.597
260.99	50.847
261.36	54.795
261.73	53.165
262.10	55.927
262.47	52.761
262.85	50.157
263.22	51.692
263.59	53.271
263.96	56.522
264.33	55.152
264.70	51.786
265.07	51.190
265.44	52.125
265.81	56.497
266.18	52.732
266.55	55.270
266.92	51.554
267.29	53.003
267.66	53.453
268.03	54.712
268.40	51.436
268.77	55.882
269.14	48.681
269.51	51.671
269.88	50.125
270.25	53.061
270.62	51.463
270.99	51.918
271.36	54.523
271.73	52.582
272.10	55.474
272.47	56.265
272.84	52.970
273.21	50.348
273.58	52.289
273.95	50.114
274.32	53.580
274.69	49.095
275.06	53.571
275.43	48.526
275.80	49.007
276.17	50.805
276.54	52.463
276.91	51.096
277.28	48.472
277.65	50.826
278.02	50.213
278.39	51.204
278.76	47.799
279.13	45.851
279.50	50.840
279.87	49.460
280.23	48.602
280.60	47.173
280.97	52.525
281.34	47.500
281.71	50.513
282.08	48.466
282.45	49.315
282.82	47.683
283.19	49.130
283.56	48.170
283.92	49.905
284.29	47.885
284.66	46.899
285.03	48.134
285.40	46.692
285.77	46.046
286.14	46.029
286.51	51.476
286.87	45.155
287.24	49.355
287.61	46.032
287.98	45.614
288.35	47.660
288.72	46.410
289.08	45.139
289.45	44.112
289.82	44.056
290.19	43.515
290.56	44.425
290.93	43.939
291.29	40.678
291.66	43.937
292.03	40.989
292.40	43.387
292.77	41.148
293.13	39.935
293.50	39.150
293.87	40.153
294.24	41.422
294.60	39.046
294.97	40.179
295.34	37.730
295.71	38.599
296.08	39.462
296.44	35.135
296.81	36.944
297.18	37.826
297.55	39.837
297.91	36.438
298.28	37.335
298.65	36.499
299.02	35.175
299.38	34.337
299.75	34.759
300.12	34.424
300.48	33.729
300.85	35.741
301.22	35.584
301.59	34.211
301.95	34.557
302.32	36.187
302.69	34.577
303.05	34.406
303.42	33.375
303.79	34.930
304.15	34.050
304.52	31.867
304.89	32.398
305.25	33.777
305.62	32.439
305.99	32.164
306.35	33.988
306.72	31.159
307.09	31.927
307.45	33.410
307.82	33.449
308.19	33.914
308.55	31.407
308.92	33.224
309.29	32.849
309.65	31.970
310.02	32.013
310.38	32.602
310.75	30.929
311.12	31.216
311.48	32.450
311.85	31.937
312.22	30.907
312.58	31.741
312.95	31.377
313.31	31.366
313.68	31.309
314.05	32.653
314.41	32.577
314.78	31.959
315.14	32.785
315.51	33.023
315.87	31.967
316.24	31.041
316.61	32.677
316.97	32.540
317.34	34.082
317.70	31.358
318.07	33.077
318.43	33.039
318.80	33.428
319.16	33.594
319.53	32.574
319.89	33.760
320.26	34.211
320.62	34.804
320.99	34.342
321.35	34.943
321.72	35.410
322.08	36.153
322.45	36.751
322.81	36.346
323.18	37.291
323.54	37.066
323.91	37.098
324.27	38.281
324.64	39.513
325.00	39.781
325.37	41.873
325.73	40.435
326.10	41.326
326.46	42.601
326.83	44.357
327.19	43.679
327.56	43.614
327.92	45.246
328.29	44.464
328.65	46.509
329.01	46.507
329.38	47.281
329.74	46.648
330.11	47.081
330.47	48.237
330.84	47.404
331.20	51.141
331.56	48.611
331.93	51.324
332.29	50.137
332.66	49.593
333.02	51.766
333.38	50.046
333.75	53.205
334.11	50.940
334.48	52.403
334.84	52.930
335.20	51.601
335.57	52.675
335.93	53.297
336.29	55.341
336.66	53.134
337.02	52.881
337.38	52.778
337.75	55.364
338.11	54.193
338.47	54.836
338.84	54.529
339.20	55.393
339.56	54.220
339.93	54.073
340.29	54.220
340.65	54.301
341.02	54.610
341.38	54.248
341.74	53.445
342.11	53.206
342.47	55.605
342.83	54.671
343.20	54.181
343.56	55.217
343.92	55.713
344.28	55.252
344.65	53.109
345.01	53.414
345.37	55.593
345.73	54.142
346.10	55.738
346.46	54.836
346.82	53.191
347.19	53.782
347.55	54.052
347.91	54.935
348.27	54.568
348.63	55.877
349.00	53.568
349.36	54.198
349.72	55.141
350.08	54.672
350.45	53.472
350.81	54.319
351.17	52.117
351.53	55.673
351.89	53.509
352.26	52.400
352.62	53.710
352.98	52.530
353.34	53.140
353.70	52.104
354.07	54.435
354.43	53.323
354.79	54.418
355.15	52.857
355.51	54.272
355.87	54.045
356.24	52.284
356.60	53.678
356.96	53.889
357.32	53.594
357.68	52.072
358.04	53.877
358.40	53.939
358.77	54.466
359.13	53.643
359.49	53.005
359.85	52.886
360.21	54.386
360.57	51.645
360.93	53.707
361.29	53.323
361.66	54.859
362.02	54.242
362.38	54.075
362.74	53.899
363.10	55.907
363.46	54.040
363.82	54.545
364.18	54.244
364.54	53.382
364.90	53.835
365.26	54.076
365.62	54.526
365.98	54.912
366.35	54.479
366.71	55.137
367.07	54.572
367.43	54.493
367.79	53.498
368.15	55.133
368.51	54.261
368.87	54.128
369.23	54.007
369.59	55.685
369.95	53.959
370.31	54.335
370.67	55.821
371.03	54.369
371.39	53.902
371.75	54.212
372.11	55.492
372.47	54.808
372.83	55.784
373.19	53.566
373.55	54.513
373.91	53.564
374.27	55.280
374.63	55.851
374.99	54.113
375.35	55.710
375.71	56.364
376.07	54.986
376.42	55.170
376.78	56.376
377.14	56.060
377.50	56.308
377.86	56.292
378.22	54.754
378.58	55.833
378.94	54.316
379.30	54.585
379.66	57.116
380.02	55.303
380.38	55.265
380.74	54.758
381.09	56.564
381.45	55.168
381.81	56.570
382.17	55.457
382.53	55.840
382.89	56.121
383.25	57.250
383.61	56.768
383.97	56.127
384.32	56.285
384.68	55.728
385.04	56.373
385.40	55.569
385.76	57.799
386.12	58.215
386.48	56.833
386.83	55.549
387.19	56.960
387.55	57.340
387.91	56.907
388.27	56.410
388.62	58.339
388.98	56.231
389.34	57.339
389.70	56.743
390.06	55.129
390.42	55.311
390.77	57.489
391.13	55.801
391.49	58.409
391.85	57.505
392.20	57.376
392.56	56.580
392.92	57.076
393.28	57.193
393.64	56.577
393.99	58.119
394.35	56.483
394.71	58.301
395.07	56.757
395.42	55.495
395.78	57.590
396.14	57.125
396.50	57.007
396.85	56.729
397.21	56.704
397.57	55.799
397.92	56.441
398.28	57.184
398.64	55.723
399.00	56.264
399.35	54.628
399.71	56.175
400.07	56.348
400.42	55.202
400.78	55.358
401.14	55.959
401.49	56.343
401.85	55.637
402.21	55.241
402.57	56.125
402.92	54.768
403.28	56.642
403.63	56.053
403.99	55.293
404.35	56.340
404.70	53.988
405.06	55.758
405.42	53.947
405.77	55.375
406.13	54.773
406.49	55.003
406.84	54.584
407.20	54.244
407.55	54.540
407.91	54.345
408.27	55.322
408.62	54.031
408.98	54.652
409.34	55.143
409.69	52.649
410.05	54.618
410.40	54.321
410.76	54.825
411.11	54.562
411.47	54.372
411.83	54.363
412.18	55.856
412.54	53.433
412.89	53.879
413.25	54.212
413.60	53.106
413.96	53.436
414.31	54.024
414.67	51.956
415.03	54.261
415.38	53.525
415.74	54.397
416.09	54.997
416.45	54.085
416.80	53.999
417.16	54.351
417.51	55.430
417.87	53.585
418.22	55.505
418.58	54.247
418.93	55.047
419.29	52.753
419.64	54.180
420.00	56.171
420.35	54.448
420.71	55.225
421.06	54.082
421.42	54.988
421.77	55.260
422.12	55.051
422.48	54.792
422.83	55.162
423.19	55.192
423.54	54.791
423.90	55.241
424.25	54.478
424.61	55.141
424.96	55.226
425.31	56.557
425.67	56.455
426.02	56.832
426.38	56.794
426.73	55.751
427.09	57.595
427.44	56.235
427.79	57.454
428.15	56.311
428.50	57.723
428.85	56.143
429.21	57.612
429.56	56.981
429.92	56.549
430.27	56.341
430.62	56.194
430.98	57.006
431.33	56.467
431.68	55.939
432.04	57.686
432.39	56.475
432.74	56.464
433.10	58.908
433.45	56.989
433.80	58.445
434.16	57.950
434.51	57.043
434.86	57.666
435.22	58.160
435.57	58.141
435.92	58.743
436.28	56.887
436.63	58.928
436.98	57.937
437.34	58.076
437.69	59.273
438.04	59.373
438.39	59.071
438.75	61.020
439.10	59.366
439.45	60.134
439.81	60.673
440.16	62.589
440.51	60.060
440.86	61.631
441.22	59.898
441.57	60.430
441.92	61.070
442.27	61.475
442.63	61.188
442.98	62.206
443.33	60.545
443.68	60.053
444.03	60.805
444.39	60.600
444.74	63.378
445.09	62.305
445.44	61.538
445.79	63.332
446.15	62.225
446.50	60.788
446.85	62.806
447.20	60.845
447.55	63.281
447.91	62.549
448.26	62.038
448.61	62.522
448.96	63.052
449.31	62.775
449.66	62.660
450.02	63.263
450.37	63.960
450.72	61.627
451.07	62.911
451.42	62.110
451.77	62.929
452.12	63.158
452.47	63.361
452.83	61.837
453.18	61.607
453.53	63.780
453.88	64.117
454.23	63.553
454.58	64.043
454.93	63.531
455.28	63.302
455.63	64.290
455.98	63.019
456.34	63.218
456.69	62.961
457.04	62.634
457.39	64.763
457.74	64.692
458.09	62.154
458.44	63.487
458.79	61.681
459.14	63.902
459.49	64.299
459.84	64.805
460.19	64.199
460.54	64.364
460.89	64.261
461.24	64.720
461.59	63.717
461.94	63.585
462.29	65.018
462.64	65.382
462.99	63.913
463.34	64.117
463.69	63.642
464.04	64.225
464.39	63.675
464.74	64.969
465.09	64.317
465.44	65.609
465.79	64.286
466.14	64.766
466.49	64.577
466.84	64.723
467.19	64.205
467.54	64.304
467.89	64.561
468.24	64.538
468.59	65.333
468.94	64.571
469.29	64.787
469.64	64.525
469.99	65.662
470.34	62.799
470.68	65.101
471.03	65.039
471.38	64.979
471.73	63.305
472.08	64.654
472.43	66.711
472.78	63.331
473.13	64.966
473.48	66.124
473.83	64.446
474.17	65.220
474.52	63.242
474.87	65.152
475.22	65.711
475.57	65.104
475.92	64.399
476.27	64.901
476.61	65.799
476.96	63.859
477.31	64.846
477.66	64.438
478.01	65.637
478.36	64.978
478.70	65.090
479.05	65.165
479.40	64.865
479.75	64.807
480.10	64.670
480.45	66.200
480.79	65.911
481.14	67.008
481.49	65.025
481.84	65.782
482.19	65.482
482.53	65.036
482.88	64.487
483.23	64.539
483.58	64.245
483.92	64.472
484.27	63.993
484.62	64.814
484.97	64.345
485.31	64.884
485.66	65.314
486.01	66.510
486.36	65.465
486.70	64.721
487.05	64.597
487.40	64.866
487.75	64.761
488.09	63.752
488.44	64.443
488.79	64.400
489.13	65.144
489.48	65.199
489.83	65.561
490.17	64.674
490.52	63.695
490.87	63.026
491.22	64.422
491.56	64.753
491.91	63.815
492.26	64.220
492.60	64.635
492.95	65.962
493.30	63.068
493.64	65.275
493.99	64.831
494.34	65.437
494.68	64.952
495.03	65.061
495.37	63.984
495.72	64.967
496.07	65.317
496.41	64.575
496.76	65.592
497.11	64.835
497.45	64.773
497.80	65.742
498.14	63.785
498.49	64.347
498.84	63.822
499.18	64.809
499.53	64.831
499.87	65.564
500.22	63.897
500.56	65.406
500.91	64.809
501.26	65.002
501.60	65.076
501.95	66.861
502.29	64.843
502.64	65.444
502.98	66.502
503.33	65.178
503.67	64.578
504.02	65.298
504.36	65.166
504.71	64.242
505.06	64.570
505.40	65.381
505.75	65.722
506.09	64.724
506.44	66.530
506.78	65.204
507.13	64.995
507.47	65.117
507.82	64.423
508.16	64.712
508.51	65.897
508.85	65.934
509.19	66.472
509.54	65.094
509.88	65.049
510.23	67.133
510.57	66.275
510.92	64.925
511.26	66.721
511.61	65.512
511.95	65.425
512.30	65.632
512.64	65.220
512.98	64.795
513.33	65.753
513.67	65.037
514.02	67.563
514.36	66.400
514.70	66.142
515.05	66.745
515.39	66.529
515.74	68.743
516.08	67.244
516.42	66.313
516.77	66.998
517.11	67.003
517.46	67.265
517.80	65.197
518.14	66.503
518.49	64.964
518.83	66.525
519.17	65.676
519.52	65.779
519.86	65.366
520.20	66.282
520.55	66.479
520.89	65.809
521.23	65.991
521.58	66.183
521.92	66.538
522.26	66.038
522.61	66.818
522.95	67.285
523.29	64.676
523.64	66.328
523.98	67.336
524.32	65.979
524.66	67.286
525.01	65.649
525.35	67.012
525.69	66.869
526.04	65.873
526.38	67.250
526.72	66.122
527.06	66.407
527.41	66.227
527.75	66.689
528.09	66.711
528.43	68.737
528.78	66.403
529.12	65.677
529.46	65.497
529.80	65.674
530.15	67.195
530.49	67.609
530.83	67.168
531.17	64.809
531.51	67.647
531.86	65.874
532.20	66.458
532.54	65.283
532.88	66.324
533.22	65.726
533.57	65.858
533.91	66.775
534.25	67.448
534.59	67.479
534.93	66.394
535.27	64.721
535.62	65.522
535.96	67.580
536.30	66.029
536.64	67.195
536.98	66.481
537.32	66.999
537.66	67.602
538.01	67.832
538.35	67.198
538.69	65.779
539.03	65.824
539.37	66.016
539.71	67.689
540.05	67.685
540.39	67.590
540.73	66.527
541.07	66.506
541.42	67.070
541.76	66.621
542.10	65.726
542.44	67.616
542.78	65.451
543.12	65.591
543.46	67.455
543.80	66.690
544.14	63.551
544.48	66.622
544.82	67.191
545.16	68.101
545.50	66.288
545.84	67.210
546.18	67.163
546.52	66.619
546.86	67.793
547.20	66.524
547.54	67.208
547.88	67.799
548.22	66.732
548.56	67.480
548.90	67.588
549.24	67.975
549.58	66.573
549.92	65.261
550.26	66.886
550.60	68.253
550.94	67.737
551.28	67.465
551.62	68.231
551.96	68.045
552.30	68.933
552.64	67.348
552.98	66.807
553.32	67.332
553.66	67.417
554.00	68.686
554.34	68.168
554.68	67.257
555.02	67.262
555.36	68.287
555.69	66.740
556.03	67.737
556.37	67.544
556.71	67.437
557.05	68.307
557.39	68.030
557.73	67.391
558.07	68.854
558.41	69.755
558.75	67.810
559.08	67.849
559.42	68.254
559.76	69.896
560.10	67.355
560.44	67.982
560.78	68.881
561.12	68.265
561.45	69.220
561.79	69.888
562.13	68.985
562.47	68.921
562.81	67.795
563.15	67.842
563.48	69.731
563.82	69.458
564.16	67.827
564.50	68.311
564.84	68.273
565.17	68.880
565.51	71.448
565.85	69.547
566.19	69.032
566.52	70.912
566.86	68.316
567.20	68.742
567.54	69.891
567.88	71.236
568.21	70.588
568.55	69.837
568.89	71.150
569.23	70.486
569.56	69.221
569.90	71.052
570.24	69.408
570.57	70.836
570.91	71.175
571.25	70.799
571.59	69.573
571.92	68.444
572.26	69.022
572.60	69.519
572.93	67.901
573.27	68.558
573.61	70.346
573.95	69.416
574.28	68.988
574.62	69.082
574.96	69.235
575.29	68.652
575.63	67.867
575.97	68.257
576.30	69.216
576.64	69.457
576.98	69.884
577.31	70.484
577.65	70.069
577.98	69.886
578.32	69.656
578.66	69.267
578.99	67.946
579.33	68.399
579.67	68.483
580.00	70.203
580.34	69.453
580.67	69.065
581.01	69.717
581.35	69.875
581.68	70.636
582.02	70.251
582.35	69.582
582.69	70.764
583.02	70.092
583.36	70.357
583.70	70.872
584.03	70.531
584.37	71.174
584.70	71.429
585.04	70.130
585.37	69.779
585.71	71.020
586.04	70.424
586.38	70.419
586.72	70.531
587.05	71.086
587.39	71.624
587.72	72.225
588.06	71.492
588.39	70.578
588.73	70.177
589.06	71.918
589.40	71.483
589.73	72.034
590.07	71.979
590.40	71.285
590.73	72.941
591.07	70.696
591.40	71.371
591.74	72.127
592.07	72.078
592.41	72.527
592.74	70.928
593.08	70.695
593.41	72.949
593.75	71.475
594.08	70.717
594.41	71.361
594.75	71.603
595.08	71.320
595.42	72.286
595.75	72.963
596.09	72.478
596.42	71.848
596.75	72.691
597.09	72.073
597.42	72.358
597.75	73.385
598.09	71.344
598.42	71.345
598.76	72.329
599.09	72.917
599.42	71.012
599.76	70.918
600.09	71.757
600.42	71.835
600.76	71.360
601.09	72.405
601.42	71.876
601.76	72.370
602.09	72.318
602.42	73.210
602.76	71.392
603.09	73.214
603.42	74.247
603.76	73.629
604.09	71.972
604.42	72.589
604.76	73.075
605.09	72.578
605.42	72.325
605.75	73.030
606.09	73.206
606.42	72.602
606.75	71.645
607.09	72.264
607.42	72.087
607.75	72.780
608.08	71.294
608.42	71.128
608.75	72.578
609.08	73.244
609.41	72.944
609.75	72.429
610.08	73.640
610.41	72.077
610.74	73.379
611.07	73.695
611.41	73.742
611.74	75.213
612.07	72.645
612.40	72.210
612.73	74.859
613.07	72.160
613.40	71.882
613.73	73.251
614.06	72.955
614.39	73.604
614.72	72.773
615.06	72.849
615.39	72.926
615.72	71.529
616.05	72.514
616.38	71.396
616.71	72.844
617.05	74.120
617.38	72.910
617.71	73.208
618.04	73.587
618.37	74.842
618.70	74.389
619.03	73.819
619.36	73.227
619.69	74.905
620.03	76.479
620.36	73.891
620.69	73.519
621.02	72.630
621.35	73.361
621.68	74.915
622.01	74.917
622.34	74.062
622.67	73.659
623.00	73.354
623.33	73.399
623.66	72.177
623.99	74.433
624.32	73.688
624.65	73.835
624.99	74.492
625.32	73.010
625.65	74.941
625.98	74.456
626.31	73.400
626.64	75.997
626.97	76.178
627.30	74.431
627.63	73.224
627.96	74.394
628.29	72.988
628.62	74.435
628.95	74.248
629.28	76.815
629.61	73.081
629.94	74.291
630.26	72.134
630.59	76.587
630.92	75.692
631.25	71.692
631.58	75.661
631.91	75.439
632.24	75.917
632.57	74.773
632.90	75.801
633.23	74.000
633.56	73.174
633.89	75.339
634.22	74.444
634.55	76.112
634.88	74.202
635.20	72.308
635.53	74.933
635.86	74.252
636.19	74.644
636.52	75.893
636.85	74.194
637.18	74.969
637.51	74.088
637.83	74.770
638.16	78.308
638.49	73.161
638.82	75.132
639.15	76.119
639.48	75.791
639.81	75.593
640.13	78.066
640.46	75.802
640.79	76.730
641.12	74.594
641.45	75.075
641.77	74.815
642.10	76.777
642.43	77.010
642.76	75.743
643.09	76.575
643.41	73.948
643.74	75.124
644.07	75.369
644.40	75.169
644.73	78.634
645.05	75.000
645.38	77.954
645.71	76.950
646.04	78.276
646.36	74.645
646.69	78.597
647.02	77.883
647.35	75.560
647.67	73.857
648.00	77.799
648.33	75.939
648.66	73.729
648.98	75.712
649.31	76.860
649.64	74.254
649.96	72.934
650.29	77.172
650.62	74.359
650.94	75.370
651.27	72.812
651.60	75.676
651.92	74.476
652.25	77.087
652.58	74.500
652.90	78.731
653.23	74.622
653.56	73.604
653.88	75.430
654.21	74.431
654.54	75.212
654.86	77.250
655.19	72.661
655.52	77.012
655.84	76.674
656.17	85.089
656.49	100.000
656.82	100.000
657.15	100.000
657.47	82.923
657.80	49.719
658.13	49.440
658.45	76.527
658.78	74.385
659.10	74.158
659.43	74.394
659.75	76.517
660.08	76.069
660.41	77.222
660.73	74.862
661.06	79.203
661.38	78.865
661.71	73.511
662.03	76.395
662.36	75.165
662.68	77.876
663.01	74.891
663.33	74.942
663.66	73.488
663.98	74.419
664.31	76.333
664.63	77.650
664.96	71.739
665.28	75.497
665.61	79.870
665.93	77.609
666.26	77.874
666.58	77.629
666.91	77.647
667.23	77.123
667.56	77.962
667.88	76.499
668.21	76.850
668.53	78.723
668.86	73.821
669.18	73.349
669.50	71.186
669.83	74.651
670.15	76.923
670.48	79.187
670.80	76.498
671.13	72.931
671.45	73.744
671.77	75.751
672.10	76.040
672.42	75.655
672.75	74.778
673.07	77.996
673.39	76.697
673.72	75.542
674.04	77.500
674.37	76.483
674.69	76.017
675.01	77.556
675.34	77.027
675.66	76.852
675.98	74.058
676.31	77.064
676.63	79.572
676.95	73.636
677.28	76.000
677.60	81.205
677.92	75.229
678.25	76.586
678.57	75.541
678.89	74.370
679.22	80.984
679.54	74.498
679.86	73.559
680.18	76.893
680.51	77.273
680.83	76.740
681.15	77.400
681.48	76.025
681.80	75.207
682.12	78.629
682.44	74.477
682.77	78.146
683.09	78.490
683.41	74.773
683.73	74.654
684.06	74.779
684.38	75.054
684.70	80.610
685.02	76.763
685.34	77.668
685.67	75.047
685.99	78.300
686.31	75.575
686.63	78.664
686.96	77.947
687.28	76.364
687.60	75.475
687.92	80.606
688.24	78.024
688.56	81.659
688.89	80.580
689.21	75.111
689.53	76.566
689.85	76.047
690.17	78.571
690.49	79.905
690.82	75.728
691.14	75.714
691.46	78.037
691.78	79.730
692.10	80.860
692.42	75.758
692.74	71.154
693.06	77.027
693.39	72.851
693.71	75.792
694.03	78.060
694.35	78.505
694.67	75.505
694.99	75.979
695.31	78.851
695.63	78.750
695.95	76.515
696.27	74.611
696.59	80.556
696.91	75.070
697.23	77.121
697.56	79.950
697.88	77.849
698.20	78.815
698.52	79.294
698.84	73.923
699.16	76.000
699.48	77.444
699.80	74.442
700.12	76.819
700.44	80.392
700.76	76.744
701.08	79.697
701.40	76.807
701.72	80.556
702.04	81.848
702.36	86.288
702.68	77.477
703.00	80.303
703.32	78.886
703.64	72.034
703.96	75.362
704.28	78.221
704.60	77.143
704.91	76.341
705.23	75.415
705.55	80.919
705.87	77.256
706.19	81.481
706.51	75.945
706.83	77.170
707.15	76.636
707.47	80.672
707.79	75.781
708.11	73.000
708.43	75.250
708.74	74.677
709.06	80.563
709.38	81.957
709.70	75.444
710.02	77.070
710.34	78.638
710.66	74.359
710.98	77.815
711.29	82.951
711.61	81.017
711.93	78.176
712.25	82.818
712.57	77.289
712.89	78.731
713.20	77.509
713.52	78.397
713.84	79.522
714.16	79.038
714.48	75.484
714.80	75.962
715.11	76.596
715.43	73.354
715.75	79.333
716.07	75.083
716.39	77.852
716.70	76.015
717.02	79.389
717.34	83.806
717.66	81.858
717.97	67.391
718.29	80.753
718.61	78.346
718.93	80.233
719.24	79.468
719.56	83.936
719.88	78.351
720.20	77.652
720.51	73.563
720.83	81.467
721.15	78.992
721.46	83.065
721.78	77.470
722.10	74.349
722.42	76.349
722.73	81.224
723.05	77.959
723.37	80.508
723.68	88.288
724.00	77.778
724.32	76.444
724.63	81.364
724.95	73.799
725.27	84.793
725.58	79.237
725.90	74.603
726.22	78.764
726.53	77.627
726.85	81.273
727.16	83.019
727.48	80.162
727.80	81.377
728.11	73.729
728.43	75.686
728.74	72.581
729.06	81.200
729.38	80.827
729.69	80.876
730.01	76.154
730.32	78.731
730.64	76.325
730.96	84.906
731.27	76.667
731.59	79.661
731.90	78.344
732.22	78.233
732.53	78.738
732.85	81.915
733.16	82.155
733.48	75.180
733.80	81.522
734.11	83.390
734.43	82.474
734.74	80.909
735.06	76.221
735.37	80.060
735.69	81.818
736.00	81.533
736.32	73.490
736.63	80.986
736.95	77.133
737.26	79.359
737.58	72.819
737.89	80.586
738.21	80.827
738.52	84.774
738.83	84.716
739.15	81.223
739.46	83.858
739.78	72.894
740.09	77.778
740.41	83.696
740.72	81.496
741.04	82.186
741.35	77.021
741.66	76.777
741.98	88.776
742.29	75.743
742.61	81.675
742.92	76.777
743.23	73.148
743.55	78.733
743.86	79.426
744.18	75.120
744.49	81.383
744.80	84.783
745.12	93.583
745.43	83.902
745.74	81.771
746.06	79.512
746.37	80.628
746.68	80.569
747.00	78.191
747.31	84.080
747.62	73.786
747.94	79.904
748.25	83.168
748.56	84.699
748.88	81.675
749.19	83.511
749.50	85.222
749.82	78.302
750.13	77.982
750.44	81.203
750.75	83.955
751.07	85.766
751.38	82.375
751.69	80.000
752.01	76.744
752.32	80.876
752.63	77.075
752.94	78.879
753.26	85.774
753.57	79.638
753.88	83.186
754.19	70.833
754.51	78.926
754.82	80.972
755.13	85.833
755.44	81.452
755.75	80.078
756.07	80.545
756.38	78.868
756.69	80.843
757.00	76.667
757.31	80.719
757.63	77.744
757.94	77.500
758.25	78.630
758.56	77.926
758.87	73.088
759.18	78.816
759.50	81.818
759.81	80.602
760.12	81.613
760.43	76.970
760.74	85.185
761.05	84.000
761.36	78.125
761.67	84.545
761.99	88.095
762.30	74.545
762.61	79.447
762.92	81.448
763.23	77.477
763.54	83.645
763.85	81.356
764.16	78.423
764.47	77.823
764.78	72.527
765.10	78.788
765.41	78.233
765.72	80.635
766.03	81.579
766.34	72.993
766.65	77.689
766.96	86.869
767.27	77.660
767.58	71.264
767.89	88.652
768.20	72.159
768.51	81.868
768.82	81.773
769.13	78.341
769.44	77.253
769.75	75.342
770.06	71.983
770.37	77.404
770.68	79.188
770.99	74.208
771.30	82.843
771.61	82.805
771.92	75.431
772.23	79.310
772.54	82.258
772.85	80.247
773.16	80.899
773.47	94.771
773.78	83.007
774.09	80.240
774.39	78.000
774.70	80.892
775.01	88.966
775.32	75.714
775.63	79.339
775.94	81.679
776.25	82.677
776.56	76.667
776.87	79.808
777.18	73.504
777.48	76.724
777.79	70.435
778.10	79.048
778.41	83.784
778.72	73.810
779.03	87.218
779.34	80.851
779.65	80.137
779.95	77.397
780.26	87.586
780.57	75.610
780.88	78.740
781.19	78.448
781.50	83.721
781.80	70.414
782.11	71.069
782.42	99.231
782.73	77.698
783.04	70.370
783.34	76.389
783.65	73.504
783.96	86.885
784.27	77.241
784.57	91.870
784.88	71.094
785.19	80.000
785.50	92.000
785.81	93.103
786.11	74.138
786.42	84.466
786.73	71.818
787.04	84.694
787.34	75.000
787.65	86.667
787.96	80.531
788.26	96.364
788.57	77.778
788.88	78.125
789.19	70.635
789.49	79.130
789.80	87.755
790.11	74.747
790.41	64.545
790.72	82.609
791.03	79.545
791.33	87.500
791.64	80.000
791.95	67.442
792.25	80.851
792.56	80.899
792.87	80.822
793.17	86.957
793.48	88.000
793.79	75.000
794.09	95.000
794.40	69.811
794.70	81.553
795.01	67.480
795.32	81.197
795.62	79.048
795.93	79.412
796.23	81.132
796.54	72.917
796.85	79.412
797.15	67.606
797.46	87.500
797.76	92.424
798.07	61.628
798.37	81.579
798.68	75.758
798.99	62.963
799.29	75.714
799.60	72.464
799.90	85.333
800.21	93.443
800.51	87.692
800.82	81.356
801.12	76.812
801.43	80.328
801.73	87.302
802.04	102.000
802.34	59.701
802.65	101.923
802.95	83.929
803.26	65.385
803.56	98.039
803.87	65.217
804.17	68.000
804.48	85.714
804.78	72.222
805.09	89.130
805.39	93.333
805.70	90.741
806.00	73.684
806.30	56.338
806.61	80.000
806.91	66.667
807.22	96.053
807.52	70.667
807.83	85.455
808.13	80.556
808.43	98.529
808.74	65.672
809.04	86.441
809.35	78.846
809.65	73.438
809.95	83.784
810.26	84.091
810.56	63.014
810.86	109.524
811.17	58.000
811.47	83.673
811.77	92.105
812.08	75.000
812.38	73.585
812.69	97.500
812.99	78.788
813.29	68.421
813.59	80.000
813.90	79.545
814.20	87.179
814.50	73.077
814.81	86.792
815.11	68.085
815.41	81.356
815.72	121.429
816.02	76.471
816.32	64.583
816.62	73.171
816.93	62.162
817.23	65.714
817.53	70.833
817.84	65.217
818.14	86.538
818.44	65.789
818.74	91.304
819.04	30.000
819.35	83.784
819.65	61.765
819.95	111.111
820.25	83.333
820.56	87.500
820.86	75.862
821.16	117.500
821.46	76.596
821.76	107.500
822.07	69.767
822.37	51.351
822.67	84.375
822.97	102.381
823.27	78.571
823.57	68.000
823.88	88.889
824.18	89.286
824.48	85.294
824.78	77.419
825.08	139.130
825.38	57.576
825.69	91.667
825.99	71.053
826.29	69.444
826.59	86.667
826.89	61.905
827.19	71.739
827.49	52.500
827.79	100.000
828.09	135.714
828.39	93.939
828.70	97.297
829.00	82.143
829.30	104.762
829.60	103.333
829.90	71.875
830.20	68.421
830.50	74.074
830.80	130.435
831.10	81.818
831.40	100.000
831.70	80.645
832.00	119.048
832.30	80.952
832.60	158.333
832.90	79.310
833.20	55.000
833.50	115.152
833.80	25.926
834.10	65.385
834.40	96.875
834.70	188.889
835.00	136.842
835.30	119.231
835.60	113.333
835.90	96.774
836.20	109.091
836.50	135.714
836.80	57.692
837.10	85.714
837.40	733.333
837.70	109.091
838.00	190.909
838.30	95.652
838.60	84.615
838.90	59.091
839.19	64.286
839.49	60.000
839.79	153.846
840.09	133.333
840.39	85.714
840.69	75.000
840.99	50.000
841.29	21.053
841.59	20.000
841.88	109.091
842.18	120.000
842.48	100.000
842.78	140.000
843.08	96.296
843.38	130.000
843.68	86.957
843.97	113.333
844.27	53.333
844.57	40.000
844.87	33.333
845.17	28.571
845.47	133.333
845.76	42.857
846.06	135.294
846.36	80.000
846.66	85.714
846.96	93.333
847.25	137.500
847.55	100.000
847.85	175.000
848.15	72.727
848.44	233.333
848.74	80.000
849.04	81.481
849.34	100.000
849.63	33.333
849.93	120.000
850.23	11.111
850.53	80.000
850.82	100.000
851.12	66.667
851.42	86.667
851.71	38.462
852.01	171.429
852.31	50.000
852.61	63.636
852.90	65.000
853.20	78.947
853.50	108.333
853.79	56.522
854.09	91.667
854.39	105.263
854.68	62.500
854.98	67.742
855.28	96.154
855.57	65.000
855.87	66.667
856.17	122.222
856.46	150.000
856.76	106.667
857.05	111.111
857.35	120.000
857.65	61.111
857.94	92.308
858.24	75.862
858.53	77.778
858.83	62.963
859.13	104.545
859.42	39.130
859.72	225.000
860.01	-166.667
860.31	68.000
860.60	23.810
860.90	100.000
861.20	80.000
861.49	-100.000
861.79	-40.000
862.08	80.000
862.38	120.000
862.67	260.000
862.97	150.000
863.26	125.000
863.56	83.333
863.85	33.333
864.15	38.889
864.44	90.000
864.74	78.571
865.03	-100.000
865.33	-40.000
865.62	216.667
865.92	66.667
866.21	100.000
866.51	68.750
866.80	-18.182
867.10	800.000
867.39	141.667
867.69	0.000
867.98	107.692
868.27	500.000
868.57	73.333
868.86	127.778
869.16	0.000
869.45	60.000
869.75	400.000
870.04	0.000
870.33	14.286
870.63	85.714
870.92	-133.333
871.22	-80.000
871.51	100.000
871.80	244.444
872.10	333.333
>>>>>End Processed Spectral Data<<<<<
