SpectraSuite Data File
++++++++++++++++++++++++++++++++++++
Date: Fri May 15 17:09:12 PDT 2015
User: schluterlab
Dark Spectrum Present: Yes
Reference Spectrum Present: Yes
Number of Sampled Component Spectra: 1
Spectrometers: USB2E3373
Integration Time (usec): 3000 (USB2E3373)
Spectra Averaged: 3 (USB2E3373)
Boxcar Smoothing: 0 (USB2E3373)
Correct for Electrical Dark: No (USB2E3373)
Strobe/Lamp Enabled: No (USB2E3373)
Correct for Detector Non-linearity: No (USB2E3373)
Correct for Stray Light: No (USB2E3373)
Number of Pixels in Processed Spectrum: 2048
>>>>>Begin Processed Spectral Data<<<<<
178.53	0.000
178.91	0.000
179.29	125.000
179.67	-150.000
180.04	-42.857
180.42	400.000
180.80	500.000
181.18	-400.000
181.56	-350.000
181.94	750.000
182.31	300.000
182.69	100.000
183.07	-166.667
183.45	100.000
183.83	-16.667
184.20	9.091
184.58	-22.222
184.96	-350.000
185.34	66.667
185.72	-150.000
186.09	-23.077
186.47	-200.000
186.85	-33.333
187.23	77.778
187.61	-1500.000
187.98	-66.667
188.36	144.444
188.74	-33.333
189.12	135.294
189.49	111.111
189.87	0.000
190.25	50.000
190.63	250.000
191.00	266.667
191.38	10.526
191.76	550.000
192.14	-275.000
192.51	500.000
192.89	-44.444
193.27	100.000
193.65	16.667
194.02	63.636
194.40	90.000
194.78	-87.500
195.15	41.667
195.53	25.000
195.91	-25.000
196.29	-25.000
196.66	46.154
197.04	71.429
197.42	0.000
197.79	-100.000
198.17	23.077
198.55	-300.000
198.92	33.333
199.30	-100.000
199.68	300.000
200.05	-233.333
200.43	0.000
200.81	66.667
201.18	400.000
201.56	100.000
201.94	700.000
202.31	-366.667
202.69	40.000
203.07	-150.000
203.44	900.000
203.82	0.000
204.19	85.714
204.57	66.667
204.95	25.000
205.32	70.000
205.70	157.143
206.08	-100.000
206.45	266.667
206.83	107.143
207.20	-128.571
207.58	-100.000
207.96	0.000
208.33	60.000
208.71	-75.000
209.08	-116.667
209.46	300.000
209.84	120.000
210.21	700.000
210.59	114.286
210.96	150.000
211.34	250.000
211.71	53.333
212.09	-57.143
212.46	400.000
212.84	0.000
213.22	170.000
213.59	-50.000
213.97	107.692
214.34	72.727
214.72	50.000
215.09	-0.000
215.47	30.769
215.84	45.455
216.22	100.000
216.59	12.500
216.97	200.000
217.34	-50.000
217.72	-100.000
218.09	175.000
218.47	87.500
218.84	1000.000
219.22	-33.333
219.59	160.000
219.97	366.667
220.34	-25.000
220.72	100.000
221.09	150.000
221.47	-250.000
221.84	100.000
222.22	100.000
222.59	81.818
222.97	100.000
223.34	200.000
223.72	-78.571
224.09	19.048
224.46	17.857
224.84	200.000
225.21	20.000
225.59	53.333
225.96	-50.000
226.34	-50.000
226.71	-42.857
227.08	116.667
227.46	212.500
227.83	-350.000
228.21	11.111
228.58	0.000
228.95	150.000
229.33	150.000
229.70	56.250
230.08	-12.500
230.45	-42.857
230.82	185.714
231.20	-46.667
231.57	78.571
231.95	28.571
232.32	40.000
232.69	142.857
233.07	400.000
233.44	180.000
233.81	20.000
234.19	0.000
234.56	23.529
234.93	-150.000
235.31	250.000
235.68	-200.000
236.05	53.846
236.43	45.000
236.80	-11.765
237.17	31.250
237.55	15.000
237.92	7.407
238.29	8.333
238.67	40.000
239.04	20.588
239.41	-34.146
239.79	20.000
240.16	34.146
240.53	7.895
240.91	28.261
241.28	19.048
241.65	23.214
242.02	20.548
242.40	11.667
242.77	16.949
243.14	10.606
243.51	11.250
243.89	31.034
244.26	2.299
244.63	14.286
245.00	18.557
245.38	21.649
245.75	6.742
246.12	12.069
246.49	22.314
246.87	21.154
247.24	11.765
247.61	9.649
247.98	7.317
248.36	11.250
248.73	10.526
249.10	11.039
249.47	12.658
249.84	15.686
250.22	12.941
250.59	15.033
250.96	15.023
251.33	8.721
251.70	15.882
252.08	13.706
252.45	14.851
252.82	14.573
253.19	15.668
253.56	9.813
253.94	14.865
254.31	14.783
254.68	17.544
255.05	9.843
255.42	13.100
255.79	11.197
256.16	14.397
256.54	13.806
256.91	15.970
257.28	8.550
257.65	10.112
258.02	5.319
258.39	15.488
258.76	12.454
259.14	14.618
259.51	12.945
259.88	11.340
260.25	11.765
260.62	10.764
260.99	11.864
261.36	16.438
261.73	11.709
262.10	12.766
262.47	10.736
262.85	12.226
263.22	10.769
263.59	13.084
263.96	13.354
264.33	11.212
264.70	10.119
265.07	10.119
265.44	10.765
265.81	12.429
266.18	12.295
266.55	17.995
266.92	9.845
267.29	13.055
267.66	12.788
268.03	10.471
268.40	12.794
268.77	13.904
269.14	13.429
269.51	12.339
269.88	10.973
270.25	11.990
270.62	10.732
270.99	9.463
271.36	9.780
271.73	12.441
272.10	11.192
272.47	13.002
272.84	13.861
273.21	12.993
273.58	12.530
273.95	11.442
274.32	9.700
274.69	10.633
275.06	11.384
275.43	9.977
275.80	11.921
276.17	8.046
276.54	11.777
276.91	11.842
277.28	11.135
277.65	11.570
278.02	10.213
278.39	10.941
278.76	11.740
279.13	6.432
279.50	11.975
279.87	12.527
280.23	10.538
280.60	11.891
280.97	9.697
281.34	10.962
281.71	13.758
282.08	11.043
282.45	9.980
282.82	7.915
283.19	11.605
283.56	10.983
283.92	9.677
284.29	8.846
284.66	10.078
285.03	10.806
285.40	9.641
285.77	8.084
286.14	9.928
286.51	10.517
286.87	10.969
287.24	9.945
287.61	9.700
287.98	11.053
288.35	10.572
288.72	12.084
289.08	9.375
289.45	11.775
289.82	10.140
290.19	8.874
290.56	10.635
290.93	9.428
291.29	8.629
291.66	8.346
292.03	8.612
292.40	7.742
292.77	7.656
293.13	7.792
293.50	8.042
293.87	9.771
294.24	7.110
294.60	9.836
294.97	8.780
295.34	9.049
295.71	6.557
296.08	7.623
296.44	8.393
296.81	8.194
297.18	8.986
297.55	10.298
297.91	9.315
298.28	9.763
298.65	8.548
299.02	7.412
299.38	6.703
299.75	8.690
300.12	7.199
300.48	6.719
300.85	8.365
301.22	6.494
301.59	6.974
301.95	8.101
302.32	8.690
302.69	7.711
303.05	6.807
303.42	7.472
303.79	7.944
304.15	8.005
304.52	7.134
304.89	7.602
305.25	7.143
305.62	7.235
305.99	6.433
306.35	6.474
306.72	6.637
307.09	5.701
307.45	7.692
307.82	6.829
308.19	7.782
308.55	7.852
308.92	9.041
309.29	5.922
309.65	5.705
310.02	5.941
310.38	7.355
310.75	7.432
311.12	6.674
311.48	8.059
311.85	8.482
312.22	7.068
312.58	7.113
312.95	6.830
313.31	6.729
313.68	8.063
314.05	7.551
314.41	8.041
314.78	7.732
315.14	8.736
315.51	8.903
315.87	7.787
316.24	8.392
316.61	9.350
316.97	9.722
317.34	8.496
317.70	8.987
318.07	9.135
318.43	8.725
318.80	9.848
319.16	9.473
319.53	10.731
319.89	10.433
320.26	10.223
320.62	11.234
320.99	10.752
321.35	10.997
321.72	12.357
322.08	10.775
322.45	11.878
322.81	12.475
323.18	11.973
323.54	12.259
323.91	13.145
324.27	14.160
324.64	13.577
325.00	14.325
325.37	15.243
325.73	14.143
326.10	14.896
326.46	15.516
326.83	16.010
327.19	16.303
327.56	16.073
327.92	16.285
328.29	16.161
328.65	16.887
329.01	17.096
329.38	17.051
329.74	16.336
330.11	18.443
330.47	17.069
330.84	18.846
331.20	20.817
331.56	18.056
331.93	19.726
332.29	17.965
332.66	18.281
333.02	19.517
333.38	18.057
333.75	19.780
334.11	18.800
334.48	20.036
334.84	19.139
335.20	20.677
335.57	18.948
335.93	20.687
336.29	20.258
336.66	19.891
337.02	18.401
337.38	18.426
337.75	20.636
338.11	20.739
338.47	20.347
338.84	20.240
339.20	20.384
339.56	21.651
339.93	21.218
340.29	21.651
340.65	21.953
341.02	20.035
341.38	20.000
341.74	21.025
342.11	20.104
342.47	21.530
342.83	21.280
343.20	20.732
343.56	20.174
343.92	21.169
344.28	21.349
344.65	20.898
345.01	19.706
345.37	20.353
345.73	21.506
346.10	21.398
346.46	20.521
346.82	21.522
347.19	19.451
347.55	21.053
347.91	20.712
348.27	20.857
348.63	21.210
349.00	21.575
349.36	20.033
349.72	20.978
350.08	20.902
350.45	20.830
350.81	20.266
351.17	20.928
351.53	20.245
351.89	19.983
352.26	21.040
352.62	21.694
352.98	19.598
353.34	20.692
353.70	21.602
354.07	21.613
354.43	21.857
354.79	21.800
355.15	21.349
355.51	21.519
355.87	21.521
356.24	20.310
356.60	21.504
356.96	21.667
357.32	21.406
357.68	20.719
358.04	20.355
358.40	21.141
358.77	20.813
359.13	21.297
359.49	20.416
359.85	21.529
360.21	21.292
360.57	20.964
360.93	21.256
361.29	20.242
361.66	21.630
362.02	21.970
362.38	21.935
362.74	21.045
363.10	22.498
363.46	22.609
363.82	22.990
364.18	22.066
364.54	21.471
364.90	21.577
365.26	21.106
365.62	23.139
365.98	21.628
366.35	23.234
366.71	23.134
367.07	22.787
367.43	21.855
367.79	22.686
368.15	21.967
368.51	22.578
368.87	20.962
369.23	21.516
369.59	22.668
369.95	23.094
370.31	23.483
370.67	22.388
371.03	22.853
371.39	22.028
371.75	23.883
372.11	22.753
372.47	23.743
372.83	23.918
373.19	24.108
373.55	23.394
373.91	24.262
374.27	23.813
374.63	24.480
374.99	23.617
375.35	24.513
375.71	23.706
376.07	23.174
376.42	24.422
376.78	24.698
377.14	23.764
377.50	23.904
377.86	24.096
378.22	24.505
378.58	23.397
378.94	24.512
379.30	25.016
379.66	24.702
380.02	24.280
380.38	23.554
380.74	24.177
381.09	25.644
381.45	25.015
381.81	25.355
382.17	25.381
382.53	24.859
382.89	26.240
383.25	25.949
383.61	26.463
383.97	25.524
384.32	26.517
384.68	25.759
385.04	24.694
385.40	25.700
385.76	26.541
386.12	27.038
386.48	26.692
386.83	26.950
387.19	26.435
387.55	27.353
387.91	27.017
388.27	26.618
388.62	27.187
388.98	26.519
389.34	26.796
389.70	27.408
390.06	25.865
390.42	27.137
390.77	27.861
391.13	26.166
391.49	28.008
391.85	27.031
392.20	27.433
392.56	27.082
392.92	26.424
393.28	27.712
393.64	26.847
393.99	28.150
394.35	27.767
394.71	27.969
395.07	27.404
395.42	27.262
395.78	27.818
396.14	27.932
396.50	27.521
396.85	27.302
397.21	27.318
397.57	28.213
397.92	27.681
398.28	28.448
398.64	26.747
399.00	28.668
399.35	27.314
399.71	26.939
400.07	28.597
400.42	27.662
400.78	27.373
401.14	28.615
401.49	28.172
401.85	27.788
402.21	27.169
402.57	28.312
402.92	27.854
403.28	28.195
403.63	28.625
403.99	27.870
404.35	28.045
404.70	27.679
405.06	26.675
405.42	28.341
405.77	27.135
406.13	27.066
406.49	28.182
406.84	27.628
407.20	28.417
407.55	26.658
407.91	27.406
408.27	27.916
408.62	29.046
408.98	27.418
409.34	26.890
409.69	26.357
410.05	27.463
410.40	26.667
410.76	27.021
411.11	26.687
411.47	27.482
411.83	26.805
412.18	27.542
412.54	27.653
412.89	27.094
413.25	27.858
413.60	27.702
413.96	27.485
414.31	27.256
414.67	27.518
415.03	27.563
415.38	27.089
415.74	27.166
416.09	28.805
416.45	27.076
416.80	27.627
417.16	28.453
417.51	27.915
417.87	27.510
418.22	28.692
418.58	28.763
418.93	29.279
419.29	27.017
419.64	28.386
420.00	29.030
420.35	27.582
420.71	27.825
421.06	27.624
421.42	28.365
421.77	28.555
422.12	28.377
422.48	28.858
422.83	28.248
423.19	27.878
423.54	28.042
423.90	27.503
424.25	28.817
424.61	28.213
424.96	28.397
425.31	28.712
425.67	29.049
426.02	30.212
426.38	29.242
426.73	29.237
427.09	30.316
427.44	29.471
427.79	29.876
428.15	29.308
428.50	29.497
428.85	28.563
429.21	30.277
429.56	29.380
429.92	29.789
430.27	30.827
430.62	29.117
430.98	29.352
431.33	29.390
431.68	29.984
432.04	29.905
432.39	30.006
432.74	29.224
433.10	31.092
433.45	29.450
433.80	30.470
434.16	28.587
434.51	31.022
434.86	30.488
435.22	30.398
435.57	31.129
435.92	31.018
436.28	29.815
436.63	30.291
436.98	30.417
437.34	29.643
437.69	31.783
438.04	31.054
438.39	30.483
438.75	32.240
439.10	30.730
439.45	32.197
439.81	31.315
440.16	31.176
440.51	31.463
440.86	32.991
441.22	31.222
441.57	31.898
441.92	32.529
442.27	31.984
442.63	32.923
442.98	32.165
443.33	32.165
443.68	32.573
444.03	32.986
444.39	31.972
444.74	32.943
445.09	32.739
445.44	32.650
445.79	33.574
446.15	32.985
446.50	32.612
446.85	32.997
447.20	32.586
447.55	32.812
447.91	32.544
448.26	33.694
448.61	33.161
448.96	34.022
449.31	33.179
449.66	33.043
450.02	33.657
450.37	33.491
450.72	33.047
451.07	33.924
451.42	32.335
451.77	33.032
452.12	33.313
452.47	33.355
452.83	33.392
453.18	33.713
453.53	33.692
453.88	33.637
454.23	32.821
454.58	33.627
454.93	33.892
455.28	32.000
455.63	33.106
455.98	34.215
456.34	34.547
456.69	33.609
457.04	34.216
457.39	34.812
457.74	34.643
458.09	34.432
458.44	33.762
458.79	34.006
459.14	34.096
459.49	34.090
459.84	34.067
460.19	33.738
460.54	33.924
460.89	34.602
461.24	34.472
461.59	34.264
461.94	34.906
462.29	34.379
462.64	35.150
462.99	34.529
463.34	33.519
463.69	33.655
464.04	34.322
464.39	34.203
464.74	33.926
465.09	34.248
465.44	34.795
465.79	32.993
466.14	34.436
466.49	33.755
466.84	34.682
467.19	34.919
467.54	34.100
467.89	34.112
468.24	33.394
468.59	34.222
468.94	34.794
469.29	33.639
469.64	34.586
469.99	35.879
470.34	34.539
470.68	36.092
471.03	36.164
471.38	35.663
471.73	34.664
472.08	34.735
472.43	34.832
472.78	34.339
473.13	35.306
473.48	34.072
473.83	34.994
474.17	35.492
474.52	34.780
474.87	34.788
475.22	34.350
475.57	34.613
475.92	34.888
476.27	35.041
476.61	34.780
476.96	33.631
477.31	34.721
477.66	34.607
478.01	34.924
478.36	34.096
478.70	35.508
479.05	35.330
479.40	35.506
479.75	34.776
480.10	34.869
480.45	35.300
480.79	36.103
481.14	35.246
481.49	35.222
481.84	35.473
482.19	33.957
482.53	35.204
482.88	34.320
483.23	34.933
483.58	34.151
483.92	34.656
484.27	34.731
484.62	34.021
484.97	34.909
485.31	34.357
485.66	34.927
486.01	34.885
486.36	34.652
486.70	34.198
487.05	34.219
487.40	34.540
487.75	34.620
488.09	33.869
488.44	34.491
488.79	34.666
489.13	35.617
489.48	34.758
489.83	34.529
490.17	34.202
490.52	34.134
490.87	34.012
491.22	35.005
491.56	34.820
491.91	33.891
492.26	34.711
492.60	35.125
492.95	35.121
493.30	33.854
493.64	35.609
493.99	35.217
494.34	33.981
494.68	35.571
495.03	34.793
495.37	34.593
495.72	35.336
496.07	35.024
496.41	34.811
496.76	35.974
497.11	34.094
497.45	35.561
497.80	35.772
498.14	35.022
498.49	34.738
498.84	35.030
499.18	35.291
499.53	34.375
499.87	35.117
500.22	34.421
500.56	35.199
500.91	34.940
501.26	34.207
501.60	35.465
501.95	34.352
502.29	35.787
502.64	36.004
502.98	35.866
503.33	34.774
503.67	35.855
504.02	35.777
504.36	35.477
504.71	35.000
505.06	34.625
505.40	34.365
505.75	34.948
506.09	35.580
506.44	35.318
506.78	35.765
507.13	35.574
507.47	35.352
507.82	35.150
508.16	35.394
508.51	35.992
508.85	35.479
509.19	35.072
509.54	35.871
509.88	35.221
510.23	35.611
510.57	36.558
510.92	33.849
511.26	35.897
511.61	35.259
511.95	36.000
512.30	35.588
512.64	36.060
512.98	36.272
513.33	36.262
513.67	35.702
514.02	37.243
514.36	36.514
514.70	37.296
515.05	36.839
515.39	35.537
515.74	37.485
516.08	36.043
516.42	37.161
516.77	36.864
517.11	35.549
517.46	36.505
517.80	36.710
518.14	36.130
518.49	35.577
518.83	36.574
519.17	36.022
519.52	35.879
519.86	36.074
520.20	36.452
520.55	36.398
520.89	37.014
521.23	36.099
521.58	36.719
521.92	36.538
522.26	36.760
522.61	35.844
522.95	37.417
523.29	36.976
523.64	36.722
523.98	38.302
524.32	36.082
524.66	37.388
525.01	37.792
525.35	36.552
525.69	36.094
526.04	35.648
526.38	37.549
526.72	35.383
527.06	36.316
527.41	37.137
527.75	36.662
528.09	37.409
528.43	37.880
528.78	36.040
529.12	37.419
529.46	36.647
529.80	36.035
530.15	37.162
530.49	36.498
530.83	37.551
531.17	37.139
531.51	37.483
531.86	36.914
532.20	36.674
532.54	36.079
532.88	37.851
533.22	37.097
533.57	37.353
533.91	36.619
534.25	37.956
534.59	37.011
534.93	36.627
535.27	37.056
535.62	36.811
535.96	37.117
536.30	36.741
536.64	37.767
536.98	36.794
537.32	38.193
537.66	38.289
538.01	38.252
538.35	37.032
538.69	36.751
539.03	36.295
539.37	36.810
539.71	36.264
540.05	36.592
540.39	38.019
540.73	37.657
541.07	38.191
541.42	37.164
541.76	39.229
542.10	36.683
542.44	37.735
542.78	36.683
543.12	36.745
543.46	38.039
543.80	36.919
544.14	36.515
544.48	37.375
544.82	36.432
545.16	37.637
545.50	38.251
545.84	37.535
546.18	37.801
546.52	36.554
546.86	36.664
547.20	37.983
547.54	36.254
547.88	37.568
548.22	37.936
548.56	36.082
548.90	38.208
549.24	36.708
549.58	38.082
549.92	36.741
550.26	37.582
550.60	37.844
550.94	36.594
551.28	37.481
551.62	38.231
551.96	38.271
552.30	38.523
552.64	37.306
552.98	37.412
553.32	37.874
553.66	36.430
554.00	38.102
554.34	37.223
554.68	37.684
555.02	38.616
555.36	37.921
555.69	37.656
556.03	36.831
556.37	37.580
556.71	38.123
557.05	39.299
557.39	36.803
557.73	37.031
558.07	39.065
558.41	37.519
558.75	37.412
559.08	38.219
559.42	38.651
559.76	38.030
560.10	37.385
560.44	37.602
560.78	36.923
561.12	38.152
561.45	39.494
561.79	38.305
562.13	38.680
562.47	38.129
562.81	38.977
563.15	37.870
563.48	38.260
563.82	39.190
564.16	38.928
564.50	38.041
564.84	38.153
565.17	37.827
565.51	38.388
565.85	38.820
566.19	38.992
566.52	38.204
566.86	39.460
567.20	38.730
567.54	38.747
567.88	39.836
568.21	38.348
568.55	38.370
568.89	38.758
569.23	38.517
569.56	38.047
569.90	39.261
570.24	37.626
570.57	38.836
570.91	38.480
571.25	37.915
571.59	37.963
571.92	37.215
572.26	38.074
572.60	37.798
572.93	37.716
573.27	37.649
573.61	37.291
573.95	38.149
574.28	38.136
574.62	38.063
574.96	36.998
575.29	37.582
575.63	36.745
575.97	37.219
576.30	37.925
576.64	37.934
576.98	38.327
577.31	38.486
577.65	37.959
577.98	37.933
578.32	37.873
578.66	37.030
578.99	37.436
579.33	37.272
579.67	37.623
580.00	37.291
580.34	37.861
580.67	37.389
581.01	37.704
581.35	37.898
581.68	38.713
582.02	38.264
582.35	37.400
582.69	38.060
583.02	37.983
583.36	37.781
583.70	38.915
584.03	38.588
584.37	39.272
584.70	39.176
585.04	38.161
585.37	38.698
585.71	38.608
586.04	38.553
586.38	38.490
586.72	39.082
587.05	39.746
587.39	39.307
587.72	39.475
588.06	39.081
588.39	38.080
588.73	38.370
589.06	39.432
589.40	38.783
589.73	39.321
590.07	39.728
590.40	39.977
590.73	40.857
591.07	39.143
591.40	39.270
591.74	38.778
592.07	39.981
592.41	39.576
592.74	39.665
593.08	38.736
593.41	39.374
593.75	39.025
594.08	39.410
594.41	38.974
594.75	39.351
595.08	39.501
595.42	39.234
595.75	39.992
596.09	39.484
596.42	39.231
596.75	39.964
597.09	39.362
597.42	39.928
597.75	39.670
598.09	39.882
598.42	39.215
598.76	39.597
599.09	39.744
599.42	39.219
599.76	39.353
600.09	39.517
600.42	39.386
600.76	38.262
601.09	38.397
601.42	39.287
601.76	39.579
602.09	39.893
602.42	40.143
602.76	40.153
603.09	40.282
603.42	40.635
603.76	39.355
604.09	39.125
604.42	40.144
604.76	40.187
605.09	40.494
605.42	40.271
605.75	40.587
606.09	39.490
606.42	40.117
606.75	40.130
607.09	40.440
607.42	39.521
607.75	39.831
608.08	39.308
608.42	39.379
608.75	40.096
609.08	41.505
609.41	40.457
609.75	40.524
610.08	40.989
610.41	39.662
610.74	39.883
611.07	41.085
611.41	40.841
611.74	40.725
612.07	39.882
612.40	39.825
612.73	41.921
613.07	39.426
613.40	40.208
613.73	40.963
614.06	40.957
614.39	40.045
614.72	40.672
615.06	40.670
615.39	40.393
615.72	40.420
616.05	40.056
616.38	39.772
616.71	40.979
617.05	40.272
617.38	40.729
617.71	41.447
618.04	41.016
618.37	41.551
618.70	42.376
619.03	42.222
619.36	41.606
619.69	41.092
620.03	42.075
620.36	41.273
620.69	40.043
621.02	41.896
621.35	41.494
621.68	42.687
622.01	41.250
622.34	40.623
622.67	40.615
623.00	40.505
623.33	40.320
623.66	41.885
623.99	41.150
624.32	42.205
624.65	41.278
624.99	41.460
625.32	39.500
625.65	42.498
625.98	41.257
626.31	41.147
626.64	42.548
626.97	42.059
627.30	41.944
627.63	41.421
627.96	42.857
628.29	42.461
628.62	41.396
628.95	41.082
629.28	43.044
629.61	41.575
629.94	42.326
630.26	41.107
630.59	42.872
630.92	41.744
631.25	40.410
631.58	43.172
631.91	42.434
632.24	42.546
632.57	41.477
632.90	42.586
633.23	42.118
633.56	43.073
633.89	42.293
634.22	43.333
634.55	41.804
634.88	42.912
635.20	43.205
635.53	44.267
635.86	42.783
636.19	45.019
636.52	44.005
636.85	41.935
637.18	43.019
637.51	42.516
637.83	43.627
638.16	44.475
638.49	42.371
638.82	44.868
639.15	41.248
639.48	44.567
639.81	43.654
640.13	43.434
640.46	42.566
640.79	42.121
641.12	40.916
641.45	41.592
641.77	42.222
642.10	46.130
642.43	44.373
642.76	43.564
643.09	43.780
643.41	41.909
643.74	43.328
644.07	44.828
644.40	45.101
644.73	44.308
645.05	42.953
645.38	44.268
645.71	44.326
646.04	45.961
646.36	44.681
646.69	42.446
647.02	44.045
647.35	44.030
647.67	46.618
648.00	44.216
648.33	44.710
648.66	43.729
648.98	41.709
649.31	44.298
649.64	42.700
649.96	41.815
650.29	44.463
650.62	42.906
650.94	44.815
651.27	41.899
651.60	43.964
651.92	44.406
652.25	42.984
652.58	45.000
652.90	45.455
653.23	43.361
653.56	43.316
653.88	42.612
654.21	42.382
654.54	43.973
654.86	46.350
655.19	44.444
655.52	44.582
655.84	41.955
656.17	47.092
656.49	64.026
656.82	66.252
657.15	50.601
657.47	37.322
657.80	28.008
658.13	27.640
658.45	42.650
658.78	41.941
659.10	41.162
659.43	41.193
659.75	42.477
660.08	42.552
660.41	43.922
660.73	42.265
661.06	44.194
661.38	42.270
661.71	43.121
662.03	43.133
662.36	43.297
662.68	42.920
663.01	46.725
663.33	44.084
663.66	41.628
663.98	43.953
664.31	40.512
664.63	44.470
664.96	42.391
665.28	43.046
665.61	47.619
665.93	45.652
666.26	46.204
666.58	44.519
666.91	46.824
667.23	45.519
667.56	45.972
667.88	46.043
668.21	40.334
668.53	47.754
668.86	48.821
669.18	44.811
669.50	44.310
669.83	42.558
670.15	44.056
670.48	46.651
670.80	43.088
671.13	42.282
671.45	42.694
671.77	44.635
672.10	44.950
672.42	43.258
672.75	41.918
673.07	46.154
673.39	44.587
673.72	40.039
674.04	43.750
674.37	44.915
674.69	41.756
675.01	46.000
675.34	43.243
675.66	46.991
675.98	46.563
676.31	44.037
676.63	49.644
676.95	42.955
677.28	46.588
677.60	46.024
677.92	45.642
678.25	46.171
678.57	44.805
678.89	44.328
679.22	45.638
679.54	44.578
679.86	43.936
680.18	44.272
680.51	44.508
680.83	42.346
681.15	45.200
681.48	44.467
681.80	48.967
682.12	43.548
682.44	44.770
682.77	44.371
683.09	44.394
683.41	42.955
683.73	44.470
684.06	43.363
684.38	43.656
684.70	47.930
685.02	44.191
685.34	44.071
685.67	44.090
685.99	44.665
686.31	46.372
686.63	45.826
686.96	42.205
687.28	42.020
687.60	42.966
687.92	45.455
688.24	47.782
688.56	45.852
688.89	45.982
689.21	49.111
689.53	45.708
689.85	44.651
690.17	45.089
690.49	45.390
690.82	43.204
691.14	44.762
691.46	46.262
691.78	46.396
692.10	46.452
692.42	47.619
692.74	43.162
693.06	43.694
693.39	45.023
693.71	42.081
694.03	45.266
694.35	43.224
694.67	44.192
694.99	45.692
695.31	46.736
695.63	47.750
695.95	45.960
696.27	44.560
696.59	45.556
696.91	43.978
697.23	48.072
697.56	47.277
697.88	46.237
698.20	46.014
698.52	46.353
698.84	42.344
699.16	43.750
699.48	46.867
699.80	46.650
700.12	48.787
700.44	47.059
700.76	46.512
701.08	44.242
701.40	45.482
701.72	46.296
702.04	50.165
702.36	52.843
702.68	48.048
703.00	47.576
703.32	47.507
703.64	40.678
703.96	43.768
704.28	47.853
704.60	46.984
704.91	42.902
705.23	42.525
705.55	49.117
705.87	45.126
706.19	49.259
706.51	47.766
706.83	50.161
707.15	41.745
707.47	47.339
707.79	42.448
708.11	45.250
708.43	46.000
708.74	45.736
709.06	44.789
709.38	45.872
709.70	46.154
710.02	45.860
710.34	47.988
710.66	43.269
710.98	43.046
711.29	50.820
711.61	46.441
711.93	42.997
712.25	51.890
712.57	50.183
712.89	44.403
713.20	48.097
713.52	42.509
713.84	44.369
714.16	46.735
714.48	48.387
714.80	46.154
715.11	47.112
715.43	44.828
715.75	45.333
716.07	47.841
716.39	45.638
716.70	45.387
717.02	46.565
717.34	51.822
717.66	44.690
717.97	46.087
718.29	43.515
718.61	44.094
718.93	44.186
719.24	50.951
719.56	51.807
719.88	42.955
720.20	47.727
720.51	45.594
720.83	44.402
721.15	47.479
721.46	48.387
721.78	45.455
722.10	40.149
722.42	40.249
722.73	43.265
723.05	48.571
723.37	51.695
723.68	50.000
724.00	44.872
724.32	47.556
724.63	47.727
724.95	49.345
725.27	50.230
725.58	44.492
725.90	41.270
726.22	45.174
726.53	43.729
726.85	44.195
727.16	52.075
727.48	46.154
727.80	46.964
728.11	43.644
728.43	47.451
728.74	39.516
729.06	46.400
729.38	50.376
729.69	41.434
730.01	44.231
730.32	51.493
730.64	47.350
730.96	47.925
731.27	44.000
731.59	42.034
731.90	46.497
732.22	47.003
732.53	46.512
732.85	48.582
733.16	45.118
733.48	47.122
733.80	43.478
734.11	47.797
734.43	44.330
734.74	48.182
735.06	42.671
735.37	51.964
735.69	49.495
736.00	47.735
736.32	44.295
736.63	47.183
736.95	45.392
737.26	43.772
737.58	44.631
737.89	46.886
738.21	46.241
738.52	46.914
738.83	45.852
739.15	51.528
739.46	50.787
739.78	44.689
740.09	45.425
740.41	47.464
740.72	45.669
741.04	45.749
741.35	47.660
741.66	50.237
741.98	46.429
742.29	51.485
742.61	45.026
742.92	36.493
743.23	43.056
743.55	47.059
743.86	51.196
744.18	46.411
744.49	40.957
744.80	41.848
745.12	46.524
745.43	38.537
745.74	47.396
746.06	46.341
746.37	51.309
746.68	45.972
747.00	47.872
747.31	48.259
747.62	44.660
747.94	43.062
748.25	50.000
748.56	55.191
748.88	46.073
749.19	58.511
749.50	47.783
749.82	37.736
750.13	43.578
750.44	47.368
750.75	48.507
751.07	52.920
751.38	47.893
751.69	47.451
752.01	50.000
752.32	45.020
752.63	44.664
752.94	43.103
753.26	53.556
753.57	43.891
753.88	46.903
754.19	42.917
754.51	49.174
754.82	46.154
755.13	47.500
755.44	45.161
755.75	47.266
756.07	45.136
756.38	47.925
756.69	45.211
757.00	46.000
757.31	43.464
757.63	46.037
757.94	41.944
758.25	43.014
758.56	43.883
758.87	45.042
759.18	43.925
759.50	46.545
759.81	46.823
760.12	43.226
760.43	46.061
760.74	45.062
761.05	46.154
761.36	42.898
761.67	45.758
761.99	47.619
762.30	42.909
762.61	42.292
762.92	45.701
763.23	44.144
763.54	47.664
763.85	45.339
764.16	45.643
764.47	46.371
764.78	45.055
765.10	48.822
765.41	44.795
765.72	46.984
766.03	46.241
766.34	42.701
766.65	48.207
766.96	40.404
767.27	51.064
767.58	41.379
767.89	48.227
768.20	47.159
768.51	47.802
768.82	45.813
769.13	45.622
769.44	44.635
769.75	43.379
770.06	46.983
770.37	42.788
770.68	49.746
770.99	44.344
771.30	51.961
771.61	44.344
771.92	52.586
772.23	52.217
772.54	42.473
772.85	54.938
773.16	44.944
773.47	55.556
773.78	45.752
774.09	42.515
774.39	48.000
774.70	45.860
775.01	50.345
775.32	50.714
775.63	39.669
775.94	43.511
776.25	43.307
776.56	48.333
776.87	57.692
777.18	44.444
777.48	40.517
777.79	43.478
778.10	35.238
778.41	37.838
778.72	47.619
779.03	54.887
779.34	57.447
779.65	54.795
779.95	45.890
780.26	52.414
780.57	40.650
780.88	44.882
781.19	43.966
781.50	45.736
781.80	42.012
782.11	44.025
782.42	50.000
782.73	40.288
783.04	41.481
783.34	36.111
783.65	23.932
783.96	50.000
784.27	46.897
784.57	48.780
784.88	43.750
785.19	61.000
785.50	66.000
785.81	45.690
786.11	48.276
786.42	40.777
786.73	54.545
787.04	36.735
787.34	48.214
787.65	37.143
787.96	40.708
788.26	44.545
788.57	52.991
788.88	50.781
789.19	38.889
789.49	38.261
789.80	53.061
790.11	49.495
790.41	27.273
790.72	58.696
791.03	62.500
791.33	45.000
791.64	46.250
791.95	37.209
792.25	45.745
792.56	50.562
792.87	49.315
793.17	57.971
793.48	37.333
793.79	43.750
794.09	57.500
794.40	43.396
794.70	46.602
795.01	39.837
795.32	41.026
795.62	40.952
795.93	48.039
796.23	45.283
796.54	47.917
796.85	51.471
797.15	46.479
797.46	54.167
797.76	60.606
798.07	46.512
798.37	47.368
798.68	46.970
798.99	45.679
799.29	45.714
799.60	43.478
799.90	62.667
800.21	67.213
800.51	47.692
800.82	42.373
801.12	52.174
801.43	52.459
801.73	53.968
802.04	60.000
802.34	35.821
802.65	59.615
802.95	32.143
803.26	53.846
803.56	39.216
803.87	23.913
804.17	36.000
804.48	60.317
804.78	24.074
805.09	71.739
805.39	60.000
805.70	44.444
806.00	38.596
806.30	46.479
806.61	51.429
806.91	43.056
807.22	51.316
807.52	60.000
807.83	43.636
808.13	45.833
808.43	57.353
808.74	38.806
809.04	55.932
809.35	26.923
809.65	45.313
809.95	35.135
810.26	54.545
810.56	42.466
810.86	57.143
811.17	44.000
811.47	59.184
811.77	55.263
812.08	31.818
812.38	52.830
812.69	30.000
812.99	51.515
813.29	44.737
813.59	8.571
813.90	29.545
814.20	28.205
814.50	46.154
814.81	35.849
815.11	36.170
815.41	62.712
815.72	95.238
816.02	49.020
816.32	43.750
816.62	39.024
816.93	43.243
817.23	62.857
817.53	60.417
817.84	30.435
818.14	28.846
818.44	50.000
818.74	50.000
819.04	40.000
819.35	54.054
819.65	26.471
819.95	27.778
820.25	42.857
820.56	65.000
820.86	37.931
821.16	65.000
821.46	59.574
821.76	60.000
822.07	53.488
822.37	27.027
822.67	34.375
822.97	61.905
823.27	64.286
823.57	32.000
823.88	33.333
824.18	42.857
824.48	47.059
824.78	54.839
825.08	47.826
825.38	54.545
825.69	4.167
825.99	28.947
826.29	58.333
826.59	46.667
826.89	0.000
827.19	65.217
827.49	12.500
827.79	94.286
828.09	67.857
828.39	72.727
828.70	72.973
829.00	35.714
829.30	14.286
829.60	26.667
829.90	65.625
830.20	39.474
830.50	22.222
830.80	30.435
831.10	68.182
831.40	57.576
831.70	80.645
832.00	66.667
832.30	38.095
832.60	33.333
832.90	41.379
833.20	40.000
833.50	78.788
833.80	51.852
834.10	80.769
834.40	43.750
834.70	100.000
835.00	73.684
835.30	111.538
835.60	60.000
835.90	51.613
836.20	81.818
836.50	57.143
836.80	80.769
837.10	71.429
837.40	366.667
837.70	4.545
838.00	-9.091
838.30	78.261
838.60	146.154
838.90	63.636
839.19	46.429
839.49	53.333
839.79	130.769
840.09	33.333
840.39	50.000
840.69	53.571
840.99	23.077
841.29	42.105
841.59	0.000
841.88	90.909
842.18	220.000
842.48	25.000
842.78	53.333
843.08	44.444
843.38	-10.000
843.68	39.130
843.97	106.667
844.27	20.000
844.57	55.000
844.87	27.778
845.17	-9.524
845.47	46.667
845.76	-23.810
846.06	23.529
846.36	60.000
846.66	21.429
846.96	73.333
847.25	-50.000
847.55	121.429
847.85	150.000
848.15	36.364
848.44	100.000
848.74	70.000
849.04	74.074
849.34	90.909
849.63	0.000
849.93	-60.000
850.23	5.556
850.53	70.000
850.82	61.538
851.12	11.111
851.42	66.667
851.71	57.692
852.01	21.429
852.31	-150.000
852.61	72.727
852.90	35.000
853.20	10.526
853.50	16.667
853.79	65.217
854.09	79.167
854.39	94.737
854.68	58.333
854.98	35.484
855.28	88.462
855.57	30.000
855.87	66.667
856.17	51.852
856.46	100.000
856.76	80.000
857.05	133.333
857.35	76.000
857.65	33.333
857.94	76.923
858.24	51.724
858.53	83.333
858.83	74.074
859.13	63.636
859.42	34.783
859.72	-75.000
860.01	-100.000
860.31	40.000
860.60	33.333
860.90	-433.333
861.20	-6.667
861.49	200.000
861.79	33.333
862.08	80.000
862.38	120.000
862.67	220.000
862.97	0.000
863.26	91.667
863.56	72.222
863.85	-133.333
864.15	83.333
864.44	60.000
864.74	114.286
865.03	-275.000
865.33	120.000
865.62	216.667
865.92	66.667
866.21	0.000
866.51	81.250
866.80	-9.091
867.10	-150.000
867.39	133.333
867.69	0.000
867.98	46.154
868.27	300.000
868.57	26.667
868.86	50.000
869.16	7.692
869.45	146.667
869.75	100.000
870.04	0.000
870.33	114.286
870.63	76.190
870.92	-100.000
871.22	80.000
871.51	200.000
871.80	200.000
872.10	-166.667
>>>>>End Processed Spectral Data<<<<<
