SpectraSuite Data File
++++++++++++++++++++++++++++++++++++
Date: Fri May 15 20:02:14 PDT 2015
User: schluterlab
Dark Spectrum Present: Yes
Reference Spectrum Present: Yes
Number of Sampled Component Spectra: 1
Spectrometers: USB2E3373
Integration Time (usec): 3000 (USB2E3373)
Spectra Averaged: 3 (USB2E3373)
Boxcar Smoothing: 0 (USB2E3373)
Correct for Electrical Dark: No (USB2E3373)
Strobe/Lamp Enabled: No (USB2E3373)
Correct for Detector Non-linearity: No (USB2E3373)
Correct for Stray Light: No (USB2E3373)
Number of Pixels in Processed Spectrum: 2048
>>>>>Begin Processed Spectral Data<<<<<
178.53	0.000
178.91	0.000
179.29	50.000
179.67	-350.000
180.04	-114.286
180.42	50.000
180.80	600.000
181.18	33.333
181.56	600.000
181.94	350.000
182.31	400.000
182.69	40.000
183.07	-233.333
183.45	-320.000
183.83	33.333
184.20	9.091
184.58	144.444
184.96	-150.000
185.34	-166.667
185.72	-350.000
186.09	84.615
186.47	-800.000
186.85	150.000
187.23	133.333
187.61	-400.000
187.98	100.000
188.36	-22.222
188.74	33.333
189.12	47.059
189.49	33.333
189.87	0.000
190.25	50.000
190.63	50.000
191.00	-133.333
191.38	21.053
191.76	550.000
192.14	-75.000
192.51	100.000
192.89	-100.000
193.27	-100.000
193.65	-0.000
194.02	190.909
194.40	-10.000
194.78	-112.500
195.15	83.333
195.53	112.500
195.91	50.000
196.29	125.000
196.66	23.077
197.04	28.571
197.42	-11.111
197.79	-200.000
198.17	-38.462
198.55	1200.000
198.92	-400.000
199.30	-300.000
199.68	-120.000
200.05	-133.333
200.43	0.000
200.81	100.000
201.18	-33.333
201.56	1700.000
201.94	-150.000
202.31	100.000
202.69	-120.000
203.07	175.000
203.44	500.000
203.82	0.000
204.19	21.429
204.57	-66.667
204.95	12.500
205.32	0.000
205.70	71.429
206.08	-100.000
206.45	188.889
206.83	28.571
207.20	-71.429
207.58	800.000
207.96	-100.000
208.33	-10.000
208.71	300.000
209.08	-66.667
209.46	200.000
209.84	0.000
210.21	0.000
210.59	71.429
210.96	33.333
211.34	-50.000
211.71	73.333
212.09	-57.143
212.46	-700.000
212.84	0.000
213.22	70.000
213.59	150.000
213.97	-53.846
214.34	81.818
214.72	-66.667
215.09	300.000
215.47	38.462
215.84	9.091
216.22	33.333
216.59	87.500
216.97	500.000
217.34	-100.000
217.72	-180.000
218.09	-50.000
218.47	137.500
218.84	-300.000
219.22	-77.778
219.59	160.000
219.97	533.333
220.34	200.000
220.72	28.571
221.09	-25.000
221.47	-150.000
221.84	-600.000
222.22	-450.000
222.59	0.000
222.97	116.667
223.34	-233.333
223.72	28.571
224.09	52.381
224.46	46.429
224.84	433.333
225.21	90.000
225.59	13.333
225.96	0.000
226.34	275.000
226.71	-28.571
227.08	-133.333
227.46	25.000
227.83	100.000
228.21	133.333
228.58	54.545
228.95	-12.500
229.33	90.000
229.70	12.500
230.08	-37.500
230.45	-14.286
230.82	28.571
231.20	60.000
231.57	28.571
231.95	-57.143
232.32	-60.000
232.69	92.857
233.07	200.000
233.44	200.000
233.81	-10.000
234.19	-11.111
234.56	35.294
234.93	350.000
235.31	225.000
235.68	-300.000
236.05	-61.538
236.43	-45.000
236.80	29.412
237.17	12.500
237.55	-20.000
237.92	-3.704
238.29	-47.222
238.67	3.333
239.04	-20.588
239.41	-19.512
239.79	-13.333
240.16	2.439
240.53	-21.053
240.91	-4.348
241.28	4.762
241.65	19.643
242.02	26.027
242.40	-5.000
242.77	16.949
243.14	-12.121
243.51	0.000
243.89	18.391
244.26	2.299
244.63	0.000
245.00	4.124
245.38	1.031
245.75	-3.371
246.12	1.724
246.49	5.785
246.87	6.731
247.24	0.840
247.61	-10.526
247.98	-1.626
248.36	1.250
248.73	10.526
249.10	2.597
249.47	5.063
249.84	1.307
250.22	3.529
250.59	3.922
250.96	12.207
251.33	-8.140
251.70	7.647
252.08	6.091
252.45	4.950
252.82	0.503
253.19	3.226
253.56	3.738
253.94	5.856
254.31	6.087
254.68	7.018
255.05	2.362
255.42	5.677
255.79	4.633
256.16	5.837
256.54	6.716
256.91	3.422
257.28	3.717
257.65	3.745
258.02	3.191
258.39	7.071
258.76	4.762
259.14	5.648
259.51	5.178
259.88	5.842
260.25	2.941
260.62	4.514
260.99	2.373
261.36	3.082
261.73	2.848
262.10	6.383
262.47	5.215
262.85	2.508
263.22	4.000
263.59	3.427
263.96	5.590
264.33	5.455
264.70	2.381
265.07	1.786
265.44	5.099
265.81	3.672
266.18	4.372
266.55	6.941
266.92	5.699
267.29	4.961
267.66	3.836
268.03	7.592
268.40	6.005
268.77	7.754
269.14	5.516
269.51	6.170
269.88	3.491
270.25	4.847
270.62	4.878
270.99	4.859
271.36	4.645
271.73	7.042
272.10	2.920
272.47	1.891
272.84	1.733
273.21	2.088
273.58	5.060
273.95	3.890
274.32	3.233
274.69	1.810
275.06	6.250
275.43	2.721
275.80	5.077
276.17	1.149
276.54	5.353
276.91	3.509
277.28	5.459
277.65	4.959
278.02	3.404
278.39	5.252
278.76	5.031
279.13	2.282
279.50	4.622
279.87	6.048
280.23	5.161
280.60	4.678
280.97	5.455
281.34	2.500
281.71	4.723
282.08	4.294
282.45	4.501
282.82	2.510
283.19	3.095
283.56	4.624
283.92	3.036
284.29	3.654
284.66	5.426
285.03	4.715
285.40	4.159
285.77	2.812
286.14	3.971
286.51	5.720
286.87	3.656
287.24	3.499
287.61	5.291
287.98	4.561
288.35	3.466
288.72	6.655
289.08	2.431
289.45	6.327
289.82	4.895
290.19	2.730
290.56	3.431
290.93	3.199
291.29	3.236
291.66	5.354
292.03	5.423
292.40	5.968
292.77	4.944
293.13	2.922
293.50	3.794
293.87	4.122
294.24	4.173
294.60	4.322
294.97	4.762
295.34	3.681
295.71	4.620
296.08	3.438
296.44	2.134
296.81	4.306
297.18	4.348
297.55	5.420
297.91	4.384
298.28	5.937
298.65	4.071
299.02	4.717
299.38	2.736
299.75	4.138
300.12	4.188
300.48	3.689
300.85	3.929
301.22	3.896
301.59	3.684
301.95	6.076
302.32	5.318
302.69	5.100
303.05	3.589
303.42	3.362
303.79	6.192
304.15	6.213
304.52	4.162
304.89	3.977
305.25	3.995
305.62	4.084
305.99	3.509
306.35	3.699
306.72	3.712
307.09	3.991
307.45	4.478
307.82	3.009
308.19	4.413
308.55	4.253
308.92	4.793
309.29	4.246
309.65	4.198
310.02	4.730
310.38	4.940
310.75	3.934
311.12	4.521
311.48	3.606
311.85	5.654
312.22	3.376
312.58	3.185
312.95	3.949
313.31	4.141
313.68	4.921
314.05	4.286
314.41	4.742
314.78	4.433
315.14	4.830
315.51	6.315
315.87	3.586
316.24	4.146
316.61	4.724
316.97	4.563
317.34	4.199
317.70	4.780
318.07	4.712
318.43	3.529
318.80	4.830
319.16	5.078
319.53	6.268
319.89	4.232
320.26	4.352
320.62	5.416
320.99	3.132
321.35	5.139
321.72	5.400
322.08	3.927
322.45	3.959
322.81	6.287
323.18	3.533
323.54	5.309
323.91	4.674
324.27	4.492
324.64	5.899
325.00	5.383
325.37	5.693
325.73	4.986
326.10	5.450
326.46	5.650
326.83	6.737
327.19	5.754
327.56	6.342
327.92	6.162
328.29	5.536
328.65	6.038
329.01	5.882
329.38	6.359
329.74	5.477
330.11	5.839
330.47	5.473
330.84	5.096
331.20	6.274
331.56	5.556
331.93	5.753
332.29	6.324
332.66	6.516
333.02	6.041
333.38	5.225
333.75	7.143
334.11	5.551
334.48	6.074
334.84	7.143
335.20	6.496
335.57	6.074
335.93	6.594
336.29	5.801
336.66	5.268
337.02	5.112
337.38	5.185
337.75	5.727
338.11	6.312
338.47	5.839
338.84	5.360
339.20	6.490
339.56	5.596
339.93	5.640
340.29	5.963
340.65	5.735
341.02	7.447
341.38	6.283
341.74	5.830
342.11	5.633
342.47	5.783
342.83	6.315
343.20	5.662
343.56	5.130
343.92	6.023
344.28	7.771
344.65	5.354
345.01	6.396
345.37	5.046
345.73	6.778
346.10	5.953
346.46	5.551
346.82	6.465
347.19	4.821
347.55	6.266
347.91	6.877
348.27	6.306
348.63	6.133
349.00	5.086
349.36	5.569
349.72	7.048
350.08	6.393
350.45	6.305
350.81	4.485
351.17	5.212
351.53	6.531
351.89	5.698
352.26	5.280
352.62	6.694
352.98	5.944
353.34	4.831
353.70	6.311
354.07	4.839
354.43	4.884
354.79	5.037
355.15	7.143
355.51	5.854
355.87	5.421
356.24	4.731
356.60	6.306
356.96	5.714
357.32	5.990
357.68	5.864
358.04	5.331
358.40	6.350
358.77	6.699
359.13	5.044
359.49	5.470
359.85	6.396
360.21	5.343
360.57	6.197
360.93	5.749
361.29	6.420
361.66	5.799
362.02	6.061
362.38	6.169
362.74	5.602
363.10	6.396
363.46	5.634
363.82	7.363
364.18	6.642
364.54	5.956
364.90	6.022
365.26	6.332
365.62	6.496
365.98	5.792
366.35	6.191
366.71	6.208
367.07	6.749
367.43	5.248
367.79	6.431
368.15	5.671
368.51	6.846
368.87	5.384
369.23	6.498
369.59	5.831
369.95	7.331
370.31	6.214
370.67	6.567
371.03	5.975
371.39	5.398
371.75	6.447
372.11	6.705
372.47	6.065
372.83	6.529
373.19	6.776
373.55	6.137
373.91	7.775
374.27	7.229
374.63	7.035
374.99	6.170
375.35	7.033
375.71	6.853
376.07	5.829
376.42	6.531
376.78	7.450
377.14	6.500
377.50	6.640
377.86	6.827
378.22	6.445
378.58	5.769
378.94	6.994
379.30	7.299
379.66	7.335
380.02	6.928
380.38	6.756
380.74	6.344
381.09	7.914
381.45	7.217
381.81	7.279
382.17	7.043
382.53	6.871
382.89	7.910
383.25	8.214
383.61	8.293
383.97	5.841
384.32	6.817
384.68	7.307
385.04	6.924
385.40	7.343
385.76	7.421
386.12	7.762
386.48	7.791
386.83	7.736
387.19	7.387
387.55	7.905
387.91	8.007
388.27	7.998
388.62	8.118
388.98	8.349
389.34	8.182
389.70	8.266
390.06	7.804
390.42	8.031
390.77	8.502
391.13	8.008
391.49	8.150
391.85	8.382
392.20	8.475
392.56	8.646
392.92	8.103
393.28	8.255
393.64	8.228
393.99	8.401
394.35	7.400
394.71	8.940
395.07	8.485
395.42	8.075
395.78	7.427
396.14	8.638
396.50	9.258
396.85	9.530
397.21	8.584
397.57	8.652
397.92	9.287
398.28	8.736
398.64	8.133
399.00	9.481
399.35	8.296
399.71	8.960
400.07	8.706
400.42	8.752
400.78	9.186
401.14	9.135
401.49	9.649
401.85	8.714
402.21	8.795
402.57	8.750
402.92	7.716
403.28	8.333
403.63	8.953
403.99	7.908
404.35	8.682
404.70	8.512
405.06	8.696
405.42	8.639
405.77	7.728
406.13	8.091
406.49	8.348
406.84	8.619
407.20	8.730
407.55	8.049
407.91	8.356
408.27	8.158
408.62	9.600
408.98	8.564
409.34	9.170
409.69	8.463
410.05	9.052
410.40	8.827
410.76	8.082
411.11	9.625
411.47	9.204
411.83	7.659
412.18	8.108
412.54	7.740
412.89	7.943
413.25	8.363
413.60	8.199
413.96	8.834
414.31	8.354
414.67	8.467
415.03	7.923
415.38	8.225
415.74	9.446
416.09	9.079
416.45	8.778
416.80	8.592
417.16	9.254
417.51	8.728
417.87	7.888
418.22	8.679
418.58	9.030
418.93	9.154
419.29	7.234
419.64	8.166
420.00	9.320
420.35	8.955
420.71	8.809
421.06	8.717
421.42	9.195
421.77	8.439
422.12	8.570
422.48	8.771
422.83	9.281
423.19	8.465
423.54	7.937
423.90	7.774
424.25	9.185
424.61	8.874
424.96	8.943
425.31	8.954
425.67	9.096
426.02	9.305
426.38	8.704
426.73	9.140
427.09	9.114
427.44	9.647
427.79	9.311
428.15	9.830
428.50	8.540
428.85	8.907
429.21	9.960
429.56	9.003
429.92	9.091
430.27	8.672
430.62	8.468
430.98	8.121
431.33	9.148
431.68	9.314
432.04	8.888
432.39	8.728
432.74	8.539
433.10	9.598
433.45	9.020
433.80	9.228
434.16	7.867
434.51	9.086
434.86	9.524
435.22	8.918
435.57	9.170
435.92	8.743
436.28	8.945
436.63	9.013
436.98	8.633
437.34	8.409
437.69	9.600
438.04	8.775
438.39	8.613
438.75	9.229
439.10	8.998
439.45	9.556
439.81	8.991
440.16	9.739
440.51	9.612
440.86	9.184
441.22	8.993
441.57	9.272
441.92	8.867
442.27	8.592
442.63	10.385
442.98	10.167
443.33	9.015
443.68	9.231
444.03	8.793
444.39	9.297
444.74	9.755
445.09	9.298
445.44	9.402
445.79	9.747
446.15	9.086
446.50	8.430
446.85	9.192
447.20	8.759
447.55	9.766
447.91	9.081
448.26	9.391
448.61	10.075
448.96	9.294
449.31	9.191
449.66	9.466
450.02	9.241
450.37	8.536
450.72	8.763
451.07	9.873
451.42	9.051
451.77	8.921
452.12	9.211
452.47	8.950
452.83	9.011
453.18	9.677
453.53	9.545
453.88	8.986
454.23	9.465
454.58	9.131
454.93	9.343
455.28	8.063
455.63	9.671
455.98	8.839
456.34	9.515
456.69	9.530
457.04	10.019
457.39	9.295
457.74	8.827
458.09	9.358
458.44	9.596
458.79	9.412
459.14	9.783
459.49	9.433
459.84	9.870
460.19	8.495
460.54	9.535
460.89	8.977
461.24	9.876
461.59	9.561
461.94	9.308
462.29	9.590
462.64	9.635
462.99	9.140
463.34	9.040
463.69	9.653
464.04	10.412
464.39	9.460
464.74	9.939
465.09	10.356
465.44	10.098
465.79	9.637
466.14	10.034
466.49	9.086
466.84	9.994
467.19	9.574
467.54	9.259
467.89	9.349
468.24	9.428
468.59	10.159
468.94	9.143
469.29	10.361
469.64	10.253
469.99	10.161
470.34	8.328
470.68	10.216
471.03	10.120
471.38	10.057
471.73	9.454
472.08	10.719
472.43	9.463
472.78	8.568
473.13	9.796
473.48	9.967
473.83	9.651
474.17	9.715
474.52	9.572
474.87	10.242
475.22	9.945
475.57	10.164
475.92	10.093
476.27	9.953
476.61	10.012
476.96	9.537
477.31	9.681
477.66	9.775
478.01	9.264
478.36	9.477
478.70	10.169
479.05	10.110
479.40	9.592
479.75	9.645
480.10	9.626
480.45	10.000
480.79	10.473
481.14	10.041
481.49	9.360
481.84	9.556
482.19	9.121
482.53	9.592
482.88	9.547
483.23	8.925
483.58	9.858
483.92	9.632
484.27	9.480
484.62	9.592
484.97	9.411
485.31	9.574
485.66	8.893
486.01	8.918
486.36	9.180
486.70	9.207
487.05	9.203
487.40	9.281
487.75	9.634
488.09	8.962
488.44	9.594
488.79	9.600
489.13	10.096
489.48	9.320
489.83	9.507
490.17	9.708
490.52	10.531
490.87	9.070
491.22	10.124
491.56	9.677
491.91	9.512
492.26	9.820
492.60	9.885
492.95	10.280
493.30	9.477
493.64	9.921
493.99	9.903
494.34	9.757
494.68	9.667
495.03	9.732
495.37	10.108
495.72	10.651
496.07	10.195
496.41	10.236
496.76	9.811
497.11	9.548
497.45	10.549
497.80	10.293
498.14	9.935
498.49	10.411
498.84	9.880
499.18	10.141
499.53	9.722
499.87	9.582
500.22	9.496
500.56	9.632
500.91	9.388
501.26	9.837
501.60	10.034
501.95	10.771
502.29	10.460
502.64	10.714
502.98	9.423
503.33	10.086
503.67	10.361
504.02	10.459
504.36	10.638
504.71	10.909
505.06	9.512
505.40	9.746
505.75	10.052
506.09	10.086
506.44	10.421
506.78	10.102
507.13	9.824
507.47	9.922
507.82	9.402
508.16	9.773
508.51	10.651
508.85	10.099
509.19	9.207
509.54	10.402
509.88	10.086
510.23	10.059
510.57	10.850
510.92	9.222
511.26	10.693
511.61	10.616
511.95	10.466
512.30	11.308
512.64	11.575
512.98	10.556
513.33	10.968
513.67	10.517
514.02	11.785
514.36	11.714
514.70	10.956
515.05	9.988
515.39	9.504
515.74	11.557
516.08	10.759
516.42	11.249
516.77	11.352
517.11	10.979
517.46	11.311
517.80	11.859
518.14	10.900
518.49	11.058
518.83	10.693
519.17	10.552
519.52	10.657
519.86	9.904
520.20	10.632
520.55	10.319
520.89	11.167
521.23	10.323
521.58	11.861
521.92	11.603
522.26	11.516
522.61	11.104
522.95	11.192
523.29	11.436
523.64	11.626
523.98	11.925
524.32	10.309
524.66	11.076
525.01	11.753
525.35	11.601
525.69	10.640
526.04	10.714
526.38	11.608
526.72	10.334
527.06	10.830
527.41	11.939
527.75	11.193
528.09	11.229
528.43	12.829
528.78	10.759
529.12	10.968
529.46	10.916
529.80	11.843
530.15	11.881
530.49	11.246
530.83	11.491
531.17	10.477
531.51	12.038
531.86	11.013
532.20	10.926
532.54	11.096
532.88	11.636
533.22	11.694
533.57	11.599
533.91	11.358
534.25	11.458
534.59	11.161
534.93	11.139
535.27	9.835
535.62	10.953
535.96	11.089
536.30	12.269
536.64	11.509
536.98	11.150
537.32	11.664
537.66	11.992
538.01	11.049
538.35	10.541
538.69	11.119
539.03	11.415
539.37	11.373
539.71	11.179
540.05	10.794
540.39	10.803
540.73	10.809
541.07	11.257
541.42	12.030
541.76	12.113
542.10	10.599
542.44	10.771
542.78	10.186
543.12	11.813
543.46	10.848
543.80	11.103
544.14	11.148
544.48	12.192
544.82	10.458
545.16	12.090
545.50	10.948
545.84	11.544
546.18	11.560
546.52	11.752
546.86	11.359
547.20	11.803
547.54	11.166
547.88	10.937
548.22	11.177
548.56	11.148
548.90	11.119
549.24	11.226
549.58	11.425
549.92	10.650
550.26	11.575
550.60	11.970
550.94	11.501
551.28	11.360
551.62	11.154
551.96	12.180
552.30	11.477
552.64	11.142
552.98	11.392
553.32	11.198
553.66	10.813
554.00	11.533
554.34	11.448
554.68	10.914
555.02	11.905
555.36	10.172
555.69	10.183
556.03	10.849
556.37	11.530
556.71	11.336
557.05	10.738
557.39	9.814
557.73	11.244
558.07	12.443
558.41	11.562
558.75	10.444
559.08	10.796
559.42	11.746
559.76	11.369
560.10	12.003
560.44	11.467
560.78	10.979
561.12	10.508
561.45	11.384
561.79	11.204
562.13	11.710
562.47	11.583
562.81	10.879
563.15	11.918
563.48	10.396
563.82	11.874
564.16	10.376
564.50	10.743
564.84	10.509
565.17	10.932
565.51	10.861
565.85	10.700
566.19	11.074
566.52	11.327
566.86	10.861
567.20	10.336
567.54	10.341
567.88	11.072
568.21	11.425
568.55	10.380
568.89	10.832
569.23	10.207
569.56	9.982
569.90	10.800
570.24	9.751
570.57	9.636
570.91	10.701
571.25	9.536
571.59	10.090
571.92	9.481
572.26	9.390
572.60	10.016
572.93	9.758
573.27	9.812
573.61	9.636
573.95	10.022
574.28	9.375
574.62	9.255
574.96	9.399
575.29	9.616
575.63	9.510
575.97	9.569
576.30	9.699
576.64	9.219
576.98	9.755
577.31	9.314
577.65	9.381
577.98	9.446
578.32	9.406
578.66	9.112
578.99	9.265
579.33	9.193
579.67	9.134
580.00	9.215
580.34	9.527
580.67	9.347
581.01	9.534
581.35	9.044
581.68	9.191
582.02	9.304
582.35	9.081
582.69	9.155
583.02	9.378
583.36	9.274
583.70	9.735
584.03	9.703
584.37	9.881
584.70	9.670
585.04	9.430
585.37	9.140
585.71	8.813
586.04	9.355
586.38	8.669
586.72	9.297
587.05	9.850
587.39	9.589
587.72	9.650
588.06	9.383
588.39	9.655
588.73	9.860
589.06	9.752
589.40	9.817
589.73	9.748
590.07	9.819
590.40	9.985
590.73	10.173
591.07	9.712
591.40	10.062
591.74	10.045
592.07	10.250
592.41	10.424
592.74	9.478
593.08	8.837
593.41	9.423
593.75	9.421
594.08	9.234
594.41	10.226
594.75	9.618
595.08	9.610
595.42	9.238
595.75	9.388
596.09	9.656
596.42	9.756
596.75	10.036
597.09	10.296
597.42	9.756
597.75	9.482
598.09	10.050
598.42	9.747
598.76	9.781
599.09	9.535
599.42	9.397
599.76	9.594
600.09	9.653
600.42	9.515
600.76	9.175
601.09	9.542
601.42	9.792
601.76	9.210
602.09	9.323
602.42	10.110
602.76	9.975
603.09	9.468
603.42	9.950
603.76	8.952
604.09	8.789
604.42	9.602
604.76	9.568
605.09	9.644
605.42	9.752
605.75	9.326
606.09	9.299
606.42	9.466
606.75	9.654
607.09	10.066
607.42	9.349
607.75	9.014
608.08	9.299
608.42	10.553
608.75	9.349
609.08	9.118
609.41	10.000
609.75	9.879
610.08	9.536
610.41	9.324
610.74	9.654
611.07	8.786
611.41	9.652
611.74	9.861
612.07	9.957
612.40	9.573
612.73	9.322
613.07	9.336
613.40	9.847
613.73	8.450
614.06	9.460
614.39	10.209
614.72	9.076
615.06	9.441
615.39	9.007
615.72	9.688
616.05	10.168
616.38	9.060
616.71	9.358
617.05	10.377
617.38	9.931
617.71	9.874
618.04	10.095
618.37	11.160
618.70	11.155
619.03	11.597
619.36	10.347
619.69	10.614
620.03	12.053
620.36	10.372
620.69	10.493
621.02	10.933
621.35	10.954
621.68	11.139
622.01	11.083
622.34	10.295
622.67	11.435
623.00	10.260
623.33	11.204
623.66	10.471
623.99	9.758
624.32	10.114
624.65	10.376
624.99	10.083
625.32	9.098
625.65	11.155
625.98	10.717
626.31	10.141
626.64	11.872
626.97	10.908
627.30	11.734
627.63	10.572
627.96	10.243
628.29	10.361
628.62	11.209
628.95	11.523
629.28	11.190
629.61	10.967
629.94	11.144
630.26	12.154
630.59	11.342
630.92	11.692
631.25	11.590
631.58	10.463
631.91	10.307
632.24	9.404
632.57	10.909
632.90	11.032
633.23	12.235
633.56	10.579
633.89	10.358
634.22	11.605
634.55	11.563
634.88	10.728
635.20	11.410
635.53	10.800
635.86	11.573
636.19	11.514
636.52	10.459
636.85	10.670
637.18	10.440
637.51	11.447
637.83	11.958
638.16	13.643
638.49	11.853
638.82	12.895
639.15	11.262
639.48	11.967
639.81	11.715
640.13	10.534
640.46	11.516
640.79	10.309
641.12	12.408
641.45	12.312
641.77	13.333
642.10	11.690
642.43	11.736
642.76	10.726
643.09	12.116
643.41	11.812
643.74	11.862
644.07	13.300
644.40	13.514
644.73	13.310
645.05	13.087
645.38	11.287
645.71	13.298
646.04	13.824
646.36	12.234
646.69	13.849
647.02	12.287
647.35	12.313
647.67	13.346
648.00	12.873
648.33	14.676
648.66	11.864
648.98	9.883
649.31	9.421
649.64	11.617
649.96	10.535
650.29	12.777
650.62	11.966
650.94	11.481
651.27	11.546
651.60	11.712
651.92	12.937
652.25	9.591
652.58	11.333
652.90	12.007
653.23	12.269
653.56	12.014
653.88	11.340
654.21	8.581
654.54	11.205
654.86	10.017
655.19	10.088
655.52	10.526
655.84	8.114
656.17	8.822
656.49	11.835
656.82	12.513
657.15	9.721
657.47	7.240
657.80	5.428
658.13	5.482
658.45	8.693
658.78	8.593
659.10	8.810
659.43	9.078
659.75	9.719
660.08	9.655
660.41	11.645
660.73	11.602
661.06	13.692
661.38	11.742
661.71	11.088
662.03	12.446
662.36	11.868
662.68	11.062
663.01	13.319
663.33	11.833
663.66	12.326
663.98	13.256
664.31	12.367
664.63	12.442
664.96	11.522
665.28	11.258
665.61	11.039
665.93	12.174
666.26	11.931
666.58	11.633
666.91	8.235
667.23	13.443
667.56	12.796
667.88	8.633
668.21	14.558
668.53	13.712
668.86	12.500
669.18	10.142
669.50	10.896
669.83	11.860
670.15	10.723
670.48	10.287
670.80	13.825
671.13	11.857
671.45	10.959
671.77	11.159
672.10	11.881
672.42	12.547
672.75	10.657
673.07	12.701
673.39	12.661
673.72	8.284
674.04	11.875
674.37	12.288
674.69	13.490
675.01	14.444
675.34	13.063
675.66	12.731
675.98	11.086
676.31	11.239
676.63	9.976
676.95	8.182
677.28	13.647
677.60	14.217
677.92	9.862
678.25	12.035
678.57	10.606
678.89	12.605
679.22	14.541
679.54	12.249
679.86	10.537
680.18	11.456
680.51	11.742
680.83	8.350
681.15	12.200
681.48	11.680
681.80	11.157
682.12	13.508
682.44	7.531
682.77	12.362
683.09	11.442
683.41	12.273
683.73	10.599
684.06	11.504
684.38	9.247
684.70	11.547
685.02	11.411
685.34	7.312
685.67	7.880
685.99	12.116
686.31	9.558
686.63	10.204
686.96	8.555
687.28	10.505
687.60	10.837
687.92	13.535
688.24	11.089
688.56	10.917
688.89	8.482
689.21	14.667
689.53	9.281
689.85	10.930
690.17	14.732
690.49	10.638
690.82	13.592
691.14	9.762
691.46	12.850
691.78	9.910
692.10	11.398
692.42	13.203
692.74	13.248
693.06	10.811
693.39	10.860
693.71	10.860
694.03	9.238
694.35	11.916
694.67	12.374
694.99	10.444
695.31	13.577
695.63	10.500
695.95	11.111
696.27	11.917
696.59	11.111
696.91	8.123
697.23	8.997
697.56	11.881
697.88	12.903
698.20	10.934
698.52	10.824
698.84	7.656
699.16	10.000
699.48	13.283
699.80	11.414
700.12	11.321
700.44	13.165
700.76	6.105
701.08	11.515
701.40	13.554
701.72	13.889
702.04	13.861
702.36	13.712
702.68	14.414
703.00	11.818
703.32	11.144
703.64	6.780
703.96	11.304
704.28	11.350
704.60	11.111
704.91	9.148
705.23	9.635
705.55	12.721
705.87	13.357
706.19	11.111
706.51	14.777
706.83	14.469
707.15	8.411
707.47	14.286
707.79	10.938
708.11	13.750
708.43	12.000
708.74	11.370
709.06	14.930
709.38	10.398
709.70	13.609
710.02	14.331
710.34	10.836
710.66	12.500
710.98	9.934
711.29	12.787
711.61	11.186
711.93	16.287
712.25	14.777
712.57	12.454
712.89	11.567
713.20	11.073
713.52	10.453
713.84	10.239
714.16	9.966
714.48	10.000
714.80	12.500
715.11	10.638
715.43	8.150
715.75	7.333
716.07	10.631
716.39	13.423
716.70	6.642
717.02	9.924
717.34	14.170
717.66	9.292
717.97	9.565
718.29	11.715
718.61	10.236
718.93	13.566
719.24	15.589
719.56	9.237
719.88	12.371
720.20	8.333
720.51	9.579
720.83	8.880
721.15	10.924
721.46	11.694
721.78	9.091
722.10	8.922
722.42	9.544
722.73	10.612
723.05	15.102
723.37	16.525
723.68	15.315
724.00	12.821
724.32	8.000
724.63	10.455
724.95	11.790
725.27	8.756
725.58	9.322
725.90	9.921
726.22	11.197
726.53	12.881
726.85	14.607
727.16	18.868
727.48	10.121
727.80	13.360
728.11	5.932
728.43	15.294
728.74	3.629
729.06	12.000
729.38	14.662
729.69	7.570
730.01	6.154
730.32	10.075
730.64	14.134
730.96	11.698
731.27	10.667
731.59	8.475
731.90	10.191
732.22	13.880
732.53	14.950
732.85	10.993
733.16	14.478
733.48	8.273
733.80	8.333
734.11	13.898
734.43	10.653
734.74	10.000
735.06	4.886
735.37	9.970
735.69	9.091
736.00	6.272
736.32	8.054
736.63	9.507
736.95	11.945
737.26	9.609
737.58	8.725
737.89	13.187
738.21	10.902
738.52	12.346
738.83	16.157
739.15	7.860
739.46	13.780
739.78	7.692
740.09	11.111
740.41	10.145
740.72	10.630
741.04	11.336
741.35	10.213
741.66	9.479
741.98	9.694
742.29	13.366
742.61	9.424
742.92	3.791
743.23	7.870
743.55	10.407
743.86	9.091
744.18	8.134
744.49	13.830
744.80	10.326
745.12	15.508
745.43	7.805
745.74	15.104
746.06	9.756
746.37	9.424
746.68	14.218
747.00	6.915
747.31	17.413
747.62	10.680
747.94	11.005
748.25	7.426
748.56	11.475
748.88	15.707
749.19	11.702
749.50	13.300
749.82	4.717
750.13	6.422
750.44	13.534
750.75	13.060
751.07	16.058
751.38	6.513
751.69	10.196
752.01	8.140
752.32	8.765
752.63	9.486
752.94	8.190
753.26	17.155
753.57	9.502
753.88	9.292
754.19	3.750
754.51	10.744
754.82	8.502
755.13	16.667
755.44	8.871
755.75	11.719
756.07	9.728
756.38	6.415
756.69	7.663
757.00	14.667
757.31	9.804
757.63	8.232
757.94	10.556
758.25	8.219
758.56	9.840
758.87	7.932
759.18	15.576
759.50	8.000
759.81	8.696
760.12	10.323
760.43	9.091
760.74	10.185
761.05	9.846
761.36	8.523
761.67	12.121
761.99	10.884
762.30	5.818
762.61	11.067
762.92	14.932
763.23	8.559
763.54	7.009
763.85	10.169
764.16	8.714
764.47	8.065
764.78	12.088
765.10	14.141
765.41	10.726
765.72	14.603
766.03	8.271
766.34	14.234
766.65	11.155
766.96	9.596
767.27	11.170
767.58	8.046
767.89	4.255
768.20	6.818
768.51	12.637
768.82	13.793
769.13	0.922
769.44	9.871
769.75	8.676
770.06	11.638
770.37	6.731
770.68	7.614
770.99	8.597
771.30	16.176
771.61	10.407
771.92	12.931
772.23	5.911
772.54	12.903
772.85	11.728
773.16	19.101
773.47	15.686
773.78	11.765
774.09	13.772
774.39	11.333
774.70	20.382
775.01	12.414
775.32	9.286
775.63	2.479
775.94	9.160
776.25	11.024
776.56	9.167
776.87	12.500
777.18	11.111
777.48	8.621
777.79	12.174
778.10	-5.714
778.41	5.405
778.72	19.048
779.03	15.038
779.34	13.475
779.65	8.904
779.95	8.219
780.26	5.517
780.57	2.439
780.88	3.937
781.19	6.897
781.50	6.202
781.80	5.917
782.11	8.805
782.42	5.385
782.73	15.108
783.04	17.037
783.34	12.500
783.65	-6.838
783.96	1.639
784.27	6.897
784.57	9.756
784.88	21.094
785.19	16.000
785.50	22.000
785.81	10.345
786.11	8.621
786.42	12.621
786.73	19.091
787.04	10.204
787.34	17.857
787.65	9.524
787.96	3.540
788.26	7.273
788.57	1.709
788.88	17.969
789.19	12.698
789.49	2.609
789.80	6.122
790.11	8.081
790.41	5.455
790.72	18.478
791.03	3.409
791.33	13.750
791.64	13.750
791.95	10.465
792.25	12.766
792.56	10.112
792.87	-2.740
793.17	-7.246
793.48	2.667
793.79	6.250
794.09	-3.750
794.40	0.943
794.70	1.942
795.01	4.065
795.32	12.821
795.62	6.667
795.93	10.784
796.23	5.660
796.54	23.958
796.85	23.529
797.15	15.493
797.46	13.889
797.76	12.121
798.07	6.977
798.37	1.316
798.68	3.030
798.99	13.580
799.29	10.000
799.60	15.942
799.90	22.667
800.21	24.590
800.51	18.462
800.82	-1.695
801.12	23.188
801.43	13.115
801.73	19.048
802.04	16.000
802.34	4.478
802.65	19.231
802.95	-1.786
803.26	5.769
803.56	-1.961
803.87	-21.739
804.17	22.667
804.48	28.571
804.78	-1.852
805.09	8.696
805.39	6.667
805.70	9.259
806.00	3.509
806.30	8.451
806.61	15.714
806.91	9.722
807.22	15.789
807.52	9.333
807.83	3.636
808.13	9.722
808.43	4.412
808.74	0.000
809.04	-8.475
809.35	-3.846
809.65	10.938
809.95	-10.811
810.26	-6.818
810.56	1.370
810.86	11.905
811.17	2.000
811.47	-4.082
811.77	0.000
812.08	2.273
812.38	1.887
812.69	0.000
812.99	27.273
813.29	7.895
813.59	-42.857
813.90	6.818
814.20	-7.692
814.50	23.077
814.81	22.642
815.11	-6.383
815.41	11.864
815.72	14.286
816.02	9.804
816.32	-4.167
816.62	4.878
816.93	48.649
817.23	-2.857
817.53	31.250
817.84	13.043
818.14	15.385
818.44	15.789
818.74	17.391
819.04	12.500
819.35	29.730
819.65	32.353
819.95	0.000
820.25	9.524
820.56	7.500
820.86	-58.621
821.16	27.500
821.46	25.532
821.76	27.500
822.07	11.628
822.37	-8.108
822.67	3.125
822.97	30.952
823.27	17.857
823.57	28.000
823.88	-37.037
824.18	28.571
824.48	0.000
824.78	19.355
825.08	21.739
825.38	18.182
825.69	-12.500
825.99	15.789
826.29	22.222
826.59	33.333
826.89	-28.571
827.19	10.870
827.49	-2.500
827.79	17.143
828.09	35.714
828.39	21.212
828.70	45.946
829.00	-21.429
829.30	-4.762
829.60	10.000
829.90	31.250
830.20	21.053
830.50	-29.630
830.80	0.000
831.10	4.545
831.40	12.121
831.70	3.226
832.00	42.857
832.30	19.048
832.60	-100.000
832.90	3.448
833.20	35.000
833.50	24.242
833.80	7.407
834.10	26.923
834.40	0.000
834.70	0.000
835.00	-47.368
835.30	65.385
835.60	46.667
835.90	41.935
836.20	4.545
836.50	46.429
836.80	-46.154
837.10	17.857
837.40	-200.000
837.70	31.818
838.00	-109.091
838.30	8.696
838.60	-23.077
838.90	50.000
839.19	28.571
839.49	66.667
839.79	30.769
840.09	-41.667
840.39	39.286
840.69	25.000
840.99	26.923
841.29	-63.158
841.59	10.000
841.88	-18.182
842.18	30.000
842.48	31.250
842.78	6.667
843.08	-11.111
843.38	-60.000
843.68	13.043
843.97	13.333
844.27	-33.333
844.57	-25.000
844.87	-27.778
845.17	-4.762
845.47	26.667
845.76	-28.571
846.06	11.765
846.36	10.000
846.66	-21.429
846.96	46.667
847.25	-62.500
847.55	-21.429
847.85	-62.500
848.15	-36.364
848.44	-433.333
848.74	20.000
849.04	33.333
849.34	118.182
849.63	50.000
849.93	-260.000
850.23	-5.556
850.53	140.000
850.82	-23.077
851.12	33.333
851.42	53.333
851.71	11.538
852.01	14.286
852.31	0.000
852.61	36.364
852.90	50.000
853.20	-31.579
853.50	33.333
853.79	-17.391
854.09	16.667
854.39	52.632
854.68	-12.500
854.98	6.452
855.28	19.231
855.57	5.000
855.87	-5.556
856.17	29.630
856.46	-64.286
856.76	0.000
857.05	44.444
857.35	36.000
857.65	11.111
857.94	-53.846
858.24	34.483
858.53	22.222
858.83	40.741
859.13	-13.636
859.42	-43.478
859.72	-125.000
860.01	-600.000
860.31	8.000
860.60	28.571
860.90	-333.333
861.20	-46.667
861.49	-400.000
861.79	-40.000
862.08	15.000
862.38	106.667
862.67	-60.000
862.97	-50.000
863.26	33.333
863.56	16.667
863.85	-633.333
864.15	77.778
864.44	-20.000
864.74	28.571
865.03	350.000
865.33	-300.000
865.62	0.000
865.92	0.000
866.21	-16.667
866.51	43.750
866.80	-18.182
867.10	150.000
867.39	66.667
867.69	0.000
867.98	107.692
868.27	-466.667
868.57	53.333
868.86	44.444
869.16	-84.615
869.45	73.333
869.75	-1300.000
870.04	0.000
870.33	-114.286
870.63	33.333
870.92	233.333
871.22	-180.000
871.51	300.000
871.80	100.000
872.10	166.667
>>>>>End Processed Spectral Data<<<<<
