SpectraSuite Data File
++++++++++++++++++++++++++++++++++++
Date: Fri May 15 20:14:35 PDT 2015
User: schluterlab
Dark Spectrum Present: Yes
Reference Spectrum Present: Yes
Number of Sampled Component Spectra: 1
Spectrometers: USB2E3373
Integration Time (usec): 3000 (USB2E3373)
Spectra Averaged: 3 (USB2E3373)
Boxcar Smoothing: 0 (USB2E3373)
Correct for Electrical Dark: No (USB2E3373)
Strobe/Lamp Enabled: No (USB2E3373)
Correct for Detector Non-linearity: No (USB2E3373)
Correct for Stray Light: No (USB2E3373)
Number of Pixels in Processed Spectrum: 2048
>>>>>Begin Processed Spectral Data<<<<<
178.53	0.000
178.91	0.000
179.29	125.000
179.67	-200.000
180.04	-57.143
180.42	100.000
180.80	300.000
181.18	-0.000
181.56	50.000
181.94	300.000
182.31	-100.000
182.69	-20.000
183.07	-133.333
183.45	60.000
183.83	66.667
184.20	90.909
184.58	122.222
184.96	-50.000
185.34	100.000
185.72	-100.000
186.09	53.846
186.47	-300.000
186.85	66.667
187.23	66.667
187.61	-200.000
187.98	-233.333
188.36	100.000
188.74	66.667
189.12	64.706
189.49	61.111
189.87	0.000
190.25	78.571
190.63	200.000
191.00	133.333
191.38	15.789
191.76	300.000
192.14	-175.000
192.51	450.000
192.89	66.667
193.27	-157.143
193.65	-33.333
194.02	154.545
194.40	-20.000
194.78	-50.000
195.15	-25.000
195.53	-50.000
195.91	175.000
196.29	0.000
196.66	46.154
197.04	14.286
197.42	-11.111
197.79	-66.667
198.17	-84.615
198.55	1200.000
198.92	-100.000
199.30	-1100.000
199.68	-180.000
200.05	66.667
200.43	0.000
200.81	-233.333
201.18	66.667
201.56	1000.000
201.94	-400.000
202.31	66.667
202.69	-100.000
203.07	300.000
203.44	700.000
203.82	0.000
204.19	71.429
204.57	-133.333
204.95	100.000
205.32	140.000
205.70	57.143
206.08	-25.000
206.45	133.333
206.83	85.714
207.20	-128.571
207.58	-500.000
207.96	-233.333
208.33	-100.000
208.71	-50.000
209.08	-100.000
209.46	100.000
209.84	20.000
210.21	-500.000
210.59	71.429
210.96	-116.667
211.34	100.000
211.71	46.667
212.09	-142.857
212.46	-1100.000
212.84	0.000
213.22	80.000
213.59	200.000
213.97	30.769
214.34	18.182
214.72	-183.333
215.09	300.000
215.47	53.846
215.84	-9.091
216.22	33.333
216.59	-12.500
216.97	300.000
217.34	-75.000
217.72	-100.000
218.09	112.500
218.47	-0.000
218.84	-600.000
219.22	-11.111
219.59	-200.000
219.97	200.000
220.34	75.000
220.72	-28.571
221.09	125.000
221.47	-200.000
221.84	-450.000
222.22	-400.000
222.59	36.364
222.97	-8.333
223.34	-66.667
223.72	35.714
224.09	28.571
224.46	42.857
224.84	133.333
225.21	40.000
225.59	80.000
225.96	200.000
226.34	125.000
226.71	28.571
227.08	83.333
227.46	50.000
227.83	-300.000
228.21	0.000
228.58	45.455
228.95	-25.000
229.33	140.000
229.70	25.000
230.08	12.500
230.45	-14.286
230.82	157.143
231.20	-6.667
231.57	35.714
231.95	157.143
232.32	-20.000
232.69	42.857
233.07	-166.667
233.44	140.000
233.81	-30.000
234.19	55.556
234.56	-35.294
234.93	450.000
235.31	75.000
235.68	-120.000
236.05	46.154
236.43	15.000
236.80	29.412
237.17	-9.375
237.55	-5.000
237.92	29.630
238.29	25.000
238.67	23.333
239.04	29.412
239.41	2.439
239.79	20.000
240.16	26.829
240.53	0.000
240.91	17.391
241.28	31.746
241.65	39.286
242.02	35.616
242.40	26.667
242.77	28.814
243.14	7.576
243.51	18.750
243.89	40.230
244.26	8.046
244.63	19.048
245.00	19.588
245.38	17.526
245.75	17.978
246.12	14.655
246.49	13.223
246.87	22.115
247.24	11.765
247.61	7.895
247.98	21.138
248.36	17.500
248.73	17.763
249.10	12.987
249.47	19.620
249.84	18.954
250.22	14.706
250.59	16.340
250.96	23.474
251.33	13.372
251.70	23.529
252.08	18.782
252.45	19.802
252.82	21.106
253.19	16.129
253.56	15.888
253.94	18.468
254.31	19.130
254.68	22.368
255.05	18.504
255.42	18.777
255.79	22.008
256.16	18.288
256.54	20.522
256.91	15.970
257.28	18.587
257.65	13.483
258.02	19.149
258.39	16.835
258.76	21.978
259.14	20.598
259.51	18.447
259.88	17.526
260.25	23.529
260.62	16.319
260.99	14.576
261.36	19.521
261.73	15.823
262.10	20.973
262.47	19.018
262.85	15.361
263.22	17.538
263.59	17.445
263.96	22.671
264.33	17.576
264.70	17.560
265.07	14.583
265.44	15.864
265.81	16.102
266.18	17.760
266.55	18.766
266.92	19.171
267.29	21.149
267.66	16.880
268.03	13.613
268.40	18.016
268.77	18.182
269.14	18.705
269.51	16.710
269.88	18.953
270.25	17.347
270.62	17.317
270.99	15.857
271.36	14.914
271.73	17.136
272.10	17.762
272.47	21.513
272.84	18.069
273.21	17.401
273.58	17.108
273.95	16.705
274.32	16.859
274.69	14.706
275.06	16.518
275.43	17.914
275.80	17.660
276.17	14.943
276.54	16.060
276.91	18.202
277.28	13.100
277.65	16.529
278.02	15.957
278.39	17.505
278.76	18.449
279.13	14.730
279.50	16.387
279.87	18.143
280.23	16.129
280.60	18.324
280.97	17.778
281.34	16.731
281.71	19.507
282.08	14.724
282.45	14.677
282.82	15.251
283.19	14.894
283.56	15.992
283.92	14.231
284.29	14.038
284.66	16.085
285.03	14.931
285.40	15.879
285.77	16.344
286.14	16.787
286.51	18.819
286.87	15.539
287.24	14.180
287.61	14.638
287.98	15.614
288.35	16.984
288.72	15.236
289.08	15.972
289.45	14.938
289.82	15.385
290.19	15.358
290.56	14.065
290.93	13.300
291.29	12.943
291.66	14.961
292.03	13.238
292.40	15.000
292.77	14.992
293.13	13.799
293.50	12.595
293.87	14.962
294.24	14.219
294.60	14.754
294.97	13.542
295.34	11.656
295.71	15.052
296.08	12.706
296.44	11.807
296.81	11.944
297.18	14.203
297.55	13.415
297.91	12.603
298.28	14.116
298.65	12.619
299.02	11.590
299.38	11.354
299.75	11.862
300.12	11.257
300.48	11.067
300.85	13.181
301.22	12.468
301.59	12.105
301.95	13.038
302.32	14.267
302.69	13.060
303.05	11.757
303.42	11.582
303.79	12.617
304.15	12.545
304.52	10.345
304.89	10.643
305.25	12.591
305.62	11.319
305.99	12.398
306.35	11.098
306.72	12.036
307.09	12.201
307.45	11.825
307.82	11.458
308.19	12.311
308.55	10.469
308.92	12.745
309.29	11.732
309.65	12.056
310.02	13.311
310.38	12.623
310.75	15.082
311.12	13.132
311.48	12.195
311.85	12.565
312.22	12.658
312.58	11.359
312.95	13.340
313.31	12.422
313.68	12.984
314.05	14.388
314.41	14.742
314.78	14.227
315.14	15.211
315.51	14.907
315.87	15.164
316.24	16.077
316.61	16.732
316.97	15.675
317.34	16.211
317.70	16.252
318.07	15.962
318.43	15.882
318.80	14.678
319.16	17.285
319.53	16.524
319.89	16.929
320.26	18.219
320.62	18.455
320.99	17.432
321.35	18.705
321.72	19.522
322.08	18.429
322.45	19.898
322.81	20.629
323.18	20.608
323.54	20.656
323.91	19.864
324.27	21.582
324.64	21.348
325.00	20.985
325.37	22.957
325.73	20.399
326.10	21.435
326.46	24.215
326.83	23.360
327.19	23.540
327.56	24.153
327.92	24.648
328.29	24.107
328.65	25.755
329.01	25.276
329.38	25.069
329.74	26.062
330.11	26.413
330.47	26.067
330.84	26.250
331.20	28.992
331.56	26.852
331.93	27.489
332.29	28.964
332.66	27.783
333.02	28.253
333.38	27.406
333.75	28.755
334.11	27.753
334.48	28.377
334.84	29.121
335.20	29.277
335.57	29.374
335.93	30.172
336.29	29.558
336.66	28.792
337.02	28.346
337.38	29.167
337.75	29.182
338.11	30.748
338.47	30.748
338.84	30.129
339.20	30.987
339.56	30.459
339.93	29.902
340.29	30.734
340.65	30.287
341.02	30.408
341.38	30.531
341.74	30.035
342.11	29.549
342.47	30.338
342.83	30.190
343.20	30.749
343.56	30.696
343.92	30.647
344.28	30.060
344.65	30.484
345.01	30.337
345.37	30.278
345.73	30.711
346.10	31.752
346.46	30.782
346.82	30.524
347.19	29.510
347.55	30.994
347.91	30.744
348.27	30.477
348.63	32.027
349.00	30.435
349.36	30.175
349.72	30.929
350.08	31.475
350.45	30.806
350.81	30.731
351.17	29.805
351.53	30.694
351.89	30.884
352.26	30.960
352.62	30.242
352.98	30.201
353.34	29.630
353.70	31.472
354.07	31.935
354.43	29.464
354.79	32.287
355.15	31.746
355.51	32.753
355.87	31.796
356.24	30.914
356.60	31.447
356.96	32.302
357.32	32.508
357.68	31.587
358.04	32.633
358.40	32.395
358.77	31.818
359.13	31.465
359.49	31.202
359.85	32.293
360.21	32.616
360.57	31.905
360.93	32.526
361.29	30.740
361.66	32.759
362.02	32.879
362.38	33.054
362.74	31.643
363.10	33.032
363.46	33.506
363.82	34.485
364.18	32.915
364.54	32.132
364.90	33.477
365.26	33.333
365.62	34.818
365.98	32.918
366.35	34.741
366.71	33.925
367.07	34.035
367.43	34.292
367.79	34.064
368.15	34.745
368.51	35.834
368.87	33.812
369.23	34.224
369.59	34.767
369.95	35.484
370.31	34.104
370.67	34.478
371.03	35.400
371.39	34.573
371.75	36.190
372.11	35.378
372.47	35.577
372.83	35.699
373.19	35.378
373.55	36.101
373.91	36.933
374.27	37.562
374.63	37.186
374.99	36.950
375.35	37.187
375.71	37.762
376.07	37.570
376.42	38.027
376.78	38.188
377.14	38.659
377.50	38.645
377.86	38.956
378.22	38.609
378.58	39.359
378.94	39.004
379.30	38.927
379.66	39.749
380.02	40.098
380.38	39.318
380.74	39.737
381.09	40.368
381.45	39.939
381.81	40.839
382.17	41.307
382.53	40.849
382.89	41.431
383.25	42.439
383.61	42.195
383.97	41.397
384.32	42.026
384.68	41.858
385.04	42.463
385.40	42.875
385.76	44.403
386.12	43.984
386.48	44.508
386.83	43.120
387.19	43.529
387.55	44.856
387.91	44.010
388.27	43.834
388.62	45.689
388.98	43.033
389.34	44.097
389.70	46.613
390.06	44.430
390.42	44.819
390.77	46.305
391.13	44.199
391.49	45.666
391.85	47.044
392.20	46.642
392.56	46.027
392.92	46.506
393.28	45.460
393.64	45.826
393.99	48.088
394.35	47.438
394.71	47.254
395.07	46.826
395.42	46.995
395.78	46.710
396.14	48.108
396.50	47.749
396.85	47.650
397.21	47.556
397.57	47.837
397.92	47.274
398.28	48.046
398.64	46.446
399.00	47.912
399.35	47.743
399.71	46.755
400.07	49.214
400.42	47.919
400.78	48.622
401.14	47.126
401.49	49.613
401.85	48.385
402.21	48.313
402.57	50.688
402.92	48.683
403.28	48.559
403.63	50.000
403.99	49.809
404.35	49.781
404.70	48.631
405.06	48.707
405.42	49.969
405.77	49.506
406.13	49.651
406.49	50.385
406.84	50.367
407.20	51.114
407.55	49.775
407.91	50.668
408.27	49.458
408.62	51.077
408.98	50.462
409.34	51.115
409.69	50.000
410.05	49.446
410.40	50.802
410.76	51.025
411.11	50.875
411.47	52.005
411.83	51.224
412.18	51.158
412.54	51.685
412.89	49.692
413.25	51.805
413.60	51.180
413.96	50.798
414.31	51.280
414.67	51.764
415.03	51.731
415.38	52.285
415.74	52.378
416.09	52.384
416.45	52.262
416.80	51.487
417.16	53.729
417.51	52.365
417.87	52.216
418.22	52.915
418.58	53.177
418.93	52.288
419.29	52.113
419.64	53.467
420.00	54.597
420.35	53.433
420.71	53.706
421.06	53.591
421.42	53.425
421.77	53.121
422.12	53.292
422.48	53.059
422.83	52.494
423.19	53.612
423.54	53.968
423.90	53.710
424.25	53.731
424.61	55.202
424.96	54.297
425.31	55.575
425.67	54.988
426.02	55.124
426.38	55.917
426.73	54.661
427.09	56.709
427.44	55.882
427.79	55.392
428.15	55.583
428.50	55.421
428.85	55.651
429.21	55.122
429.56	55.903
429.92	54.905
430.27	54.035
430.62	54.992
430.98	56.794
431.33	56.257
431.68	55.207
432.04	56.959
432.39	54.991
432.74	56.645
433.10	56.552
433.45	56.332
433.80	56.297
434.16	55.402
434.51	57.258
434.86	56.794
435.22	57.768
435.57	57.954
435.92	57.425
436.28	55.814
436.63	57.444
436.98	56.315
437.34	56.322
437.69	57.364
438.04	56.296
438.39	55.406
438.75	59.259
439.10	57.046
439.45	59.160
439.81	58.043
440.16	58.670
440.51	58.507
440.86	58.248
441.22	57.636
441.57	58.223
441.92	59.759
442.27	59.091
442.63	59.743
442.98	59.104
443.33	57.262
443.68	57.772
444.03	58.321
444.39	58.583
444.74	59.420
445.09	59.633
445.44	59.259
445.79	59.257
446.15	59.086
446.50	57.626
446.85	59.139
447.20	58.863
447.55	59.096
447.91	58.432
448.26	59.363
448.61	59.125
448.96	60.815
449.31	58.324
449.66	59.524
450.02	60.867
450.37	61.292
450.72	59.164
451.07	59.810
451.42	59.738
451.77	59.192
452.12	58.911
452.47	59.884
452.83	59.364
453.18	59.203
453.53	59.039
453.88	59.320
454.23	59.496
454.58	61.713
454.93	60.567
455.28	58.794
455.63	60.632
455.98	60.673
456.34	59.770
456.69	59.657
457.04	61.689
457.39	60.996
457.74	61.125
458.09	59.329
458.44	59.216
458.79	60.336
459.14	60.240
459.49	61.552
459.84	59.898
460.19	59.830
460.54	60.269
460.89	60.284
461.24	60.373
461.59	61.045
461.94	60.000
462.29	60.917
462.64	62.392
462.99	61.341
463.34	60.501
463.69	60.940
464.04	60.472
464.39	60.946
464.74	60.859
465.09	61.135
465.44	60.589
465.79	59.240
466.14	61.117
466.49	61.300
466.84	62.165
467.19	60.325
467.54	59.004
467.89	61.655
468.24	60.645
468.59	62.476
468.94	61.714
469.29	61.639
469.64	62.133
469.99	63.980
470.34	62.116
470.68	63.982
471.03	63.553
471.38	63.124
471.73	63.095
472.08	62.551
472.43	63.356
472.78	62.029
473.13	63.469
473.48	62.932
473.83	60.149
474.17	61.528
474.52	62.987
474.87	63.212
475.22	61.745
475.57	62.055
475.92	62.479
476.27	61.583
476.61	63.773
476.96	60.513
477.31	61.871
477.66	61.404
478.01	62.156
478.36	61.874
478.70	63.513
479.05	62.912
479.40	63.169
479.75	61.887
480.10	62.058
480.45	61.900
480.79	62.387
481.14	63.115
481.49	61.478
481.84	62.548
482.19	61.646
482.53	61.583
482.88	62.530
483.23	62.188
483.58	61.651
483.92	62.149
484.27	62.215
484.62	61.900
484.97	61.816
485.31	60.983
485.66	58.329
486.01	57.690
486.36	57.737
486.70	58.486
487.05	59.705
487.40	59.436
487.75	59.465
488.09	60.321
488.44	61.039
488.79	61.225
489.13	62.340
489.48	62.463
489.83	62.377
490.17	61.888
490.52	62.679
490.87	61.314
491.22	63.419
491.56	62.144
491.91	62.476
492.26	64.025
492.60	61.852
492.95	64.092
493.30	62.286
493.64	64.244
493.99	62.126
494.34	62.282
494.68	64.381
495.03	62.920
495.37	63.641
495.72	63.301
496.07	63.610
496.41	63.632
496.76	62.460
497.11	62.180
497.45	62.959
497.80	63.471
498.14	63.388
498.49	63.789
498.84	62.325
499.18	63.454
499.53	63.343
499.87	63.035
500.22	63.353
500.56	64.246
500.91	63.705
501.26	62.284
501.60	63.748
501.95	62.057
502.29	63.632
502.64	64.768
502.98	65.565
503.33	62.824
503.67	62.602
504.02	63.392
504.36	64.523
504.71	63.838
505.06	63.613
505.40	64.975
505.75	65.258
506.09	63.609
506.44	65.144
506.78	66.020
507.13	65.719
507.47	65.796
507.82	64.316
508.16	66.719
508.51	65.582
508.85	65.986
509.19	66.099
509.54	65.362
509.88	66.505
510.23	67.240
510.57	66.756
510.92	64.446
511.26	66.885
511.61	66.942
511.95	66.356
512.30	67.683
512.64	67.557
512.98	66.704
513.33	68.159
513.67	67.709
514.02	68.822
514.36	69.714
514.70	69.056
515.05	70.623
515.39	68.713
515.74	70.419
516.08	69.874
516.42	70.141
516.77	70.509
517.11	70.979
517.46	69.958
517.80	69.845
518.14	69.994
518.49	68.870
518.83	70.109
519.17	69.557
519.52	71.048
519.86	70.648
520.20	71.021
520.55	72.295
520.89	70.765
521.23	71.754
521.58	71.609
521.92	73.205
522.26	73.390
522.61	73.766
522.95	74.106
523.29	73.380
523.64	72.808
523.98	72.845
524.32	73.389
524.66	72.983
525.01	71.688
525.35	72.780
525.69	74.613
526.04	72.421
526.38	73.735
526.72	72.596
527.06	71.077
527.41	74.011
527.75	73.928
528.09	74.352
528.43	75.084
528.78	72.145
529.12	73.871
529.46	74.659
529.80	72.768
530.15	74.323
530.49	74.276
530.83	74.145
531.17	73.203
531.51	74.966
531.86	73.895
532.20	74.948
532.54	75.289
532.88	75.086
533.22	73.992
533.57	73.067
533.91	75.979
534.25	75.260
534.59	73.573
534.93	71.806
535.27	74.619
535.62	72.197
535.96	72.733
536.30	73.549
536.64	74.500
536.98	73.380
537.32	76.102
537.66	75.175
538.01	74.825
538.35	74.965
538.69	74.035
539.03	74.299
539.37	75.774
539.71	73.551
540.05	73.591
540.39	75.277
540.73	74.895
541.07	76.243
541.42	73.589
541.76	73.365
542.10	74.673
542.44	74.983
542.78	74.811
543.12	75.343
543.46	74.687
543.80	75.087
544.14	72.363
544.48	73.151
544.82	74.231
545.16	75.205
545.50	74.766
545.84	76.841
546.18	75.532
546.52	75.559
546.86	75.629
547.20	75.107
547.54	73.498
547.88	76.359
548.22	73.964
548.56	73.879
548.90	75.606
549.24	74.036
549.58	75.388
549.92	74.696
550.26	75.897
550.60	76.431
550.94	76.550
551.28	78.053
551.62	77.846
551.96	77.068
552.30	75.073
552.64	73.766
552.98	76.723
553.32	75.321
553.66	75.762
554.00	76.934
554.34	75.258
554.68	75.442
555.02	77.604
555.36	76.290
555.69	75.604
556.03	75.874
556.37	75.302
556.71	76.101
557.05	77.330
557.39	75.242
557.73	76.837
558.07	76.546
558.41	76.646
558.75	77.163
559.08	78.960
559.42	78.413
559.76	79.424
560.10	78.823
560.44	77.885
560.78	75.874
561.12	76.023
561.45	76.669
561.79	77.101
562.13	76.579
562.47	76.691
562.81	75.720
563.15	75.670
563.48	75.601
563.82	76.253
564.16	77.019
564.50	74.189
564.84	76.037
565.17	74.715
565.51	76.981
565.85	77.641
566.19	75.000
566.52	77.346
566.86	76.414
567.20	74.471
567.54	75.912
567.88	76.626
568.21	75.113
568.55	75.543
568.89	74.076
569.23	74.001
569.56	72.461
569.90	72.310
570.24	69.557
570.57	71.018
570.91	70.687
571.25	69.188
571.59	68.982
571.92	68.089
572.26	69.022
572.60	68.248
572.93	68.215
573.27	68.370
573.61	68.467
573.95	67.777
574.28	66.976
574.62	66.311
574.96	65.520
575.29	67.012
575.63	65.509
575.97	67.037
576.30	67.304
576.64	66.517
576.98	67.387
577.31	67.388
577.65	66.674
577.98	66.336
578.32	66.194
578.66	65.893
578.99	65.559
579.33	66.975
579.67	65.859
580.00	66.987
580.34	67.562
580.67	66.543
581.01	66.691
581.35	66.085
581.68	65.519
582.02	65.920
582.35	65.478
582.69	66.225
583.02	66.652
583.36	66.903
583.70	68.354
584.03	68.807
584.37	68.662
584.70	67.225
585.04	66.503
585.37	66.511
585.71	66.823
586.04	65.608
586.38	66.604
586.72	68.350
587.05	68.891
587.39	68.381
587.72	69.191
588.06	67.506
588.39	68.100
588.73	68.590
589.06	69.863
589.40	69.478
589.73	70.135
590.07	71.186
590.40	70.550
590.73	72.405
591.07	71.416
591.40	71.683
591.74	72.398
592.07	72.913
592.41	71.378
592.74	70.331
593.08	68.006
593.41	69.259
593.75	69.284
594.08	68.726
594.41	69.178
594.75	70.000
595.08	69.694
595.42	70.261
595.75	71.048
596.09	70.328
596.42	72.427
596.75	71.137
597.09	71.481
597.42	72.042
597.75	72.469
598.09	71.073
598.42	70.848
598.76	71.000
599.09	70.633
599.42	68.549
599.76	70.090
600.09	70.173
600.42	69.939
600.76	68.425
601.09	69.542
601.42	70.427
601.76	71.258
602.09	71.328
602.42	71.398
602.76	71.817
603.09	70.889
603.42	73.411
603.76	71.048
604.09	70.514
604.42	70.939
604.76	73.520
605.09	70.932
605.42	72.099
605.75	71.235
606.09	70.786
606.42	70.934
606.75	70.563
607.09	71.956
607.42	71.599
607.75	71.936
608.08	71.653
608.42	69.529
608.75	72.530
609.08	72.845
609.41	72.944
609.75	73.488
610.08	73.090
610.41	71.594
610.74	73.086
611.07	74.315
611.41	74.364
611.74	73.827
612.07	72.270
612.40	75.109
612.73	74.520
613.07	74.972
613.40	74.070
613.73	74.259
614.06	74.235
614.39	74.732
614.72	73.333
615.06	73.799
615.39	72.489
615.72	72.121
616.05	73.575
616.38	72.764
616.71	75.352
617.05	77.332
617.38	76.367
617.71	75.975
618.04	78.159
618.37	77.869
618.70	77.888
619.03	78.403
619.36	78.437
619.69	81.577
620.03	80.278
620.36	77.897
620.69	77.944
621.02	80.352
621.35	81.079
621.68	82.313
622.01	81.250
622.34	78.931
622.67	79.495
623.00	79.479
623.33	79.497
623.66	78.534
623.99	78.366
624.32	80.760
624.65	78.120
624.99	79.157
625.32	78.393
625.65	82.247
625.98	83.320
626.31	79.052
626.64	82.929
626.97	82.810
627.30	85.114
627.63	83.102
627.96	83.109
628.29	84.089
628.62	85.939
628.95	84.669
629.28	87.601
629.61	83.450
629.94	84.457
630.26	86.858
630.59	86.681
630.92	86.769
631.25	85.231
631.58	88.987
631.91	86.952
632.24	87.959
632.57	87.273
632.90	89.324
633.23	89.176
633.56	92.317
633.89	91.369
634.22	89.630
634.55	90.343
634.88	91.060
635.20	90.256
635.53	93.200
635.86	91.157
636.19	91.462
636.52	92.347
636.85	89.454
637.18	88.553
637.51	88.553
637.83	91.064
638.16	92.633
638.49	91.553
638.82	88.421
639.15	91.995
639.48	91.884
639.81	92.608
640.13	94.517
640.46	94.752
640.79	91.311
641.12	92.171
641.45	92.943
641.77	92.444
642.10	96.367
642.43	95.659
642.76	94.059
643.09	94.669
643.41	91.909
643.74	94.728
644.07	97.865
644.40	97.973
644.73	97.723
645.05	95.134
645.38	98.236
645.71	97.340
646.04	97.307
646.36	97.340
646.69	100.000
647.02	102.079
647.35	100.746
647.67	100.914
648.00	100.560
648.33	93.515
648.66	98.644
648.98	92.797
649.31	94.711
649.64	91.523
649.96	90.600
650.29	94.208
650.62	94.701
650.94	100.370
651.27	97.579
651.60	95.856
651.92	97.378
652.25	96.980
652.58	92.333
652.90	95.197
653.23	94.622
653.56	91.709
653.88	93.986
654.21	93.695
654.54	94.397
654.86	96.604
655.19	88.743
655.52	84.752
655.84	69.407
656.17	73.695
656.49	97.672
656.82	100.000
657.15	80.532
657.47	59.995
657.80	45.467
658.13	45.110
658.45	70.758
658.78	70.948
659.10	70.988
659.43	72.875
659.75	75.678
660.08	78.276
660.41	83.146
660.73	86.326
661.06	93.241
661.38	97.065
661.71	97.947
662.03	104.077
662.36	100.659
662.68	101.106
663.01	103.275
663.33	102.784
663.66	103.953
663.98	99.767
664.31	100.853
664.63	101.152
664.96	96.522
665.28	102.649
665.61	98.485
665.93	99.565
666.26	101.302
666.58	101.342
666.91	102.824
667.23	102.830
667.56	102.844
667.88	101.679
668.21	103.341
668.53	103.310
668.86	103.302
669.18	100.236
669.50	103.874
669.83	100.698
670.15	100.932
670.48	104.545
670.80	104.147
671.13	95.973
671.45	98.630
671.77	99.142
672.10	98.812
672.42	93.071
672.75	92.718
673.07	96.064
673.39	95.963
673.72	93.491
674.04	97.917
674.37	98.729
674.69	95.717
675.01	101.556
675.34	95.721
675.66	101.852
675.98	99.113
676.31	98.165
676.63	102.850
676.95	97.045
677.28	104.706
677.60	104.819
677.92	100.917
678.25	98.687
678.57	99.567
678.89	97.269
679.22	104.251
679.54	94.980
679.86	92.247
680.18	94.175
680.51	93.182
680.83	94.036
681.15	96.000
681.48	96.311
681.80	96.074
682.12	99.597
682.44	97.908
682.77	102.428
683.09	101.144
683.41	96.364
683.73	99.539
684.06	96.018
684.38	98.495
684.70	102.179
685.02	96.266
685.34	92.292
685.67	94.184
685.99	92.586
686.31	87.434
686.63	94.805
686.96	92.776
687.28	94.343
687.60	92.015
687.92	96.364
688.24	94.960
688.56	96.725
688.89	100.446
689.21	95.333
689.53	99.536
689.85	97.674
690.17	100.000
690.49	99.291
690.82	100.728
691.14	99.762
691.46	98.364
691.78	101.126
692.10	95.699
692.42	94.372
692.74	93.162
693.06	96.622
693.39	89.593
693.71	96.380
694.03	97.691
694.35	97.664
694.67	101.515
694.99	100.783
695.31	103.916
695.63	98.500
695.95	96.465
696.27	98.446
696.59	104.722
696.91	100.280
697.23	97.172
697.56	98.267
697.88	94.194
698.20	93.850
698.52	95.294
698.84	93.780
699.16	99.750
699.48	99.749
699.80	94.045
700.12	99.461
700.44	98.880
700.76	99.419
701.08	98.485
701.40	105.723
701.72	104.938
702.04	106.271
702.36	110.368
702.68	100.601
703.00	101.212
703.32	100.880
703.64	94.068
703.96	97.391
704.28	102.147
704.60	103.810
704.91	101.262
705.23	104.983
705.55	109.187
705.87	114.440
706.19	109.630
706.51	107.904
706.83	102.894
707.15	99.377
707.47	98.039
707.79	92.969
708.11	97.500
708.43	94.250
708.74	94.832
709.06	100.000
709.38	103.670
709.70	97.337
710.02	102.866
710.34	98.762
710.66	94.551
710.98	100.993
711.29	107.541
711.61	99.661
711.93	99.023
712.25	106.529
712.57	108.791
712.89	102.239
713.20	100.692
713.52	101.045
713.84	99.317
714.16	101.718
714.48	102.258
714.80	98.718
715.11	96.960
715.43	96.238
715.75	98.667
716.07	100.000
716.39	98.322
716.70	102.952
717.02	106.107
717.34	104.453
717.66	112.832
717.97	106.957
718.29	104.603
718.61	104.331
718.93	102.326
719.24	104.183
719.56	109.639
719.88	94.845
720.20	104.167
720.51	96.552
720.83	102.703
721.15	102.101
721.46	104.839
721.78	100.791
722.10	94.052
722.42	105.809
722.73	103.265
723.05	104.082
723.37	103.814
723.68	107.658
724.00	103.846
724.32	100.444
724.63	105.455
724.95	95.197
725.27	108.756
725.58	107.627
725.90	100.000
726.22	98.456
726.53	94.576
726.85	101.873
727.16	99.623
727.48	101.215
727.80	104.049
728.11	101.695
728.43	98.039
728.74	94.758
729.06	100.400
729.38	98.120
729.69	99.602
730.01	97.308
730.32	97.388
730.64	97.527
730.96	101.132
731.27	88.667
731.59	95.254
731.90	95.541
732.22	94.637
732.53	91.362
732.85	98.582
733.16	99.663
733.48	96.763
733.80	95.652
734.11	90.508
734.43	97.938
734.74	91.818
735.06	93.485
735.37	89.728
735.69	93.266
736.00	94.425
736.32	90.268
736.63	92.254
736.95	95.563
737.26	95.374
737.58	90.268
737.89	100.733
738.21	98.120
738.52	97.942
738.83	102.620
739.15	101.747
739.46	94.488
739.78	98.168
740.09	89.216
740.41	94.203
740.72	92.520
741.04	101.215
741.35	94.043
741.66	100.948
741.98	103.571
742.29	102.475
742.61	109.424
742.92	97.156
743.23	95.833
743.55	101.810
743.86	100.478
744.18	100.000
744.49	104.787
744.80	110.326
745.12	117.112
745.43	93.659
745.74	109.375
746.06	102.927
746.37	108.377
746.68	99.526
747.00	106.915
747.31	99.502
747.62	106.796
747.94	99.522
748.25	104.455
748.56	118.033
748.88	104.712
749.19	108.511
749.50	105.419
749.82	100.000
750.13	99.083
750.44	95.865
750.75	94.776
751.07	97.445
751.38	97.318
751.69	94.902
752.01	98.837
752.32	95.219
752.63	98.024
752.94	99.138
753.26	99.163
753.57	103.620
753.88	104.867
754.19	92.083
754.51	102.893
754.82	95.142
755.13	102.083
755.44	102.823
755.75	101.562
756.07	100.389
756.38	93.208
756.69	97.318
757.00	92.667
757.31	94.118
757.63	89.024
757.94	86.111
758.25	84.384
758.56	84.043
758.87	86.686
759.18	88.474
759.50	98.182
759.81	96.321
760.12	93.548
760.43	90.303
760.74	92.284
761.05	92.000
761.36	83.807
761.67	93.939
761.99	94.558
762.30	90.545
762.61	89.723
762.92	92.308
763.23	88.288
763.54	97.664
763.85	100.424
764.16	89.212
764.47	93.548
764.78	89.744
765.10	92.256
765.41	90.852
765.72	89.841
766.03	92.857
766.34	86.496
766.65	98.008
766.96	102.020
767.27	101.064
767.58	97.126
767.89	119.149
768.20	97.159
768.51	102.747
768.82	95.074
769.13	98.618
769.44	89.700
769.75	94.977
770.06	87.069
770.37	98.077
770.68	93.909
770.99	90.045
771.30	103.431
771.61	90.498
771.92	91.810
772.23	103.448
772.54	98.925
772.85	111.728
773.16	98.315
773.47	111.765
773.78	110.458
774.09	96.407
774.39	98.667
774.70	94.268
775.01	100.690
775.32	107.143
775.63	106.612
775.94	97.710
776.25	102.362
776.56	107.500
776.87	109.615
777.18	101.709
777.48	118.966
777.79	95.652
778.10	113.333
778.41	103.604
778.72	103.968
779.03	109.023
779.34	99.291
779.65	98.630
779.95	98.630
780.26	97.241
780.57	100.000
780.88	98.425
781.19	112.069
781.50	108.527
781.80	81.065
782.11	90.566
782.42	103.077
782.73	103.597
783.04	91.852
783.34	88.194
783.65	94.017
783.96	105.738
784.27	91.034
784.57	103.252
784.88	83.594
785.19	110.000
785.50	103.000
785.81	106.897
786.11	95.690
786.42	100.000
786.73	103.636
787.04	104.082
787.34	99.107
787.65	100.952
787.96	94.690
788.26	111.818
788.57	93.162
788.88	96.875
789.19	94.444
789.49	106.087
789.80	111.224
790.11	94.949
790.41	89.091
790.72	113.043
791.03	97.727
791.33	115.000
791.64	101.250
791.95	97.674
792.25	94.681
792.56	88.764
792.87	109.589
793.17	105.797
793.48	97.333
793.79	111.250
794.09	116.250
794.40	95.283
794.70	95.146
795.01	90.244
795.32	88.034
795.62	100.000
795.93	94.118
796.23	90.566
796.54	86.458
796.85	110.294
797.15	105.634
797.46	109.722
797.76	121.212
798.07	90.698
798.37	98.684
798.68	89.394
798.99	76.543
799.29	98.571
799.60	100.000
799.90	102.667
800.21	118.033
800.51	109.231
800.82	93.220
801.12	104.348
801.43	106.557
801.73	114.286
802.04	124.000
802.34	85.075
802.65	121.154
802.95	78.571
803.26	84.615
803.56	129.412
803.87	93.478
804.17	86.667
804.48	92.063
804.78	103.704
805.09	117.391
805.39	93.333
805.70	87.037
806.00	82.456
806.30	81.690
806.61	97.143
806.91	83.333
807.22	98.684
807.52	105.333
807.83	110.909
808.13	106.944
808.43	95.588
808.74	88.060
809.04	106.780
809.35	101.923
809.65	89.062
809.95	137.838
810.26	100.000
810.56	69.863
810.86	130.952
811.17	112.000
811.47	114.286
811.77	102.632
812.08	111.364
812.38	113.208
812.69	80.000
812.99	142.424
813.29	128.947
813.59	128.571
813.90	115.909
814.20	110.256
814.50	109.615
814.81	100.000
815.11	82.979
815.41	94.915
815.72	140.476
816.02	96.078
816.32	93.750
816.62	114.634
816.93	108.108
817.23	100.000
817.53	93.750
817.84	69.565
818.14	65.385
818.44	113.158
818.74	123.913
819.04	57.500
819.35	97.297
819.65	114.706
819.95	86.111
820.25	116.667
820.56	122.500
820.86	82.759
821.16	162.500
821.46	114.894
821.76	120.000
822.07	76.744
822.37	100.000
822.67	96.875
822.97	78.571
823.27	96.429
823.57	140.000
823.88	100.000
824.18	96.429
824.48	91.176
824.78	96.774
825.08	143.478
825.38	136.364
825.69	91.667
825.99	71.053
826.29	94.444
826.59	253.333
826.89	100.000
827.19	78.261
827.49	62.500
827.79	131.429
828.09	132.143
828.39	127.273
828.70	137.838
829.00	96.429
829.30	114.286
829.60	76.667
829.90	118.750
830.20	65.789
830.50	111.111
830.80	104.348
831.10	140.909
831.40	112.121
831.70	100.000
832.00	166.667
832.30	114.286
832.60	158.333
832.90	141.379
833.20	70.000
833.50	69.697
833.80	103.704
834.10	80.769
834.40	100.000
834.70	200.000
835.00	136.842
835.30	142.308
835.60	166.667
835.90	109.677
836.20	81.818
836.50	64.286
836.80	53.846
837.10	50.000
837.40	533.333
837.70	177.273
838.00	172.727
838.30	104.348
838.60	100.000
838.90	113.636
839.19	67.857
839.49	83.333
839.79	130.769
840.09	66.667
840.39	96.429
840.69	103.571
840.99	61.538
841.29	94.737
841.59	140.000
841.88	181.818
842.18	220.000
842.48	100.000
842.78	120.000
843.08	70.370
843.38	70.000
843.68	73.913
843.97	140.000
844.27	40.000
844.57	95.000
844.87	83.333
845.17	80.952
845.47	100.000
845.76	95.238
846.06	88.235
846.36	150.000
846.66	78.571
846.96	73.333
847.25	75.000
847.55	114.286
847.85	175.000
848.15	13.636
848.44	400.000
848.74	70.000
849.04	77.778
849.34	27.273
849.63	50.000
849.93	60.000
850.23	83.333
850.53	250.000
850.82	161.538
851.12	66.667
851.42	160.000
851.71	46.154
852.01	71.429
852.31	350.000
852.61	90.909
852.90	40.000
853.20	94.737
853.50	75.000
853.79	100.000
854.09	75.000
854.39	84.211
854.68	54.167
854.98	83.871
855.28	96.154
855.57	140.000
855.87	155.556
856.17	96.296
856.46	135.714
856.76	113.333
857.05	188.889
857.35	52.000
857.65	94.444
857.94	115.385
858.24	86.207
858.53	122.222
858.83	70.370
859.13	90.909
859.42	52.174
859.72	200.000
860.01	-66.667
860.31	88.000
860.60	76.190
860.90	200.000
861.20	33.333
861.49	-300.000
861.79	40.000
862.08	65.000
862.38	153.333
862.67	40.000
862.97	116.667
863.26	100.000
863.56	55.556
863.85	133.333
864.15	111.111
864.44	30.000
864.74	114.286
865.03	-325.000
865.33	260.000
865.62	200.000
865.92	58.333
866.21	-116.667
866.51	112.500
866.80	36.364
867.10	400.000
867.39	133.333
867.69	0.000
867.98	30.769
868.27	233.333
868.57	33.333
868.86	77.778
869.16	38.462
869.45	120.000
869.75	0.000
870.04	0.000
870.33	42.857
870.63	90.476
870.92	133.333
871.22	180.000
871.51	-100.000
871.80	100.000
872.10	-33.333
>>>>>End Processed Spectral Data<<<<<
