SpectraSuite Data File
++++++++++++++++++++++++++++++++++++
Date: Fri May 15 20:16:04 PDT 2015
User: schluterlab
Dark Spectrum Present: Yes
Reference Spectrum Present: Yes
Number of Sampled Component Spectra: 1
Spectrometers: USB2E3373
Integration Time (usec): 3000 (USB2E3373)
Spectra Averaged: 3 (USB2E3373)
Boxcar Smoothing: 0 (USB2E3373)
Correct for Electrical Dark: No (USB2E3373)
Strobe/Lamp Enabled: No (USB2E3373)
Correct for Detector Non-linearity: No (USB2E3373)
Correct for Stray Light: No (USB2E3373)
Number of Pixels in Processed Spectrum: 2048
>>>>>Begin Processed Spectral Data<<<<<
178.53	0.000
178.91	0.000
179.29	187.500
179.67	-450.000
180.04	-28.571
180.42	75.000
180.80	-100.000
181.18	-66.667
181.56	700.000
181.94	400.000
182.31	700.000
182.69	-300.000
183.07	-200.000
183.45	-140.000
183.83	-16.667
184.20	-100.000
184.58	122.222
184.96	-25.000
185.34	-0.000
185.72	-100.000
186.09	92.308
186.47	-200.000
186.85	66.667
187.23	33.333
187.61	-400.000
187.98	-200.000
188.36	33.333
188.74	-166.667
189.12	64.706
189.49	55.556
189.87	0.000
190.25	42.857
190.63	-50.000
191.00	-266.667
191.38	-10.526
191.76	200.000
192.14	75.000
192.51	100.000
192.89	-66.667
193.27	-128.571
193.65	216.667
194.02	200.000
194.40	20.000
194.78	-150.000
195.15	-25.000
195.53	-100.000
195.91	275.000
196.29	-225.000
196.66	169.231
197.04	-0.000
197.42	122.222
197.79	-300.000
198.17	-7.692
198.55	1100.000
198.92	-66.667
199.30	100.000
199.68	-40.000
200.05	-333.333
200.43	0.000
200.81	-366.667
201.18	-166.667
201.56	800.000
201.94	300.000
202.31	-166.667
202.69	-100.000
203.07	-275.000
203.44	300.000
203.82	0.000
204.19	64.286
204.57	-233.333
204.95	175.000
205.32	10.000
205.70	-14.286
206.08	50.000
206.45	100.000
206.83	71.429
207.20	-85.714
207.58	300.000
207.96	-100.000
208.33	-120.000
208.71	-225.000
209.08	-150.000
209.46	-300.000
209.84	-20.000
210.21	-400.000
210.59	28.571
210.96	50.000
211.34	-125.000
211.71	20.000
212.09	-128.571
212.46	-1500.000
212.84	0.000
213.22	30.000
213.59	900.000
213.97	23.077
214.34	9.091
214.72	50.000
215.09	325.000
215.47	30.769
215.84	0.000
216.22	-66.667
216.59	-50.000
216.97	200.000
217.34	-50.000
217.72	-300.000
218.09	-62.500
218.47	200.000
218.84	-800.000
219.22	-88.889
219.59	80.000
219.97	400.000
220.34	175.000
220.72	-85.714
221.09	-75.000
221.47	250.000
221.84	-500.000
222.22	-1100.000
222.59	9.091
222.97	41.667
223.34	-100.000
223.72	0.000
224.09	-19.048
224.46	14.286
224.84	66.667
225.21	80.000
225.59	6.667
225.96	-150.000
226.34	300.000
226.71	-57.143
227.08	-33.333
227.46	37.500
227.83	-350.000
228.21	88.889
228.58	-18.182
228.95	-75.000
229.33	70.000
229.70	43.750
230.08	-62.500
230.45	-128.571
230.82	14.286
231.20	-20.000
231.57	14.286
231.95	-28.571
232.32	-40.000
232.69	7.143
233.07	66.667
233.44	-60.000
233.81	-80.000
234.19	-100.000
234.56	-88.235
234.93	100.000
235.31	125.000
235.68	-180.000
236.05	-76.923
236.43	-30.000
236.80	0.000
237.17	-12.500
237.55	5.000
237.92	-29.630
238.29	2.778
238.67	30.000
239.04	11.765
239.41	-17.073
239.79	-10.000
240.16	21.951
240.53	-28.947
240.91	-10.870
241.28	-1.587
241.65	10.714
242.02	9.589
242.40	8.333
242.77	18.644
243.14	0.000
243.51	2.500
243.89	17.241
244.26	10.345
244.63	1.190
245.00	0.000
245.38	5.155
245.75	-13.483
246.12	-4.310
246.49	4.959
246.87	0.000
247.24	0.840
247.61	-7.895
247.98	-4.878
248.36	4.375
248.73	-1.316
249.10	0.649
249.47	-5.696
249.84	-3.922
250.22	-4.118
250.59	4.575
250.96	6.103
251.33	-1.163
251.70	-1.765
252.08	2.030
252.45	1.980
252.82	5.025
253.19	0.461
253.56	-2.336
253.94	1.802
254.31	1.304
254.68	3.509
255.05	3.937
255.42	0.873
255.79	4.633
256.16	1.556
256.54	4.104
256.91	1.901
257.28	0.000
257.65	-1.498
258.02	-1.064
258.39	3.030
258.76	2.198
259.14	1.661
259.51	1.618
259.88	3.780
260.25	2.288
260.62	2.778
260.99	0.000
261.36	-1.027
261.73	0.633
262.10	3.040
262.47	1.227
262.85	-0.313
263.22	1.538
263.59	5.296
263.96	4.348
264.33	0.303
264.70	1.488
265.07	-1.488
265.44	2.266
265.81	0.565
266.18	1.913
266.55	3.342
266.92	3.886
267.29	2.611
267.66	1.790
268.03	0.000
268.40	0.783
268.77	5.615
269.14	4.556
269.51	4.884
269.88	0.748
270.25	0.765
270.62	0.732
270.99	-2.046
271.36	0.733
271.73	3.521
272.10	2.190
272.47	2.364
272.84	1.980
273.21	3.480
273.58	0.964
273.95	2.975
274.32	1.617
274.69	0.000
275.06	2.009
275.43	0.680
275.80	2.649
276.17	-0.690
276.54	0.428
276.91	2.851
277.28	1.310
277.65	2.893
278.02	2.553
278.39	0.875
278.76	0.839
279.13	0.000
279.50	3.361
279.87	4.752
280.23	-1.290
280.60	2.924
280.97	3.232
281.34	1.346
281.71	2.875
282.08	1.636
282.45	1.174
282.82	0.000
283.19	1.934
283.56	3.661
283.92	0.759
284.29	0.962
284.66	1.550
285.03	2.750
285.40	2.836
285.77	1.230
286.14	1.986
286.51	2.952
286.87	1.645
287.24	0.368
287.61	0.000
287.98	2.632
288.35	1.560
288.72	3.503
289.08	0.868
289.45	2.812
289.82	2.622
290.19	-0.341
290.56	2.573
290.93	1.347
291.29	2.003
291.66	4.409
292.03	2.233
292.40	2.258
292.77	0.478
293.13	0.325
293.50	1.821
293.87	2.137
294.24	2.164
294.60	0.149
294.97	2.232
295.34	0.920
295.71	0.596
296.08	1.196
296.44	0.853
296.81	1.806
297.18	1.739
297.55	3.388
297.91	1.918
298.28	2.902
298.65	1.764
299.02	2.291
299.38	-1.094
299.75	1.241
300.12	1.047
300.48	0.132
300.85	1.774
301.22	2.208
301.59	-0.658
301.95	2.532
302.32	2.724
302.69	2.612
303.05	0.990
303.42	1.370
303.79	2.220
304.15	2.151
304.52	0.357
304.89	1.637
305.25	0.726
305.62	1.050
305.99	1.988
306.35	2.081
306.72	0.337
307.09	2.509
307.45	1.722
307.82	2.315
308.19	2.323
308.55	1.854
308.92	2.505
309.29	0.894
309.65	1.830
310.02	0.880
310.38	2.305
310.75	1.530
311.12	1.615
311.48	1.485
311.85	1.885
312.22	1.477
312.58	1.592
312.95	1.387
313.31	0.518
313.68	0.524
314.05	0.510
314.41	1.959
314.78	1.031
315.14	1.747
315.51	3.106
315.87	2.152
316.24	2.629
316.61	2.756
316.97	2.976
317.34	2.051
317.70	1.912
318.07	1.731
318.43	2.647
318.80	2.083
319.16	3.125
319.53	3.704
319.89	1.969
320.26	2.632
320.62	3.009
320.99	2.401
321.35	3.083
321.72	3.738
322.08	2.920
322.45	2.741
322.81	3.242
323.18	3.631
323.54	2.510
323.91	3.019
324.27	3.516
324.64	3.933
325.00	4.653
325.37	4.775
325.73	3.445
326.10	4.269
326.46	6.188
326.83	5.074
327.19	4.098
327.56	5.126
327.92	5.282
328.29	5.446
328.65	4.906
329.01	6.250
329.38	7.373
329.74	5.855
330.11	6.209
330.47	5.195
330.84	5.288
331.20	8.555
331.56	7.870
331.93	8.493
332.29	8.249
332.66	8.507
333.02	8.086
333.38	7.516
333.75	9.524
334.11	8.505
334.48	9.248
334.84	9.799
335.20	9.515
335.57	9.610
335.93	9.937
336.29	9.761
336.66	9.446
337.02	10.037
337.38	9.444
337.75	9.545
338.11	11.903
338.47	10.675
338.84	11.460
339.20	10.420
339.56	10.367
339.93	9.669
340.29	10.917
340.65	11.470
341.02	9.752
341.38	10.708
341.74	9.629
342.11	9.359
342.47	11.566
342.83	11.246
343.20	10.453
343.56	11.043
343.92	10.275
344.28	12.126
344.65	10.276
345.01	11.841
345.37	11.522
345.73	12.134
346.10	11.648
346.46	10.345
346.82	10.638
347.19	9.809
347.55	9.942
347.91	11.650
348.27	10.590
348.63	11.329
349.00	9.926
349.36	10.723
349.72	11.111
350.08	11.475
350.45	11.173
350.81	10.631
351.17	9.772
351.53	11.510
351.89	10.322
352.26	10.240
352.62	11.290
352.98	10.281
353.34	9.823
353.70	11.165
354.07	11.452
354.43	10.889
354.79	10.900
355.15	10.952
355.51	10.047
355.87	10.922
356.24	10.522
356.60	11.156
356.96	10.556
357.32	10.703
357.68	10.790
358.04	9.774
358.40	11.254
358.77	10.526
359.13	10.408
359.49	9.784
359.85	10.452
360.21	10.287
360.57	10.559
360.93	11.044
361.29	9.139
361.66	11.050
362.02	10.758
362.38	10.967
362.74	10.749
363.10	11.061
363.46	11.564
363.82	11.721
364.18	11.882
364.54	10.074
364.90	10.753
365.26	9.461
365.62	12.263
365.98	10.630
366.35	10.197
366.71	10.347
367.07	10.740
367.43	11.143
367.79	11.590
368.15	11.127
368.51	11.071
368.87	10.122
369.23	10.975
369.59	10.641
369.95	10.704
370.31	11.488
370.67	10.896
371.03	10.530
371.39	11.160
371.75	11.062
372.11	10.984
372.47	11.243
372.83	11.710
373.19	10.628
373.55	10.758
373.91	11.663
374.27	11.836
374.63	11.773
374.99	11.277
375.35	12.047
375.71	11.538
376.07	11.587
376.42	11.088
376.78	11.409
377.14	11.645
377.50	11.819
377.86	12.115
378.22	11.487
378.58	11.667
378.94	12.098
379.30	12.477
379.66	12.163
380.02	11.895
380.38	11.686
380.74	11.131
381.09	13.129
381.45	12.294
381.81	12.770
382.17	12.563
382.53	11.368
382.89	11.676
383.25	12.632
383.61	12.988
383.97	10.603
384.32	13.133
384.68	13.437
385.04	12.071
385.40	11.574
385.76	13.145
386.12	13.389
386.48	13.155
386.83	11.985
387.19	12.943
387.55	12.861
387.91	12.836
388.27	12.271
388.62	12.838
388.98	12.891
389.34	12.929
389.70	13.176
390.06	12.587
390.42	12.500
390.77	13.407
391.13	12.295
391.49	12.354
391.85	11.501
392.20	12.994
392.56	13.032
392.92	13.564
393.28	13.031
393.64	13.874
393.99	14.044
394.35	12.081
394.71	12.708
395.07	12.382
395.42	12.325
395.78	12.704
396.14	12.547
396.50	13.760
396.85	12.041
397.21	12.719
397.57	13.292
397.92	12.522
398.28	12.644
398.64	12.169
399.00	12.923
399.35	12.020
399.71	12.866
400.07	13.059
400.42	12.729
400.78	12.982
401.14	13.309
401.49	13.103
401.85	12.249
402.21	12.530
402.57	11.812
402.92	11.669
403.28	12.155
403.63	12.926
403.99	12.372
404.35	12.617
404.70	11.845
405.06	11.986
405.42	11.995
405.77	12.028
406.13	12.224
406.49	12.315
406.84	11.858
407.20	12.643
407.55	12.234
407.91	11.364
408.27	10.835
408.62	12.431
408.98	12.015
409.34	11.524
409.69	11.886
410.05	11.392
410.40	11.543
410.76	11.761
411.11	11.750
411.47	11.834
411.83	11.488
412.18	11.905
412.54	11.236
412.89	10.468
413.25	11.372
413.60	10.435
413.96	10.675
414.31	12.073
414.67	11.418
415.03	11.585
415.38	10.901
415.74	12.378
416.09	12.280
416.45	11.816
416.80	11.500
417.16	12.155
417.51	11.925
417.87	10.821
418.22	10.816
418.58	11.304
418.93	11.975
419.29	11.332
419.64	11.406
420.00	12.846
420.35	12.060
420.71	12.029
421.06	11.541
421.42	11.899
421.77	11.965
422.12	11.407
422.48	12.453
422.83	12.123
423.19	12.077
423.54	11.817
423.90	11.307
424.25	11.825
424.61	12.118
424.96	12.137
425.31	12.247
425.67	12.207
426.02	12.132
426.38	12.711
426.73	11.743
427.09	12.532
427.44	12.765
427.79	11.962
428.15	13.046
428.50	12.053
428.85	12.838
429.21	12.847
429.56	12.345
429.92	12.224
430.27	12.882
430.62	11.814
430.98	12.208
431.33	12.671
431.68	12.350
432.04	12.130
432.39	12.265
432.74	12.267
433.10	13.161
433.45	13.262
433.80	12.420
434.16	12.465
434.51	13.065
434.86	13.298
435.22	12.395
435.57	12.477
435.92	13.114
436.28	12.105
436.63	13.976
436.98	12.978
437.34	12.765
437.69	13.298
438.04	13.048
438.39	13.256
438.75	12.811
439.10	13.130
439.45	13.025
439.81	12.538
440.16	12.945
440.51	13.970
440.86	14.199
441.22	13.348
441.57	13.466
441.92	14.586
442.27	13.803
442.63	14.507
442.98	14.015
443.33	13.745
443.68	13.952
444.03	14.754
444.39	14.215
444.74	14.214
445.09	13.976
445.44	13.960
445.79	14.698
446.15	13.711
446.50	14.199
446.85	13.921
447.20	14.651
447.55	14.788
447.91	14.044
448.26	14.343
448.61	14.623
448.96	14.056
449.31	14.220
449.66	13.937
450.02	14.147
450.37	13.871
450.72	14.032
451.07	14.620
451.42	15.169
451.77	14.346
452.12	13.756
452.47	13.715
452.83	14.605
453.18	14.485
453.53	15.234
453.88	15.058
454.23	14.075
454.58	14.232
454.93	15.206
455.28	13.524
455.63	14.569
455.98	15.093
456.34	14.623
456.69	14.168
457.04	15.942
457.39	14.763
457.74	14.389
458.09	14.067
458.44	14.862
458.79	14.678
459.14	14.989
459.49	15.642
459.84	14.946
460.19	15.473
460.54	14.609
460.89	14.091
461.24	14.534
461.59	14.549
461.94	14.591
462.29	14.958
462.64	16.146
462.99	14.557
463.34	15.369
463.69	14.801
464.04	15.133
464.39	14.857
464.74	15.460
465.09	15.471
465.44	15.638
465.79	14.853
466.14	15.393
466.49	14.606
466.84	15.289
467.19	16.145
467.54	14.368
467.89	14.782
468.24	15.085
468.59	16.000
468.94	15.111
469.29	15.672
469.64	15.721
469.99	16.118
470.34	14.403
470.68	15.660
471.03	15.711
471.38	14.979
471.73	15.336
472.08	15.265
472.43	14.966
472.78	14.668
473.13	15.782
473.48	15.505
473.83	15.442
474.17	16.386
474.52	16.273
474.87	15.697
475.22	14.887
475.57	15.697
475.92	15.688
476.27	15.308
476.61	15.162
476.96	15.226
477.31	15.900
477.66	15.449
478.01	15.272
478.36	15.468
478.70	15.498
479.05	15.604
479.40	15.898
479.75	14.911
480.10	15.771
480.45	15.700
480.79	15.458
481.14	15.779
481.49	14.877
481.84	15.878
482.19	16.043
482.53	15.444
482.88	15.465
483.23	15.163
483.58	15.660
483.92	14.763
484.27	15.269
484.62	15.778
484.97	15.133
485.31	15.246
485.66	14.831
486.01	15.321
486.36	14.939
486.70	15.189
487.05	15.367
487.40	15.383
487.75	15.155
488.09	15.266
488.44	14.718
488.79	14.755
489.13	15.505
489.48	14.835
489.83	15.561
490.17	15.056
490.52	15.242
490.87	15.687
491.22	15.138
491.56	15.844
491.91	15.057
492.26	16.043
492.60	15.163
492.95	15.740
493.30	14.998
493.64	15.177
493.99	15.749
494.34	15.437
494.68	15.524
495.03	15.474
495.37	15.849
495.72	16.557
496.07	15.463
496.41	15.849
496.76	15.891
497.11	15.557
497.45	15.990
497.80	16.347
498.14	15.698
498.49	16.506
498.84	15.818
499.18	15.763
499.53	15.575
499.87	15.613
500.22	15.678
500.56	15.633
500.91	15.110
501.26	15.868
501.60	16.429
501.95	15.866
502.29	15.157
502.64	15.154
502.98	15.738
503.33	14.793
503.67	15.614
504.02	15.396
504.36	16.329
504.71	15.505
505.06	16.155
505.40	16.294
505.75	16.289
506.09	15.661
506.44	15.657
506.78	16.276
507.13	16.184
507.47	15.822
507.82	15.331
508.16	14.527
508.51	16.212
508.85	16.117
509.19	14.795
509.54	15.764
509.88	15.426
510.23	15.654
510.57	16.034
510.92	15.032
511.26	15.330
511.61	15.677
511.95	15.836
512.30	15.909
512.64	15.748
512.98	15.048
513.33	15.109
513.67	16.089
514.02	16.362
514.36	16.400
514.70	16.259
515.05	15.922
515.39	16.293
515.74	16.168
516.08	15.720
516.42	15.430
516.77	16.033
517.11	15.668
517.46	15.440
517.80	16.508
518.14	15.554
518.49	16.106
518.83	16.464
519.17	15.161
519.52	15.216
519.86	15.426
520.20	16.464
520.55	15.134
520.89	15.935
521.23	15.706
521.58	16.782
521.92	16.154
522.26	15.745
522.61	15.455
522.95	15.629
523.29	16.137
523.64	15.820
523.98	15.230
524.32	15.722
524.66	17.222
525.01	16.364
525.35	16.202
525.69	14.747
526.04	15.146
526.38	17.185
526.72	15.370
527.06	16.148
527.41	16.623
527.75	16.153
528.09	15.615
528.43	16.948
528.78	15.776
529.12	15.290
529.46	15.789
529.80	15.833
530.15	17.030
530.49	16.094
530.83	15.937
531.17	15.917
531.51	16.279
531.86	15.704
532.20	16.006
532.54	16.882
532.88	16.701
533.22	15.726
533.57	15.727
533.91	15.144
534.25	16.406
534.59	15.330
534.93	15.670
535.27	15.228
535.62	15.878
535.96	16.504
536.30	16.755
536.64	16.334
536.98	15.889
537.32	15.861
537.66	16.620
538.01	17.273
538.35	15.187
538.69	16.445
539.03	14.833
539.37	15.814
539.71	15.474
540.05	15.682
540.39	16.759
540.73	14.923
541.07	15.815
541.42	17.003
541.76	16.242
542.10	15.898
542.44	16.400
542.78	14.659
543.12	14.766
543.46	16.898
543.80	16.447
544.14	14.953
544.48	15.590
544.82	15.858
545.16	15.915
545.50	17.690
545.84	16.431
546.18	16.879
546.52	16.078
546.86	15.672
547.20	15.665
547.54	14.770
547.88	16.101
548.22	15.516
548.56	15.633
548.90	16.173
549.24	15.565
549.58	15.515
549.92	15.797
550.26	16.117
550.60	15.688
550.94	15.385
551.28	15.842
551.62	16.615
551.96	16.541
552.30	16.813
552.64	16.008
552.98	16.034
553.32	16.262
553.66	16.401
554.00	15.474
554.34	15.436
554.68	15.118
555.02	16.369
555.36	15.333
555.69	15.385
556.03	16.488
556.37	14.520
556.71	16.895
557.05	15.884
557.39	15.167
557.73	15.067
558.07	16.591
558.41	15.697
558.75	16.290
559.08	16.076
559.42	15.397
559.76	15.693
560.10	16.208
560.44	15.934
560.78	15.944
561.12	16.784
561.45	16.233
561.79	15.196
562.13	15.188
562.47	15.540
562.81	14.697
563.15	16.432
563.48	15.276
563.82	16.060
564.16	15.390
564.50	15.811
564.84	15.863
565.17	15.828
565.51	15.847
565.85	15.432
566.19	15.849
566.52	16.220
566.86	15.360
567.20	15.068
567.54	15.572
567.88	15.934
568.21	14.932
568.55	15.380
568.89	15.862
569.23	15.648
569.56	15.105
569.90	15.997
570.24	14.849
570.57	14.945
570.91	15.336
571.25	14.370
571.59	14.699
571.92	14.726
572.26	15.036
572.60	14.946
572.93	14.591
573.27	14.107
573.61	14.678
573.95	14.691
574.28	14.619
574.62	14.416
574.96	14.286
575.29	14.462
575.63	14.019
575.97	14.448
576.30	13.972
576.64	14.358
576.98	14.775
577.31	14.574
577.65	14.725
577.98	14.413
578.32	14.056
578.66	14.335
578.99	14.343
579.33	14.414
579.67	14.282
580.00	14.203
580.34	14.005
580.67	14.045
581.01	14.193
581.35	14.298
581.68	14.387
582.02	14.076
582.35	14.150
582.69	14.589
583.02	13.929
583.36	14.053
583.70	14.512
584.03	14.456
584.37	14.653
584.70	14.341
585.04	13.886
585.37	14.447
585.71	14.021
586.04	14.523
586.38	14.057
586.72	14.376
587.05	14.760
587.39	14.481
587.72	14.653
588.06	14.309
588.39	14.269
588.73	14.683
589.06	14.873
589.40	14.345
589.73	14.932
590.07	15.144
590.40	14.590
590.73	15.033
591.07	14.461
591.40	15.004
591.74	15.158
592.07	15.306
592.41	15.194
592.74	14.217
593.08	14.076
593.41	14.333
593.75	14.099
594.08	14.315
594.41	14.156
594.75	14.580
595.08	14.832
595.42	14.869
595.75	14.608
596.09	14.464
596.42	14.717
596.75	14.520
597.09	14.579
597.42	14.995
597.75	14.613
598.09	14.713
598.42	14.350
598.76	14.672
599.09	14.183
599.42	14.399
599.76	14.221
600.09	14.065
600.42	14.329
600.76	13.893
601.09	14.351
601.42	14.101
601.76	14.331
602.09	14.645
602.42	14.954
602.76	14.474
603.09	14.659
603.42	15.217
603.76	14.315
604.09	14.338
604.42	14.636
604.76	14.731
605.09	14.580
605.42	14.582
605.75	14.142
606.09	14.013
606.42	14.679
606.75	14.545
607.09	14.286
607.42	13.779
607.75	13.632
608.08	14.016
608.42	14.664
608.75	14.217
609.08	14.599
609.41	13.858
609.75	14.113
610.08	14.878
610.41	14.831
610.74	14.188
611.07	15.349
611.41	14.219
611.74	14.979
612.07	13.972
612.40	14.004
612.73	14.237
613.07	14.342
613.40	14.989
613.73	13.710
614.06	14.524
614.39	15.172
614.72	14.174
615.06	14.358
615.39	14.683
615.72	13.563
616.05	14.469
616.38	13.846
616.71	14.740
617.05	14.515
617.38	14.959
617.71	14.780
618.04	14.730
618.37	15.069
618.70	14.521
619.03	15.903
619.36	12.952
619.69	15.770
620.03	14.974
620.36	14.664
620.69	14.847
621.02	16.284
621.35	14.938
621.68	14.881
622.01	15.500
622.34	14.924
622.67	14.669
623.00	14.012
623.33	14.177
623.66	14.734
623.99	14.448
624.32	14.981
624.65	13.534
624.99	14.597
625.32	14.860
625.65	15.318
625.98	15.149
626.31	14.214
626.64	14.818
626.97	15.183
627.30	15.236
627.63	14.731
627.96	14.555
628.29	14.709
628.62	16.028
628.95	15.531
629.28	14.617
629.61	14.058
629.94	15.836
630.26	14.427
630.59	15.193
630.92	14.974
631.25	14.256
631.58	14.978
631.91	14.035
632.24	14.908
632.57	16.250
632.90	13.642
633.23	15.882
633.56	15.869
633.89	15.166
634.22	15.926
634.55	15.248
634.88	14.049
635.20	13.333
635.53	16.667
635.86	14.694
636.19	16.559
636.52	14.796
636.85	15.385
637.18	13.459
637.51	14.591
637.83	15.506
638.16	15.553
638.49	14.033
638.82	15.395
639.15	15.739
639.48	14.305
639.81	15.900
640.13	13.564
640.46	15.889
640.79	14.138
641.12	14.771
641.45	12.763
641.77	16.296
642.10	16.904
642.43	16.881
642.76	15.512
643.09	17.447
643.41	15.049
643.74	14.168
644.07	14.614
644.40	16.216
644.73	17.163
645.05	15.772
645.38	15.697
645.71	12.589
646.04	15.619
646.36	18.262
646.69	16.547
647.02	14.556
647.35	17.724
647.67	14.625
648.00	17.351
648.33	14.334
648.66	15.424
648.98	12.563
649.31	13.554
649.64	11.931
649.96	15.559
650.29	15.503
650.62	15.556
650.94	14.074
651.27	13.594
651.60	15.856
651.92	17.483
652.25	12.611
652.58	15.500
652.90	16.981
653.23	15.630
653.56	16.074
653.88	14.261
654.21	12.434
654.54	13.922
654.86	16.469
655.19	14.912
655.52	15.015
655.84	12.902
656.17	13.881
656.49	18.759
656.82	19.506
657.15	14.842
657.47	11.132
657.80	8.137
658.13	7.943
658.45	12.652
658.78	12.285
659.10	12.037
659.43	12.297
659.75	12.630
660.08	12.552
660.41	14.198
660.73	13.950
661.06	14.905
661.38	14.286
661.71	13.963
662.03	15.236
662.36	14.505
662.68	15.265
663.01	17.249
663.33	11.833
663.66	13.721
663.98	11.860
664.31	15.352
664.63	12.442
664.96	13.696
665.28	13.245
665.61	16.450
665.93	13.043
666.26	15.618
666.58	13.199
666.91	13.882
667.23	16.274
667.56	15.403
667.88	15.827
668.21	15.274
668.53	15.130
668.86	17.453
669.18	13.443
669.50	13.559
669.83	13.488
670.15	14.685
670.48	15.550
670.80	16.590
671.13	13.870
671.45	13.242
671.77	13.519
672.10	12.475
672.42	13.858
672.75	15.631
673.07	15.742
673.39	14.128
673.72	11.834
674.04	13.542
674.37	16.102
674.69	11.777
675.01	17.111
675.34	13.514
675.66	13.194
675.98	16.630
676.31	13.303
676.63	12.589
676.95	12.727
677.28	16.941
677.60	15.904
677.92	12.844
678.25	15.536
678.57	11.688
678.89	13.025
679.22	14.989
679.54	14.056
679.86	12.922
680.18	15.340
680.51	13.068
680.83	12.525
681.15	13.600
681.48	16.189
681.80	15.083
682.12	15.726
682.44	13.389
682.77	15.011
683.09	14.188
683.41	13.182
683.73	15.899
684.06	12.832
684.38	10.323
684.70	11.765
685.02	12.863
685.34	13.043
685.67	13.133
685.99	12.839
686.31	13.628
686.63	13.915
686.96	11.027
687.28	11.919
687.60	11.977
687.92	14.141
688.24	14.919
688.56	14.192
688.89	12.277
689.21	15.778
689.53	12.993
689.85	15.814
690.17	15.625
690.49	12.530
690.82	15.049
691.14	10.000
691.46	10.748
691.78	13.739
692.10	14.409
692.42	10.606
692.74	13.462
693.06	13.739
693.39	8.371
693.71	11.538
694.03	12.009
694.35	13.785
694.67	12.121
694.99	12.010
695.31	15.405
695.63	14.250
695.95	11.364
696.27	11.658
696.59	14.444
696.91	12.045
697.23	12.853
697.56	15.099
697.88	13.978
698.20	12.984
698.52	12.706
698.84	13.636
699.16	12.000
699.48	12.531
699.80	13.896
700.12	13.208
700.44	14.286
700.76	11.047
701.08	10.303
701.40	12.952
701.72	15.432
702.04	10.231
702.36	12.375
702.68	11.411
703.00	14.545
703.32	12.903
703.64	10.452
703.96	11.884
704.28	10.736
704.60	13.016
704.91	10.095
705.23	12.292
705.55	15.901
705.87	12.635
706.19	11.481
706.51	13.746
706.83	16.077
707.15	10.592
707.47	12.605
707.79	11.979
708.11	14.750
708.43	15.250
708.74	13.178
709.06	13.803
709.38	14.067
709.70	12.130
710.02	14.013
710.34	15.170
710.66	12.179
710.98	9.934
711.29	12.459
711.61	11.864
711.93	15.635
712.25	16.151
712.57	9.524
712.89	11.194
713.20	16.263
713.52	12.195
713.84	12.287
714.16	13.402
714.48	10.645
714.80	13.462
715.11	15.198
715.43	12.853
715.75	11.667
716.07	11.628
716.39	14.094
716.70	7.380
717.02	8.015
717.34	9.312
717.66	4.867
717.97	12.609
718.29	13.389
718.61	11.024
718.93	12.016
719.24	12.548
719.56	11.647
719.88	13.746
720.20	10.227
720.51	7.280
720.83	10.039
721.15	11.765
721.46	10.887
721.78	8.696
722.10	11.896
722.42	7.469
722.73	12.653
723.05	12.245
723.37	19.492
723.68	14.865
724.00	9.829
724.32	5.778
724.63	13.636
724.95	13.100
725.27	9.677
725.58	14.407
725.90	12.302
726.22	14.672
726.53	14.237
726.85	13.109
727.16	13.585
727.48	8.907
727.80	14.170
728.11	8.475
728.43	11.765
728.74	8.468
729.06	13.200
729.38	16.917
729.69	11.155
730.01	10.769
730.32	17.537
730.64	16.608
730.96	9.057
731.27	13.667
731.59	14.915
731.90	11.465
732.22	11.987
732.53	14.286
732.85	13.121
733.16	16.162
733.48	8.273
733.80	12.319
734.11	10.508
734.43	8.247
734.74	13.030
735.06	10.423
735.37	12.085
735.69	10.774
736.00	10.453
736.32	10.403
736.63	12.676
736.95	12.628
737.26	11.388
737.58	10.403
737.89	8.791
738.21	10.150
738.52	16.461
738.83	10.044
739.15	10.044
739.46	11.811
739.78	8.425
740.09	11.438
740.41	9.420
740.72	11.811
741.04	11.741
741.35	11.489
741.66	8.531
741.98	4.082
742.29	10.396
742.61	19.895
742.92	8.531
743.23	7.407
743.55	16.290
743.86	10.526
744.18	9.091
744.49	9.043
744.80	11.413
745.12	17.112
745.43	7.317
745.74	14.062
746.06	16.098
746.37	8.901
746.68	11.374
747.00	9.574
747.31	11.443
747.62	5.825
747.94	10.048
748.25	8.416
748.56	8.743
748.88	11.518
749.19	12.766
749.50	6.897
749.82	5.189
750.13	10.550
750.44	13.910
750.75	13.433
751.07	13.504
751.38	9.962
751.69	8.627
752.01	8.915
752.32	15.139
752.63	8.696
752.94	10.345
753.26	14.226
753.57	7.692
753.88	11.947
754.19	12.917
754.51	6.198
754.82	5.668
755.13	15.417
755.44	12.903
755.75	8.203
756.07	10.895
756.38	9.434
756.69	4.981
757.00	14.000
757.31	11.111
757.63	4.878
757.94	9.444
758.25	10.959
758.56	8.511
758.87	8.782
759.18	9.969
759.50	9.091
759.81	10.702
760.12	12.258
760.43	7.576
760.74	12.346
761.05	11.692
761.36	7.955
761.67	10.909
761.99	10.544
762.30	7.636
762.61	11.462
762.92	8.597
763.23	9.009
763.54	10.280
763.85	13.559
764.16	10.788
764.47	9.677
764.78	9.524
765.10	13.131
765.41	11.041
765.72	9.524
766.03	8.647
766.34	8.759
766.65	11.554
766.96	12.121
767.27	6.383
767.58	9.195
767.89	0.709
768.20	8.523
768.51	10.440
768.82	12.808
769.13	5.991
769.44	9.013
769.75	7.763
770.06	13.362
770.37	10.096
770.68	14.721
770.99	7.692
771.30	13.235
771.61	8.145
771.92	9.483
772.23	11.823
772.54	12.903
772.85	9.877
773.16	10.112
773.47	16.993
773.78	7.190
774.09	11.976
774.39	12.667
774.70	8.917
775.01	18.621
775.32	10.714
775.63	1.653
775.94	5.344
776.25	10.236
776.56	8.333
776.87	12.500
777.18	0.855
777.48	13.793
777.79	10.435
778.10	12.381
778.41	11.712
778.72	12.698
779.03	9.774
779.34	13.475
779.65	17.123
779.95	11.644
780.26	14.483
780.57	-1.626
780.88	12.598
781.19	8.621
781.50	6.202
781.80	14.793
782.11	0.629
782.42	13.077
782.73	5.036
783.04	11.852
783.34	8.333
783.65	-5.983
783.96	4.918
784.27	15.862
784.57	-0.813
784.88	1.563
785.19	14.000
785.50	14.000
785.81	8.621
786.11	7.759
786.42	3.883
786.73	20.909
787.04	2.041
787.34	6.250
787.65	7.619
787.96	4.425
788.26	10.909
788.57	2.564
788.88	9.375
789.19	10.317
789.49	5.217
789.80	11.224
790.11	3.030
790.41	1.818
790.72	10.870
791.03	20.455
791.33	6.250
791.64	7.500
791.95	10.465
792.25	3.191
792.56	14.607
792.87	5.479
793.17	11.594
793.48	6.667
793.79	2.500
794.09	3.750
794.40	10.377
794.70	1.942
795.01	2.439
795.32	7.692
795.62	7.619
795.93	12.745
796.23	16.981
796.54	14.583
796.85	10.294
797.15	11.268
797.46	18.056
797.76	22.727
798.07	10.465
798.37	5.263
798.68	1.515
798.99	9.877
799.29	18.571
799.60	24.638
799.90	22.667
800.21	0.000
800.51	3.077
800.82	18.644
801.12	15.942
801.43	8.197
801.73	7.937
802.04	0.000
802.34	2.985
802.65	28.846
802.95	-10.714
803.26	-3.846
803.56	11.765
803.87	-2.174
804.17	22.667
804.48	20.635
804.78	16.667
805.09	6.522
805.39	4.444
805.70	0.000
806.00	-1.754
806.30	22.535
806.61	11.429
806.91	-5.556
807.22	25.000
807.52	20.000
807.83	-10.909
808.13	16.667
808.43	8.824
808.74	2.985
809.04	-5.085
809.35	11.538
809.65	-6.250
809.95	-51.351
810.26	-2.273
810.56	5.479
810.86	-23.810
811.17	8.000
811.47	8.163
811.77	-18.421
812.08	2.273
812.38	16.981
812.69	-2.500
812.99	-27.273
813.29	-7.895
813.59	-31.429
813.90	4.545
814.20	-30.769
814.50	26.923
814.81	26.415
815.11	-2.128
815.41	-5.085
815.72	0.000
816.02	31.373
816.32	4.167
816.62	-9.756
816.93	-27.027
817.23	0.000
817.53	6.250
817.84	-2.174
818.14	17.308
818.44	-31.579
818.74	8.696
819.04	-12.500
819.35	21.622
819.65	-20.588
819.95	-27.778
820.25	7.143
820.56	22.500
820.86	-41.379
821.16	25.000
821.46	29.787
821.76	17.500
822.07	6.977
822.37	5.405
822.67	-12.500
822.97	40.476
823.27	21.429
823.57	-12.000
823.88	-44.444
824.18	-3.571
824.48	-11.765
824.78	-12.903
825.08	-26.087
825.38	18.182
825.69	-16.667
825.99	10.526
826.29	-11.111
826.59	-46.667
826.89	-66.667
827.19	2.174
827.49	5.000
827.79	-2.857
828.09	3.571
828.39	15.152
828.70	18.919
829.00	0.000
829.30	-9.524
829.60	-3.333
829.90	9.375
830.20	2.632
830.50	-29.630
830.80	-47.826
831.10	-13.636
831.40	6.061
831.70	19.355
832.00	-14.286
832.30	-52.381
832.60	-83.333
832.90	-13.793
833.20	-40.000
833.50	3.030
833.80	-25.926
834.10	15.385
834.40	12.500
834.70	-22.222
835.00	0.000
835.30	15.385
835.60	20.000
835.90	16.129
836.20	-18.182
836.50	3.571
836.80	-26.923
837.10	-3.571
837.40	-166.667
837.70	18.182
838.00	-9.091
838.30	-13.043
838.60	0.000
838.90	0.000
839.19	35.714
839.49	16.667
839.79	61.538
840.09	-133.333
840.39	28.571
840.69	-32.143
840.99	3.846
841.29	-10.526
841.59	-90.000
841.88	-72.727
842.18	-50.000
842.48	43.750
842.78	-26.667
843.08	-37.037
843.38	-140.000
843.68	4.348
843.97	-13.333
844.27	-40.000
844.57	0.000
844.87	-11.111
845.17	-33.333
845.47	26.667
845.76	-14.286
846.06	35.294
846.36	-20.000
846.66	28.571
846.96	-46.667
847.25	-100.000
847.55	7.143
847.85	-12.500
848.15	22.727
848.44	-500.000
848.74	-35.000
849.04	14.815
849.34	9.091
849.63	-266.667
849.93	-240.000
850.23	-16.667
850.53	40.000
850.82	-69.231
851.12	-11.111
851.42	-26.667
851.71	-19.231
852.01	-28.571
852.31	-275.000
852.61	-36.364
852.90	-20.000
853.20	-5.263
853.50	33.333
853.79	17.391
854.09	33.333
854.39	-10.526
854.68	16.667
854.98	-3.226
855.28	-26.923
855.57	-35.000
855.87	27.778
856.17	11.111
856.46	-14.286
856.76	20.000
857.05	11.111
857.35	24.000
857.65	0.000
857.94	-61.538
858.24	68.966
858.53	33.333
858.83	22.222
859.13	9.091
859.42	-4.348
859.72	75.000
860.01	-300.000
860.31	44.000
860.60	9.524
860.90	0.000
861.20	13.333
861.49	-400.000
861.79	33.333
862.08	-20.000
862.38	100.000
862.67	-220.000
862.97	50.000
863.26	-16.667
863.56	-5.556
863.85	-666.667
864.15	50.000
864.44	-10.000
864.74	42.857
865.03	200.000
865.33	-60.000
865.62	-16.667
865.92	16.667
866.21	-166.667
866.51	-25.000
866.80	-109.091
867.10	-200.000
867.39	50.000
867.69	0.000
867.98	-53.846
868.27	-533.333
868.57	86.667
868.86	11.111
869.16	-46.154
869.45	86.667
869.75	-1400.000
870.04	0.000
870.33	-214.286
870.63	14.286
870.92	400.000
871.22	0.000
871.51	-900.000
871.80	111.111
872.10	600.000
>>>>>End Processed Spectral Data<<<<<
