SpectraSuite Data File
++++++++++++++++++++++++++++++++++++
Date: Fri May 15 20:17:12 PDT 2015
User: schluterlab
Dark Spectrum Present: Yes
Reference Spectrum Present: Yes
Number of Sampled Component Spectra: 1
Spectrometers: USB2E3373
Integration Time (usec): 3000 (USB2E3373)
Spectra Averaged: 3 (USB2E3373)
Boxcar Smoothing: 0 (USB2E3373)
Correct for Electrical Dark: No (USB2E3373)
Strobe/Lamp Enabled: No (USB2E3373)
Correct for Detector Non-linearity: No (USB2E3373)
Correct for Stray Light: No (USB2E3373)
Number of Pixels in Processed Spectrum: 2048
>>>>>Begin Processed Spectral Data<<<<<
178.53	0.000
178.91	0.000
179.29	75.000
179.67	-250.000
180.04	-114.286
180.42	50.000
180.80	200.000
181.18	166.667
181.56	500.000
181.94	150.000
182.31	700.000
182.69	-80.000
183.07	33.333
183.45	-200.000
183.83	33.333
184.20	9.091
184.58	188.889
184.96	75.000
185.34	-0.000
185.72	-200.000
186.09	61.538
186.47	-100.000
186.85	83.333
187.23	100.000
187.61	400.000
187.98	-366.667
188.36	-22.222
188.74	233.333
189.12	47.059
189.49	38.889
189.87	0.000
190.25	64.286
190.63	200.000
191.00	-233.333
191.38	21.053
191.76	250.000
192.14	275.000
192.51	0.000
192.89	44.444
193.27	-57.143
193.65	216.667
194.02	72.727
194.40	30.000
194.78	-175.000
195.15	16.667
195.53	-112.500
195.91	400.000
196.29	0.000
196.66	161.538
197.04	100.000
197.42	-44.444
197.79	-566.667
198.17	-115.385
198.55	1100.000
198.92	-200.000
199.30	300.000
199.68	-80.000
200.05	-133.333
200.43	0.000
200.81	-133.333
201.18	-133.333
201.56	900.000
201.94	500.000
202.31	66.667
202.69	-120.000
203.07	250.000
203.44	1000.000
203.82	0.000
204.19	42.857
204.57	-500.000
204.95	187.500
205.32	90.000
205.70	71.429
206.08	-100.000
206.45	155.556
206.83	28.571
207.20	-285.714
207.58	100.000
207.96	-166.667
208.33	-50.000
208.71	-200.000
209.08	-300.000
209.46	200.000
209.84	40.000
210.21	-1200.000
210.59	71.429
210.96	83.333
211.34	0.000
211.71	60.000
212.09	42.857
212.46	-1300.000
212.84	0.000
213.22	130.000
213.59	650.000
213.97	100.000
214.34	18.182
214.72	-216.667
215.09	275.000
215.47	46.154
215.84	-54.545
216.22	-200.000
216.59	-87.500
216.97	100.000
217.34	0.000
217.72	-180.000
218.09	125.000
218.47	212.500
218.84	-200.000
219.22	66.667
219.59	-60.000
219.97	200.000
220.34	300.000
220.72	100.000
221.09	-150.000
221.47	-150.000
221.84	-450.000
222.22	-200.000
222.59	36.364
222.97	-41.667
223.34	-366.667
223.72	14.286
224.09	-23.810
224.46	32.143
224.84	133.333
225.21	-110.000
225.59	20.000
225.96	-250.000
226.34	400.000
226.71	-28.571
227.08	-50.000
227.46	-12.500
227.83	-500.000
228.21	111.111
228.58	-9.091
228.95	-62.500
229.33	50.000
229.70	6.250
230.08	-75.000
230.45	-157.143
230.82	-14.286
231.20	6.667
231.57	78.571
231.95	-42.857
232.32	-90.000
232.69	28.571
233.07	133.333
233.44	-80.000
233.81	-50.000
234.19	0.000
234.56	-41.176
234.93	350.000
235.31	-175.000
235.68	-180.000
236.05	-61.538
236.43	-75.000
236.80	-47.059
237.17	15.625
237.55	15.000
237.92	-33.333
238.29	13.889
238.67	-3.333
239.04	17.647
239.41	-7.317
239.79	-26.667
240.16	26.829
240.53	-13.158
240.91	-8.696
241.28	1.587
241.65	-1.786
242.02	5.479
242.40	-1.667
242.77	-20.339
243.14	-21.212
243.51	-2.500
243.89	6.897
244.26	6.897
244.63	7.143
245.00	-8.247
245.38	1.031
245.75	-3.371
246.12	-6.897
246.49	1.653
246.87	0.000
247.24	-1.681
247.61	-8.772
247.98	-3.252
248.36	-1.875
248.73	1.974
249.10	1.299
249.47	6.329
249.84	5.229
250.22	1.176
250.59	-5.882
250.96	4.225
251.33	-6.977
251.70	-4.706
252.08	-5.076
252.45	0.990
252.82	-6.030
253.19	4.608
253.56	-7.009
253.94	-1.351
254.31	2.609
254.68	4.825
255.05	6.693
255.42	0.873
255.79	-0.772
256.16	0.000
256.54	1.866
256.91	2.662
257.28	-0.372
257.65	-1.498
258.02	-1.773
258.39	3.030
258.76	-0.366
259.14	1.329
259.51	0.000
259.88	-2.062
260.25	-2.614
260.62	2.778
260.99	-1.017
261.36	1.027
261.73	0.949
262.10	1.520
262.47	-1.227
262.85	-1.567
263.22	0.000
263.59	2.181
263.96	-1.242
264.33	1.212
264.70	-0.893
265.07	1.190
265.44	0.850
265.81	2.260
266.18	1.366
266.55	3.599
266.92	-0.259
267.29	0.783
267.66	-1.023
268.03	1.832
268.40	0.261
268.77	0.535
269.14	0.959
269.51	-0.257
269.88	-1.496
270.25	-1.020
270.62	-1.707
270.99	-1.535
271.36	-1.222
271.73	2.582
272.10	-0.730
272.47	0.946
272.84	0.495
273.21	3.016
273.58	-0.482
273.95	2.059
274.32	-0.231
274.69	-0.226
275.06	0.446
275.43	0.000
275.80	1.325
276.17	0.690
276.54	2.141
276.91	-0.877
277.28	-0.655
277.65	4.339
278.02	-0.426
278.39	-0.219
278.76	2.096
279.13	-3.112
279.50	1.891
279.87	2.160
280.23	0.645
280.60	0.780
280.97	0.808
281.34	-0.385
281.71	0.411
282.08	-1.840
282.45	0.196
282.82	0.579
283.19	0.774
283.56	0.578
283.92	0.000
284.29	0.192
284.66	-1.163
285.03	-0.786
285.40	0.189
285.77	-0.527
286.14	0.181
286.51	1.661
286.87	1.280
287.24	-0.737
287.61	0.882
287.98	3.158
288.35	0.173
288.72	3.503
289.08	0.868
289.45	2.109
289.82	0.699
290.19	-0.171
290.56	0.172
290.93	-1.010
291.29	0.924
291.66	2.520
292.03	0.000
292.40	0.645
292.77	0.797
293.13	-0.974
293.50	-1.669
293.87	0.305
294.24	0.927
294.60	-0.298
294.97	1.190
295.34	0.920
295.71	1.490
296.08	-0.598
296.44	-0.853
296.81	0.278
297.18	-0.145
297.55	2.304
297.91	0.822
298.28	3.298
298.65	0.000
299.02	-0.135
299.38	-1.778
299.75	0.966
300.12	0.524
300.48	-0.264
300.85	1.267
301.22	-0.519
301.59	0.395
301.95	2.405
302.32	2.335
302.69	1.244
303.05	1.361
303.42	0.249
303.79	2.336
304.15	1.912
304.52	-0.238
304.89	0.819
305.25	1.453
305.62	-0.233
305.99	-0.585
306.35	-0.462
306.72	-1.237
307.09	1.140
307.45	1.607
307.82	0.463
308.19	0.581
308.55	1.309
308.92	2.288
309.29	1.341
309.65	0.753
310.02	0.550
310.38	1.756
310.75	1.749
311.12	0.861
311.48	1.166
311.85	2.408
312.22	1.477
312.58	2.442
312.95	2.028
313.31	1.967
313.68	2.408
314.05	3.469
314.41	2.577
314.78	4.433
315.14	4.728
315.51	4.865
315.87	4.816
316.24	5.966
316.61	5.709
316.97	7.143
317.34	6.152
317.70	6.119
318.07	6.635
318.43	7.941
318.80	7.955
319.16	8.691
319.53	9.782
319.89	8.071
320.26	10.121
320.62	11.836
320.99	11.587
321.35	12.539
321.72	13.811
322.08	14.602
322.45	14.721
322.81	15.226
323.18	16.683
323.54	17.085
323.91	19.377
324.27	20.898
324.64	22.004
325.00	24.453
325.37	25.344
325.73	24.751
326.10	27.975
326.46	29.238
326.83	30.884
327.19	32.258
327.56	33.449
327.92	35.739
328.29	36.875
328.65	37.925
329.01	39.338
329.38	38.894
329.74	41.643
330.11	44.208
330.47	43.970
330.84	44.038
331.20	48.384
331.56	48.611
331.93	50.046
332.29	50.962
332.66	48.597
333.02	51.208
333.38	51.696
333.75	52.473
334.11	51.925
334.48	56.482
334.84	54.029
335.20	57.182
335.57	53.037
335.93	56.369
336.29	57.919
336.66	57.221
337.02	58.736
337.38	57.593
337.75	60.818
338.11	59.062
338.47	59.763
338.84	61.183
339.20	59.689
339.56	60.275
339.93	61.146
340.29	60.917
340.65	60.753
341.02	60.018
341.38	61.239
341.74	60.424
342.11	62.045
342.47	61.744
342.83	62.889
343.20	62.195
343.56	64.000
343.92	63.330
344.28	63.365
344.65	63.817
345.01	64.304
345.37	62.658
345.73	63.515
346.10	65.574
346.46	64.760
346.82	63.502
347.19	63.009
347.55	66.165
347.91	64.159
348.27	63.703
348.63	65.843
349.00	64.561
349.36	65.337
349.72	66.667
350.08	65.246
350.45	64.006
350.81	67.608
351.17	66.694
351.53	67.265
351.89	64.822
352.26	66.000
352.62	67.339
352.98	65.783
353.34	64.573
353.70	65.453
354.07	65.726
354.43	66.853
354.79	68.538
355.15	68.175
355.51	68.987
355.87	66.505
356.24	65.742
356.60	66.047
356.96	67.381
357.32	67.332
357.68	67.318
358.04	68.255
358.40	67.846
358.77	68.979
359.13	69.816
359.49	66.641
359.85	68.643
360.21	69.298
360.57	68.401
360.93	68.003
361.29	67.221
361.66	69.749
362.02	70.455
362.38	70.906
362.74	70.477
363.10	70.429
363.46	69.904
363.82	70.924
364.18	69.594
364.54	68.897
364.90	69.821
365.26	69.432
365.62	70.657
365.98	69.721
366.35	71.668
366.71	72.358
367.07	71.480
367.43	70.884
367.79	71.378
368.15	72.075
368.51	72.688
368.87	71.070
369.23	70.325
369.59	72.595
369.95	73.827
370.31	72.038
370.67	72.537
371.03	71.994
371.39	71.335
371.75	72.747
372.11	71.469
372.47	72.559
372.83	74.095
373.19	71.826
373.55	72.852
373.91	72.138
374.27	74.628
374.63	73.367
374.99	72.553
375.35	73.189
375.71	74.336
376.07	74.789
376.42	74.150
376.78	74.094
377.14	73.934
377.50	74.701
377.86	74.766
378.22	73.197
378.58	74.872
378.94	75.236
379.30	73.362
379.66	73.918
380.02	74.004
380.38	74.620
380.74	74.925
381.09	76.012
381.45	75.352
381.81	75.139
382.17	74.048
382.53	74.079
382.89	78.343
383.25	75.420
383.61	76.159
383.97	75.365
384.32	74.672
384.68	74.365
385.04	73.591
385.40	74.362
385.76	76.792
386.12	76.261
386.48	76.437
386.83	75.967
387.19	77.350
387.55	77.604
387.91	75.428
388.27	74.664
388.62	77.344
388.98	75.261
389.34	75.078
389.70	76.507
390.06	73.883
390.42	75.453
390.77	75.540
391.13	74.779
391.49	76.261
391.85	76.673
392.20	74.011
392.56	76.478
392.92	75.044
393.28	75.354
393.64	75.375
393.99	77.241
394.35	76.471
394.71	76.692
395.07	74.544
395.42	73.831
395.78	74.463
396.14	74.464
396.50	75.967
396.85	75.402
397.21	74.624
397.57	75.298
397.92	73.397
398.28	75.632
398.64	73.735
399.00	74.097
399.35	73.307
399.71	72.717
400.07	73.700
400.42	72.889
400.78	73.791
401.14	73.019
401.49	73.317
401.85	72.882
402.21	72.771
402.57	72.625
402.92	72.020
403.28	72.306
403.63	73.203
403.99	72.959
404.35	72.705
404.70	70.536
405.06	71.093
405.42	71.908
405.77	71.238
406.13	71.828
406.49	70.515
406.84	71.760
407.20	71.523
407.55	70.251
407.91	71.257
408.27	71.001
408.62	71.262
408.98	69.871
409.34	70.818
409.69	68.734
410.05	69.150
410.40	70.000
410.76	70.205
411.11	69.938
411.47	69.691
411.83	70.056
412.18	70.656
412.54	69.850
412.89	67.611
413.25	69.856
413.60	69.130
413.96	67.791
414.31	68.354
414.67	69.660
415.03	68.109
415.38	68.211
415.74	68.795
416.09	69.562
416.45	69.548
416.80	67.878
417.16	67.956
417.51	69.287
417.87	66.884
418.22	68.782
418.58	69.097
418.93	69.279
419.29	67.222
419.64	69.410
420.00	69.836
420.35	67.582
420.71	69.137
421.06	67.956
421.42	68.870
421.77	68.439
422.12	68.785
422.48	68.435
422.83	69.316
423.19	68.397
423.54	69.312
423.90	69.022
424.25	68.599
424.61	68.237
424.96	68.118
425.31	69.324
425.67	69.190
426.02	69.317
426.38	69.130
426.73	69.673
427.09	70.063
427.44	68.882
427.79	69.711
428.15	70.388
428.50	70.200
428.85	69.165
429.21	68.647
429.56	70.350
429.92	68.824
430.27	67.469
430.62	69.054
430.98	68.418
431.33	69.769
431.68	67.138
432.04	69.480
432.39	67.998
432.74	67.589
433.10	68.966
433.45	69.594
433.80	69.936
434.16	70.693
434.51	69.247
434.86	70.209
435.22	70.387
435.57	70.493
435.92	69.341
436.28	69.171
436.63	70.108
436.98	69.235
437.34	70.175
437.69	70.722
438.04	68.091
438.39	68.907
438.75	70.917
439.10	68.195
439.45	70.116
439.81	70.031
440.16	69.596
440.51	69.134
440.86	71.903
441.22	68.213
441.57	70.088
441.92	70.514
442.27	70.233
442.63	68.897
442.98	69.041
443.33	68.280
443.68	69.443
444.03	68.654
444.39	69.061
444.74	70.736
445.09	68.653
445.44	69.174
445.79	70.810
446.15	68.612
446.50	68.164
446.85	70.191
447.20	68.040
447.55	68.583
447.91	69.600
448.26	69.266
448.61	69.891
448.96	70.453
449.31	69.884
449.66	68.931
450.02	68.682
450.37	69.769
450.72	69.359
451.07	68.734
451.42	67.790
451.77	68.957
452.12	66.029
452.47	69.543
452.83	68.492
453.18	67.046
453.53	69.343
453.88	68.913
454.23	67.056
454.58	68.577
454.93	68.299
455.28	67.175
455.63	68.444
455.98	67.529
456.34	69.029
456.69	68.361
457.04	69.502
457.39	68.651
457.74	67.715
458.09	66.098
458.44	66.472
458.79	68.123
459.14	67.334
459.49	67.701
459.84	66.272
460.19	67.476
460.54	68.337
460.89	67.386
461.24	67.019
461.59	66.805
461.94	66.226
462.29	66.948
462.64	67.043
462.99	67.095
463.34	66.759
463.69	66.088
464.04	66.465
464.39	66.101
464.74	66.074
465.09	67.561
465.44	67.224
465.79	65.079
466.14	66.477
466.49	66.935
466.84	66.805
467.19	66.583
467.54	65.326
467.89	67.088
468.24	65.693
468.59	65.714
468.94	65.778
469.29	67.082
469.64	66.234
469.99	66.573
470.34	64.096
470.68	66.518
471.03	65.039
471.38	66.476
471.73	65.686
472.08	64.450
472.43	66.510
472.78	65.182
473.13	66.259
473.48	65.603
473.83	64.072
474.17	66.775
474.52	65.412
474.87	65.879
475.22	65.833
475.57	64.935
475.92	65.112
476.27	64.785
476.61	66.146
476.96	63.859
477.31	65.062
477.66	63.820
478.01	64.739
478.36	64.325
478.70	64.927
479.05	64.725
479.40	65.342
479.75	63.660
480.10	63.697
480.45	63.400
480.79	65.559
481.14	64.447
481.49	63.842
481.84	64.913
482.19	63.798
482.53	64.508
482.88	62.959
483.23	62.188
483.58	64.104
483.92	63.117
484.27	62.352
484.62	64.231
484.97	63.018
485.31	62.934
485.66	62.359
486.01	63.269
486.36	63.712
486.70	63.405
487.05	63.860
487.40	63.133
487.75	62.817
488.09	62.546
488.44	62.070
488.79	62.047
489.13	63.221
489.48	61.864
489.83	63.587
490.17	61.978
490.52	62.079
490.87	61.360
491.22	62.560
491.56	62.381
491.91	61.568
492.26	62.859
492.60	61.852
492.95	63.797
493.30	61.553
493.64	62.770
493.99	62.271
494.34	62.087
494.68	62.429
495.03	61.314
495.37	61.874
495.72	62.292
496.07	61.659
496.41	61.604
496.76	62.644
497.11	61.202
497.45	61.384
497.80	63.068
498.14	61.550
498.49	62.773
498.84	62.176
499.18	61.697
499.53	62.599
499.87	61.527
500.22	60.880
500.56	61.473
500.91	61.396
501.26	60.850
501.60	61.535
501.95	62.542
502.29	61.453
502.64	61.776
502.98	62.111
503.33	60.807
503.67	61.012
504.02	62.512
504.36	61.999
504.71	59.848
505.06	60.544
505.40	60.609
505.75	61.753
506.09	60.010
506.44	61.345
506.78	61.224
507.13	61.634
507.47	59.426
507.82	60.203
508.16	60.222
508.51	60.808
508.85	60.963
509.19	60.830
509.54	60.751
509.88	60.734
510.23	61.431
510.57	61.571
510.92	59.701
511.26	60.556
511.61	61.606
511.95	60.110
512.30	60.588
512.64	60.211
512.98	60.472
513.33	60.325
513.67	60.773
514.02	61.613
514.36	61.371
514.70	62.471
515.05	60.811
515.39	60.449
515.74	60.898
516.08	60.669
516.42	61.602
516.77	60.971
517.11	60.890
517.46	59.725
517.80	60.548
518.14	61.666
518.49	58.894
518.83	60.996
519.17	60.340
519.52	59.207
519.86	59.844
520.20	60.996
520.55	59.162
520.89	59.787
521.23	60.545
521.58	59.937
521.92	60.577
522.26	60.442
522.61	60.455
522.95	60.530
523.29	58.895
523.64	60.102
523.98	58.393
524.32	59.601
524.66	60.179
525.01	60.325
525.35	60.985
525.69	58.990
526.04	60.384
526.38	60.700
526.72	58.208
527.06	59.468
527.41	58.113
527.75	58.981
528.09	60.997
528.43	60.972
528.78	59.868
529.12	59.871
529.46	61.209
529.80	58.265
530.15	59.868
530.49	60.337
530.83	59.986
531.17	58.026
531.51	60.534
531.86	59.007
532.20	59.151
532.54	59.020
532.88	59.548
533.22	57.997
533.57	59.043
533.91	59.791
534.25	59.961
534.59	58.307
534.93	57.835
535.27	57.868
535.62	58.069
535.96	58.774
536.30	58.311
536.64	59.545
536.98	59.930
537.32	59.459
537.66	60.379
538.01	59.790
538.35	59.223
538.69	58.522
539.03	58.510
539.37	59.219
539.71	58.828
540.05	58.588
540.39	58.795
540.73	59.414
541.07	58.564
541.42	57.124
541.76	59.601
542.10	58.568
542.44	57.748
542.78	57.398
543.12	58.723
543.46	58.971
543.80	60.305
544.14	56.809
544.48	57.495
544.82	59.330
545.16	58.811
545.50	57.076
545.84	59.773
546.18	59.645
546.52	58.111
546.86	57.369
547.20	60.229
547.54	57.951
547.88	57.948
548.22	57.791
548.56	57.058
548.90	58.693
549.24	58.402
549.58	58.181
549.92	56.755
550.26	57.216
550.60	59.033
550.94	58.775
551.28	57.805
551.62	59.154
551.96	58.496
552.30	57.529
552.64	58.533
552.98	57.806
553.32	57.632
553.66	55.951
554.00	58.832
554.34	58.567
554.68	58.038
555.02	58.036
555.36	58.414
555.69	58.022
556.03	56.103
556.37	56.797
556.71	58.917
557.05	59.732
557.39	57.026
557.73	58.396
558.07	57.466
558.41	57.734
558.75	59.002
559.08	56.974
559.42	58.968
559.76	59.247
560.10	57.951
560.44	58.079
560.78	58.671
561.12	57.475
561.45	57.625
561.79	57.773
562.13	58.055
562.47	58.417
562.81	57.565
563.15	56.206
563.48	58.628
563.82	59.094
564.16	58.705
564.50	57.905
564.84	56.560
565.17	56.740
565.51	60.041
565.85	58.916
566.19	57.029
566.52	57.842
566.86	58.805
567.20	57.659
567.54	58.759
567.88	59.402
568.21	59.050
568.55	57.554
568.89	58.419
569.23	58.257
569.56	58.581
569.90	58.140
570.24	57.127
570.57	58.000
570.91	57.720
571.25	57.054
571.59	56.805
571.92	55.793
572.26	55.978
572.60	56.930
572.93	56.479
573.27	55.423
573.61	56.683
573.95	56.281
574.28	56.356
574.62	55.505
574.96	55.323
575.29	56.133
575.63	54.081
575.97	55.245
576.30	55.468
576.64	54.570
576.98	56.139
577.31	55.886
577.65	56.307
577.98	56.150
578.32	54.870
578.66	54.502
578.99	54.703
579.33	54.934
579.67	53.899
580.00	55.139
580.34	55.124
580.67	54.426
581.01	55.572
581.35	55.405
581.68	55.599
582.02	55.753
582.35	55.896
582.69	55.415
583.02	55.309
583.36	55.240
583.70	55.815
584.03	56.353
584.37	56.494
584.70	55.000
585.04	55.233
585.37	55.012
585.71	55.443
586.04	55.371
586.38	55.028
586.72	55.581
587.05	56.672
587.39	56.053
587.72	56.315
588.06	55.494
588.39	54.913
588.73	55.922
589.06	56.980
589.40	55.686
589.73	56.042
590.07	57.175
590.40	56.269
590.73	57.125
591.07	55.937
591.40	57.435
591.74	55.520
592.07	57.050
592.41	56.802
592.74	56.472
593.08	54.558
593.41	55.881
593.75	55.675
594.08	54.961
594.41	56.441
594.75	56.145
595.08	55.808
595.42	57.011
595.75	56.365
596.09	56.099
596.42	56.428
596.75	55.773
597.09	56.128
597.42	56.278
597.75	56.848
598.09	55.319
598.42	55.190
598.76	55.427
599.09	55.489
599.42	55.438
599.76	55.643
600.09	55.128
600.42	55.648
600.76	54.978
601.09	55.076
601.42	55.464
601.76	56.372
602.09	55.239
602.42	55.687
602.76	56.452
603.09	56.728
603.42	56.856
603.76	56.734
604.09	55.772
604.42	56.218
604.76	56.030
605.09	56.033
605.42	56.795
605.75	56.392
606.09	55.117
606.42	55.796
606.75	55.152
607.09	55.692
607.42	55.649
607.75	55.373
608.08	55.526
608.42	55.094
608.75	56.867
609.08	57.150
609.41	56.345
609.75	56.149
610.08	57.464
610.41	54.928
610.74	56.363
611.07	56.124
611.41	56.098
611.74	56.770
612.07	56.424
612.40	57.166
612.73	56.723
613.07	55.793
613.40	55.908
613.73	55.680
614.06	57.318
614.39	55.894
614.72	55.574
615.06	55.251
615.39	55.731
615.72	54.790
616.05	56.257
616.38	55.214
616.71	55.291
617.05	55.219
617.38	56.317
617.71	57.421
618.04	56.190
618.37	57.188
618.70	55.908
619.03	58.056
619.36	55.355
619.69	57.165
620.03	56.318
620.36	58.083
620.69	57.173
621.02	56.269
621.35	56.929
621.68	58.929
622.01	58.833
622.34	57.622
622.67	57.571
623.00	57.274
623.33	57.165
623.66	57.517
623.99	56.884
624.32	57.947
624.65	57.293
624.99	58.014
625.32	54.587
625.65	59.780
625.98	57.454
626.31	55.860
626.64	58.059
626.97	56.894
627.30	57.005
627.63	59.099
627.96	57.323
628.29	58.649
628.62	58.997
628.95	57.114
629.28	58.871
629.61	58.126
629.94	57.869
630.26	57.510
630.59	60.250
630.92	57.333
631.25	56.923
631.58	59.802
631.91	57.237
632.24	60.092
632.57	57.955
632.90	59.075
633.23	57.882
633.56	59.572
633.89	57.583
634.22	59.506
634.55	61.626
634.88	59.132
635.20	58.718
635.53	58.800
635.86	58.648
636.19	60.673
636.52	57.781
636.85	56.328
637.18	58.239
637.51	58.616
637.83	60.447
638.16	61.528
638.49	58.583
638.82	57.237
639.15	56.038
639.48	59.422
639.81	60.809
640.13	59.740
640.46	59.475
640.79	58.616
641.12	59.527
641.45	59.459
641.77	58.222
642.10	60.506
642.43	58.842
642.76	61.551
643.09	58.805
643.41	57.443
643.74	59.802
644.07	61.412
644.40	64.358
644.73	61.296
645.05	57.718
645.38	61.199
645.71	62.766
646.04	61.221
646.36	60.638
646.69	61.331
647.02	62.382
647.35	59.515
647.67	56.673
648.00	62.500
648.33	61.092
648.66	60.000
648.98	58.794
649.31	58.843
649.64	58.085
649.96	56.888
650.29	62.181
650.62	58.632
650.94	60.185
651.27	57.914
651.60	61.441
651.92	59.266
652.25	57.194
652.58	57.500
652.90	60.720
653.23	60.504
653.56	59.222
653.88	59.450
654.21	56.743
654.54	59.762
654.86	58.744
655.19	58.918
655.52	61.533
655.84	56.813
656.17	62.139
656.49	82.725
656.82	84.293
657.15	64.608
657.47	48.079
657.80	35.975
658.13	34.886
658.45	53.491
658.78	53.669
659.10	52.132
659.43	51.537
659.75	52.541
660.08	51.172
660.41	54.341
660.73	54.834
661.06	55.979
661.38	60.078
661.71	58.316
662.03	62.661
662.36	59.121
662.68	61.947
663.01	63.537
663.33	60.789
663.66	58.372
663.98	61.628
664.31	62.047
664.63	62.442
664.96	57.609
665.28	61.148
665.61	60.823
665.93	58.043
666.26	60.304
666.58	55.928
666.91	56.000
667.23	63.443
667.56	61.374
667.88	60.671
668.21	60.621
668.53	61.939
668.86	57.075
669.18	60.377
669.50	57.627
669.83	60.465
670.15	57.576
670.48	58.852
670.80	58.525
671.13	56.376
671.45	57.534
671.77	60.086
672.10	60.000
672.42	59.176
672.75	58.792
673.07	60.286
673.39	59.633
673.72	56.607
674.04	58.125
674.37	60.805
674.69	56.745
675.01	62.444
675.34	57.432
675.66	59.259
675.98	58.315
676.31	60.092
676.63	56.295
676.95	57.955
677.28	61.176
677.60	58.795
677.92	59.404
678.25	60.175
678.57	58.442
678.89	56.933
679.22	61.521
679.54	54.618
679.86	55.666
680.18	58.835
680.51	55.871
680.83	60.040
681.15	56.800
681.48	60.656
681.80	57.025
682.12	55.645
682.44	57.113
682.77	60.486
683.09	58.581
683.41	53.409
683.73	58.065
684.06	59.071
684.38	53.118
684.70	59.695
685.02	56.432
685.34	54.743
685.67	56.473
685.99	56.600
686.31	54.690
686.63	57.143
686.96	53.992
687.28	51.919
687.60	55.133
687.92	59.192
688.24	57.258
688.56	55.677
688.89	58.259
689.21	54.667
689.53	58.469
689.85	58.140
690.17	57.812
690.49	56.738
690.82	56.068
691.14	58.810
691.46	57.477
691.78	58.108
692.10	56.559
692.42	53.030
692.74	58.120
693.06	56.757
693.39	52.036
693.71	54.751
694.03	57.275
694.35	56.776
694.67	56.818
694.99	56.136
695.31	55.875
695.63	56.750
695.95	52.525
696.27	60.363
696.59	59.167
696.91	55.462
697.23	55.527
697.56	57.178
697.88	54.839
698.20	53.986
698.52	55.294
698.84	55.981
699.16	53.250
699.48	54.637
699.80	51.861
700.12	58.221
700.44	59.944
700.76	50.000
701.08	53.333
701.40	56.627
701.72	58.951
702.04	58.086
702.36	63.211
702.68	59.760
703.00	59.091
703.32	54.839
703.64	51.412
703.96	55.942
704.28	59.816
704.60	53.651
704.91	51.420
705.23	57.475
705.55	63.251
705.87	57.040
706.19	60.370
706.51	54.639
706.83	58.199
707.15	53.583
707.47	56.583
707.79	52.604
708.11	55.750
708.43	56.500
708.74	55.039
709.06	59.718
709.38	56.269
709.70	55.917
710.02	56.051
710.34	56.037
710.66	52.885
710.98	55.298
711.29	57.049
711.61	55.254
711.93	54.397
712.25	56.701
712.57	56.410
712.89	55.597
713.20	54.671
713.52	53.310
713.84	55.631
714.16	59.107
714.48	53.548
714.80	58.654
715.11	55.927
715.43	52.665
715.75	54.667
716.07	48.837
716.39	57.718
716.70	50.185
717.02	53.435
717.34	51.417
717.66	54.425
717.97	61.304
718.29	53.975
718.61	52.362
718.93	58.140
719.24	52.852
719.56	61.044
719.88	50.172
720.20	54.167
720.51	49.425
720.83	58.301
721.15	57.143
721.46	58.065
721.78	56.917
722.10	49.442
722.42	56.017
722.73	50.612
723.05	58.367
723.37	61.441
723.68	55.856
724.00	51.282
724.32	56.000
724.63	51.818
724.95	56.769
725.27	56.221
725.58	55.932
725.90	53.175
726.22	49.807
726.53	49.492
726.85	48.315
727.16	59.245
727.48	48.583
727.80	54.656
728.11	58.475
728.43	48.627
728.74	54.839
729.06	52.000
729.38	53.759
729.69	54.980
730.01	46.923
730.32	51.119
730.64	53.357
730.96	57.358
731.27	54.333
731.59	54.915
731.90	50.318
732.22	51.104
732.53	53.488
732.85	52.837
733.16	54.882
733.48	48.201
733.80	53.623
734.11	48.136
734.43	53.265
734.74	50.000
735.06	52.117
735.37	50.151
735.69	56.902
736.00	51.568
736.32	54.362
736.63	50.352
736.95	54.266
737.26	51.957
737.58	43.960
737.89	53.114
738.21	49.624
738.52	54.321
738.83	56.332
739.15	48.908
739.46	53.937
739.78	48.352
740.09	47.386
740.41	57.609
740.72	50.787
741.04	53.036
741.35	46.809
741.66	54.028
741.98	47.959
742.29	51.980
742.61	59.162
742.92	44.550
743.23	50.463
743.55	54.751
743.86	58.852
744.18	52.153
744.49	53.191
744.80	55.435
745.12	59.358
745.43	41.951
745.74	54.167
746.06	48.780
746.37	58.639
746.68	57.346
747.00	53.723
747.31	58.209
747.62	53.398
747.94	48.804
748.25	51.980
748.56	57.377
748.88	52.356
749.19	52.128
749.50	48.768
749.82	45.283
750.13	51.376
750.44	52.632
750.75	51.866
751.07	54.745
751.38	52.874
751.69	48.235
752.01	55.426
752.32	49.801
752.63	51.779
752.94	53.448
753.26	57.741
753.57	56.561
753.88	51.327
754.19	48.333
754.51	50.826
754.82	47.368
755.13	52.083
755.44	56.452
755.75	50.000
756.07	58.366
756.38	47.547
756.69	49.425
757.00	45.667
757.31	50.980
757.63	46.341
757.94	49.167
758.25	42.192
758.56	46.277
758.87	45.042
759.18	45.483
759.50	48.000
759.81	48.829
760.12	52.903
760.43	50.606
760.74	46.605
761.05	52.615
761.36	47.159
761.67	50.606
761.99	49.660
762.30	45.818
762.61	45.850
762.92	47.964
763.23	50.450
763.54	49.533
763.85	48.729
764.16	45.643
764.47	47.177
764.78	46.886
765.10	50.505
765.41	48.265
765.72	44.444
766.03	43.233
766.34	44.161
766.65	47.809
766.96	50.505
767.27	52.660
767.58	45.402
767.89	47.518
768.20	53.409
768.51	54.945
768.82	50.246
769.13	45.161
769.44	44.206
769.75	48.402
770.06	45.690
770.37	44.231
770.68	50.254
770.99	47.059
771.30	54.902
771.61	49.321
771.92	51.293
772.23	44.335
772.54	47.849
772.85	52.469
773.16	51.685
773.47	56.863
773.78	51.634
774.09	40.719
774.39	49.333
774.70	40.764
775.01	52.414
775.32	49.286
775.63	43.802
775.94	51.145
776.25	50.394
776.56	40.000
776.87	50.000
777.18	48.718
777.48	49.138
777.79	40.870
778.10	39.048
778.41	45.045
778.72	50.794
779.03	47.368
779.34	52.482
779.65	44.521
779.95	40.411
780.26	53.793
780.57	42.276
780.88	46.457
781.19	41.379
781.50	44.961
781.80	37.870
782.11	42.138
782.42	49.231
782.73	43.165
783.04	46.667
783.34	36.806
783.65	37.607
783.96	44.262
784.27	42.069
784.57	46.341
784.88	48.438
785.19	46.000
785.50	58.000
785.81	50.862
786.11	37.069
786.42	44.660
786.73	43.636
787.04	40.816
787.34	41.964
787.65	50.476
787.96	31.858
788.26	48.182
788.57	48.718
788.88	53.125
789.19	34.921
789.49	33.043
789.80	46.939
790.11	46.465
790.41	36.364
790.72	53.261
791.03	43.182
791.33	60.000
791.64	48.750
791.95	41.860
792.25	53.191
792.56	47.191
792.87	52.055
793.17	37.681
793.48	34.667
793.79	50.000
794.09	62.500
794.40	41.509
794.70	40.777
795.01	41.463
795.32	47.863
795.62	39.048
795.93	40.196
796.23	46.226
796.54	45.833
796.85	57.353
797.15	46.479
797.46	38.889
797.76	66.667
798.07	37.209
798.37	23.684
798.68	43.939
798.99	48.148
799.29	42.857
799.60	42.029
799.90	40.000
800.21	52.459
800.51	52.308
800.82	35.593
801.12	30.435
801.43	42.623
801.73	30.159
802.04	42.000
802.34	44.776
802.65	48.077
802.95	46.429
803.26	32.692
803.56	43.137
803.87	41.304
804.17	41.333
804.48	52.381
804.78	40.741
805.09	19.565
805.39	42.222
805.70	35.185
806.00	22.807
806.30	33.803
806.61	42.857
806.91	26.389
807.22	48.684
807.52	48.000
807.83	38.182
808.13	55.556
808.43	51.471
808.74	32.836
809.04	37.288
809.35	46.154
809.65	28.125
809.95	32.432
810.26	22.727
810.56	34.247
810.86	42.857
811.17	34.000
811.47	57.143
811.77	2.632
812.08	61.364
812.38	35.849
812.69	35.000
812.99	18.182
813.29	31.579
813.59	-8.571
813.90	54.545
814.20	46.154
814.50	25.000
814.81	52.830
815.11	23.404
815.41	47.458
815.72	26.190
816.02	45.098
816.32	33.333
816.62	41.463
816.93	40.541
817.23	57.143
817.53	33.333
817.84	47.826
818.14	19.231
818.44	18.421
818.74	28.261
819.04	20.000
819.35	40.541
819.65	32.353
819.95	16.667
820.25	40.476
820.56	45.000
820.86	-6.897
821.16	40.000
821.46	65.957
821.76	50.000
822.07	44.186
822.37	16.216
822.67	-12.500
822.97	52.381
823.27	10.714
823.57	28.000
823.88	7.407
824.18	35.714
824.48	26.471
824.78	51.613
825.08	17.391
825.38	48.485
825.69	-8.333
825.99	39.474
826.29	30.556
826.59	40.000
826.89	-23.810
827.19	36.957
827.49	27.500
827.79	42.857
828.09	25.000
828.39	69.697
828.70	27.027
829.00	39.286
829.30	38.095
829.60	33.333
829.90	56.250
830.20	21.053
830.50	55.556
830.80	39.130
831.10	27.273
831.40	39.394
831.70	51.613
832.00	66.667
832.30	38.095
832.60	-33.333
832.90	10.345
833.20	-5.000
833.50	33.333
833.80	40.741
834.10	46.154
834.40	28.125
834.70	-66.667
835.00	10.526
835.30	46.154
835.60	106.667
835.90	29.032
836.20	63.636
836.50	53.571
836.80	15.385
837.10	21.429
837.40	-66.667
837.70	36.364
838.00	-118.182
838.30	13.043
838.60	30.769
838.90	18.182
839.19	21.429
839.49	50.000
839.79	38.462
840.09	-58.333
840.39	60.714
840.69	-7.143
840.99	7.692
841.29	10.526
841.59	20.000
841.88	36.364
842.18	-60.000
842.48	56.250
842.78	0.000
843.08	7.407
843.38	-60.000
843.68	34.783
843.97	20.000
844.27	20.000
844.57	40.000
844.87	5.556
845.17	-28.571
845.47	26.667
845.76	-4.762
846.06	-17.647
846.36	90.000
846.66	-7.143
846.96	0.000
847.25	-75.000
847.55	50.000
847.85	-50.000
848.15	-9.091
848.44	-300.000
848.74	45.000
849.04	37.037
849.34	36.364
849.63	-16.667
849.93	60.000
850.23	-16.667
850.53	90.000
850.82	-7.692
851.12	-88.889
851.42	113.333
851.71	15.385
852.01	121.429
852.31	75.000
852.61	-81.818
852.90	25.000
853.20	63.158
853.50	-16.667
853.79	39.130
854.09	50.000
854.39	10.526
854.68	54.167
854.98	51.613
855.28	34.615
855.57	-5.000
855.87	33.333
856.17	59.259
856.46	50.000
856.76	46.667
857.05	66.667
857.35	16.000
857.65	-16.667
857.94	-53.846
858.24	20.690
858.53	11.111
858.83	29.630
859.13	63.636
859.42	26.087
859.72	-25.000
860.01	-400.000
860.31	36.000
860.60	4.762
860.90	-366.667
861.20	-126.667
861.49	-400.000
861.79	0.000
862.08	60.000
862.38	46.667
862.67	-140.000
862.97	-50.000
863.26	16.667
863.56	33.333
863.85	-200.000
864.15	27.778
864.44	-70.000
864.74	50.000
865.03	225.000
865.33	-140.000
865.62	-16.667
865.92	33.333
866.21	-16.667
866.51	56.250
866.80	18.182
867.10	-350.000
867.39	75.000
867.69	0.000
867.98	46.154
868.27	-200.000
868.57	40.000
868.86	55.556
869.16	-15.385
869.45	53.333
869.75	-700.000
870.04	0.000
870.33	-57.143
870.63	66.667
870.92	233.333
871.22	-300.000
871.51	-500.000
871.80	133.333
872.10	400.000
>>>>>End Processed Spectral Data<<<<<
