SpectraSuite Data File
++++++++++++++++++++++++++++++++++++
Date: Fri May 15 17:15:49 PDT 2015
User: schluterlab
Dark Spectrum Present: Yes
Reference Spectrum Present: Yes
Number of Sampled Component Spectra: 1
Spectrometers: USB2E3373
Integration Time (usec): 3000 (USB2E3373)
Spectra Averaged: 3 (USB2E3373)
Boxcar Smoothing: 0 (USB2E3373)
Correct for Electrical Dark: No (USB2E3373)
Strobe/Lamp Enabled: No (USB2E3373)
Correct for Detector Non-linearity: No (USB2E3373)
Correct for Stray Light: No (USB2E3373)
Number of Pixels in Processed Spectrum: 2048
>>>>>Begin Processed Spectral Data<<<<<
178.53	0.000
178.91	0.000
179.29	200.000
179.67	-150.000
180.04	-71.429
180.42	275.000
180.80	-200.000
181.18	133.333
181.56	500.000
181.94	0.000
182.31	200.000
182.69	60.000
183.07	0.000
183.45	-60.000
183.83	50.000
184.20	18.182
184.58	88.889
184.96	-75.000
185.34	-133.333
185.72	200.000
186.09	-0.000
186.47	0.000
186.85	100.000
187.23	44.444
187.61	300.000
187.98	166.667
188.36	144.444
188.74	333.333
189.12	117.647
189.49	111.111
189.87	0.000
190.25	78.571
190.63	350.000
191.00	133.333
191.38	21.053
191.76	850.000
192.14	-275.000
192.51	700.000
192.89	144.444
193.27	14.286
193.65	100.000
194.02	9.091
194.40	90.000
194.78	37.500
195.15	25.000
195.53	25.000
195.91	-50.000
196.29	150.000
196.66	53.846
197.04	-57.143
197.42	-77.778
197.79	-133.333
198.17	-38.462
198.55	600.000
198.92	-33.333
199.30	200.000
199.68	40.000
200.05	66.667
200.43	0.000
200.81	300.000
201.18	133.333
201.56	-500.000
201.94	50.000
202.31	-166.667
202.69	0.000
203.07	-350.000
203.44	1000.000
203.82	0.000
204.19	57.143
204.57	-433.333
204.95	100.000
205.32	120.000
205.70	128.571
206.08	25.000
206.45	344.444
206.83	64.286
207.20	142.857
207.58	-100.000
207.96	0.000
208.33	10.000
208.71	75.000
209.08	116.667
209.46	0.000
209.84	-40.000
210.21	0.000
210.59	171.429
210.96	183.333
211.34	-250.000
211.71	93.333
212.09	-42.857
212.46	200.000
212.84	0.000
213.22	190.000
213.59	-300.000
213.97	30.769
214.34	81.818
214.72	16.667
215.09	225.000
215.47	46.154
215.84	27.273
216.22	33.333
216.59	125.000
216.97	450.000
217.34	175.000
217.72	-120.000
218.09	112.500
218.47	37.500
218.84	700.000
219.22	44.444
219.59	160.000
219.97	133.333
220.34	75.000
220.72	42.857
221.09	250.000
221.47	500.000
221.84	150.000
222.22	-450.000
222.59	36.364
222.97	41.667
223.34	33.333
223.72	-14.286
224.09	14.286
224.46	50.000
224.84	100.000
225.21	90.000
225.59	80.000
225.96	500.000
226.34	200.000
226.71	0.000
227.08	33.333
227.46	125.000
227.83	-550.000
228.21	55.556
228.58	90.909
228.95	100.000
229.33	30.000
229.70	112.500
230.08	-62.500
230.45	28.571
230.82	100.000
231.20	20.000
231.57	71.429
231.95	128.571
232.32	-50.000
232.69	121.429
233.07	100.000
233.44	200.000
233.81	60.000
234.19	111.111
234.56	94.118
234.93	-100.000
235.31	400.000
235.68	20.000
236.05	76.923
236.43	55.000
236.80	35.294
237.17	53.125
237.55	30.000
237.92	74.074
238.29	66.667
238.67	43.333
239.04	32.353
239.41	9.756
239.79	46.667
240.16	41.463
240.53	31.579
240.91	41.304
241.28	19.048
241.65	44.643
242.02	39.726
242.40	40.000
242.77	42.373
243.14	31.818
243.51	40.000
243.89	44.828
244.26	33.333
244.63	32.143
245.00	37.113
245.38	40.206
245.75	38.202
246.12	32.759
246.49	34.711
246.87	43.269
247.24	31.092
247.61	26.316
247.98	34.146
248.36	39.375
248.73	34.211
249.10	32.468
249.47	32.911
249.84	36.601
250.22	32.353
250.59	40.523
250.96	32.864
251.33	30.233
251.70	38.824
252.08	35.025
252.45	33.663
252.82	39.196
253.19	31.336
253.56	30.374
253.94	37.387
254.31	36.087
254.68	39.035
255.05	31.890
255.42	39.301
255.79	30.116
256.16	33.852
256.54	32.463
256.91	35.361
257.28	28.625
257.65	33.708
258.02	30.851
258.39	34.007
258.76	37.729
259.14	35.880
259.51	37.217
259.88	33.677
260.25	32.026
260.62	36.111
260.99	34.237
261.36	35.959
261.73	31.962
262.10	35.866
262.47	33.436
262.85	36.991
263.22	34.769
263.59	30.530
263.96	36.646
264.33	33.939
264.70	33.333
265.07	30.952
265.44	32.295
265.81	30.508
266.18	31.421
266.55	33.933
266.92	34.974
267.29	31.593
267.66	34.271
268.03	33.508
268.40	33.420
268.77	35.561
269.14	32.854
269.51	35.733
269.88	33.167
270.25	29.082
270.62	28.537
270.99	28.900
271.36	32.763
271.73	31.221
272.10	33.333
272.47	32.151
272.84	33.416
273.21	32.251
273.58	32.530
273.95	30.892
274.32	33.949
274.69	30.090
275.06	32.143
275.43	30.839
275.80	32.009
276.17	33.563
276.54	31.478
276.91	31.798
277.28	30.786
277.65	31.405
278.02	31.064
278.39	33.698
278.76	30.398
279.13	29.046
279.50	31.303
279.87	31.965
280.23	32.043
280.60	30.799
280.97	31.111
281.34	27.308
281.71	35.318
282.08	29.857
282.45	29.354
282.82	29.537
283.19	30.561
283.56	30.058
283.92	28.463
284.29	29.615
284.66	27.519
285.03	30.255
285.40	30.246
285.77	28.471
286.14	28.700
286.51	31.734
286.87	27.605
287.24	27.993
287.61	29.806
287.98	30.000
288.35	27.036
288.72	30.473
289.08	27.431
289.45	30.053
289.82	26.748
290.19	25.427
290.56	26.072
290.93	27.441
291.29	26.194
291.66	26.929
292.03	26.794
292.40	27.258
292.77	24.402
293.13	22.565
293.50	24.431
293.87	25.344
294.24	24.111
294.60	23.100
294.97	24.554
295.34	22.546
295.71	23.994
296.08	23.767
296.44	22.333
296.81	23.333
297.18	23.188
297.55	23.848
297.91	24.384
298.28	24.142
298.65	21.981
299.02	20.755
299.38	21.341
299.75	21.379
300.12	20.157
300.48	23.057
300.85	22.433
301.22	21.169
301.59	21.447
301.95	23.165
302.32	21.790
302.69	21.144
303.05	21.287
303.42	22.291
303.79	21.729
304.15	21.744
304.52	19.976
304.89	19.532
305.25	20.097
305.62	18.786
305.99	20.702
306.35	19.306
306.72	19.685
307.09	21.323
307.45	19.977
307.82	19.444
308.19	21.487
308.55	21.047
308.92	20.370
309.29	18.771
309.65	19.914
310.02	19.252
310.38	20.088
310.75	20.437
311.12	20.452
311.48	19.194
311.85	19.162
312.22	19.620
312.58	19.745
312.95	19.637
313.31	20.083
313.68	21.047
314.05	20.204
314.41	22.474
314.78	21.031
315.14	22.405
315.51	23.810
315.87	21.414
316.24	24.368
316.61	24.114
316.97	23.413
317.34	23.340
317.70	24.474
318.07	23.365
318.43	27.157
318.80	25.095
319.16	28.223
319.53	27.920
319.89	27.854
320.26	28.239
320.62	32.297
320.99	30.585
321.35	32.477
321.72	33.126
322.08	33.031
322.45	34.112
322.81	35.953
323.18	34.642
323.54	37.838
323.91	38.656
324.27	41.211
324.64	42.135
325.00	43.978
325.37	44.720
325.73	43.518
326.10	46.140
326.46	48.789
326.83	49.519
327.19	50.044
327.56	53.606
327.92	54.577
328.29	55.982
328.65	56.415
329.01	56.893
329.38	59.355
329.74	59.868
330.11	59.870
330.47	61.874
330.84	63.558
331.20	66.825
331.56	63.611
331.93	67.032
332.29	67.919
332.66	67.511
333.02	68.030
333.38	69.661
333.75	71.978
334.11	68.935
334.48	71.804
334.84	72.527
335.20	71.272
335.57	70.354
335.93	72.448
336.29	74.033
336.66	74.478
337.02	73.234
337.38	73.148
337.75	75.364
338.11	75.654
338.47	76.369
338.84	75.139
339.20	75.229
339.56	76.789
339.93	75.649
340.29	76.697
340.65	77.419
341.02	77.748
341.38	76.372
341.74	77.120
342.11	75.563
342.47	77.758
342.83	78.114
343.20	78.310
343.56	79.043
343.92	78.388
344.28	79.078
344.65	78.670
345.01	80.640
345.37	77.292
345.73	77.573
346.10	80.846
346.46	77.965
346.82	77.660
347.19	77.639
347.55	80.117
347.91	80.097
348.27	78.658
348.63	82.624
349.00	80.640
349.36	80.881
349.72	80.763
350.08	78.934
350.45	80.208
350.81	81.478
351.17	79.886
351.53	82.531
351.89	80.925
352.26	80.240
352.62	81.532
352.98	79.438
353.34	79.952
353.70	82.362
354.07	82.661
354.43	82.466
354.79	83.815
355.15	82.460
355.51	82.437
355.87	83.252
356.24	83.442
356.60	83.266
356.96	83.571
357.32	84.744
357.68	84.597
358.04	85.137
358.40	84.727
358.77	86.204
359.13	84.788
359.49	83.282
359.85	85.569
360.21	86.443
360.57	86.381
360.93	86.157
361.29	86.934
361.66	89.577
362.02	87.652
362.38	87.662
362.74	87.812
363.10	90.068
363.46	89.400
363.82	90.383
364.18	88.635
364.54	88.750
364.90	90.036
365.26	89.738
365.62	91.825
365.98	91.862
366.35	91.042
366.71	91.870
367.07	92.090
367.43	94.033
367.79	93.357
368.15	92.965
368.51	93.664
368.87	93.108
369.23	92.852
369.59	95.117
369.95	96.188
370.31	94.581
370.67	95.149
371.03	96.117
371.39	96.864
371.75	97.802
372.11	95.078
372.47	99.926
372.83	98.084
373.19	97.575
373.55	101.083
373.91	98.128
374.27	99.362
374.63	99.497
374.99	100.993
375.35	101.184
375.71	102.168
376.07	101.756
376.42	103.265
376.78	103.356
377.14	102.708
377.50	102.722
377.86	104.150
378.22	104.403
378.58	106.603
378.94	106.364
379.30	104.803
379.66	107.586
380.02	107.174
380.38	106.817
380.74	106.104
381.09	107.914
381.45	109.235
381.81	108.575
382.17	108.312
382.53	108.682
382.89	110.986
383.25	110.828
383.61	112.256
383.97	111.429
384.32	109.631
384.68	111.889
385.04	111.826
385.40	111.388
385.76	114.591
386.12	115.136
386.48	114.879
386.83	114.204
387.19	114.164
387.55	115.621
387.91	115.220
388.27	114.042
388.62	115.293
388.98	115.531
389.34	114.928
389.70	117.091
390.06	116.048
390.42	117.228
390.77	117.528
391.13	116.267
391.49	119.728
391.85	120.663
392.20	117.326
392.56	119.326
392.92	119.084
393.28	119.281
393.64	118.318
393.99	120.564
394.35	119.924
394.71	119.987
395.07	118.730
395.42	119.369
395.78	123.062
396.14	121.627
396.50	123.843
396.85	123.310
397.21	124.561
397.57	121.505
397.92	121.630
398.28	123.793
398.64	120.843
399.00	122.573
399.35	123.307
399.71	121.137
400.07	124.486
400.42	123.684
400.78	123.576
401.14	124.501
401.49	124.122
401.85	125.289
402.21	124.518
402.57	125.938
402.92	124.279
403.28	124.749
403.63	126.545
403.99	125.446
404.35	126.671
404.70	123.393
405.06	125.617
405.42	124.425
405.77	125.915
406.13	127.998
406.49	125.163
406.84	128.362
407.20	128.778
407.55	127.238
407.91	128.810
408.27	127.597
408.62	126.769
408.98	125.200
409.34	127.695
409.69	128.036
410.05	125.739
410.40	126.914
410.76	127.322
411.11	129.375
411.47	129.323
411.83	127.056
412.18	128.636
412.54	127.965
412.89	126.601
413.25	129.723
413.60	128.509
413.96	126.626
414.31	127.561
414.67	127.389
415.03	127.430
415.38	129.243
415.74	130.554
416.09	129.458
416.45	129.642
416.80	129.478
417.16	132.528
417.51	129.980
417.87	130.117
418.22	132.189
418.58	131.371
418.93	129.781
419.29	128.105
419.64	132.664
420.00	131.486
420.35	129.493
420.71	132.139
421.06	131.614
421.42	132.752
421.77	132.197
422.12	132.009
422.48	130.482
422.83	131.845
423.19	130.813
423.54	132.510
423.90	131.743
424.25	134.156
424.61	133.537
424.96	131.533
425.31	137.204
425.67	137.031
426.02	135.571
426.38	137.070
426.73	136.138
427.09	137.848
427.44	135.471
427.79	134.178
428.15	135.255
428.50	135.554
428.85	134.029
429.21	135.314
429.56	135.148
429.92	134.412
430.27	132.180
430.62	133.821
430.98	136.146
431.33	134.017
431.68	135.322
432.04	136.892
432.39	135.368
432.74	134.937
433.10	137.299
433.45	136.619
433.80	138.363
434.16	137.452
434.51	135.054
434.86	137.631
435.22	136.960
435.57	138.054
435.92	136.527
436.28	137.448
436.63	136.052
436.98	136.790
437.34	138.657
437.69	139.296
438.04	136.923
438.39	136.591
438.75	141.530
439.10	138.144
439.45	140.170
439.81	139.511
440.16	142.221
440.51	139.224
440.86	141.752
441.22	136.369
441.57	141.280
441.92	138.825
442.27	139.634
442.63	139.240
442.98	137.565
443.33	136.338
443.68	139.523
444.03	138.400
444.39	138.711
444.74	141.416
445.09	139.198
445.44	140.228
445.79	141.155
446.15	137.004
446.50	136.328
446.85	138.735
447.20	138.947
447.55	138.002
447.91	139.086
448.26	139.784
448.61	138.803
448.96	140.562
449.31	140.173
449.66	138.850
450.02	137.878
450.37	140.249
450.72	137.915
451.07	138.228
451.42	137.765
451.77	139.180
452.12	136.483
452.47	137.218
452.83	138.634
453.18	138.014
453.53	140.329
453.88	139.587
454.23	138.660
454.58	139.798
454.93	138.080
455.28	135.302
455.63	138.252
455.98	136.921
456.34	138.570
456.69	138.247
457.04	139.509
457.39	137.242
457.74	138.815
458.09	135.668
458.44	137.800
458.79	135.742
459.14	139.073
459.49	136.657
459.84	139.143
460.19	137.318
460.54	136.491
460.89	137.443
461.24	136.335
461.59	135.154
461.94	135.157
462.29	137.214
462.64	136.611
462.99	136.561
463.34	136.996
463.69	134.813
464.04	137.167
464.39	134.688
464.74	134.785
465.09	134.311
465.44	136.065
465.79	132.313
466.14	133.352
466.49	134.503
466.84	134.087
467.19	134.293
467.54	131.992
467.89	135.629
468.24	135.888
468.59	134.857
468.94	133.714
469.29	134.820
469.64	132.809
469.99	137.912
470.34	134.676
470.68	138.106
471.03	135.740
471.38	134.165
471.73	135.504
472.08	133.175
472.43	136.040
472.78	133.653
473.13	134.694
473.48	134.202
473.83	130.448
474.17	135.233
474.52	133.504
474.87	134.182
475.22	135.570
475.57	132.863
475.92	133.077
476.27	132.654
476.61	133.970
476.96	128.779
477.31	131.747
477.66	130.506
478.01	134.250
478.36	130.447
478.70	134.149
479.05	131.978
479.40	131.691
479.75	129.771
480.10	130.517
480.45	131.800
480.79	134.189
481.14	132.736
481.49	129.458
481.84	131.950
482.19	130.496
482.53	131.511
482.88	130.119
483.23	129.750
483.58	130.660
483.92	131.946
484.27	129.581
484.62	128.956
484.97	129.395
485.31	126.337
485.66	124.476
486.01	122.275
486.36	120.497
486.70	120.847
487.05	122.582
487.40	122.802
487.75	124.676
488.09	124.073
488.44	126.169
488.79	128.166
489.13	130.529
489.48	130.611
489.83	128.744
490.17	128.809
490.52	130.485
490.87	127.950
491.22	129.274
491.56	130.787
491.91	128.442
492.26	130.919
492.60	128.839
492.95	131.431
493.30	128.627
493.64	132.024
493.99	130.483
494.34	130.194
494.68	130.429
495.03	129.148
495.37	129.392
495.72	132.660
496.07	130.537
496.41	128.585
496.76	129.618
497.11	129.110
497.45	128.067
497.80	130.121
498.14	130.104
498.49	130.269
498.84	128.293
499.18	130.673
499.53	128.671
499.87	128.016
500.22	129.080
500.56	130.509
500.91	127.359
501.26	128.670
501.60	130.152
501.95	127.754
502.29	129.346
502.64	129.730
502.98	128.515
503.33	128.434
503.67	127.518
504.02	128.055
504.36	130.430
504.71	127.121
505.06	128.686
505.40	127.970
505.75	131.082
506.09	128.332
506.44	128.439
506.78	129.082
507.13	129.938
507.47	128.094
507.82	128.526
508.16	129.002
508.51	129.696
508.85	130.194
509.19	129.537
509.54	129.437
509.88	128.533
510.23	131.630
510.57	129.503
510.92	127.239
511.26	130.333
511.61	131.298
511.95	130.027
512.30	130.488
512.64	129.716
512.98	130.488
513.33	127.756
513.67	130.415
514.02	131.293
514.36	131.486
514.70	132.517
515.05	132.256
515.39	131.464
515.74	134.671
516.08	133.473
516.42	132.686
516.77	132.709
517.11	134.362
517.46	132.615
517.80	130.810
518.14	132.762
518.49	130.769
518.83	133.232
519.17	131.898
519.52	129.544
519.86	131.873
520.20	133.171
520.55	133.521
520.89	132.622
521.23	133.882
521.58	133.817
521.92	132.564
522.26	132.466
522.61	134.935
522.95	136.026
523.29	131.321
523.64	132.719
523.98	135.839
524.32	132.732
524.66	133.675
525.01	134.156
525.35	132.728
525.69	137.374
526.04	134.259
526.38	132.101
526.72	131.589
527.06	133.722
527.41	134.828
527.75	133.713
528.09	133.289
528.43	135.517
528.78	134.521
529.12	132.194
529.46	133.268
529.80	129.006
530.15	134.257
530.49	136.162
530.83	135.705
531.17	132.505
531.51	133.447
531.86	132.631
532.20	135.073
532.54	132.267
532.88	133.539
533.22	133.535
533.57	132.700
533.91	129.373
534.25	131.250
534.59	131.238
534.93	129.578
535.27	130.647
535.62	130.979
535.96	132.094
536.30	130.607
536.64	133.563
536.98	132.613
537.32	135.491
537.66	133.590
538.01	133.566
538.35	133.703
538.69	131.425
539.03	130.827
539.37	130.619
539.71	132.106
540.05	129.939
540.39	134.695
540.73	132.775
541.07	134.876
541.42	128.696
541.76	133.861
542.10	132.485
542.44	132.801
542.78	130.902
543.12	132.005
543.46	130.807
543.80	133.518
544.14	129.172
544.48	131.113
544.82	132.809
545.16	133.743
545.50	131.242
545.84	134.065
546.18	131.915
546.52	130.714
546.86	132.351
547.20	132.618
547.54	132.438
547.88	131.929
548.22	129.586
548.56	130.211
548.90	133.288
549.24	130.096
549.58	131.735
549.92	130.236
550.26	131.868
550.60	133.383
550.94	135.101
551.28	134.699
551.62	135.154
551.96	133.459
552.30	135.234
552.64	131.312
552.98	132.208
553.32	133.024
553.66	132.148
554.00	136.642
554.34	135.229
554.68	132.891
555.02	136.607
555.36	133.957
555.69	133.773
556.03	130.193
556.37	131.246
556.71	133.646
557.05	135.720
557.39	133.011
557.73	136.357
558.07	135.445
558.41	137.060
558.75	135.074
559.08	135.461
559.42	137.698
559.76	139.151
560.10	134.786
560.44	134.326
560.78	133.916
561.12	134.344
561.45	135.067
561.79	134.034
562.13	136.693
562.47	135.468
562.81	133.501
563.15	132.228
563.48	134.936
563.82	133.562
564.16	135.237
564.50	132.635
564.84	133.400
565.17	132.998
565.51	137.363
565.85	134.842
566.19	131.698
566.52	134.316
566.86	134.062
567.20	131.382
567.54	134.063
567.88	133.509
568.21	132.127
568.55	130.000
568.89	129.671
569.23	130.958
569.56	128.065
569.90	128.177
570.24	123.707
570.57	125.782
570.91	124.329
571.25	122.493
571.59	121.021
571.92	119.526
572.26	121.558
572.60	120.651
572.93	119.580
573.27	120.909
573.61	121.420
573.95	121.655
574.28	119.783
574.62	118.688
574.96	118.025
575.29	118.476
575.63	116.092
575.97	119.002
576.30	119.455
576.64	118.358
576.98	119.923
577.31	119.735
577.65	119.908
577.98	118.343
578.32	116.184
578.66	115.818
578.99	115.863
579.33	117.337
579.67	116.276
580.00	117.873
580.34	118.483
580.67	118.299
581.01	119.068
581.35	117.528
581.68	117.556
582.02	116.627
582.35	117.642
582.69	116.323
583.02	117.176
583.36	118.500
583.70	120.353
584.03	122.491
584.37	123.235
584.70	120.934
585.04	118.420
585.37	119.582
585.71	120.316
586.04	120.348
586.38	120.139
586.72	121.291
587.05	122.877
587.39	122.812
587.72	124.139
588.06	122.142
588.39	122.159
588.73	123.230
589.06	124.690
589.40	123.712
589.73	124.206
590.07	126.473
590.40	126.625
590.73	129.736
591.07	127.778
591.40	127.783
591.74	127.692
592.07	128.989
592.41	128.269
592.74	124.532
593.08	124.345
593.41	124.481
593.75	123.847
594.08	123.584
594.41	123.799
594.75	124.962
595.08	125.388
595.42	126.721
595.75	127.375
596.09	127.991
596.42	126.623
596.75	128.242
597.09	128.064
597.42	129.088
597.75	129.959
598.09	127.976
598.42	125.903
598.76	127.284
599.09	127.163
599.42	123.001
599.76	125.169
600.09	124.774
600.42	123.237
600.76	123.774
601.09	125.916
601.42	124.246
601.76	125.526
602.09	128.259
602.42	128.138
602.76	128.735
603.09	127.782
603.42	130.351
603.76	127.137
604.09	128.109
604.42	127.876
604.76	130.174
605.09	129.022
605.42	128.713
605.75	127.320
606.09	128.068
606.42	126.355
606.75	127.100
607.09	127.253
607.42	127.514
607.75	129.307
608.08	126.325
608.42	125.948
608.75	130.265
609.08	131.988
609.41	132.589
609.75	131.401
610.08	130.754
610.41	129.420
610.74	130.765
611.07	133.282
611.41	131.915
611.74	133.689
612.07	131.424
612.40	133.206
612.73	133.785
613.07	132.846
613.40	130.689
613.73	134.191
614.06	132.666
614.39	131.923
614.72	131.373
615.06	133.687
615.39	131.223
615.72	130.248
616.05	131.844
616.38	130.028
616.71	134.067
617.05	135.825
617.38	134.695
617.71	136.981
618.04	135.746
618.37	135.876
618.70	138.218
619.03	140.417
619.36	138.784
619.69	141.395
620.03	141.344
620.36	138.841
620.69	139.329
621.02	139.755
621.35	143.900
621.68	145.238
622.01	144.750
622.34	140.144
622.67	140.142
623.00	138.285
623.33	142.378
623.66	138.145
623.99	137.368
624.32	141.293
624.65	141.729
624.99	140.256
625.32	138.741
625.65	140.299
625.98	143.755
626.31	143.890
626.64	146.707
626.97	143.455
627.30	145.009
627.63	143.934
627.96	146.361
628.29	146.716
628.62	150.639
628.95	146.794
629.28	148.690
629.61	151.346
629.94	149.071
630.26	148.913
630.59	151.405
630.92	150.154
631.25	147.795
631.58	155.617
631.91	153.618
632.24	154.243
632.57	152.159
632.90	155.991
633.23	151.647
633.56	162.217
633.89	156.967
634.22	156.543
634.55	161.245
634.88	160.026
635.20	155.897
635.53	161.067
635.86	156.827
636.19	156.404
636.52	159.439
636.85	156.079
637.18	154.969
637.51	154.340
637.83	157.293
638.16	162.892
638.49	156.676
638.82	154.868
639.15	159.023
639.48	158.597
639.81	158.298
640.13	160.462
640.46	157.289
640.79	164.359
641.12	161.004
641.45	163.063
641.77	159.259
642.10	165.561
642.43	163.987
642.76	167.987
643.09	162.843
643.41	158.576
643.74	164.580
644.07	165.353
644.40	169.426
644.73	169.877
645.05	161.913
645.38	171.076
645.71	168.440
646.04	170.557
646.36	167.908
646.69	166.906
647.02	174.669
647.35	172.761
647.67	165.814
648.00	172.761
648.33	161.775
648.66	165.932
648.98	163.149
649.31	165.620
649.64	161.852
649.96	161.264
650.29	165.928
650.62	163.761
650.94	170.556
651.27	172.253
651.60	167.207
651.92	163.462
652.25	169.272
652.58	163.333
652.90	169.468
653.23	163.697
653.56	161.252
653.88	165.120
654.21	162.872
654.54	161.630
654.86	162.139
655.19	155.848
655.52	144.350
655.84	124.265
656.17	100.000
656.49	100.000
656.82	100.000
657.15	100.000
657.47	100.000
657.80	100.000
658.13	124.007
658.45	171.295
658.78	128.518
659.10	130.359
659.43	134.394
659.75	140.010
660.08	144.759
660.41	153.320
660.73	154.696
661.06	168.804
661.38	166.341
661.71	166.735
662.03	173.391
662.36	172.967
662.68	172.788
663.01	175.983
663.33	180.974
663.66	176.279
663.98	175.116
664.31	166.738
664.63	178.111
664.96	169.130
665.28	173.510
665.61	172.078
665.93	172.609
666.26	174.403
666.58	172.483
666.91	179.765
667.23	180.425
667.56	178.910
667.88	174.820
668.21	183.532
668.53	179.669
668.86	177.123
669.18	176.651
669.50	171.429
669.83	170.930
670.15	174.359
670.48	172.727
670.80	173.041
671.13	166.667
671.45	171.005
671.77	165.236
672.10	165.545
672.42	164.419
672.75	161.101
673.07	163.148
673.39	160.550
673.72	163.905
674.04	167.292
674.37	169.492
674.69	169.593
675.01	172.667
675.34	172.748
675.66	172.685
675.98	170.288
676.31	174.083
676.63	180.523
676.95	167.273
677.28	175.765
677.60	179.518
677.92	168.349
678.25	165.864
678.57	170.563
678.89	167.857
679.22	175.168
679.54	164.659
679.86	164.811
680.18	166.019
680.51	160.795
680.83	163.618
681.15	164.800
681.48	167.828
681.80	166.116
682.12	167.137
682.44	166.527
682.77	175.938
683.09	171.167
683.41	166.364
683.73	168.664
684.06	168.142
684.38	168.602
684.70	172.331
685.02	166.183
685.34	162.253
685.67	164.540
685.99	161.844
686.31	157.699
686.63	161.596
686.96	160.646
687.28	165.859
687.60	157.985
687.92	166.465
688.24	164.718
688.56	172.052
688.89	168.750
689.21	165.778
689.53	170.070
689.85	168.372
690.17	166.518
690.49	168.794
690.82	171.117
691.14	174.048
691.46	172.430
691.78	169.144
692.10	169.032
692.42	160.606
692.74	161.966
693.06	163.063
693.39	165.837
693.71	163.122
694.03	169.284
694.35	167.523
694.67	169.697
694.99	170.496
695.31	175.718
695.63	166.500
695.95	167.424
696.27	170.207
696.59	177.778
696.91	176.471
697.23	167.609
697.56	170.297
697.88	161.075
698.20	168.565
698.52	165.176
698.84	163.158
699.16	173.000
699.48	170.677
699.80	164.020
700.12	173.585
700.44	173.950
700.76	175.291
701.08	174.545
701.40	178.614
701.72	185.802
702.04	181.518
702.36	190.635
702.68	174.174
703.00	181.818
703.32	172.727
703.64	161.299
703.96	168.986
704.28	173.313
704.60	178.730
704.91	175.079
705.23	176.080
705.55	183.392
705.87	188.087
706.19	188.889
706.51	174.227
706.83	172.669
707.15	166.044
707.47	170.868
707.79	162.240
708.11	162.000
708.43	163.000
708.74	164.599
709.06	176.338
709.38	178.593
709.70	164.201
710.02	175.159
710.34	171.827
710.66	165.705
710.98	175.828
711.29	180.000
711.61	174.915
711.93	172.638
712.25	180.756
712.57	179.487
712.89	182.090
713.20	169.896
713.52	169.338
713.84	170.990
714.16	179.381
714.48	174.194
714.80	174.679
715.11	170.821
715.43	166.144
715.75	173.333
716.07	169.767
716.39	174.161
716.70	173.432
717.02	176.718
717.34	177.733
717.66	190.708
717.97	182.609
718.29	182.845
718.61	175.984
718.93	176.357
719.24	174.905
719.56	184.337
719.88	159.450
720.20	179.167
720.51	172.797
720.83	171.042
721.15	181.513
721.46	180.645
721.78	174.308
722.10	165.799
722.42	175.104
722.73	174.694
723.05	180.408
723.37	179.661
723.68	188.288
724.00	179.487
724.32	182.222
724.63	175.000
724.95	177.729
725.27	182.028
725.58	174.576
725.90	174.603
726.22	173.745
726.53	162.712
726.85	171.536
727.16	171.321
727.48	174.089
727.80	174.089
728.11	181.356
728.43	165.490
728.74	171.371
729.06	169.600
729.38	170.301
729.69	174.900
730.01	173.077
730.32	171.642
730.64	164.664
730.96	176.226
731.27	162.667
731.59	167.458
731.90	165.287
732.22	162.776
732.53	166.445
732.85	171.631
733.16	166.330
733.48	171.223
733.80	176.087
734.11	160.678
734.43	174.227
734.74	164.545
735.06	173.290
735.37	154.381
735.69	171.717
736.00	168.293
736.32	160.738
736.63	169.014
736.95	159.727
737.26	163.701
737.58	161.745
737.89	170.696
738.21	170.677
738.52	174.897
738.83	180.349
739.15	175.546
739.46	166.142
739.78	168.132
740.09	156.536
740.41	166.304
740.72	172.047
741.04	170.445
741.35	170.213
741.66	179.147
741.98	185.714
742.29	178.713
742.61	183.246
742.92	173.460
743.23	169.907
743.55	175.566
743.86	180.861
744.18	176.077
744.49	185.638
744.80	192.935
745.12	196.791
745.43	169.756
745.74	188.021
746.06	174.146
746.37	186.387
746.68	166.825
747.00	178.723
747.31	175.622
747.62	176.214
747.94	177.033
748.25	185.149
748.56	192.896
748.88	185.340
749.19	187.234
749.50	176.847
749.82	170.283
750.13	181.193
750.44	166.541
750.75	175.000
751.07	167.518
751.38	174.330
751.69	170.588
752.01	172.093
752.32	176.096
752.63	164.822
752.94	173.707
753.26	173.640
753.57	178.733
753.88	175.664
754.19	179.167
754.51	170.661
754.82	174.089
755.13	169.583
755.44	168.548
755.75	164.844
756.07	170.039
756.38	164.906
756.69	168.966
757.00	159.000
757.31	155.556
757.63	151.220
757.94	151.667
758.25	154.795
758.56	152.926
758.87	152.975
759.18	149.221
759.50	169.818
759.81	161.538
760.12	161.935
760.43	154.242
760.74	159.568
761.05	164.615
761.36	151.420
761.67	154.242
761.99	163.605
762.30	157.818
762.61	155.336
762.92	172.398
763.23	159.459
763.54	170.093
763.85	163.559
764.16	162.241
764.47	161.290
764.78	148.352
765.10	156.566
765.41	156.151
765.72	155.238
766.03	170.677
766.34	156.569
766.65	164.940
766.96	173.232
767.27	169.681
767.58	164.943
767.89	195.745
768.20	168.182
768.51	167.582
768.82	168.473
769.13	164.977
769.44	148.498
769.75	167.123
770.06	150.000
770.37	160.096
770.68	171.066
770.99	157.919
771.30	172.059
771.61	160.633
771.92	158.621
772.23	166.502
772.54	161.828
772.85	180.247
773.16	161.236
773.47	191.503
773.78	177.778
774.09	157.485
774.39	176.000
774.70	162.420
775.01	170.345
775.32	170.000
775.63	184.298
775.94	180.153
776.25	162.992
776.56	169.167
776.87	189.423
777.18	176.068
777.48	176.724
777.79	166.087
778.10	176.190
778.41	171.171
778.72	162.698
779.03	163.158
779.34	168.085
779.65	177.397
779.95	164.384
780.26	160.690
780.57	175.610
780.88	161.417
781.19	179.310
781.50	182.946
781.80	147.337
782.11	154.717
782.42	180.000
782.73	168.345
783.04	165.185
783.34	154.861
783.65	174.359
783.96	182.787
784.27	155.172
784.57	169.106
784.88	164.062
785.19	182.000
785.50	187.000
785.81	154.310
786.11	171.552
786.42	184.466
786.73	172.727
787.04	173.469
787.34	167.857
787.65	169.524
787.96	161.062
788.26	185.455
788.57	155.556
788.88	157.031
789.19	157.143
789.49	166.087
789.80	190.816
790.11	173.737
790.41	153.636
790.72	165.217
791.03	169.318
791.33	171.250
791.64	163.750
791.95	170.930
792.25	154.255
792.56	156.180
792.87	175.342
793.17	188.406
793.48	166.667
793.79	162.500
794.09	186.250
794.40	145.283
794.70	175.728
795.01	141.463
795.32	153.846
795.62	172.381
795.93	165.686
796.23	154.717
796.54	147.917
796.85	182.353
797.15	167.606
797.46	172.222
797.76	186.364
798.07	151.163
798.37	171.053
798.68	168.182
798.99	146.914
799.29	158.571
799.60	186.957
799.90	172.000
800.21	198.361
800.51	163.077
800.82	169.492
801.12	171.014
801.43	177.049
801.73	157.143
802.04	210.000
802.34	140.299
802.65	203.846
802.95	144.643
803.26	159.615
803.56	203.922
803.87	191.304
804.17	134.667
804.48	179.365
804.78	170.370
805.09	191.304
805.39	184.444
805.70	185.185
806.00	159.649
806.30	140.845
806.61	161.429
806.91	162.500
807.22	159.211
807.52	144.000
807.83	185.455
808.13	137.500
808.43	160.294
808.74	153.731
809.04	176.271
809.35	175.000
809.65	154.687
809.95	218.919
810.26	179.545
810.56	132.877
810.86	195.238
811.17	180.000
811.47	155.102
811.77	163.158
812.08	175.000
812.38	135.849
812.69	175.000
812.99	181.818
813.29	197.368
813.59	151.429
813.90	156.818
814.20	207.692
814.50	180.769
814.81	169.811
815.11	159.574
815.41	162.712
815.72	185.714
816.02	143.137
816.32	141.667
816.62	175.610
816.93	159.459
817.23	174.286
817.53	164.583
817.84	143.478
818.14	150.000
818.44	139.474
818.74	156.522
819.04	130.000
819.35	167.568
819.65	147.059
819.95	166.667
820.25	161.905
820.56	155.000
820.86	155.172
821.16	200.000
821.46	153.191
821.76	177.500
822.07	141.860
822.37	145.946
822.67	181.250
822.97	152.381
823.27	192.857
823.57	208.000
823.88	148.148
824.18	203.571
824.48	138.235
824.78	196.774
825.08	195.652
825.38	169.697
825.69	225.000
825.99	155.263
826.29	152.778
826.59	313.333
826.89	219.048
827.19	126.087
827.49	130.000
827.79	134.286
828.09	200.000
828.39	184.848
828.70	186.486
829.00	164.286
829.30	214.286
829.60	176.667
829.90	146.875
830.20	128.947
830.50	174.074
830.80	204.348
831.10	209.091
831.40	166.667
831.70	145.161
832.00	142.857
832.30	157.143
832.60	250.000
832.90	134.483
833.20	200.000
833.50	133.333
833.80	159.259
834.10	150.000
834.40	140.625
834.70	455.556
835.00	173.684
835.30	180.769
835.60	260.000
835.90	161.290
836.20	236.364
836.50	125.000
836.80	119.231
837.10	150.000
837.40	833.333
837.70	127.273
838.00	236.364
838.30	130.435
838.60	200.000
838.90	177.273
839.19	128.571
839.49	130.000
839.79	230.769
840.09	158.333
840.39	146.429
840.69	121.429
840.99	100.000
841.29	121.053
841.59	180.000
841.88	354.545
842.18	400.000
842.48	193.750
842.78	153.333
843.08	96.296
843.38	190.000
843.68	121.739
843.97	186.667
844.27	80.000
844.57	155.000
844.87	127.778
845.17	109.524
845.47	166.667
845.76	114.286
846.06	188.235
846.36	280.000
846.66	114.286
846.96	213.333
847.25	137.500
847.55	207.143
847.85	237.500
848.15	109.091
848.44	466.667
848.74	150.000
849.04	92.593
849.34	245.455
849.63	233.333
849.93	140.000
850.23	111.111
850.53	280.000
850.82	169.231
851.12	155.556
851.42	133.333
851.71	88.462
852.01	150.000
852.31	675.000
852.61	136.364
852.90	105.000
853.20	121.053
853.50	208.333
853.79	91.304
854.09	158.333
854.39	168.421
854.68	137.500
854.98	116.129
855.28	130.769
855.57	100.000
855.87	227.778
856.17	159.259
856.46	200.000
856.76	160.000
857.05	300.000
857.35	128.000
857.65	216.667
857.94	161.538
858.24	110.345
858.53	155.556
858.83	133.333
859.13	95.455
859.42	69.565
859.72	375.000
860.01	433.333
860.31	112.000
860.60	100.000
860.90	300.000
861.20	80.000
861.49	600.000
861.79	140.000
862.08	155.000
862.38	173.333
862.67	120.000
862.97	316.667
863.26	183.333
863.56	83.333
863.85	433.333
864.15	127.778
864.44	100.000
864.74	128.571
865.03	-250.000
865.33	460.000
865.62	450.000
865.92	133.333
866.21	250.000
866.51	137.500
866.80	127.273
867.10	800.000
867.39	175.000
867.69	0.000
867.98	153.846
868.27	566.667
868.57	106.667
868.86	94.444
869.16	38.462
869.45	146.667
869.75	300.000
870.04	0.000
870.33	171.429
870.63	119.048
870.92	33.333
871.22	240.000
871.51	1000.000
871.80	266.667
872.10	-266.667
>>>>>End Processed Spectral Data<<<<<
