SpectraSuite Data File
++++++++++++++++++++++++++++++++++++
Date: Fri May 15 17:27:05 PDT 2015
User: schluterlab
Dark Spectrum Present: Yes
Reference Spectrum Present: Yes
Number of Sampled Component Spectra: 1
Spectrometers: USB2E3373
Integration Time (usec): 3000 (USB2E3373)
Spectra Averaged: 3 (USB2E3373)
Boxcar Smoothing: 0 (USB2E3373)
Correct for Electrical Dark: No (USB2E3373)
Strobe/Lamp Enabled: No (USB2E3373)
Correct for Detector Non-linearity: No (USB2E3373)
Correct for Stray Light: No (USB2E3373)
Number of Pixels in Processed Spectrum: 2048
>>>>>Begin Processed Spectral Data<<<<<
178.53	0.000
178.91	0.000
179.29	87.500
179.67	-100.000
180.04	-142.857
180.42	50.000
180.80	-500.000
181.18	-33.333
181.56	100.000
181.94	-200.000
182.31	300.000
182.69	-40.000
183.07	-66.667
183.45	80.000
183.83	83.333
184.20	-54.545
184.58	166.667
184.96	-325.000
185.34	66.667
185.72	-500.000
186.09	23.077
186.47	-100.000
186.85	33.333
187.23	188.889
187.61	1200.000
187.98	33.333
188.36	33.333
188.74	-100.000
189.12	82.353
189.49	72.222
189.87	0.000
190.25	64.286
190.63	250.000
191.00	0.000
191.38	15.789
191.76	250.000
192.14	-50.000
192.51	250.000
192.89	33.333
193.27	42.857
193.65	66.667
194.02	100.000
194.40	40.000
194.78	-100.000
195.15	91.667
195.53	-62.500
195.91	50.000
196.29	0.000
196.66	92.308
197.04	28.571
197.42	77.778
197.79	-500.000
198.17	-69.231
198.55	300.000
198.92	-533.333
199.30	-800.000
199.68	-180.000
200.05	-166.667
200.43	0.000
200.81	-166.667
201.18	100.000
201.56	800.000
201.94	-100.000
202.31	-33.333
202.69	-100.000
203.07	200.000
203.44	600.000
203.82	0.000
204.19	57.143
204.57	-400.000
204.95	25.000
205.32	90.000
205.70	57.143
206.08	-50.000
206.45	177.778
206.83	135.714
207.20	-142.857
207.58	-200.000
207.96	-366.667
208.33	-50.000
208.71	75.000
209.08	-66.667
209.46	-1000.000
209.84	-20.000
210.21	500.000
210.59	14.286
210.96	-83.333
211.34	0.000
211.71	26.667
212.09	-71.429
212.46	-900.000
212.84	0.000
213.22	150.000
213.59	150.000
213.97	69.231
214.34	109.091
214.72	16.667
215.09	525.000
215.47	30.769
215.84	18.182
216.22	33.333
216.59	25.000
216.97	650.000
217.34	250.000
217.72	-40.000
218.09	50.000
218.47	-75.000
218.84	500.000
219.22	22.222
219.59	40.000
219.97	500.000
220.34	425.000
220.72	71.429
221.09	-125.000
221.47	0.000
221.84	-500.000
222.22	-550.000
222.59	36.364
222.97	75.000
223.34	-33.333
223.72	28.571
224.09	42.857
224.46	21.429
224.84	66.667
225.21	10.000
225.59	53.333
225.96	-100.000
226.34	425.000
226.71	-57.143
227.08	116.667
227.46	0.000
227.83	200.000
228.21	33.333
228.58	81.818
228.95	37.500
229.33	50.000
229.70	56.250
230.08	62.500
230.45	-71.429
230.82	28.571
231.20	-20.000
231.57	50.000
231.95	0.000
232.32	10.000
232.69	14.286
233.07	166.667
233.44	-120.000
233.81	-60.000
234.19	44.444
234.56	17.647
234.93	500.000
235.31	175.000
235.68	-120.000
236.05	7.692
236.43	-15.000
236.80	17.647
237.17	21.875
237.55	30.000
237.92	40.741
238.29	27.778
238.67	56.667
239.04	20.588
239.41	-9.756
239.79	36.667
240.16	41.463
240.53	15.789
240.91	17.391
241.28	28.571
241.65	42.857
242.02	38.356
242.40	33.333
242.77	33.898
243.14	34.848
243.51	26.250
243.89	31.034
244.26	28.736
244.63	29.762
245.00	28.866
245.38	41.237
245.75	16.854
246.12	21.552
246.49	29.752
246.87	25.000
247.24	24.370
247.61	23.684
247.98	29.268
248.36	30.000
248.73	31.579
249.10	25.325
249.47	33.544
249.84	33.987
250.22	22.941
250.59	30.719
250.96	28.169
251.33	26.163
251.70	37.647
252.08	28.426
252.45	32.673
252.82	27.136
253.19	36.866
253.56	26.168
253.94	31.081
254.31	33.043
254.68	32.018
255.05	35.039
255.42	28.821
255.79	28.958
256.16	30.739
256.54	33.209
256.91	33.460
257.28	32.342
257.65	31.835
258.02	29.078
258.39	36.027
258.76	30.403
259.14	33.887
259.51	25.566
259.88	31.615
260.25	30.065
260.62	34.722
260.99	30.508
261.36	33.219
261.73	29.114
262.10	29.179
262.47	30.368
262.85	26.959
263.22	30.462
263.59	28.037
263.96	32.609
264.33	33.939
264.70	30.655
265.07	29.167
265.44	33.711
265.81	28.531
266.18	33.880
266.55	32.648
266.92	30.311
267.29	30.026
267.66	29.156
268.03	30.628
268.40	28.460
268.77	33.422
269.14	29.257
269.51	30.848
269.88	29.426
270.25	29.592
270.62	30.732
270.99	29.923
271.36	25.917
271.73	31.221
272.10	32.117
272.47	29.078
272.84	30.693
273.21	32.019
273.58	30.602
273.95	31.350
274.32	30.947
274.69	28.281
275.06	32.589
275.43	29.478
275.80	31.567
276.17	30.345
276.54	31.049
276.91	33.333
277.28	28.384
277.65	30.992
278.02	30.638
278.39	30.197
278.76	30.818
279.13	24.274
279.50	29.202
279.87	29.158
280.23	27.957
280.60	28.850
280.97	32.525
281.34	28.269
281.71	28.953
282.08	27.607
282.45	26.810
282.82	29.730
283.19	29.981
283.56	28.709
283.92	29.222
284.29	27.885
284.66	27.713
285.03	27.898
285.40	28.733
285.77	27.592
286.14	29.964
286.51	30.258
286.87	26.874
287.24	27.440
287.61	25.220
287.98	29.123
288.35	27.556
288.72	28.897
289.08	26.562
289.45	26.714
289.82	27.622
290.19	26.451
290.56	25.901
290.93	26.431
291.29	23.421
291.66	25.984
292.03	26.316
292.40	25.323
292.77	24.721
293.13	22.565
293.50	23.065
293.87	21.374
294.24	24.420
294.60	24.292
294.97	23.512
295.34	22.546
295.71	24.292
296.08	21.824
296.44	21.053
296.81	20.556
297.18	22.029
297.55	22.222
297.91	23.014
298.28	23.219
298.65	22.795
299.02	21.294
299.38	19.152
299.75	23.172
300.12	19.634
300.48	22.003
300.85	21.166
301.22	20.000
301.59	19.868
301.95	22.025
302.32	21.271
302.69	20.522
303.05	18.441
303.42	20.922
303.79	20.444
304.15	19.833
304.52	19.738
304.89	17.895
305.25	19.734
305.62	19.370
305.99	20.000
306.35	19.191
306.72	17.435
307.09	19.156
307.45	19.633
307.82	19.329
308.19	19.512
308.55	19.956
308.92	18.954
309.29	19.553
309.65	17.869
310.02	18.812
310.38	18.002
310.75	19.344
311.12	19.914
311.48	18.558
311.85	17.906
312.22	19.515
312.58	19.958
312.95	17.716
313.31	16.977
313.68	16.754
314.05	19.184
314.41	18.969
314.78	18.247
315.14	19.527
315.51	18.427
315.87	18.648
316.24	20.121
316.61	19.094
316.97	17.857
317.34	18.848
317.70	18.834
318.07	18.077
318.43	19.020
318.80	17.992
319.16	20.410
319.53	20.323
319.89	19.390
320.26	20.547
320.62	21.364
320.99	20.042
321.35	19.424
321.72	20.145
322.08	20.645
322.45	20.305
322.81	20.923
323.18	20.314
323.54	19.788
323.91	21.032
324.27	22.559
324.64	22.940
325.00	23.540
325.37	24.334
325.73	23.119
326.10	24.614
326.46	24.036
326.83	24.497
327.19	24.935
327.56	25.630
327.92	27.641
328.29	26.339
328.65	27.264
329.01	27.574
329.38	27.281
329.74	27.007
330.11	28.823
330.47	27.273
330.84	28.462
331.20	31.559
331.56	29.907
331.93	30.776
332.29	30.706
332.66	30.860
333.02	32.342
333.38	30.797
333.75	32.051
334.11	31.155
334.48	32.366
334.84	33.059
335.20	32.296
335.57	30.734
335.93	33.062
336.29	33.517
336.66	33.243
337.02	33.086
337.38	32.870
337.75	34.364
338.11	33.273
338.47	34.763
338.84	34.288
339.20	33.729
339.56	34.495
339.93	34.825
340.29	35.229
340.65	34.767
341.02	34.131
341.38	35.487
341.74	34.011
342.11	33.362
342.47	34.786
342.83	34.689
343.20	33.014
343.56	36.348
343.92	34.012
344.28	36.123
344.65	34.283
345.01	36.387
345.37	34.062
345.73	35.481
346.10	36.152
346.46	34.819
346.82	35.025
347.19	32.751
347.55	35.422
347.91	35.680
348.27	34.681
348.63	35.605
349.00	35.521
349.36	36.243
349.72	35.489
350.08	34.672
350.45	35.674
350.81	34.635
351.17	34.853
351.53	35.592
351.89	34.682
352.26	33.600
352.62	35.726
352.98	35.100
353.34	35.588
353.70	36.489
354.07	35.323
354.43	33.627
354.79	35.178
355.15	36.190
355.51	35.127
355.87	35.680
356.24	34.584
356.60	35.489
356.96	36.587
357.32	36.102
357.68	35.340
358.04	35.945
358.40	36.013
358.77	36.842
359.13	35.548
359.49	35.362
359.85	36.817
360.21	37.480
360.57	35.578
360.93	37.065
361.29	36.103
361.66	37.853
362.02	39.091
362.38	36.481
362.74	37.017
363.10	37.923
363.46	36.620
363.82	38.542
364.18	38.081
364.54	37.353
364.90	37.419
365.26	37.555
365.62	38.905
365.98	37.537
366.35	39.767
366.71	37.842
367.07	38.026
367.43	38.821
367.79	38.728
368.15	38.765
368.51	40.350
368.87	38.765
369.23	38.484
369.59	41.035
369.95	39.883
370.31	39.595
370.67	40.000
371.03	40.030
371.39	38.731
371.75	39.780
372.11	40.300
372.47	40.385
372.83	41.022
373.19	40.585
373.55	39.856
373.91	40.173
374.27	41.035
374.63	41.637
374.99	40.922
375.35	42.479
375.71	42.168
376.07	41.924
376.42	42.721
376.78	42.282
377.14	42.586
377.50	42.762
377.86	44.244
378.22	42.821
378.58	43.590
378.94	43.478
379.30	43.481
379.66	45.141
380.02	44.145
380.38	43.396
380.74	44.165
381.09	45.276
381.45	45.076
381.81	44.602
382.17	44.607
382.53	44.410
382.89	46.139
383.25	46.422
383.61	46.037
383.97	47.048
384.32	45.904
384.68	46.316
385.04	46.936
385.40	46.671
385.76	49.434
386.12	48.900
386.48	48.914
386.83	48.129
387.19	48.474
387.55	48.996
387.91	49.328
388.27	48.901
388.62	49.528
388.98	49.171
389.34	49.219
389.70	50.715
390.06	49.025
390.42	49.806
390.77	51.145
391.13	49.685
391.49	50.582
391.85	51.397
392.20	51.287
392.56	50.985
392.92	51.262
393.28	52.830
393.64	52.132
393.99	51.536
394.35	51.866
394.71	51.724
395.07	51.163
395.42	51.852
395.78	52.182
396.14	52.963
396.50	51.744
396.85	52.994
397.21	52.193
397.57	53.542
397.92	52.007
398.28	53.621
398.64	52.108
399.00	53.555
399.35	52.032
399.71	52.786
400.07	54.293
400.42	52.570
400.78	54.868
401.14	53.418
401.49	52.829
401.85	52.590
402.21	54.157
402.57	55.062
402.92	53.450
403.28	54.825
403.63	54.603
403.99	53.827
404.35	54.966
404.70	52.798
405.06	53.584
405.42	53.760
405.77	52.644
406.13	55.006
406.49	53.996
406.84	54.401
407.20	54.485
407.55	54.540
407.91	55.214
408.27	54.557
408.62	54.954
408.98	53.974
409.34	54.833
409.69	53.811
410.05	53.818
410.40	54.074
410.76	54.885
411.11	54.750
411.47	54.241
411.83	53.923
412.18	55.792
412.54	52.871
412.89	54.002
413.25	56.017
413.60	54.286
413.96	53.804
414.31	54.085
414.67	54.266
415.03	55.060
415.38	54.439
415.74	53.681
416.09	55.715
416.45	55.638
416.80	54.131
417.16	56.837
417.51	55.097
417.87	55.215
418.22	56.477
418.58	56.522
418.93	55.737
419.29	53.585
419.64	55.930
420.00	56.549
420.35	55.403
420.71	56.075
421.06	56.108
421.42	56.310
421.77	56.994
422.12	55.108
422.48	55.820
422.83	55.974
423.19	55.643
423.54	56.673
423.90	54.947
424.25	56.487
424.61	57.038
424.96	55.052
425.31	57.481
425.67	56.338
426.02	57.303
426.38	57.671
426.73	57.506
427.09	59.241
427.44	57.353
427.79	56.688
428.15	55.825
428.50	56.753
428.85	55.713
429.21	57.329
429.56	58.005
429.92	56.651
430.27	57.444
430.62	57.658
430.98	57.378
431.33	57.518
431.68	55.730
432.04	56.847
432.39	57.501
432.74	57.005
433.10	58.391
433.45	58.005
433.80	57.806
434.16	58.061
434.51	58.280
434.86	58.130
435.22	56.870
435.57	59.701
435.92	57.545
436.28	57.066
436.63	58.186
436.98	57.879
437.34	58.379
437.69	58.855
438.04	59.202
438.39	58.216
438.75	60.170
439.10	58.234
439.45	60.256
439.81	59.327
440.16	60.095
440.51	59.164
440.86	60.302
441.22	59.502
441.57	60.817
441.92	60.283
442.27	62.140
442.63	60.814
442.98	61.114
443.33	60.100
443.68	60.106
444.03	60.159
444.39	60.895
444.74	61.873
445.09	61.192
445.44	61.197
445.79	60.701
446.15	60.132
446.50	59.789
446.85	61.637
447.20	60.480
447.55	61.217
447.91	60.180
448.26	60.046
448.61	61.082
448.96	62.421
449.31	60.925
449.66	61.382
450.02	60.582
450.37	61.114
450.72	62.199
451.07	62.911
451.42	60.737
451.77	62.146
452.12	60.526
452.47	60.721
452.83	60.306
453.18	61.796
453.53	61.947
453.88	61.809
454.23	61.340
454.58	62.406
454.93	61.662
455.28	60.698
455.63	63.174
455.98	61.936
456.34	61.111
456.69	61.309
457.04	62.004
457.39	61.786
457.74	61.971
458.09	61.683
458.44	61.615
458.79	60.728
459.14	61.728
459.49	62.687
459.84	61.365
460.19	61.833
460.54	62.469
460.89	61.989
461.24	61.863
461.59	61.401
461.94	61.761
462.29	60.796
462.64	60.465
462.99	62.085
463.34	61.057
463.69	61.905
464.04	61.501
464.39	61.128
464.74	61.718
465.09	63.319
465.44	63.358
465.79	60.941
466.14	60.661
466.49	61.645
466.84	62.701
467.19	62.140
467.54	61.494
467.89	62.350
468.24	61.496
468.59	61.778
468.94	62.032
469.29	61.836
469.64	61.244
469.99	62.228
470.34	62.594
470.68	63.609
471.03	61.500
471.38	62.340
471.73	61.695
472.08	60.651
472.43	62.349
472.78	61.343
473.13	62.313
473.48	61.433
473.83	61.893
474.17	62.241
474.52	61.966
474.87	62.364
475.22	60.464
475.57	61.829
475.92	61.437
476.27	62.398
476.61	62.269
476.96	59.788
477.31	62.358
477.66	61.124
478.01	61.538
478.36	61.111
478.70	63.458
479.05	63.077
479.40	62.268
479.75	60.375
480.10	61.086
480.45	62.450
480.79	61.279
481.14	61.783
481.49	60.640
481.84	62.259
482.19	61.085
482.53	62.926
482.88	61.766
483.23	61.372
483.58	62.453
483.92	60.939
484.27	61.440
484.62	61.452
484.97	61.567
485.31	60.621
485.66	61.848
486.01	62.817
486.36	62.344
486.70	62.180
487.05	61.648
487.40	60.910
487.75	61.437
488.09	59.827
488.44	60.488
488.79	60.814
489.13	60.777
489.48	60.368
489.83	60.628
490.17	60.989
490.52	61.293
490.87	60.805
491.22	60.984
491.56	60.057
491.91	59.847
492.26	61.740
492.60	61.564
492.95	62.273
493.30	60.234
493.64	61.837
493.99	60.483
494.34	60.000
494.68	60.524
495.03	60.633
495.37	61.776
495.72	60.525
496.07	61.317
496.41	61.698
496.76	61.262
497.11	60.363
497.45	60.525
497.80	61.453
498.14	59.613
498.49	60.640
498.84	60.279
499.18	60.743
499.53	61.310
499.87	60.263
500.22	61.276
500.56	61.826
500.91	60.191
501.26	60.405
501.60	60.846
501.95	61.038
502.29	61.065
502.64	61.776
502.98	61.914
503.33	60.134
503.67	60.482
504.02	60.753
504.36	60.168
504.71	60.455
505.06	60.040
505.40	60.964
505.75	62.113
506.09	60.669
506.44	61.910
506.78	60.663
507.13	61.841
507.47	59.896
507.82	59.989
508.16	61.226
508.51	60.965
508.85	61.224
509.19	60.724
509.54	59.678
509.88	60.626
510.23	61.700
510.57	61.358
510.92	59.275
511.26	61.266
511.61	61.386
511.95	61.260
512.30	60.754
512.64	61.157
512.98	60.752
513.33	60.940
513.67	60.716
514.02	62.243
514.36	61.943
514.70	62.821
515.05	62.338
515.39	61.216
515.74	62.814
516.08	61.626
516.42	62.073
516.77	62.610
517.11	62.611
517.46	62.777
517.80	61.800
518.14	61.788
518.49	61.899
518.83	61.908
519.17	61.007
519.52	60.391
519.86	60.684
520.20	61.847
520.55	61.538
520.89	61.355
521.23	61.811
521.58	62.019
521.92	61.090
522.26	61.223
522.61	61.558
522.95	63.709
523.29	62.071
523.64	61.817
523.98	62.865
524.32	62.371
524.66	63.188
525.01	62.532
525.35	61.115
525.69	62.424
526.04	64.021
526.38	62.127
526.72	61.282
527.06	61.154
527.41	62.599
527.75	61.126
528.09	61.528
528.43	64.416
528.78	61.980
529.12	62.065
529.46	62.443
529.80	60.291
530.15	62.442
530.49	63.434
530.83	62.927
531.17	62.525
531.51	62.996
531.86	62.339
532.20	61.239
532.54	61.675
532.88	62.560
533.22	62.702
533.57	62.058
533.91	62.467
534.25	63.997
534.59	61.450
534.93	61.548
535.27	61.612
535.62	63.318
535.96	61.905
536.30	63.852
536.64	63.611
536.98	61.742
537.32	62.873
537.66	62.973
538.01	62.238
538.35	62.275
538.69	62.650
539.03	61.039
539.37	63.122
539.71	61.895
540.05	60.149
540.39	62.327
540.73	63.598
541.07	63.674
541.42	61.492
541.76	62.354
542.10	62.698
542.44	63.308
542.78	62.078
543.12	61.470
543.46	63.143
543.80	62.457
544.14	59.413
544.48	62.425
544.82	64.320
545.16	62.910
545.50	61.015
545.84	63.669
546.18	63.121
546.52	62.581
546.86	61.395
547.20	62.661
547.54	60.636
547.88	63.927
548.22	61.736
548.56	61.939
548.90	63.814
549.24	60.468
549.58	61.918
549.92	60.615
550.26	62.930
550.60	64.164
550.94	62.957
551.28	62.287
551.62	63.923
551.96	62.782
552.30	63.012
552.64	62.059
552.98	61.674
553.32	62.126
553.66	63.353
554.00	62.628
554.34	62.703
554.68	61.357
555.02	63.467
555.36	60.583
555.69	62.344
556.03	61.599
556.37	61.779
556.71	62.166
557.05	63.609
557.39	61.413
557.73	62.969
558.07	63.273
558.41	63.170
558.75	61.574
559.08	62.017
559.42	61.032
559.76	62.770
560.10	61.621
560.44	61.951
560.78	62.727
561.12	63.540
561.45	63.809
561.79	63.445
562.13	62.740
562.47	61.871
562.81	63.112
563.15	62.976
563.48	61.810
563.82	62.594
564.16	63.092
564.50	63.108
564.84	62.718
565.17	62.508
565.51	64.481
565.85	64.540
566.19	62.798
566.52	64.343
566.86	64.396
567.20	62.951
567.54	63.808
567.88	65.495
568.21	64.876
568.55	63.750
568.89	64.579
569.23	65.527
569.56	64.536
569.90	65.976
570.24	63.342
570.57	65.309
570.91	66.121
571.25	65.044
571.59	63.594
571.92	63.111
572.26	63.919
572.60	63.876
572.93	62.504
573.27	63.730
573.61	64.171
573.95	64.446
574.28	64.115
574.62	63.794
574.96	63.301
575.29	63.857
575.63	62.244
575.97	62.808
576.30	62.946
576.64	63.497
576.98	63.990
577.31	64.488
577.65	65.092
577.98	64.793
578.32	64.588
578.66	62.863
578.99	62.494
579.33	62.878
579.67	62.730
580.00	63.924
580.34	64.055
580.67	62.859
581.01	63.593
581.35	63.630
581.68	64.200
582.02	64.544
582.35	64.420
582.69	63.966
583.02	63.598
583.36	63.662
583.70	64.590
584.03	64.498
584.37	65.020
584.70	63.434
585.04	62.332
585.37	63.415
585.71	64.527
586.04	63.565
586.38	64.577
586.72	63.759
587.05	66.147
587.39	64.579
587.72	65.500
588.06	64.157
588.39	63.743
588.73	64.621
589.06	64.677
589.40	64.570
589.73	63.892
590.07	64.464
590.40	65.054
590.73	65.033
591.07	63.740
591.40	64.025
591.74	64.299
592.07	65.121
592.41	65.150
592.74	65.472
593.08	64.268
593.41	65.272
593.75	64.835
594.08	64.023
594.41	64.047
594.75	64.008
595.08	65.418
595.42	65.881
595.75	66.091
596.09	65.129
596.42	64.820
596.75	65.586
597.09	64.920
597.42	63.640
597.75	66.239
598.09	62.517
598.42	63.944
598.76	64.136
599.09	64.103
599.42	63.812
599.76	64.108
600.09	64.291
600.42	64.443
600.76	64.339
601.09	64.160
601.42	63.886
601.76	64.669
602.09	64.315
602.42	64.954
602.76	64.559
603.09	66.321
603.42	66.555
603.76	65.968
604.09	64.318
604.42	65.440
604.76	65.777
605.09	65.402
605.42	65.824
605.75	63.398
606.09	65.520
606.42	64.679
606.75	64.199
607.09	64.747
607.42	64.732
607.75	65.187
608.08	63.477
608.42	63.499
608.75	65.060
609.08	65.122
609.41	65.228
609.75	64.315
610.08	65.552
610.41	64.928
610.74	65.334
611.07	66.408
611.41	65.906
611.74	65.832
612.07	65.739
612.40	64.880
612.73	64.802
613.07	63.105
613.40	65.098
613.73	65.025
614.06	64.608
614.39	65.821
614.72	64.818
615.06	64.916
615.39	63.428
615.72	63.832
616.05	65.084
616.38	63.533
616.71	64.954
617.05	65.658
617.38	65.996
617.71	65.786
618.04	65.968
618.37	67.339
618.70	65.479
619.03	65.764
619.36	65.919
619.69	66.641
620.03	66.837
620.36	65.451
620.69	65.453
621.02	64.985
621.35	65.311
621.68	67.432
622.01	65.833
622.34	65.283
622.67	66.009
623.00	64.548
623.33	64.863
623.66	64.398
623.99	65.204
624.32	66.768
624.65	64.361
624.99	67.344
625.32	65.277
625.65	67.243
625.98	66.479
626.31	64.173
626.64	67.504
626.97	66.143
627.30	66.112
627.63	65.425
627.96	66.307
628.29	66.605
628.62	66.273
628.95	65.932
629.28	67.540
629.61	67.398
629.94	67.155
630.26	64.526
630.59	67.118
630.92	65.436
631.25	64.923
631.58	65.859
631.91	67.325
632.24	66.743
632.57	65.682
632.90	66.667
633.23	65.647
633.56	66.877
633.89	64.982
634.22	67.284
634.55	67.853
634.88	67.816
635.20	64.615
635.53	65.867
635.86	66.710
636.19	68.047
636.52	67.219
636.85	68.486
637.18	64.654
637.51	65.157
637.83	65.703
638.16	66.166
638.49	64.033
638.82	66.316
639.15	68.114
639.48	68.363
639.81	68.201
640.13	68.110
640.46	67.784
640.79	67.305
641.12	66.913
641.45	66.517
641.77	66.667
642.10	68.246
642.43	65.756
642.76	66.172
643.09	64.620
643.41	63.430
643.74	66.063
644.07	65.517
644.40	68.243
644.73	67.951
645.05	63.926
645.38	67.019
645.71	66.489
646.04	67.145
646.36	67.376
646.69	67.626
647.02	70.510
647.35	66.791
647.67	65.448
648.00	68.843
648.33	65.870
648.66	70.339
648.98	65.494
649.31	68.926
649.64	64.678
649.96	66.937
650.29	66.269
650.62	66.667
650.94	67.778
651.27	66.480
651.60	66.667
651.92	67.133
652.25	67.496
652.58	67.833
652.90	67.581
653.23	65.546
653.56	69.036
653.88	67.526
654.21	64.974
654.54	64.007
654.86	67.742
655.19	66.667
655.52	70.666
655.84	70.947
656.17	78.387
656.49	100.000
656.82	100.000
657.15	87.953
657.47	59.543
657.80	44.180
658.13	42.797
658.45	65.725
658.78	64.190
659.10	63.272
659.43	62.242
659.75	63.049
660.08	62.552
660.41	64.249
660.73	64.641
661.06	66.205
661.38	64.971
661.71	63.244
662.03	69.099
662.36	64.615
662.68	67.699
663.01	68.122
663.33	67.981
663.66	69.767
663.98	64.884
664.31	66.311
664.63	65.668
664.96	64.783
665.28	66.225
665.61	66.234
665.93	65.870
666.26	67.679
666.58	64.877
666.91	66.588
667.23	68.396
667.56	70.853
667.88	64.508
668.21	69.451
668.53	67.376
668.86	63.915
669.18	63.915
669.50	65.617
669.83	64.419
670.15	65.268
670.48	67.943
670.80	67.742
671.13	65.996
671.45	65.753
671.77	67.597
672.10	65.941
672.42	66.667
672.75	66.963
673.07	70.483
673.39	66.789
673.72	63.314
674.04	67.292
674.37	64.619
674.69	69.165
675.01	67.333
675.34	64.640
675.66	68.519
675.98	62.749
676.31	68.119
676.63	67.458
676.95	64.773
677.28	68.471
677.60	62.892
677.92	63.761
678.25	67.834
678.57	67.749
678.89	67.437
679.22	70.246
679.54	66.265
679.86	66.402
680.18	66.408
680.51	67.614
680.83	64.811
681.15	71.200
681.48	66.803
681.80	69.008
682.12	66.532
682.44	65.272
682.77	68.653
683.09	66.819
683.41	62.727
683.73	66.129
684.06	66.372
684.38	67.957
684.70	66.667
685.02	72.614
685.34	65.810
685.67	65.103
685.99	70.705
686.31	64.602
686.63	66.048
686.96	65.209
687.28	66.061
687.60	64.639
687.92	66.667
688.24	67.137
688.56	71.834
688.89	65.402
689.21	66.667
689.53	62.645
689.85	67.674
690.17	66.071
690.49	68.322
690.82	67.961
691.14	68.095
691.46	70.794
691.78	68.243
692.10	64.946
692.42	62.121
692.74	65.385
693.06	67.117
693.39	66.516
693.71	69.005
694.03	63.279
694.35	66.121
694.67	67.677
694.99	65.796
695.31	67.102
695.63	67.250
695.95	66.162
696.27	63.212
696.59	70.556
696.91	65.266
697.23	64.781
697.56	67.079
697.88	68.602
698.20	71.071
698.52	67.765
698.84	65.311
699.16	66.750
699.48	70.426
699.80	66.253
700.12	67.655
700.44	65.546
700.76	61.337
701.08	65.455
701.40	65.361
701.72	75.617
702.04	70.957
702.36	68.896
702.68	65.766
703.00	69.091
703.32	69.795
703.64	61.864
703.96	67.246
704.28	63.804
704.60	63.492
704.91	66.562
705.23	70.764
705.55	70.671
705.87	68.592
706.19	71.481
706.51	69.416
706.83	67.524
707.15	66.355
707.47	70.588
707.79	68.229
708.11	67.500
708.43	68.750
708.74	68.992
709.06	70.141
709.38	71.560
709.70	67.751
710.02	65.287
710.34	67.183
710.66	65.705
710.98	63.907
711.29	69.508
711.61	66.102
711.93	66.775
712.25	69.072
712.57	70.330
712.89	63.060
713.20	70.242
713.52	67.247
713.84	63.823
714.16	66.323
714.48	67.419
714.80	73.077
715.11	68.693
715.43	65.204
715.75	66.000
716.07	64.784
716.39	70.805
716.70	65.683
717.02	67.939
717.34	68.826
717.66	69.027
717.97	71.304
718.29	70.711
718.61	66.142
718.93	74.031
719.24	67.681
719.56	74.297
719.88	65.636
720.20	65.909
720.51	65.134
720.83	68.340
721.15	72.689
721.46	63.306
721.78	64.032
722.10	64.312
722.42	67.220
722.73	68.163
723.05	68.163
723.37	72.881
723.68	77.027
724.00	61.966
724.32	72.444
724.63	65.909
724.95	77.729
725.27	71.889
725.58	66.525
725.90	64.683
726.22	73.359
726.53	63.051
726.85	74.157
727.16	72.453
727.48	68.016
727.80	68.826
728.11	66.102
728.43	67.059
728.74	64.113
729.06	70.800
729.38	63.910
729.69	72.510
730.01	66.538
730.32	72.388
730.64	70.318
730.96	69.057
731.27	64.333
731.59	69.831
731.90	68.790
732.22	69.716
732.53	68.771
732.85	72.340
733.16	69.360
733.48	66.906
733.80	69.565
734.11	66.102
734.43	71.134
734.74	72.424
735.06	68.730
735.37	68.882
735.69	73.064
736.00	67.247
736.32	64.430
736.63	68.310
736.95	69.966
737.26	70.107
737.58	61.409
737.89	72.527
738.21	70.301
738.52	71.193
738.83	68.996
739.15	62.445
739.46	74.016
739.78	66.300
740.09	66.667
740.41	72.826
740.72	65.354
741.04	67.611
741.35	67.660
741.66	68.720
741.98	64.796
742.29	70.792
742.61	66.492
742.92	60.664
743.23	59.259
743.55	72.851
743.86	69.856
744.18	68.421
744.49	65.426
744.80	67.935
745.12	74.866
745.43	62.439
745.74	72.396
746.06	66.829
746.37	68.586
746.68	68.720
747.00	71.277
747.31	70.647
747.62	66.505
747.94	70.335
748.25	71.287
748.56	75.410
748.88	68.063
749.19	75.532
749.50	63.547
749.82	67.453
750.13	70.183
750.44	72.180
750.75	75.000
751.07	69.708
751.38	67.050
751.69	64.706
752.01	74.419
752.32	69.323
752.63	68.379
752.94	71.121
753.26	67.364
753.57	63.801
753.88	75.664
754.19	71.667
754.51	67.355
754.82	63.968
755.13	68.750
755.44	74.597
755.75	72.266
756.07	68.872
756.38	70.189
756.69	72.031
757.00	67.667
757.31	69.935
757.63	65.244
757.94	64.167
758.25	66.027
758.56	62.500
758.87	63.739
759.18	66.044
759.50	72.000
759.81	70.234
760.12	68.710
760.43	68.788
760.74	70.062
761.05	71.077
761.36	69.034
761.67	66.061
761.99	72.109
762.30	60.364
762.61	69.170
762.92	62.443
763.23	61.712
763.54	67.757
763.85	72.881
764.16	64.315
764.47	66.532
764.78	64.103
765.10	69.360
765.41	66.246
765.72	68.254
766.03	69.173
766.34	65.328
766.65	68.526
766.96	74.747
767.27	67.553
767.58	65.517
767.89	66.667
768.20	61.364
768.51	73.626
768.82	70.936
769.13	69.585
769.44	66.953
769.75	68.493
770.06	61.638
770.37	69.712
770.68	65.482
770.99	68.326
771.30	76.961
771.61	69.231
771.92	65.517
772.23	67.488
772.54	62.366
772.85	72.222
773.16	68.539
773.47	90.196
773.78	69.935
774.09	59.281
774.39	64.667
774.70	66.242
775.01	70.345
775.32	62.143
775.63	78.512
775.94	64.122
776.25	66.142
776.56	65.000
776.87	64.423
777.18	68.376
777.48	67.241
777.79	59.130
778.10	59.048
778.41	63.964
778.72	69.048
779.03	68.421
779.34	69.504
779.65	69.178
779.95	60.959
780.26	68.966
780.57	62.602
780.88	55.906
781.19	61.207
781.50	75.194
781.80	59.763
782.11	62.893
782.42	75.385
782.73	65.468
783.04	67.407
783.34	59.028
783.65	62.393
783.96	73.770
784.27	60.000
784.57	66.667
784.88	64.844
785.19	67.000
785.50	72.000
785.81	62.931
786.11	69.828
786.42	67.961
786.73	74.545
787.04	60.204
787.34	64.286
787.65	67.619
787.96	58.407
788.26	71.818
788.57	68.376
788.88	64.063
789.19	65.079
789.49	69.565
789.80	60.204
790.11	64.646
790.41	42.727
790.72	63.043
791.03	60.227
791.33	71.250
791.64	71.250
791.95	54.651
792.25	51.064
792.56	70.787
792.87	72.603
793.17	73.913
793.48	74.667
793.79	60.000
794.09	77.500
794.40	64.151
794.70	60.194
795.01	52.033
795.32	59.829
795.62	60.000
795.93	65.686
796.23	57.547
796.54	63.542
796.85	79.412
797.15	54.930
797.46	65.278
797.76	81.818
798.07	46.512
798.37	53.947
798.68	71.212
798.99	46.914
799.29	65.714
799.60	66.667
799.90	58.667
800.21	63.934
800.51	46.154
800.82	69.492
801.12	50.725
801.43	70.492
801.73	57.143
802.04	82.000
802.34	61.194
802.65	55.769
802.95	55.357
803.26	65.385
803.56	68.627
803.87	67.391
804.17	54.667
804.48	65.079
804.78	57.407
805.09	54.348
805.39	84.444
805.70	79.630
806.00	50.877
806.30	50.704
806.61	65.714
806.91	65.278
807.22	65.789
807.52	60.000
807.83	67.273
808.13	41.667
808.43	58.824
808.74	37.313
809.04	59.322
809.35	63.462
809.65	59.375
809.95	40.541
810.26	54.545
810.56	50.685
810.86	50.000
811.17	80.000
811.47	67.347
811.77	47.368
812.08	61.364
812.38	47.170
812.69	52.500
812.99	63.636
813.29	63.158
813.59	37.143
813.90	65.909
814.20	30.769
814.50	61.538
814.81	83.019
815.11	53.191
815.41	62.712
815.72	42.857
816.02	70.588
816.32	58.333
816.62	60.976
816.93	62.162
817.23	45.714
817.53	54.167
817.84	47.826
818.14	75.000
818.44	52.632
818.74	30.435
819.04	37.500
819.35	40.541
819.65	50.000
819.95	19.444
820.25	40.476
820.56	52.500
820.86	-6.897
821.16	92.500
821.46	59.574
821.76	90.000
822.07	60.465
822.37	43.243
822.67	75.000
822.97	71.429
823.27	64.286
823.57	80.000
823.88	62.963
824.18	28.571
824.48	50.000
824.78	19.355
825.08	60.870
825.38	66.667
825.69	45.833
825.99	31.579
826.29	58.333
826.59	53.333
826.89	95.238
827.19	63.043
827.49	85.000
827.79	74.286
828.09	82.143
828.39	63.636
828.70	86.486
829.00	32.143
829.30	66.667
829.60	86.667
829.90	59.375
830.20	47.368
830.50	66.667
830.80	56.522
831.10	77.273
831.40	33.333
831.70	48.387
832.00	80.952
832.30	57.143
832.60	75.000
832.90	34.483
833.20	-20.000
833.50	24.242
833.80	77.778
834.10	46.154
834.40	37.500
834.70	88.889
835.00	84.211
835.30	96.154
835.60	86.667
835.90	70.968
836.20	50.000
836.50	64.286
836.80	34.615
837.10	17.857
837.40	133.333
837.70	45.455
838.00	18.182
838.30	73.913
838.60	23.077
838.90	90.909
839.19	42.857
839.49	46.667
839.79	-15.385
840.09	-25.000
840.39	64.286
840.69	39.286
840.99	19.231
841.29	26.316
841.59	30.000
841.88	145.455
842.18	140.000
842.48	18.750
842.78	66.667
843.08	55.556
843.38	30.000
843.68	17.391
843.97	73.333
844.27	20.000
844.57	-15.000
844.87	94.444
845.17	61.905
845.47	26.667
845.76	-23.810
846.06	70.588
846.36	-20.000
846.66	57.143
846.96	46.667
847.25	-50.000
847.55	42.857
847.85	-37.500
848.15	36.364
848.44	-33.333
848.74	60.000
849.04	100.000
849.34	136.364
849.63	100.000
849.93	-140.000
850.23	55.556
850.53	80.000
850.82	-30.769
851.12	33.333
851.42	26.667
851.71	23.077
852.01	35.714
852.31	-150.000
852.61	127.273
852.90	55.000
853.20	42.105
853.50	100.000
853.79	47.826
854.09	70.833
854.39	68.421
854.68	41.667
854.98	48.387
855.28	92.308
855.57	90.000
855.87	61.111
856.17	77.778
856.46	35.714
856.76	-6.667
857.05	100.000
857.35	36.000
857.65	72.222
857.94	115.385
858.24	51.724
858.53	105.556
858.83	51.852
859.13	81.818
859.42	30.435
859.72	-150.000
860.01	-133.333
860.31	76.000
860.60	66.667
860.90	266.667
861.20	-53.333
861.49	-350.000
861.79	-40.000
862.08	20.000
862.38	120.000
862.67	-160.000
862.97	133.333
863.26	25.000
863.56	122.222
863.85	-100.000
864.15	83.333
864.44	90.000
864.74	78.571
865.03	-100.000
865.33	20.000
865.62	133.333
865.92	-25.000
866.21	16.667
866.51	18.750
866.80	0.000
867.10	550.000
867.39	141.667
867.69	0.000
867.98	100.000
868.27	0.000
868.57	6.667
868.86	66.667
869.16	7.692
869.45	133.333
869.75	-1100.000
870.04	0.000
870.33	71.429
870.63	47.619
870.92	200.000
871.22	0.000
871.51	-400.000
871.80	33.333
872.10	433.333
>>>>>End Processed Spectral Data<<<<<
