SpectraSuite Data File
++++++++++++++++++++++++++++++++++++
Date: Fri May 15 17:07:41 PDT 2015
User: schluterlab
Dark Spectrum Present: Yes
Reference Spectrum Present: Yes
Number of Sampled Component Spectra: 1
Spectrometers: USB2E3373
Integration Time (usec): 3000 (USB2E3373)
Spectra Averaged: 3 (USB2E3373)
Boxcar Smoothing: 0 (USB2E3373)
Correct for Electrical Dark: No (USB2E3373)
Strobe/Lamp Enabled: No (USB2E3373)
Correct for Detector Non-linearity: No (USB2E3373)
Correct for Stray Light: No (USB2E3373)
Number of Pixels in Processed Spectrum: 2048
>>>>>Begin Processed Spectral Data<<<<<
178.53	0.000
178.91	0.000
179.29	175.000
179.67	100.000
180.04	-14.286
180.42	100.000
180.80	900.000
181.18	-133.333
181.56	-50.000
181.94	300.000
182.31	-300.000
182.69	260.000
183.07	433.333
183.45	160.000
183.83	-0.000
184.20	90.909
184.58	100.000
184.96	-275.000
185.34	33.333
185.72	-250.000
186.09	23.077
186.47	300.000
186.85	-33.333
187.23	-55.556
187.61	100.000
187.98	-100.000
188.36	122.222
188.74	200.000
189.12	70.588
189.49	66.667
189.87	0.000
190.25	64.286
190.63	350.000
191.00	-66.667
191.38	57.895
191.76	500.000
192.14	-175.000
192.51	900.000
192.89	133.333
193.27	-128.571
193.65	166.667
194.02	100.000
194.40	60.000
194.78	-112.500
195.15	66.667
195.53	-12.500
195.91	-75.000
196.29	175.000
196.66	15.385
197.04	-14.286
197.42	22.222
197.79	-133.333
198.17	-30.769
198.55	300.000
198.92	66.667
199.30	0.000
199.68	-40.000
200.05	33.333
200.43	0.000
200.81	-66.667
201.18	433.333
201.56	300.000
201.94	200.000
202.31	-366.667
202.69	0.000
203.07	-100.000
203.44	600.000
203.82	0.000
204.19	85.714
204.57	-100.000
204.95	-50.000
205.32	200.000
205.70	-71.429
206.08	0.000
206.45	244.444
206.83	28.571
207.20	228.571
207.58	-1000.000
207.96	200.000
208.33	-50.000
208.71	125.000
209.08	-33.333
209.46	-100.000
209.84	-20.000
210.21	-500.000
210.59	285.714
210.96	133.333
211.34	50.000
211.71	13.333
212.09	-14.286
212.46	-1300.000
212.84	0.000
213.22	110.000
213.59	-100.000
213.97	130.769
214.34	109.091
214.72	-33.333
215.09	325.000
215.47	46.154
215.84	81.818
216.22	66.667
216.59	50.000
216.97	200.000
217.34	-50.000
217.72	-80.000
218.09	75.000
218.47	62.500
218.84	600.000
219.22	33.333
219.59	-40.000
219.97	-333.333
220.34	200.000
220.72	128.571
221.09	325.000
221.47	700.000
221.84	-150.000
222.22	-400.000
222.59	109.091
222.97	91.667
223.34	233.333
223.72	21.429
224.09	33.333
224.46	53.571
224.84	-0.000
225.21	60.000
225.59	146.667
225.96	600.000
226.34	250.000
226.71	0.000
227.08	0.000
227.46	75.000
227.83	0.000
228.21	155.556
228.58	145.455
228.95	75.000
229.33	-20.000
229.70	25.000
230.08	12.500
230.45	42.857
230.82	142.857
231.20	80.000
231.57	71.429
231.95	214.286
232.32	-30.000
232.69	85.714
233.07	200.000
233.44	60.000
233.81	-50.000
234.19	88.889
234.56	41.176
234.93	-0.000
235.31	25.000
235.68	-220.000
236.05	-46.154
236.43	-5.000
236.80	88.235
237.17	59.375
237.55	45.000
237.92	25.926
238.29	27.778
238.67	20.000
239.04	23.529
239.41	-4.878
239.79	6.667
240.16	4.878
240.53	10.526
240.91	23.913
241.28	23.810
241.65	12.500
242.02	16.438
242.40	11.667
242.77	-6.780
243.14	7.576
243.51	10.000
243.89	18.391
244.26	0.000
244.63	22.619
245.00	9.278
245.38	22.680
245.75	-4.494
246.12	6.034
246.49	12.397
246.87	13.462
247.24	-4.202
247.61	7.018
247.98	3.252
248.36	7.500
248.73	8.553
249.10	1.299
249.47	6.962
249.84	3.922
250.22	8.824
250.59	1.961
250.96	14.554
251.33	7.558
251.70	3.529
252.08	6.091
252.45	7.921
252.82	7.538
253.19	8.756
253.56	7.477
253.94	8.559
254.31	10.000
254.68	9.649
255.05	6.693
255.42	3.930
255.79	8.880
256.16	5.447
256.54	7.090
256.91	3.422
257.28	7.063
257.65	6.367
258.02	4.610
258.39	7.744
258.76	6.593
259.14	6.312
259.51	7.120
259.88	4.124
260.25	5.229
260.62	8.333
260.99	2.712
261.36	1.027
261.73	1.899
262.10	7.599
262.47	2.761
262.85	6.270
263.22	5.538
263.59	7.788
263.96	3.727
264.33	5.455
264.70	2.381
265.07	3.571
265.44	9.632
265.81	5.085
266.18	7.104
266.55	5.913
266.92	6.477
267.29	6.789
267.66	6.905
268.03	6.021
268.40	3.916
268.77	5.615
269.14	6.235
269.51	7.198
269.88	2.743
270.25	5.102
270.62	8.780
270.99	3.069
271.36	5.379
271.73	6.103
272.10	4.380
272.47	6.619
272.84	4.703
273.21	6.961
273.58	8.193
273.95	8.467
274.32	4.157
274.69	5.430
275.06	4.911
275.43	5.442
275.80	4.636
276.17	3.908
276.54	7.066
276.91	5.263
277.28	2.402
277.65	5.372
278.02	4.255
278.39	7.221
278.76	4.822
279.13	2.075
279.50	5.042
279.87	4.968
280.23	3.871
280.60	7.018
280.97	5.657
281.34	3.846
281.71	6.776
282.08	3.272
282.45	3.523
282.82	3.668
283.19	4.836
283.56	5.588
283.92	3.226
284.29	2.500
284.66	3.876
285.03	5.697
285.40	1.701
285.77	5.448
286.14	5.596
286.51	5.535
286.87	4.388
287.24	2.762
287.61	5.291
287.98	5.439
288.35	3.986
288.72	5.779
289.08	4.688
289.45	6.151
289.82	5.070
290.19	4.266
290.56	3.259
290.93	2.694
291.29	3.698
291.66	5.354
292.03	4.785
292.40	4.355
292.77	3.828
293.13	1.299
293.50	4.249
293.87	6.260
294.24	3.246
294.60	3.726
294.97	3.571
295.34	2.914
295.71	4.322
296.08	3.587
296.44	2.560
296.81	3.889
297.18	2.464
297.55	6.233
297.91	2.740
298.28	4.354
298.65	2.985
299.02	3.774
299.38	2.189
299.75	3.034
300.12	3.141
300.48	2.108
300.85	4.183
301.22	3.117
301.59	1.447
301.95	4.810
302.32	4.540
302.69	3.607
303.05	3.094
303.42	3.238
303.79	4.556
304.15	4.540
304.52	1.665
304.89	2.807
305.25	3.753
305.62	2.217
305.99	2.105
306.35	3.006
306.72	1.237
307.09	3.535
307.45	4.248
307.82	2.083
308.19	3.949
308.55	3.162
308.92	3.159
309.29	2.235
309.65	3.337
310.02	3.300
310.38	3.293
310.75	2.842
311.12	3.660
311.48	2.651
311.85	3.560
312.22	3.903
312.58	3.822
312.95	1.708
313.31	2.277
313.68	3.665
314.05	2.959
314.41	2.990
314.78	3.918
315.14	3.905
315.51	4.555
315.87	4.816
316.24	4.752
316.61	3.642
316.97	3.968
317.34	4.004
317.70	5.927
318.07	4.327
318.43	5.294
318.80	5.303
319.16	5.078
319.53	5.793
319.89	4.921
320.26	6.073
320.62	6.319
320.99	4.906
321.35	6.064
321.72	8.100
322.08	7.150
322.45	7.919
322.81	7.171
323.18	7.949
323.54	7.046
323.91	8.958
324.27	9.570
324.64	9.738
325.00	9.854
325.37	9.917
325.73	10.426
326.10	10.627
326.46	12.287
326.83	12.336
327.19	12.380
327.56	13.640
327.92	14.085
328.29	13.393
328.65	13.302
329.01	13.235
329.38	14.562
329.74	14.542
330.11	16.589
330.47	15.677
330.84	16.538
331.20	18.726
331.56	16.852
331.93	17.443
332.29	18.515
332.66	17.557
333.02	19.238
333.38	17.232
333.75	20.238
334.11	18.800
334.48	20.127
334.84	19.963
335.20	20.860
335.57	18.495
335.93	20.325
336.29	19.613
336.66	20.163
337.02	19.517
337.38	21.481
337.75	20.364
338.11	19.838
338.47	21.807
338.84	22.089
339.20	20.841
339.56	20.275
339.93	21.576
340.29	21.743
340.65	21.685
341.02	21.277
341.38	21.770
341.74	20.671
342.11	19.064
342.47	21.886
342.83	21.540
343.20	20.993
343.56	21.913
343.92	21.878
344.28	21.776
344.65	20.466
345.01	20.570
345.37	21.194
345.73	22.259
346.10	23.037
346.46	21.531
346.82	21.522
347.19	22.195
347.55	21.972
347.91	22.249
348.27	21.261
348.63	21.976
349.00	21.657
349.36	21.779
349.72	22.968
350.08	21.475
350.45	22.506
350.81	21.346
351.17	21.906
351.53	23.102
351.89	21.883
352.26	22.480
352.62	22.742
352.98	22.329
353.34	21.417
353.70	22.896
354.07	21.371
354.43	22.738
354.79	22.956
355.15	23.254
355.51	22.468
355.87	23.220
356.24	23.083
356.60	22.474
356.96	23.889
357.32	23.083
357.68	22.987
358.04	22.779
358.40	21.945
358.77	24.482
359.13	23.619
359.49	21.957
359.85	22.699
360.21	23.285
360.57	23.336
360.93	23.676
361.29	22.281
361.66	22.806
362.02	23.409
362.38	24.524
362.74	22.861
363.10	23.777
363.46	24.463
363.82	23.967
364.18	22.657
364.54	22.426
364.90	23.297
365.26	23.945
365.62	24.526
365.98	23.314
366.35	24.253
366.71	24.169
367.07	24.311
367.43	23.221
367.79	23.463
368.15	24.192
368.51	24.545
368.87	24.767
369.23	23.899
369.59	24.708
369.95	24.340
370.31	24.639
370.67	24.403
371.03	25.317
371.39	23.924
371.75	25.055
372.11	24.465
372.47	24.926
372.83	25.124
373.19	24.251
373.55	24.693
373.91	25.486
374.27	24.947
374.63	25.772
374.99	25.603
375.35	25.627
375.71	25.385
376.07	25.983
376.42	26.395
376.78	26.309
377.14	25.863
377.50	26.693
377.86	26.707
378.22	25.909
378.58	26.474
378.94	24.953
379.30	26.138
379.66	26.897
380.02	26.855
380.38	25.867
380.74	26.870
381.09	27.362
381.45	26.789
381.81	26.095
382.17	27.538
382.53	27.420
382.89	28.249
383.25	28.376
383.61	28.232
383.97	27.746
384.32	27.392
384.68	27.988
385.04	27.267
385.40	28.002
385.76	28.742
386.12	28.655
386.48	28.608
386.83	28.091
387.19	28.510
387.55	28.482
387.91	28.240
388.27	27.717
388.62	28.005
388.98	28.484
389.34	29.232
389.70	28.776
390.06	28.194
390.42	28.497
390.77	29.104
391.13	28.058
391.49	28.396
391.85	29.890
392.20	28.625
392.56	28.862
392.92	29.066
393.28	29.186
393.64	28.108
393.99	29.781
394.35	28.273
394.71	28.672
395.07	28.661
395.42	28.719
395.78	28.664
396.14	29.887
396.50	29.994
396.85	29.749
397.21	28.697
397.57	29.781
397.92	29.479
398.28	28.851
398.64	27.590
399.00	29.910
399.35	28.047
399.71	29.236
400.07	29.927
400.42	28.947
400.78	30.006
401.14	30.006
401.49	28.469
401.85	28.824
402.21	28.855
402.57	29.187
402.92	28.858
403.28	28.634
403.63	29.760
403.99	29.401
404.35	28.670
404.70	28.095
405.06	28.261
405.42	28.713
405.77	28.879
406.13	28.696
406.49	28.538
406.84	28.362
407.20	29.621
407.55	29.105
407.91	28.676
408.27	29.382
408.62	29.108
408.98	28.651
409.34	28.563
409.69	28.876
410.05	28.879
410.40	29.383
410.76	29.131
411.11	28.688
411.47	29.389
411.83	28.751
412.18	29.151
412.54	28.839
412.89	27.771
413.25	29.242
413.60	28.571
413.96	27.730
414.31	29.146
414.67	28.544
415.03	28.362
415.38	29.112
415.74	29.316
416.09	30.176
416.45	29.372
416.80	29.147
417.16	29.972
417.51	29.514
417.87	28.357
418.22	29.339
418.58	29.565
418.93	29.154
419.29	28.233
419.64	28.970
420.00	29.786
420.35	28.955
420.71	29.222
421.06	29.650
421.42	29.567
421.77	29.595
422.12	29.171
422.48	28.912
422.83	29.756
423.19	29.740
423.54	28.630
423.90	29.329
424.25	30.367
424.61	30.355
424.96	30.778
425.31	30.734
425.67	30.164
426.02	31.095
426.38	30.620
426.73	30.932
427.09	31.392
427.44	30.588
427.79	31.232
428.15	30.704
428.50	30.648
428.85	30.958
429.21	31.126
429.56	31.321
429.92	31.279
430.27	30.627
430.62	30.005
430.98	31.104
431.33	31.125
431.68	30.769
432.04	31.526
432.39	30.576
432.74	31.088
433.10	31.494
433.45	31.541
433.80	31.399
434.16	31.801
434.51	31.828
434.86	32.462
435.22	31.913
435.57	31.503
435.92	32.216
436.28	31.127
436.63	31.888
436.98	31.981
437.34	31.639
437.69	33.095
438.04	31.852
438.39	32.254
438.75	33.212
439.10	31.862
439.45	32.806
439.81	32.171
440.16	32.779
440.51	33.015
440.86	34.743
441.22	32.127
441.57	32.230
441.92	33.841
442.27	33.315
442.63	34.422
442.98	33.601
443.33	32.999
443.68	32.891
444.03	34.128
444.39	33.301
444.74	33.556
445.09	34.187
445.44	33.333
445.79	34.141
446.15	33.315
446.50	32.335
446.85	33.953
447.20	33.420
447.55	34.319
447.91	33.954
448.26	34.718
448.61	33.506
448.96	34.309
449.31	33.699
449.66	33.798
450.02	33.371
450.37	33.906
450.72	33.620
451.07	33.608
451.42	33.084
451.77	33.394
452.12	33.553
452.47	33.033
452.83	35.100
453.18	34.598
453.53	34.450
453.88	34.244
454.23	34.604
454.58	35.076
454.93	35.631
455.28	34.730
455.63	35.152
455.98	34.817
456.34	34.419
456.69	35.197
457.04	35.476
457.39	34.143
457.74	34.643
458.09	33.255
458.44	35.108
458.79	34.566
459.14	35.069
459.49	35.403
459.84	34.574
460.19	34.163
460.54	34.841
460.89	35.057
461.24	35.280
461.59	34.204
461.94	33.774
462.29	35.947
462.64	34.884
462.99	33.852
463.34	35.118
463.69	35.006
464.04	34.806
464.39	34.991
464.74	34.908
465.09	35.434
465.44	34.334
465.79	34.467
466.14	35.234
466.49	35.998
466.84	34.801
467.19	34.168
467.54	35.441
467.89	35.376
468.24	35.341
468.59	35.175
468.94	35.810
469.29	35.344
469.64	35.065
469.99	35.669
470.34	33.720
470.68	36.391
471.03	35.740
471.38	35.307
471.73	35.994
472.08	35.685
472.43	34.698
472.78	35.641
473.13	35.510
473.48	35.244
473.83	34.433
474.17	35.946
474.52	35.865
474.87	35.333
475.22	35.692
475.57	35.630
475.92	36.204
476.27	35.215
476.61	35.938
476.96	34.969
477.31	35.154
477.66	35.337
478.01	36.216
478.36	35.675
478.70	35.726
479.05	35.879
479.40	35.877
479.75	35.141
480.10	36.150
480.45	35.550
480.79	36.606
481.14	35.963
481.49	34.680
481.84	35.859
482.19	35.407
482.53	34.964
482.88	34.893
483.23	35.269
483.58	35.896
483.92	35.092
484.27	34.868
484.62	35.141
484.97	35.240
485.31	35.224
485.66	35.089
486.01	34.826
486.36	34.535
486.70	33.928
487.05	35.090
487.40	34.643
487.75	34.873
488.09	35.167
488.44	34.904
488.79	35.749
489.13	35.657
489.48	35.614
489.83	35.381
490.17	35.101
490.52	35.612
490.87	36.141
491.22	36.151
491.56	35.626
491.91	35.229
492.26	35.537
492.60	35.461
492.95	36.744
493.30	35.125
493.64	36.690
493.99	36.667
494.34	35.388
494.68	35.476
495.03	35.134
495.37	35.672
495.72	35.639
496.07	36.195
496.41	35.896
496.76	35.928
497.11	35.305
497.45	36.134
497.80	36.075
498.14	35.022
498.49	35.297
498.84	35.828
499.18	36.446
499.53	36.359
499.87	34.679
500.22	35.856
500.56	35.905
500.91	35.241
501.26	35.492
501.60	35.612
501.95	36.245
502.29	36.126
502.64	36.100
502.98	36.803
503.33	35.783
503.67	35.229
504.02	36.461
504.36	36.071
504.71	36.616
505.06	35.833
505.40	37.107
505.75	36.495
506.09	36.493
506.44	36.294
506.78	36.071
507.13	36.556
507.47	34.674
507.82	35.524
508.16	35.711
508.51	36.306
508.85	36.578
509.19	35.285
509.54	35.496
509.88	36.408
510.23	37.332
510.57	37.413
510.92	36.247
511.26	36.716
511.61	36.469
511.95	37.096
512.30	35.865
512.64	37.006
512.98	36.721
513.33	37.829
513.67	36.725
514.02	38.101
514.36	37.714
514.70	37.762
515.05	37.015
515.39	36.777
515.74	37.784
516.08	36.940
516.42	37.927
516.77	37.975
517.11	37.685
517.46	37.882
517.80	37.128
518.14	36.987
518.49	37.440
518.83	37.303
519.17	36.992
519.52	37.123
519.86	37.935
520.20	38.761
520.55	36.898
520.89	37.892
521.23	37.619
521.58	38.170
521.92	37.692
522.26	36.890
522.61	38.831
522.95	38.940
523.29	38.374
523.64	37.802
523.98	38.237
524.32	37.758
524.66	38.476
525.01	38.182
525.35	39.404
525.69	38.114
526.04	37.632
526.38	39.235
526.72	37.345
527.06	38.132
527.41	37.797
527.75	38.405
528.09	37.475
528.43	39.433
528.78	38.746
529.12	38.258
529.46	38.661
529.80	38.822
530.15	40.198
530.49	38.316
530.83	38.782
531.17	38.146
531.51	39.945
531.86	39.633
532.20	37.996
532.54	38.598
532.88	39.083
533.22	38.710
533.57	39.253
533.91	38.642
534.25	38.802
534.59	38.871
534.93	37.823
535.27	37.690
535.62	37.200
535.96	38.878
536.30	38.720
536.64	39.697
536.98	38.606
537.32	39.403
537.66	39.621
538.01	39.021
538.35	39.182
538.69	38.615
539.03	37.457
539.37	37.752
539.71	38.650
540.05	38.968
540.39	38.850
540.73	38.563
541.07	39.088
541.42	38.441
541.76	39.504
542.10	38.747
542.44	38.360
542.78	36.752
543.12	38.874
543.46	38.108
543.80	39.556
544.14	37.784
544.48	38.441
544.82	40.055
545.16	38.934
545.50	37.784
545.84	40.156
546.18	39.220
546.52	40.375
546.86	38.533
547.20	39.342
547.54	37.385
547.88	39.130
548.22	37.804
548.56	37.665
548.90	37.938
549.24	39.325
549.58	39.915
549.92	37.884
550.26	39.267
550.60	40.595
550.94	39.208
551.28	38.949
551.62	39.769
551.96	38.647
552.30	39.547
552.64	39.351
552.98	38.959
553.32	38.802
553.66	38.389
554.00	40.876
554.34	41.064
554.68	38.274
555.02	39.955
555.36	39.267
555.69	38.901
556.03	39.115
556.37	38.648
556.71	39.495
557.05	39.821
557.39	38.736
557.73	40.480
558.07	40.121
558.41	40.352
558.75	38.426
559.08	39.953
559.42	40.317
559.76	41.153
560.10	40.138
560.44	39.687
560.78	38.811
561.12	39.140
561.45	40.056
561.79	40.476
562.13	39.886
562.47	39.065
562.81	38.905
563.15	39.281
563.48	39.958
563.82	40.151
564.16	39.972
564.50	38.446
564.84	39.759
565.17	39.302
565.51	40.984
565.85	39.369
566.19	39.655
566.52	40.617
566.86	40.617
567.20	39.166
567.54	40.207
567.88	40.422
568.21	40.950
568.55	39.457
568.89	39.990
569.23	40.202
569.56	39.974
569.90	38.896
570.24	38.705
570.57	39.636
570.91	39.700
571.25	38.474
571.59	38.462
571.92	37.422
572.26	38.406
572.60	37.612
572.93	38.029
573.27	37.743
573.61	37.589
573.95	38.258
574.28	37.712
574.62	37.300
574.96	37.646
575.29	37.456
575.63	36.771
575.97	37.463
576.30	37.532
576.64	36.636
576.98	38.224
577.31	38.216
577.65	38.165
577.98	37.933
578.32	37.477
578.66	37.567
578.99	37.740
579.33	37.397
579.67	37.295
580.00	37.392
580.34	37.960
580.67	37.191
581.01	37.584
581.35	37.705
581.68	38.004
582.02	37.585
582.35	37.400
582.69	37.787
583.02	37.599
583.36	38.183
583.70	38.240
584.03	38.838
584.37	39.159
584.70	38.269
585.04	37.720
585.37	38.550
585.71	37.966
586.04	37.721
586.38	38.170
586.72	38.336
587.05	39.226
587.39	38.915
587.72	39.229
588.06	38.860
588.39	38.992
588.73	39.072
589.06	40.150
589.40	39.302
589.73	38.956
590.07	40.030
590.40	39.590
590.73	39.786
591.07	39.525
591.40	39.314
591.74	39.774
592.07	40.213
592.41	39.885
592.74	39.108
593.08	38.456
593.41	39.440
593.75	39.516
594.08	38.998
594.41	39.229
594.75	39.733
595.08	39.614
595.42	39.198
595.75	40.593
596.09	39.992
596.42	40.967
596.75	40.897
597.09	40.228
597.42	40.108
597.75	40.632
598.09	40.154
598.42	39.170
598.76	39.382
599.09	39.663
599.42	38.992
599.76	39.579
600.09	39.216
600.42	39.348
600.76	38.670
601.09	39.237
601.42	39.640
601.76	40.095
602.09	40.099
602.42	40.564
602.76	40.025
603.09	41.154
603.42	41.137
603.76	39.476
604.09	39.935
604.42	40.905
604.76	41.300
605.09	40.402
605.42	40.135
605.75	39.930
606.09	39.830
606.42	39.700
606.75	40.043
607.09	40.176
607.42	39.477
607.75	40.497
608.08	39.128
608.42	40.064
608.75	41.108
609.08	40.658
609.41	41.066
609.75	40.171
610.08	41.238
610.41	39.565
610.74	41.053
611.07	41.034
611.41	40.893
611.74	41.205
612.07	40.632
612.40	40.208
612.73	40.960
613.07	41.170
613.40	40.755
613.73	40.795
614.06	41.681
614.39	41.455
614.72	40.952
615.06	41.341
615.39	40.721
615.72	39.989
616.05	40.279
616.38	40.342
616.71	42.324
617.05	43.113
617.38	41.609
617.71	41.258
618.04	43.492
618.37	42.434
618.70	40.792
619.03	42.569
619.36	41.679
619.69	42.456
620.03	42.367
620.36	42.561
620.69	42.113
621.02	41.743
621.35	43.071
621.68	43.197
622.01	42.333
622.34	41.740
622.67	41.088
623.00	42.420
623.33	41.997
623.66	41.586
623.99	42.738
624.32	42.662
624.65	42.256
624.99	42.513
625.32	41.698
625.65	42.341
625.98	43.030
626.31	42.477
626.64	43.761
626.97	44.241
627.30	43.082
627.63	42.461
627.96	44.385
628.29	43.478
628.62	45.624
628.95	42.786
629.28	44.960
629.61	42.672
629.94	43.988
630.26	43.182
630.59	42.144
630.92	44.821
631.25	43.692
631.58	42.841
631.91	43.750
632.24	43.234
632.57	44.091
632.90	44.365
633.23	43.412
633.56	44.584
633.89	43.280
634.22	45.556
634.55	44.600
634.88	44.955
635.20	44.231
635.53	45.200
635.86	42.133
636.19	47.477
636.52	46.556
636.85	43.921
637.18	44.780
637.51	45.409
637.83	43.627
638.16	47.613
638.49	44.959
638.82	44.079
639.15	41.655
639.48	44.292
639.81	45.467
640.13	44.444
640.46	45.335
640.79	43.888
641.12	45.347
641.45	44.444
641.77	44.296
642.10	44.550
642.43	46.945
642.76	46.205
643.09	45.234
643.41	43.851
643.74	45.799
644.07	44.335
644.40	46.622
644.73	46.935
645.05	44.631
645.38	46.561
645.71	46.277
646.04	48.294
646.36	47.340
646.69	48.022
647.02	46.125
647.35	47.015
647.67	48.080
648.00	47.201
648.33	44.369
648.66	45.424
648.98	45.059
649.31	46.612
649.64	44.741
649.96	44.246
650.29	45.656
650.62	44.615
650.94	44.259
651.27	44.507
651.60	47.207
651.92	44.930
652.25	46.181
652.58	45.333
652.90	46.312
653.23	46.891
653.56	46.701
653.88	47.423
654.21	46.935
654.54	48.048
654.86	47.538
655.19	43.713
655.52	43.344
655.84	40.185
656.17	45.338
656.49	61.102
656.82	64.148
657.15	48.658
657.47	36.581
657.80	27.249
658.13	26.732
658.45	41.794
658.78	41.663
659.10	41.105
659.43	41.338
659.75	43.266
660.08	42.552
660.41	45.557
660.73	44.613
661.06	48.180
661.38	47.162
661.71	45.996
662.03	46.352
662.36	47.473
662.68	47.566
663.01	48.908
663.33	48.028
663.66	48.140
663.98	48.837
664.31	47.761
664.63	48.387
664.96	43.043
665.28	43.709
665.61	46.104
665.93	47.391
666.26	47.072
666.58	45.638
666.91	47.529
667.23	52.594
667.56	49.526
667.88	44.844
668.21	47.255
668.53	47.045
668.86	48.113
669.18	44.811
669.50	48.668
669.83	45.814
670.15	45.455
670.48	48.804
670.80	46.544
671.13	46.756
671.45	42.009
671.77	46.781
672.10	47.723
672.42	45.506
672.75	45.471
673.07	48.658
673.39	45.872
673.72	44.970
674.04	45.417
674.37	49.153
674.69	50.107
675.01	50.889
675.34	47.523
675.66	50.231
675.98	48.559
676.31	47.018
676.63	47.031
676.95	43.636
677.28	48.941
677.60	50.361
677.92	47.706
678.25	46.827
678.57	45.238
678.89	46.218
679.22	50.112
679.54	46.586
679.86	43.141
680.18	46.019
680.51	49.053
680.83	46.123
681.15	45.800
681.48	47.131
681.80	48.554
682.12	45.968
682.44	46.234
682.77	46.578
683.09	48.741
683.41	44.545
683.73	46.083
684.06	47.788
684.38	43.871
684.70	47.277
685.02	46.473
685.34	41.897
685.67	43.715
685.99	46.112
686.31	45.310
686.63	48.237
686.96	43.156
687.28	45.859
687.60	44.106
687.92	48.283
688.24	46.774
688.56	48.908
688.89	48.437
689.21	49.111
689.53	44.316
689.85	46.512
690.17	47.768
690.49	50.355
690.82	45.388
691.14	44.286
691.46	48.832
691.78	50.225
692.10	48.817
692.42	45.022
692.74	46.154
693.06	50.225
693.39	45.249
693.71	45.475
694.03	45.497
694.35	48.131
694.67	47.475
694.99	47.520
695.31	49.869
695.63	47.250
695.95	45.455
696.27	42.487
696.59	47.778
696.91	48.179
697.23	49.100
697.56	47.772
697.88	45.591
698.20	47.380
698.52	47.294
698.84	44.976
699.16	47.500
699.48	49.624
699.80	47.395
700.12	49.596
700.44	50.700
700.76	47.674
701.08	46.364
701.40	47.590
701.72	52.778
702.04	51.155
702.36	52.843
702.68	47.748
703.00	50.303
703.32	51.906
703.64	42.373
703.96	46.667
704.28	48.160
704.60	50.476
704.91	45.426
705.23	45.847
705.55	54.417
705.87	49.458
706.19	52.593
706.51	49.828
706.83	50.161
707.15	50.156
707.47	46.779
707.79	46.094
708.11	46.250
708.43	46.000
708.74	48.062
709.06	52.113
709.38	50.459
709.70	49.408
710.02	50.000
710.34	49.845
710.66	43.910
710.98	47.351
711.29	48.197
711.61	47.458
711.93	50.814
712.25	51.890
712.57	50.183
712.89	52.985
713.20	52.595
713.52	50.523
713.84	46.758
714.16	49.828
714.48	49.032
714.80	49.038
715.11	49.240
715.43	43.887
715.75	47.333
716.07	46.844
716.39	44.966
716.70	47.232
717.02	53.817
717.34	49.798
717.66	48.230
717.97	51.739
718.29	48.954
718.61	51.969
718.93	49.225
719.24	49.049
719.56	51.406
719.88	50.859
720.20	46.970
720.51	43.678
720.83	49.035
721.15	55.462
721.46	52.419
721.78	45.850
722.10	48.327
722.42	46.058
722.73	48.571
723.05	50.204
723.37	54.237
723.68	55.405
724.00	52.137
724.32	50.222
724.63	50.000
724.95	48.035
725.27	51.613
725.58	48.305
725.90	46.825
726.22	52.510
726.53	51.525
726.85	45.693
727.16	51.698
727.48	47.368
727.80	51.417
728.11	47.458
728.43	43.922
728.74	45.565
729.06	48.000
729.38	50.000
729.69	45.020
730.01	48.077
730.32	49.254
730.64	48.057
730.96	55.849
731.27	48.333
731.59	48.136
731.90	49.682
732.22	49.842
732.53	51.163
732.85	51.064
733.16	52.189
733.48	48.201
733.80	51.449
734.11	51.525
734.43	55.326
734.74	46.061
735.06	45.928
735.37	48.640
735.69	46.801
736.00	50.523
736.32	48.658
736.63	54.930
736.95	50.512
737.26	48.043
737.58	47.987
737.89	49.451
738.21	46.992
738.52	53.909
738.83	47.162
739.15	47.598
739.46	51.575
739.78	46.520
740.09	48.039
740.41	45.652
740.72	43.701
741.04	49.393
741.35	46.383
741.66	51.185
741.98	53.061
742.29	49.505
742.61	53.403
742.92	43.128
743.23	45.370
743.55	51.584
743.86	47.847
744.18	44.019
744.49	47.872
744.80	53.804
745.12	58.824
745.43	44.390
745.74	52.083
746.06	53.659
746.37	45.550
746.68	50.237
747.00	47.340
747.31	52.239
747.62	48.544
747.94	51.196
748.25	53.465
748.56	54.645
748.88	48.691
749.19	54.787
749.50	49.261
749.82	45.755
750.13	51.835
750.44	51.128
750.75	49.627
751.07	55.109
751.38	48.659
751.69	48.627
752.01	50.775
752.32	47.012
752.63	46.640
752.94	51.293
753.26	54.812
753.57	47.964
753.88	48.673
754.19	47.500
754.51	45.868
754.82	42.105
755.13	52.917
755.44	52.016
755.75	52.734
756.07	48.249
756.38	46.038
756.69	44.444
757.00	45.000
757.31	47.712
757.63	46.646
757.94	43.611
758.25	43.288
758.56	44.149
758.87	42.210
759.18	47.664
759.50	46.909
759.81	48.495
760.12	46.774
760.43	48.485
760.74	46.914
761.05	45.846
761.36	49.148
761.67	50.606
761.99	48.980
762.30	47.636
762.61	45.850
762.92	51.584
763.23	46.847
763.54	49.065
763.85	52.966
764.16	50.207
764.47	45.565
764.78	46.520
765.10	47.475
765.41	47.003
765.72	49.524
766.03	48.496
766.34	47.810
766.65	47.012
766.96	48.990
767.27	52.128
767.58	43.103
767.89	53.901
768.20	44.886
768.51	45.055
768.82	49.261
769.13	47.005
769.44	48.927
769.75	46.575
770.06	53.448
770.37	50.000
770.68	51.777
770.99	43.891
771.30	57.843
771.61	47.511
771.92	52.155
772.23	48.768
772.54	53.763
772.85	51.235
773.16	52.809
773.47	62.092
773.78	55.556
774.09	48.503
774.39	50.667
774.70	51.592
775.01	54.483
775.32	47.143
775.63	55.372
775.94	54.962
776.25	51.181
776.56	48.333
776.87	55.769
777.18	46.154
777.48	54.310
777.79	54.783
778.10	51.429
778.41	43.243
778.72	58.730
779.03	45.865
779.34	49.645
779.65	48.630
779.95	45.890
780.26	51.724
780.57	50.407
780.88	48.819
781.19	49.138
781.50	55.039
781.80	42.012
782.11	44.025
782.42	54.615
782.73	48.201
783.04	51.852
783.34	46.528
783.65	40.171
783.96	58.197
784.27	52.414
784.57	47.154
784.88	43.750
785.19	60.000
785.50	53.000
785.81	56.034
786.11	56.897
786.42	49.515
786.73	59.091
787.04	51.020
787.34	46.429
787.65	52.381
787.96	53.982
788.26	59.091
788.57	39.316
788.88	55.469
789.19	50.794
789.49	50.435
789.80	59.184
790.11	49.495
790.41	31.818
790.72	44.565
791.03	46.591
791.33	65.000
791.64	57.500
791.95	48.837
792.25	53.191
792.56	49.438
792.87	46.575
793.17	44.928
793.48	52.000
793.79	42.500
794.09	47.500
794.40	53.774
794.70	54.369
795.01	41.463
795.32	48.718
795.62	48.571
795.93	52.941
796.23	49.057
796.54	46.875
796.85	48.529
797.15	57.746
797.46	55.556
797.76	60.606
798.07	45.349
798.37	44.737
798.68	50.000
798.99	53.086
799.29	57.143
799.60	50.725
799.90	62.667
800.21	60.656
800.51	47.692
800.82	33.898
801.12	43.478
801.43	50.820
801.73	58.730
802.04	42.000
802.34	56.716
802.65	65.385
802.95	33.929
803.26	48.077
803.56	58.824
803.87	45.652
804.17	45.333
804.48	50.794
804.78	35.185
805.09	47.826
805.39	60.000
805.70	53.704
806.00	33.333
806.30	53.521
806.61	51.429
806.91	30.556
807.22	46.053
807.52	52.000
807.83	43.636
808.13	45.833
808.43	63.235
808.74	38.806
809.04	32.203
809.35	48.077
809.65	50.000
809.95	10.811
810.26	40.909
810.56	49.315
810.86	45.238
811.17	50.000
811.47	44.898
811.77	81.579
812.08	54.545
812.38	41.509
812.69	30.000
812.99	48.485
813.29	65.789
813.59	31.429
813.90	65.909
814.20	46.154
814.50	26.923
814.81	50.943
815.11	42.553
815.41	67.797
815.72	80.952
816.02	74.510
816.32	52.083
816.62	26.829
816.93	32.432
817.23	54.286
817.53	56.250
817.84	63.043
818.14	67.308
818.44	50.000
818.74	65.217
819.04	30.000
819.35	54.054
819.65	52.941
819.95	66.667
820.25	38.095
820.56	60.000
820.86	24.138
821.16	92.500
821.46	42.553
821.76	80.000
822.07	55.814
822.37	29.730
822.67	56.250
822.97	92.857
823.27	50.000
823.57	52.000
823.88	29.630
824.18	75.000
824.48	35.294
824.78	29.032
825.08	56.522
825.38	60.606
825.69	29.167
825.99	63.158
826.29	63.889
826.59	100.000
826.89	80.952
827.19	58.696
827.49	45.000
827.79	60.000
828.09	75.000
828.39	66.667
828.70	67.568
829.00	46.429
829.30	71.429
829.60	53.333
829.90	46.875
830.20	15.789
830.50	74.074
830.80	43.478
831.10	95.455
831.40	57.576
831.70	93.548
832.00	23.810
832.30	42.857
832.60	33.333
832.90	44.828
833.20	15.000
833.50	72.727
833.80	74.074
834.10	73.077
834.40	71.875
834.70	66.667
835.00	78.947
835.30	134.615
835.60	93.333
835.90	41.935
836.20	104.545
836.50	96.429
836.80	61.538
837.10	50.000
837.40	233.333
837.70	54.545
838.00	81.818
838.30	43.478
838.60	53.846
838.90	27.273
839.19	46.429
839.49	60.000
839.79	92.308
840.09	33.333
840.39	42.857
840.69	57.143
840.99	38.462
841.29	47.368
841.59	-20.000
841.88	72.727
842.18	190.000
842.48	31.250
842.78	133.333
843.08	55.556
843.38	80.000
843.68	104.348
843.97	53.333
844.27	106.667
844.57	35.000
844.87	116.667
845.17	4.762
845.47	126.667
845.76	52.381
846.06	70.588
846.36	110.000
846.66	64.286
846.96	60.000
847.25	150.000
847.55	78.571
847.85	12.500
848.15	4.545
848.44	-133.333
848.74	55.000
849.04	59.259
849.34	127.273
849.63	100.000
849.93	40.000
850.23	38.889
850.53	180.000
850.82	-30.769
851.12	-11.111
851.42	113.333
851.71	30.769
852.01	71.429
852.31	75.000
852.61	27.273
852.90	75.000
853.20	136.842
853.50	66.667
853.79	73.913
854.09	54.167
854.39	84.211
854.68	45.833
854.98	58.065
855.28	96.154
855.57	40.000
855.87	33.333
856.17	74.074
856.46	42.857
856.76	-6.667
857.05	166.667
857.35	48.000
857.65	27.778
857.94	123.077
858.24	72.414
858.53	105.556
858.83	70.370
859.13	50.000
859.42	82.609
859.72	300.000
860.01	66.667
860.31	60.000
860.60	38.095
860.90	66.667
861.20	-20.000
861.49	-200.000
861.79	26.667
862.08	50.000
862.38	100.000
862.67	180.000
862.97	-100.000
863.26	116.667
863.56	133.333
863.85	-266.667
864.15	100.000
864.44	40.000
864.74	71.429
865.03	-200.000
865.33	100.000
865.62	250.000
865.92	41.667
866.21	50.000
866.51	62.500
866.80	45.455
867.10	200.000
867.39	150.000
867.69	0.000
867.98	46.154
868.27	200.000
868.57	26.667
868.86	77.778
869.16	69.231
869.45	20.000
869.75	300.000
870.04	0.000
870.33	-14.286
870.63	90.476
870.92	233.333
871.22	120.000
871.51	500.000
871.80	66.667
872.10	166.667
>>>>>End Processed Spectral Data<<<<<
