SpectraSuite Data File
++++++++++++++++++++++++++++++++++++
Date: Fri May 15 20:15:53 PDT 2015
User: schluterlab
Dark Spectrum Present: Yes
Reference Spectrum Present: Yes
Number of Sampled Component Spectra: 1
Spectrometers: USB2E3373
Integration Time (usec): 3000 (USB2E3373)
Spectra Averaged: 3 (USB2E3373)
Boxcar Smoothing: 0 (USB2E3373)
Correct for Electrical Dark: No (USB2E3373)
Strobe/Lamp Enabled: No (USB2E3373)
Correct for Detector Non-linearity: No (USB2E3373)
Correct for Stray Light: No (USB2E3373)
Number of Pixels in Processed Spectrum: 2048
>>>>>Begin Processed Spectral Data<<<<<
178.53	0.000
178.91	0.000
179.29	112.500
179.67	-250.000
180.04	-114.286
180.42	-75.000
180.80	-900.000
181.18	-166.667
181.56	600.000
181.94	150.000
182.31	900.000
182.69	-140.000
183.07	166.667
183.45	100.000
183.83	116.667
184.20	18.182
184.58	133.333
184.96	-175.000
185.34	33.333
185.72	-150.000
186.09	107.692
186.47	100.000
186.85	183.333
187.23	166.667
187.61	800.000
187.98	-200.000
188.36	66.667
188.74	-133.333
189.12	35.294
189.49	72.222
189.87	0.000
190.25	35.714
190.63	250.000
191.00	-66.667
191.38	26.316
191.76	450.000
192.14	50.000
192.51	-200.000
192.89	-66.667
193.27	42.857
193.65	-16.667
194.02	172.727
194.40	-10.000
194.78	-37.500
195.15	33.333
195.53	-87.500
195.91	225.000
196.29	25.000
196.66	100.000
197.04	28.571
197.42	44.444
197.79	-333.333
198.17	-92.308
198.55	500.000
198.92	-300.000
199.30	200.000
199.68	-60.000
200.05	66.667
200.43	0.000
200.81	-166.667
201.18	-33.333
201.56	800.000
201.94	50.000
202.31	66.667
202.69	-360.000
203.07	200.000
203.44	300.000
203.82	0.000
204.19	64.286
204.57	-266.667
204.95	87.500
205.32	40.000
205.70	42.857
206.08	225.000
206.45	88.889
206.83	28.571
207.20	-42.857
207.58	-200.000
207.96	-266.667
208.33	-70.000
208.71	-175.000
209.08	-183.333
209.46	-1200.000
209.84	0.000
210.21	0.000
210.59	257.143
210.96	83.333
211.34	-125.000
211.71	-40.000
212.09	-171.429
212.46	-1300.000
212.84	0.000
213.22	-20.000
213.59	150.000
213.97	46.154
214.34	27.273
214.72	16.667
215.09	375.000
215.47	-53.846
215.84	-100.000
216.22	-133.333
216.59	0.000
216.97	850.000
217.34	75.000
217.72	120.000
218.09	75.000
218.47	225.000
218.84	-400.000
219.22	-88.889
219.59	-120.000
219.97	133.333
220.34	50.000
220.72	57.143
221.09	-175.000
221.47	-150.000
221.84	-600.000
222.22	-600.000
222.59	54.545
222.97	25.000
223.34	-433.333
223.72	-35.714
224.09	9.524
224.46	-25.000
224.84	-166.667
225.21	40.000
225.59	0.000
225.96	-150.000
226.34	200.000
226.71	85.714
227.08	-216.667
227.46	-37.500
227.83	-300.000
228.21	22.222
228.58	45.455
228.95	-50.000
229.33	10.000
229.70	25.000
230.08	-12.500
230.45	-128.571
230.82	-171.429
231.20	53.333
231.57	57.143
231.95	-14.286
232.32	-20.000
232.69	7.143
233.07	-333.333
233.44	80.000
233.81	-110.000
234.19	122.222
234.56	-5.882
234.93	400.000
235.31	300.000
235.68	-120.000
236.05	-30.769
236.43	-30.000
236.80	17.647
237.17	37.500
237.55	-30.000
237.92	18.519
238.29	30.556
238.67	13.333
239.04	-8.824
239.41	-29.268
239.79	-13.333
240.16	0.000
240.53	7.895
240.91	13.043
241.28	7.937
241.65	7.143
242.02	17.808
242.40	11.667
242.77	20.339
243.14	4.545
243.51	11.250
243.89	29.885
244.26	11.494
244.63	7.143
245.00	4.124
245.38	20.619
245.75	6.742
246.12	0.000
246.49	6.612
246.87	16.346
247.24	11.765
247.61	9.649
247.98	3.252
248.36	5.625
248.73	14.474
249.10	8.442
249.47	15.823
249.84	1.961
250.22	12.353
250.59	12.418
250.96	15.493
251.33	8.721
251.70	7.647
252.08	11.675
252.45	12.871
252.82	14.070
253.19	12.903
253.56	6.075
253.94	14.414
254.31	12.609
254.68	13.158
255.05	7.874
255.42	12.664
255.79	10.811
256.16	11.673
256.54	18.657
256.91	11.787
257.28	10.781
257.65	12.360
258.02	8.156
258.39	12.458
258.76	13.187
259.14	10.963
259.51	14.563
259.88	6.186
260.25	12.418
260.62	10.069
260.99	10.847
261.36	8.904
261.73	13.291
262.10	12.158
262.47	7.669
262.85	10.031
263.22	14.769
263.59	12.461
263.96	13.043
264.33	9.091
264.70	10.714
265.07	10.714
265.44	15.014
265.81	13.559
266.18	12.022
266.55	12.082
266.92	11.658
267.29	13.055
267.66	10.997
268.03	10.995
268.40	11.488
268.77	14.706
269.14	15.348
269.51	11.825
269.88	12.469
270.25	13.010
270.62	10.244
270.99	13.555
271.36	10.024
271.73	12.207
272.10	11.679
272.47	14.421
272.84	10.149
273.21	13.457
273.58	11.084
273.95	12.128
274.32	11.316
274.69	10.860
275.06	13.616
275.43	9.524
275.80	12.583
276.17	12.184
276.54	12.206
276.91	11.842
277.28	11.790
277.65	11.777
278.02	10.426
278.39	10.066
278.76	10.901
279.13	8.091
279.50	10.714
279.87	10.151
280.23	10.108
280.60	11.306
280.97	12.929
281.34	9.808
281.71	12.731
282.08	10.225
282.45	9.980
282.82	11.969
283.19	10.058
283.56	11.175
283.92	9.108
284.29	12.692
284.66	9.109
285.03	9.823
285.40	11.720
285.77	10.545
286.14	11.011
286.51	12.915
286.87	9.872
287.24	10.497
287.61	9.347
287.98	10.877
288.35	9.185
288.72	11.384
289.08	10.938
289.45	11.072
289.82	11.713
290.19	9.044
290.56	8.233
290.93	8.081
291.29	9.707
291.66	8.819
292.03	10.367
292.40	10.161
292.77	8.134
293.13	7.468
293.50	7.891
293.87	9.771
294.24	9.119
294.60	8.495
294.97	8.929
295.34	8.589
295.71	8.495
296.08	8.670
296.44	6.401
296.81	8.194
297.18	8.841
297.55	10.298
297.91	8.493
298.28	9.631
298.65	7.870
299.02	7.951
299.38	6.156
299.75	7.724
300.12	6.806
300.48	6.719
300.85	8.745
301.22	7.792
301.59	6.842
301.95	9.747
302.32	9.857
302.69	6.965
303.05	8.045
303.42	8.344
303.79	7.710
304.15	8.961
304.52	7.372
304.89	7.836
305.25	7.506
305.62	7.468
305.99	6.433
306.35	6.012
306.72	7.424
307.09	7.640
307.45	7.922
307.82	7.292
308.19	6.969
308.55	7.088
308.92	8.606
309.29	7.709
309.65	7.320
310.02	7.481
310.38	7.684
310.75	7.978
311.12	7.535
311.48	7.105
311.85	7.749
312.22	7.068
312.58	7.431
312.95	6.083
313.31	6.004
313.68	7.539
314.05	7.857
314.41	8.351
314.78	6.598
315.14	8.941
315.51	7.246
315.87	6.352
316.24	8.089
316.61	7.382
316.97	8.333
317.34	8.301
317.70	7.361
318.07	7.885
318.43	7.941
318.80	7.576
319.16	10.156
319.53	9.687
319.89	7.972
320.26	9.717
320.62	9.228
320.99	7.933
321.35	8.325
321.72	8.930
322.08	9.063
322.45	9.442
322.81	8.841
323.18	9.715
323.54	8.977
323.91	9.348
324.27	9.473
324.64	9.176
325.00	10.766
325.37	11.662
325.73	10.335
326.10	11.717
326.46	10.583
326.83	11.899
327.19	11.247
327.56	12.598
327.92	12.412
328.29	11.964
328.65	13.491
329.01	12.684
329.38	13.456
329.74	13.220
330.11	14.272
330.47	12.801
330.84	12.596
331.20	15.399
331.56	13.611
331.93	14.977
332.29	16.224
332.66	15.113
333.02	14.498
333.38	13.657
333.75	17.125
334.11	14.593
334.48	17.044
334.84	16.484
335.20	14.822
335.57	16.228
335.93	17.344
336.29	17.035
336.66	16.621
337.02	16.171
337.38	16.296
337.75	16.455
338.11	16.501
338.47	16.788
338.84	16.913
339.20	16.362
339.56	17.248
339.93	17.010
340.29	17.798
340.65	18.190
341.02	16.223
341.38	16.903
341.74	16.961
342.11	16.984
342.47	17.260
342.83	17.474
343.20	16.812
343.56	18.087
343.92	17.626
344.28	18.104
344.65	16.926
345.01	17.718
345.37	18.503
345.73	20.000
346.10	17.601
346.46	17.662
346.82	17.594
347.19	18.121
347.55	17.878
347.91	18.528
348.27	17.219
348.63	17.291
349.00	17.473
349.36	17.623
349.72	17.330
350.08	18.279
350.45	18.915
350.81	18.771
351.17	17.345
351.53	18.286
351.89	17.589
352.26	17.600
352.62	18.710
352.98	18.554
353.34	17.391
353.70	17.476
354.07	19.355
354.43	17.774
354.79	17.506
355.15	18.016
355.51	18.196
355.87	18.042
356.24	17.047
356.60	17.785
356.96	18.968
357.32	19.649
357.68	17.670
358.04	18.174
358.40	17.605
358.77	19.298
359.13	17.614
359.49	16.564
359.85	18.643
360.21	18.262
360.57	18.133
360.93	18.608
361.29	17.523
361.66	18.495
362.02	19.318
362.38	19.117
362.74	19.379
363.10	19.564
363.46	19.348
363.82	19.309
364.18	18.303
364.54	18.676
364.90	18.566
365.26	19.287
365.62	20.219
365.98	19.795
366.35	20.102
366.71	19.290
367.07	19.013
367.43	19.195
367.79	20.000
368.15	19.742
368.51	18.135
368.87	19.670
369.23	19.061
369.59	18.659
369.95	20.161
370.31	20.448
370.67	18.433
371.03	19.567
371.39	19.183
371.75	19.267
372.11	20.613
372.47	19.527
372.83	19.659
373.19	20.399
373.55	18.773
373.91	19.942
374.27	20.128
374.63	19.239
374.99	19.645
375.35	19.638
375.71	19.720
376.07	19.874
376.42	20.272
376.78	19.866
377.14	20.650
377.50	20.186
377.86	21.553
378.22	19.974
378.58	20.064
378.94	19.660
379.30	19.963
379.66	21.442
380.02	20.478
380.38	20.450
380.74	20.586
381.09	20.675
381.45	20.489
381.81	19.371
382.17	21.764
382.53	20.800
382.89	21.155
383.25	20.784
383.61	21.951
383.97	19.810
384.32	21.138
384.68	21.424
385.04	20.343
385.40	20.846
385.76	22.138
386.12	21.604
386.48	21.009
386.83	20.165
387.19	21.612
387.55	21.769
387.91	21.944
388.27	21.184
388.62	22.530
388.98	21.179
389.34	21.174
389.70	22.063
390.06	20.894
390.42	20.855
390.77	22.237
391.13	20.681
391.49	22.380
391.85	21.637
392.20	21.532
392.56	22.250
392.92	21.198
393.28	21.698
393.64	20.901
393.99	21.881
394.35	22.138
394.71	21.839
395.07	21.684
395.42	20.947
395.78	21.694
396.14	22.257
396.50	22.321
396.85	21.442
397.21	21.805
397.57	22.257
397.92	22.109
398.28	21.149
398.64	21.325
399.00	22.686
399.35	21.275
399.71	20.678
400.07	21.282
400.42	22.766
400.78	21.923
401.14	21.900
401.49	22.275
401.85	21.268
402.21	21.506
402.57	21.062
402.92	21.267
403.28	22.368
403.63	21.185
403.99	21.620
404.35	22.423
404.70	21.429
405.06	21.739
405.42	21.877
405.77	20.918
406.13	22.061
406.49	21.492
406.84	21.944
407.20	22.637
407.55	20.412
407.91	21.858
408.27	21.861
408.62	22.215
408.98	21.503
409.34	22.243
409.69	21.382
410.05	22.475
410.40	21.296
410.76	22.859
411.11	21.125
411.47	22.222
411.83	21.343
412.18	21.429
412.54	21.473
412.89	21.367
413.25	22.142
413.60	22.174
413.96	21.840
414.31	22.012
414.67	21.809
415.03	21.505
415.38	21.410
415.74	22.997
416.09	21.163
416.45	21.742
416.80	22.009
417.16	22.652
417.51	22.585
417.87	21.186
418.22	21.503
418.58	22.542
418.93	22.445
419.29	21.319
419.64	22.229
420.00	22.670
420.35	21.731
420.71	22.843
421.06	21.486
421.42	22.115
421.77	21.561
422.12	21.566
422.48	21.927
422.83	21.520
423.19	22.178
423.54	22.222
423.90	21.731
424.25	23.134
424.61	21.726
424.96	22.532
425.31	22.704
425.67	22.594
426.02	23.498
426.38	23.106
426.73	22.458
427.09	22.215
427.44	22.941
427.79	22.039
428.15	22.998
428.50	23.016
428.85	21.929
429.21	23.543
429.56	21.995
429.92	22.753
430.27	22.757
430.62	22.007
430.98	22.187
431.33	22.923
431.68	23.129
432.04	22.359
432.39	22.875
432.74	22.790
433.10	23.391
433.45	22.939
433.80	22.693
434.16	21.385
434.51	23.226
434.86	23.287
435.22	22.715
435.57	22.832
435.92	22.754
436.28	23.733
436.63	22.419
436.98	23.175
437.34	22.807
437.69	23.554
438.04	22.621
438.39	23.152
438.75	22.829
439.10	22.977
439.45	23.189
439.81	23.486
440.16	23.337
440.51	24.776
440.86	24.411
441.22	23.473
441.57	23.179
441.92	23.872
442.27	22.727
442.63	23.769
442.98	23.492
443.33	23.484
443.68	23.554
444.03	23.398
444.39	23.217
444.74	23.857
445.09	23.719
445.44	23.590
445.79	24.033
446.15	23.844
446.50	22.851
446.85	23.220
447.20	23.253
447.55	23.103
447.91	23.294
448.26	23.961
448.61	24.180
448.96	24.383
449.31	23.584
449.66	23.519
450.02	24.130
450.37	23.296
450.72	23.540
451.07	24.177
451.42	23.533
451.77	24.171
452.12	24.103
452.47	24.662
452.83	23.557
453.18	23.782
453.53	24.589
453.88	23.679
454.23	22.618
454.58	24.622
454.93	24.871
455.28	23.619
455.63	24.303
455.98	24.053
456.34	24.330
456.69	25.032
457.04	25.205
457.39	23.998
457.74	24.486
458.09	23.955
458.44	23.698
458.79	24.034
459.14	24.714
459.49	24.239
459.84	23.858
460.19	24.515
460.54	24.939
460.89	24.659
461.24	25.031
461.59	25.297
461.94	24.025
462.29	25.573
462.64	24.784
462.99	25.457
463.34	24.061
463.69	23.552
464.04	24.818
464.39	24.439
464.74	23.620
465.09	24.017
465.44	25.274
465.79	24.093
466.14	24.515
466.49	23.749
466.84	25.164
467.19	25.156
467.54	24.840
467.89	24.005
468.24	24.757
468.59	25.651
468.94	24.127
469.29	25.049
469.64	25.085
469.99	25.858
470.34	23.549
470.68	25.951
471.03	25.195
471.38	24.964
471.73	25.420
472.08	24.559
472.43	25.101
472.78	25.154
473.13	25.374
473.48	24.951
473.83	24.907
474.17	24.870
474.52	24.633
474.87	24.848
475.22	25.137
475.57	24.449
475.92	25.453
476.27	25.844
476.61	25.174
476.96	24.205
477.31	25.635
477.66	25.281
478.01	24.986
478.36	25.163
478.70	25.014
479.05	25.330
479.40	25.861
479.75	25.600
480.10	24.936
480.45	25.650
480.79	25.881
481.14	25.666
481.49	25.074
481.84	24.903
482.19	25.257
482.53	25.180
482.88	25.442
483.23	24.712
483.58	25.755
483.92	25.218
484.27	25.114
484.62	25.459
484.97	24.420
485.31	24.603
485.66	24.154
486.01	23.669
486.36	24.069
486.70	23.892
487.05	24.324
487.40	24.173
487.75	24.338
488.09	23.918
488.44	24.759
488.79	24.879
489.13	25.361
489.48	25.182
489.83	24.888
490.17	24.719
490.52	25.266
490.87	24.248
491.22	25.310
491.56	25.617
491.91	25.239
492.26	26.300
492.60	26.008
492.95	25.922
493.30	24.524
493.64	26.670
493.99	26.087
494.34	26.117
494.68	25.857
495.03	24.915
495.37	26.251
495.72	25.492
496.07	25.317
496.41	26.179
496.76	25.887
497.11	25.431
497.45	25.632
497.80	26.690
498.14	25.137
498.49	26.257
498.84	25.898
499.18	26.255
499.53	25.794
499.87	25.924
500.22	25.668
500.56	26.525
500.91	25.301
501.26	24.963
501.60	25.971
501.95	25.716
502.29	26.441
502.64	25.724
502.98	25.950
503.33	25.408
503.67	26.072
504.02	25.953
504.36	26.274
504.71	26.010
505.06	26.472
505.40	26.599
505.75	27.010
506.09	26.204
506.44	26.797
506.78	26.122
507.13	26.836
507.47	25.222
507.82	26.122
508.16	26.360
508.51	25.761
508.85	26.792
509.19	26.397
509.54	26.649
509.88	25.944
510.23	25.982
510.57	26.670
510.92	25.586
511.26	26.077
511.61	27.283
511.95	26.466
512.30	27.993
512.64	26.433
512.98	26.839
513.33	27.252
513.67	26.947
514.02	27.746
514.36	27.543
514.70	27.156
515.05	27.673
515.39	27.214
515.74	27.784
516.08	26.300
516.42	27.385
516.77	27.209
517.11	27.418
517.46	27.947
517.80	27.950
518.14	28.475
518.49	27.885
518.83	27.582
519.17	27.592
519.52	26.939
519.86	27.131
520.20	28.190
520.55	27.079
520.89	28.043
521.23	28.056
521.58	27.950
521.92	27.372
522.26	27.977
522.61	28.377
522.95	28.278
523.29	28.653
523.64	27.510
523.98	28.970
524.32	27.771
524.66	28.617
525.01	28.377
525.35	28.127
525.69	27.677
526.04	27.579
526.38	29.442
526.72	27.665
527.06	27.821
527.41	28.760
527.75	27.614
528.09	29.037
528.43	29.507
528.78	28.119
529.12	27.742
529.46	28.200
529.80	28.182
530.15	28.779
530.49	29.428
530.83	28.454
531.17	27.804
531.51	28.591
531.86	28.892
532.20	28.532
532.54	27.774
532.88	29.090
533.22	29.167
533.57	27.588
533.91	28.590
534.25	29.492
534.59	28.159
534.93	28.949
535.27	27.792
535.62	27.349
535.96	28.376
536.30	28.232
536.64	28.739
536.98	28.362
537.32	29.943
537.66	29.173
538.01	28.601
538.35	29.126
538.69	28.828
539.03	27.614
539.37	29.206
539.71	28.289
540.05	28.513
540.39	28.878
540.73	28.940
541.07	28.315
541.42	28.360
541.76	29.525
542.10	28.975
542.44	28.353
542.78	27.047
543.12	28.365
543.46	29.207
543.80	29.146
544.14	27.770
544.48	27.115
544.82	28.503
545.16	29.440
545.50	28.972
545.84	29.391
546.18	28.865
546.52	28.335
546.86	28.972
547.20	29.685
547.54	27.491
547.88	29.552
548.22	29.257
548.56	27.968
548.90	28.235
549.24	28.099
549.58	28.984
549.92	28.306
550.26	28.718
550.60	29.442
550.94	28.155
551.28	29.444
551.62	29.692
551.96	29.474
552.30	29.751
552.64	27.574
552.98	28.692
553.32	29.030
553.66	27.721
554.00	29.270
554.34	30.502
554.68	28.245
555.02	29.464
555.36	28.197
555.69	29.011
556.03	28.694
556.37	29.253
556.71	29.747
557.05	29.381
557.39	28.104
557.73	29.010
558.07	30.845
558.41	30.015
558.75	29.618
559.08	30.181
559.42	29.206
559.76	29.303
560.10	29.664
560.44	28.369
560.78	29.580
561.12	28.561
561.45	30.921
561.79	30.252
562.13	29.950
562.47	28.777
562.81	29.467
563.15	28.984
563.48	29.632
563.82	30.336
564.16	29.457
564.50	28.378
564.84	29.183
565.17	28.504
565.51	29.781
565.85	29.081
566.19	29.576
566.52	30.429
566.86	30.206
567.20	28.456
567.54	29.197
567.88	29.701
568.21	29.355
568.55	28.098
568.89	28.388
569.23	28.310
569.56	28.109
569.90	28.624
570.24	28.024
570.57	27.236
570.91	27.954
571.25	26.702
571.59	26.409
571.92	26.963
572.26	26.329
572.60	26.884
572.93	26.765
573.27	26.458
573.61	26.909
573.95	26.379
574.28	26.324
574.62	25.400
574.96	25.854
575.29	25.644
575.63	25.317
575.97	26.023
576.30	26.399
576.64	25.748
576.98	26.461
577.31	26.346
577.65	26.032
577.98	25.972
578.32	25.589
578.66	25.403
578.99	25.620
579.33	25.256
579.67	25.561
580.00	25.924
580.34	26.269
580.67	26.286
581.01	25.937
581.35	25.947
581.68	25.467
582.02	25.454
582.35	25.497
582.69	25.828
583.02	25.785
583.36	26.686
583.70	26.584
584.03	26.689
584.37	27.301
584.70	26.621
585.04	25.907
585.37	26.118
585.71	26.043
586.04	26.525
586.38	25.794
586.72	26.485
587.05	26.748
587.39	26.531
587.72	26.927
588.06	26.709
588.39	26.488
588.73	27.167
589.06	27.071
589.40	27.515
589.73	27.784
590.07	27.455
590.40	27.593
590.73	28.007
591.07	27.947
591.40	27.916
591.74	28.281
592.07	27.922
592.41	28.357
592.74	27.917
593.08	26.755
593.41	26.293
593.75	26.366
594.08	26.742
594.41	26.856
594.75	26.947
595.08	27.431
595.42	26.905
595.75	27.676
596.09	28.264
596.42	27.573
596.75	27.975
597.09	28.155
597.42	28.004
597.75	28.218
598.09	27.297
598.42	27.662
598.76	26.727
599.09	27.083
599.42	26.412
599.76	26.637
600.09	27.036
600.42	26.876
600.76	26.820
601.09	26.718
601.42	27.027
601.76	27.154
602.09	27.021
602.42	28.433
602.76	27.462
603.09	27.575
603.42	27.801
603.76	27.056
604.09	27.299
604.42	28.046
604.76	28.438
605.09	28.154
605.42	27.991
605.75	27.802
606.09	28.068
606.42	27.023
606.75	28.139
607.09	27.736
607.42	27.027
607.75	28.153
608.08	26.595
608.42	27.821
608.75	28.386
609.08	28.251
609.41	28.477
609.75	27.722
610.08	28.258
610.41	27.874
610.74	27.840
611.07	28.269
611.41	28.230
611.74	28.465
612.07	28.158
612.40	29.540
612.73	28.757
613.07	28.234
613.40	28.611
613.73	29.099
614.06	29.104
614.39	29.272
614.72	28.011
615.06	28.156
615.39	27.838
615.72	27.557
616.05	28.436
616.38	27.293
616.71	28.440
617.05	29.463
617.38	28.850
617.71	29.057
618.04	29.270
618.37	29.445
618.70	29.439
619.03	30.417
619.36	30.608
619.69	31.236
620.03	30.460
620.36	30.973
620.69	29.693
621.02	29.434
621.35	31.618
621.68	30.782
622.01	30.667
622.34	30.088
622.67	30.442
623.00	30.092
623.33	30.869
623.66	30.591
623.99	30.257
624.32	30.114
624.65	29.098
624.99	31.527
625.32	28.886
625.65	31.815
625.98	31.507
626.31	30.590
626.64	33.016
626.97	32.984
627.30	32.487
627.63	31.542
627.96	31.896
628.29	32.100
628.62	32.055
628.95	33.467
629.28	33.770
629.61	32.004
629.94	32.258
630.26	32.411
630.59	32.466
630.92	33.128
631.25	30.564
631.58	32.489
631.91	33.991
632.24	32.339
632.57	34.318
632.90	32.622
633.23	33.176
633.56	34.131
633.89	33.662
634.22	34.938
634.55	34.053
634.88	34.100
635.20	34.487
635.53	35.333
635.86	34.070
636.19	34.411
636.52	34.056
636.85	33.871
637.18	31.069
637.51	35.597
637.83	33.509
638.16	36.835
638.49	33.106
638.82	34.474
639.15	35.278
639.48	35.213
639.81	34.449
640.13	35.931
640.46	33.673
640.79	35.052
641.12	33.826
641.45	33.934
641.77	34.667
642.10	38.547
642.43	34.084
642.76	35.809
643.09	35.864
643.41	34.466
643.74	35.255
644.07	36.453
644.40	36.824
644.73	35.727
645.05	36.242
645.38	37.037
645.71	34.220
646.04	36.984
646.36	37.766
646.69	37.770
647.02	37.807
647.35	38.246
647.67	38.026
648.00	39.739
648.33	37.884
648.66	33.898
648.98	35.511
649.31	33.388
649.64	33.752
649.96	34.198
650.29	34.923
650.62	36.068
650.94	35.556
651.27	35.382
651.60	38.018
651.92	35.664
652.25	34.991
652.58	33.667
652.90	38.250
653.23	34.958
653.56	33.841
653.88	34.364
654.21	32.049
654.54	35.654
654.86	38.879
655.19	33.480
655.52	32.817
655.84	26.220
656.17	28.596
656.49	37.671
656.82	39.250
657.15	30.033
657.47	22.536
657.80	16.786
658.13	16.603
658.45	26.218
658.78	26.126
659.10	27.076
659.43	27.993
659.75	28.564
660.08	30.276
660.41	33.401
660.73	32.597
661.06	36.395
661.38	35.812
661.71	32.033
662.03	37.124
662.36	39.121
662.68	37.168
663.01	39.301
663.33	36.427
663.66	36.512
663.98	37.442
664.31	36.674
664.63	37.788
664.96	35.000
665.28	37.307
665.61	39.177
665.93	36.739
666.26	39.262
666.58	37.360
666.91	34.353
667.23	37.500
667.56	36.967
667.88	38.369
668.21	38.902
668.53	35.225
668.86	35.849
669.18	37.736
669.50	36.562
669.83	35.581
670.15	35.198
670.48	36.842
670.80	38.940
671.13	36.018
671.45	34.703
671.77	38.627
672.10	35.050
672.42	34.831
672.75	34.636
673.07	36.315
673.39	34.128
673.72	32.347
674.04	34.792
674.37	39.619
674.69	34.047
675.01	38.222
675.34	38.063
675.66	38.426
675.98	37.694
676.31	37.615
676.63	37.292
676.95	35.909
677.28	38.353
677.60	37.349
677.92	38.303
678.25	38.074
678.57	34.199
678.89	37.395
679.22	36.242
679.54	38.153
679.86	35.785
680.18	35.146
680.51	34.091
680.83	34.394
681.15	33.800
681.48	32.787
681.80	35.331
682.12	35.685
682.44	33.891
682.77	37.748
683.09	36.156
683.41	35.227
683.73	36.866
684.06	37.168
684.38	32.688
684.70	36.383
685.02	34.855
685.34	31.028
685.67	35.835
685.99	35.443
686.31	34.513
686.63	34.508
686.96	30.228
687.28	31.515
687.60	32.700
687.92	35.960
688.24	32.056
688.56	34.934
688.89	36.607
689.21	38.667
689.53	33.875
689.85	35.116
690.17	34.821
690.49	37.352
690.82	36.165
691.14	34.286
691.46	37.850
691.78	33.333
692.10	35.914
692.42	31.169
692.74	33.120
693.06	34.459
693.39	31.674
693.71	31.222
694.03	34.411
694.35	34.346
694.67	36.111
694.99	36.292
695.31	37.598
695.63	35.000
695.95	35.859
696.27	36.269
696.59	36.389
696.91	38.936
697.23	32.648
697.56	35.644
697.88	33.118
698.20	35.763
698.52	34.353
698.84	34.211
699.16	33.000
699.48	34.336
699.80	33.499
700.12	34.501
700.44	35.294
700.76	33.140
701.08	36.061
701.40	37.349
701.72	40.432
702.04	37.624
702.36	40.803
702.68	36.036
703.00	38.182
703.32	33.724
703.64	32.203
703.96	31.594
704.28	32.822
704.60	35.556
704.91	35.647
705.23	34.551
705.55	37.809
705.87	37.184
706.19	41.111
706.51	35.739
706.83	36.013
707.15	34.891
707.47	35.574
707.79	36.198
708.11	33.250
708.43	34.500
708.74	34.367
709.06	36.056
709.38	33.945
709.70	39.645
710.02	36.306
710.34	40.248
710.66	28.526
710.98	35.430
711.29	34.754
711.61	34.915
711.93	34.528
712.25	43.299
712.57	42.491
712.89	36.567
713.20	40.138
713.52	37.979
713.84	38.908
714.16	34.364
714.48	34.194
714.80	31.090
715.11	36.170
715.43	29.781
715.75	37.000
716.07	34.219
716.39	33.893
716.70	38.745
717.02	29.008
717.34	39.271
717.66	37.611
717.97	35.652
718.29	40.167
718.61	37.008
718.93	36.822
719.24	35.361
719.56	41.365
719.88	39.175
720.20	32.955
720.51	32.184
720.83	39.768
721.15	37.395
721.46	37.903
721.78	28.063
722.10	31.970
722.42	32.365
722.73	38.776
723.05	40.408
723.37	41.525
723.68	36.486
724.00	37.179
724.32	30.667
724.63	35.909
724.95	32.751
725.27	35.023
725.58	37.712
725.90	34.524
726.22	32.046
726.53	35.254
726.85	36.704
727.16	39.245
727.48	26.721
727.80	37.247
728.11	33.898
728.43	34.118
728.74	34.677
729.06	38.000
729.38	39.474
729.69	39.442
730.01	34.231
730.32	34.328
730.64	36.042
730.96	35.094
731.27	31.333
731.59	35.254
731.90	31.529
732.22	29.022
732.53	37.874
732.85	35.816
733.16	37.374
733.48	30.576
733.80	32.971
734.11	30.847
734.43	33.333
734.74	29.697
735.06	30.293
735.37	32.931
735.69	34.343
736.00	30.662
736.32	33.557
736.63	32.042
736.95	33.788
737.26	34.164
737.58	30.201
737.89	37.729
738.21	32.331
738.52	35.802
738.83	36.681
739.15	34.061
739.46	32.283
739.78	35.165
740.09	27.451
740.41	35.507
740.72	31.890
741.04	38.057
741.35	34.043
741.66	34.123
741.98	29.082
742.29	37.129
742.61	37.696
742.92	26.066
743.23	25.926
743.55	35.294
743.86	37.799
744.18	27.751
744.49	34.043
744.80	38.043
745.12	41.176
745.43	35.122
745.74	37.500
746.06	38.049
746.37	40.838
746.68	40.758
747.00	32.447
747.31	43.284
747.62	32.524
747.94	39.713
748.25	39.604
748.56	40.984
748.88	38.743
749.19	40.426
749.50	33.005
749.82	31.132
750.13	30.734
750.44	37.218
750.75	36.940
751.07	34.307
751.38	29.119
751.69	31.765
752.01	33.333
752.32	32.271
752.63	33.202
752.94	31.466
753.26	38.494
753.57	31.222
753.88	34.956
754.19	31.667
754.51	28.926
754.82	28.745
755.13	33.333
755.44	34.677
755.75	35.547
756.07	31.518
756.38	33.208
756.69	30.268
757.00	30.667
757.31	33.007
757.63	28.659
757.94	31.389
758.25	29.863
758.56	29.255
758.87	28.612
759.18	31.464
759.50	28.727
759.81	31.773
760.12	33.871
760.43	30.606
760.74	32.099
761.05	29.538
761.36	26.989
761.67	28.788
761.99	34.014
762.30	29.818
762.61	32.016
762.92	33.484
763.23	30.180
763.54	33.178
763.85	35.593
764.16	30.705
764.47	27.419
764.78	28.571
765.10	36.364
765.41	29.338
765.72	31.746
766.03	29.699
766.34	28.102
766.65	31.873
766.96	31.313
767.27	35.638
767.58	30.460
767.89	29.078
768.20	32.386
768.51	36.264
768.82	27.094
769.13	29.954
769.44	30.901
769.75	24.658
770.06	30.603
770.37	27.885
770.68	30.964
770.99	24.434
771.30	36.275
771.61	31.222
771.92	34.483
772.23	37.438
772.54	33.333
772.85	38.889
773.16	34.831
773.47	35.948
773.78	36.601
774.09	35.329
774.39	28.667
774.70	32.484
775.01	36.552
775.32	37.143
775.63	28.099
775.94	30.534
776.25	24.409
776.56	38.333
776.87	35.577
777.18	29.915
777.48	40.517
777.79	27.826
778.10	24.762
778.41	24.324
778.72	28.571
779.03	34.586
779.34	36.879
779.65	32.877
779.95	31.507
780.26	42.069
780.57	26.829
780.88	28.346
781.19	29.310
781.50	38.760
781.80	30.178
782.11	23.899
782.42	33.846
782.73	28.058
783.04	39.259
783.34	32.639
783.65	19.658
783.96	32.787
784.27	36.552
784.57	29.268
784.88	34.375
785.19	39.000
785.50	40.000
785.81	37.931
786.11	36.207
786.42	28.155
786.73	37.273
787.04	33.673
787.34	40.179
787.65	31.429
787.96	31.858
788.26	32.727
788.57	30.769
788.88	35.156
789.19	23.810
789.49	33.043
789.80	27.551
790.11	29.293
790.41	30.000
790.72	33.696
791.03	28.409
791.33	42.500
791.64	36.250
791.95	30.233
792.25	31.915
792.56	25.843
792.87	16.438
793.17	31.884
793.48	25.333
793.79	31.250
794.09	35.000
794.40	32.075
794.70	30.097
795.01	21.951
795.32	23.932
795.62	34.286
795.93	40.196
796.23	26.415
796.54	25.000
796.85	39.706
797.15	40.845
797.46	48.611
797.76	45.455
798.07	30.233
798.37	23.684
798.68	25.758
798.99	34.568
799.29	37.143
799.60	39.130
799.90	33.333
800.21	39.344
800.51	38.462
800.82	30.508
801.12	46.377
801.43	52.459
801.73	41.270
802.04	34.000
802.34	25.373
802.65	34.615
802.95	35.714
803.26	13.462
803.56	37.255
803.87	19.565
804.17	24.000
804.48	41.270
804.78	14.815
805.09	2.174
805.39	6.667
805.70	38.889
806.00	31.579
806.30	32.394
806.61	31.429
806.91	12.500
807.22	32.895
807.52	44.000
807.83	34.545
808.13	16.667
808.43	47.059
808.74	22.388
809.04	33.898
809.35	3.846
809.65	34.375
809.95	5.405
810.26	25.000
810.56	8.219
810.86	26.190
811.17	40.000
811.47	20.408
811.77	5.263
812.08	43.182
812.38	30.189
812.69	5.000
812.99	6.061
813.29	42.105
813.59	0.000
813.90	15.909
814.20	7.692
814.50	28.846
814.81	35.849
815.11	17.021
815.41	23.729
815.72	35.714
816.02	33.333
816.32	25.000
816.62	24.390
816.93	0.000
817.23	14.286
817.53	45.833
817.84	34.783
818.14	28.846
818.44	34.211
818.74	43.478
819.04	-5.000
819.35	21.622
819.65	38.235
819.95	33.333
820.25	7.143
820.56	52.500
820.86	10.345
821.16	37.500
821.46	36.170
821.76	37.500
822.07	34.884
822.37	-2.703
822.67	28.125
822.97	54.762
823.27	25.000
823.57	28.000
823.88	-48.148
824.18	28.571
824.48	29.412
824.78	41.935
825.08	-26.087
825.38	45.455
825.69	-33.333
825.99	26.316
826.29	16.667
826.59	33.333
826.89	-52.381
827.19	39.130
827.49	2.500
827.79	11.429
828.09	35.714
828.39	36.364
828.70	43.243
829.00	3.571
829.30	0.000
829.60	46.667
829.90	28.125
830.20	15.789
830.50	14.815
830.80	34.783
831.10	22.727
831.40	51.515
831.70	61.290
832.00	47.619
832.30	4.762
832.60	66.667
832.90	34.483
833.20	-15.000
833.50	75.758
833.80	55.556
834.10	7.692
834.40	31.250
834.70	-77.778
835.00	21.053
835.30	80.769
835.60	80.000
835.90	41.935
836.20	31.818
836.50	39.286
836.80	-26.923
837.10	14.286
837.40	0.000
837.70	27.273
838.00	45.455
838.30	60.870
838.60	23.077
838.90	54.545
839.19	3.571
839.49	20.000
839.79	30.769
840.09	8.333
840.39	71.429
840.69	28.571
840.99	-15.385
841.29	-5.263
841.59	-40.000
841.88	72.727
842.18	-20.000
842.48	-6.250
842.78	-6.667
843.08	22.222
843.38	60.000
843.68	43.478
843.97	80.000
844.27	-20.000
844.57	5.000
844.87	22.222
845.17	-23.810
845.47	6.667
845.76	-4.762
846.06	23.529
846.36	-20.000
846.66	-21.429
846.96	53.333
847.25	-125.000
847.55	71.429
847.85	75.000
848.15	-4.545
848.44	-533.333
848.74	30.000
849.04	3.704
849.34	-18.182
849.63	-50.000
849.93	-20.000
850.23	0.000
850.53	100.000
850.82	-23.077
851.12	66.667
851.42	20.000
851.71	26.923
852.01	57.143
852.31	-100.000
852.61	36.364
852.90	55.000
853.20	10.526
853.50	-33.333
853.79	47.826
854.09	45.833
854.39	10.526
854.68	58.333
854.98	6.452
855.28	7.692
855.57	10.000
855.87	55.556
856.17	11.111
856.46	14.286
856.76	-20.000
857.05	144.444
857.35	44.000
857.65	83.333
857.94	-46.154
858.24	79.310
858.53	44.444
858.83	22.222
859.13	4.545
859.42	17.391
859.72	-225.000
860.01	-300.000
860.31	28.000
860.60	57.143
860.90	-33.333
861.20	-33.333
861.49	-300.000
861.79	40.000
862.08	5.000
862.38	153.333
862.67	-120.000
862.97	16.667
863.26	-75.000
863.56	83.333
863.85	-333.333
864.15	50.000
864.44	80.000
864.74	57.143
865.03	100.000
865.33	-200.000
865.62	0.000
865.92	16.667
866.21	-66.667
866.51	62.500
866.80	-36.364
867.10	-500.000
867.39	66.667
867.69	0.000
867.98	38.462
868.27	66.667
868.57	26.667
868.86	-22.222
869.16	-38.462
869.45	60.000
869.75	-700.000
870.04	0.000
870.33	114.286
870.63	47.619
870.92	266.667
871.22	-120.000
871.51	-1100.000
871.80	11.111
872.10	500.000
>>>>>End Processed Spectral Data<<<<<
