SpectraSuite Data File
++++++++++++++++++++++++++++++++++++
Date: Fri May 15 17:26:49 PDT 2015
User: schluterlab
Dark Spectrum Present: Yes
Reference Spectrum Present: Yes
Number of Sampled Component Spectra: 1
Spectrometers: USB2E3373
Integration Time (usec): 3000 (USB2E3373)
Spectra Averaged: 3 (USB2E3373)
Boxcar Smoothing: 0 (USB2E3373)
Correct for Electrical Dark: No (USB2E3373)
Strobe/Lamp Enabled: No (USB2E3373)
Correct for Detector Non-linearity: No (USB2E3373)
Correct for Stray Light: No (USB2E3373)
Number of Pixels in Processed Spectrum: 2048
>>>>>Begin Processed Spectral Data<<<<<
178.53	0.000
178.91	0.000
179.29	-125.000
179.67	-150.000
180.04	57.143
180.42	75.000
180.80	-300.000
181.18	-133.333
181.56	300.000
181.94	350.000
182.31	900.000
182.69	120.000
183.07	-233.333
183.45	100.000
183.83	-33.333
184.20	18.182
184.58	100.000
184.96	-125.000
185.34	-100.000
185.72	50.000
186.09	15.385
186.47	-300.000
186.85	183.333
187.23	66.667
187.61	-600.000
187.98	-200.000
188.36	100.000
188.74	-133.333
189.12	41.176
189.49	66.667
189.87	0.000
190.25	121.429
190.63	150.000
191.00	-566.667
191.38	26.316
191.76	350.000
192.14	-75.000
192.51	450.000
192.89	11.111
193.27	-114.286
193.65	33.333
194.02	118.182
194.40	0.000
194.78	-200.000
195.15	-25.000
195.53	0.000
195.91	100.000
196.29	50.000
196.66	153.846
197.04	-0.000
197.42	-22.222
197.79	-333.333
198.17	-123.077
198.55	400.000
198.92	-466.667
199.30	1000.000
199.68	-40.000
200.05	-66.667
200.43	0.000
200.81	200.000
201.18	33.333
201.56	800.000
201.94	250.000
202.31	-133.333
202.69	-240.000
203.07	-25.000
203.44	200.000
203.82	0.000
204.19	42.857
204.57	-466.667
204.95	112.500
205.32	10.000
205.70	0.000
206.08	-25.000
206.45	122.222
206.83	64.286
207.20	14.286
207.58	200.000
207.96	0.000
208.33	-60.000
208.71	125.000
209.08	-216.667
209.46	-700.000
209.84	0.000
210.21	100.000
210.59	-85.714
210.96	16.667
211.34	75.000
211.71	26.667
212.09	-114.286
212.46	-1400.000
212.84	0.000
213.22	30.000
213.59	200.000
213.97	38.462
214.34	36.364
214.72	-66.667
215.09	275.000
215.47	-61.538
215.84	-136.364
216.22	-200.000
216.59	25.000
216.97	50.000
217.34	25.000
217.72	-60.000
218.09	87.500
218.47	100.000
218.84	300.000
219.22	-44.444
219.59	180.000
219.97	366.667
220.34	125.000
220.72	157.143
221.09	-50.000
221.47	500.000
221.84	-200.000
222.22	-350.000
222.59	100.000
222.97	-66.667
223.34	-166.667
223.72	50.000
224.09	52.381
224.46	25.000
224.84	200.000
225.21	10.000
225.59	33.333
225.96	-50.000
226.34	525.000
226.71	-42.857
227.08	33.333
227.46	37.500
227.83	-100.000
228.21	-55.556
228.58	27.273
228.95	-87.500
229.33	50.000
229.70	37.500
230.08	25.000
230.45	-157.143
230.82	-28.571
231.20	53.333
231.57	92.857
231.95	71.429
232.32	30.000
232.69	42.857
233.07	133.333
233.44	0.000
233.81	-50.000
234.19	-77.778
234.56	-17.647
234.93	250.000
235.31	150.000
235.68	-140.000
236.05	-46.154
236.43	10.000
236.80	70.588
237.17	6.250
237.55	-15.000
237.92	0.000
238.29	19.444
238.67	0.000
239.04	17.647
239.41	-29.268
239.79	-3.333
240.16	19.512
240.53	-7.895
240.91	15.217
241.28	31.746
241.65	28.571
242.02	19.178
242.40	13.333
242.77	11.864
243.14	18.182
243.51	18.750
243.89	20.690
244.26	29.885
244.63	15.476
245.00	9.278
245.38	22.680
245.75	7.865
246.12	9.483
246.49	20.661
246.87	20.192
247.24	5.042
247.61	6.140
247.98	7.317
248.36	20.000
248.73	15.789
249.10	11.039
249.47	15.823
249.84	6.536
250.22	16.471
250.59	11.111
250.96	18.310
251.33	12.209
251.70	18.824
252.08	18.782
252.45	7.921
252.82	10.553
253.19	15.207
253.56	7.477
253.94	15.766
254.31	16.087
254.68	17.982
255.05	12.205
255.42	10.917
255.79	17.375
256.16	16.732
256.54	16.045
256.91	14.449
257.28	14.498
257.65	12.360
258.02	12.766
258.39	17.845
258.76	19.414
259.14	15.615
259.51	15.858
259.88	14.089
260.25	15.686
260.62	17.361
260.99	12.542
261.36	13.699
261.73	14.241
262.10	14.286
262.47	15.031
262.85	12.226
263.22	13.538
263.59	12.461
263.96	14.596
264.33	13.333
264.70	18.155
265.07	11.905
265.44	14.164
265.81	13.842
266.18	15.027
266.55	15.167
266.92	16.321
267.29	14.621
267.66	16.368
268.03	15.183
268.40	14.621
268.77	16.845
269.14	15.588
269.51	14.396
269.88	12.718
270.25	13.520
270.62	12.683
270.99	10.742
271.36	11.736
271.73	12.207
272.10	15.815
272.47	14.421
272.84	13.119
273.21	15.081
273.58	18.072
273.95	14.874
274.32	13.395
274.69	13.575
275.06	14.509
275.43	14.512
275.80	16.777
276.17	12.644
276.54	14.775
276.91	16.009
277.28	13.974
277.65	13.636
278.02	14.468
278.39	14.223
278.76	14.256
279.13	9.959
279.50	13.445
279.87	15.119
280.23	12.903
280.60	14.425
280.97	17.374
281.34	13.462
281.71	17.454
282.08	12.270
282.45	12.916
282.82	12.162
283.19	11.992
283.56	13.487
283.92	9.488
284.29	10.962
284.66	12.209
285.03	11.198
285.40	14.934
285.77	12.478
286.14	13.718
286.51	15.867
286.87	11.517
287.24	12.523
287.61	12.875
287.98	13.509
288.35	13.172
288.72	11.384
289.08	11.632
289.45	13.533
289.82	12.762
290.19	11.945
290.56	11.321
290.93	12.795
291.29	12.635
291.66	12.441
292.03	13.078
292.40	13.710
292.77	12.121
293.13	9.253
293.50	11.684
293.87	13.130
294.24	11.747
294.60	10.134
294.97	11.756
295.34	10.429
295.71	11.475
296.08	10.164
296.44	9.815
296.81	10.417
297.18	10.290
297.55	11.653
297.91	12.466
298.28	12.269
298.65	10.041
299.02	9.299
299.38	7.387
299.75	9.793
300.12	9.031
300.48	8.827
300.85	11.027
301.22	9.351
301.59	9.737
301.95	10.759
302.32	12.062
302.69	10.945
303.05	9.901
303.42	10.212
303.79	9.579
304.15	10.394
304.52	9.275
304.89	8.070
305.25	9.201
305.62	8.635
305.99	10.643
306.35	9.364
306.72	8.324
307.09	9.350
307.45	9.989
307.82	9.491
308.19	9.292
308.55	7.525
308.92	10.566
309.29	9.274
309.65	9.042
310.02	10.011
310.38	8.782
310.75	10.055
311.12	9.688
311.48	8.484
311.85	9.948
312.22	9.283
312.58	9.236
312.95	8.431
313.31	8.799
313.68	8.901
314.05	9.694
314.41	8.660
314.78	9.381
315.14	8.941
315.51	7.971
315.87	9.016
316.24	11.426
316.61	10.138
316.97	9.921
317.34	9.375
317.70	9.751
318.07	9.808
318.43	9.706
318.80	9.848
319.16	9.277
319.53	10.921
319.89	10.039
320.26	11.032
320.62	11.535
320.99	8.873
321.35	9.866
321.72	11.423
322.08	10.876
322.45	11.574
322.81	12.377
323.18	11.580
323.54	11.583
323.91	12.463
324.27	12.109
324.64	13.015
325.00	13.047
325.37	13.958
325.73	13.146
326.10	14.532
326.46	14.709
326.83	14.611
327.19	14.821
327.56	15.204
327.92	16.549
328.29	14.643
328.65	14.811
329.01	15.993
329.38	16.866
329.74	17.375
330.11	17.238
330.47	16.698
330.84	15.962
331.20	20.152
331.56	16.389
331.93	19.269
332.29	19.157
332.66	19.186
333.02	19.238
333.38	18.515
333.75	21.154
334.11	18.979
334.48	20.218
334.84	21.062
335.20	19.762
335.57	18.404
335.93	20.235
336.29	20.166
336.66	18.801
337.02	19.610
337.38	18.889
337.75	20.273
338.11	21.551
338.47	20.620
338.84	21.072
339.20	20.750
339.56	21.101
339.93	21.307
340.29	21.193
340.65	21.237
341.02	21.720
341.38	21.858
341.74	21.113
342.11	21.664
342.47	20.907
342.83	22.232
343.20	21.516
343.56	22.087
343.92	21.346
344.28	22.716
344.65	21.848
345.01	21.521
345.37	21.278
345.73	23.013
346.10	22.174
346.46	21.531
346.82	22.259
347.19	21.862
347.55	21.387
347.91	22.654
348.27	22.716
348.63	23.850
349.00	21.575
349.36	22.943
349.72	22.139
350.08	22.049
350.45	23.384
350.81	22.342
351.17	22.150
351.53	22.857
351.89	22.626
352.26	23.120
352.62	23.065
352.98	23.695
353.34	22.786
353.70	22.816
354.07	23.468
354.43	22.898
354.79	22.543
355.15	23.889
355.51	23.972
355.87	23.706
356.24	22.838
356.60	23.525
356.96	24.365
357.32	23.802
357.68	23.143
358.04	23.021
358.40	23.875
358.77	24.083
359.13	24.420
359.49	23.344
359.85	24.259
360.21	24.003
360.57	24.407
360.93	23.147
361.29	22.810
361.66	24.060
362.02	24.015
362.38	25.057
362.74	24.224
363.10	25.132
363.46	25.130
363.82	25.620
364.18	24.576
364.54	25.147
364.90	25.376
365.26	25.328
365.62	25.985
365.98	26.393
366.35	24.836
366.71	26.090
367.07	25.254
367.43	24.587
367.79	27.067
368.15	25.485
368.51	26.511
368.87	25.844
369.23	25.199
369.59	25.948
369.95	26.173
370.31	25.867
370.67	26.418
371.03	25.541
371.39	26.550
371.75	26.300
372.11	25.678
372.47	27.071
372.83	26.473
373.19	26.177
373.55	27.004
373.91	26.710
374.27	27.144
374.63	27.854
374.99	27.801
375.35	27.298
375.71	28.112
376.07	27.247
376.42	28.163
376.78	28.658
377.14	27.556
377.50	28.552
377.86	28.313
378.22	28.590
378.58	27.821
378.94	28.229
379.30	28.759
379.66	29.906
380.02	28.878
380.38	29.337
380.74	28.845
381.09	29.816
381.45	29.725
381.81	29.488
382.17	29.569
382.53	29.294
382.89	29.441
383.25	31.736
383.61	30.854
383.97	30.159
384.32	30.832
384.68	30.588
385.04	29.657
385.40	30.927
385.76	32.075
386.12	31.371
386.48	31.737
386.83	30.945
387.19	30.891
387.55	32.120
387.91	30.746
388.27	31.746
388.62	32.347
388.98	31.246
389.34	31.793
389.70	31.697
390.06	30.774
390.42	33.679
390.77	31.916
391.13	32.219
391.49	32.147
391.85	33.073
392.20	31.325
392.56	31.786
392.92	32.766
393.28	32.075
393.64	32.312
393.99	32.727
394.35	32.574
394.71	32.439
395.07	31.804
395.42	32.240
395.78	33.420
396.14	32.219
396.50	33.608
396.85	32.775
397.21	33.521
397.57	33.103
397.92	33.134
398.28	33.621
398.64	33.193
399.00	34.707
399.35	33.183
399.71	32.625
400.07	33.797
400.42	33.660
400.78	34.905
401.14	34.180
401.49	34.306
401.85	32.968
402.21	33.193
402.57	35.000
402.92	33.250
403.28	34.336
403.63	34.552
403.99	33.673
404.35	34.603
404.70	33.810
405.06	33.725
405.42	33.375
405.77	33.236
406.13	34.342
406.49	33.689
406.84	35.147
407.20	34.738
407.55	33.290
407.91	34.425
408.27	33.716
408.62	34.523
408.98	33.395
409.34	34.511
409.69	34.173
410.05	33.128
410.40	33.704
410.76	34.922
411.11	34.187
411.47	34.714
411.83	34.714
412.18	34.492
412.54	33.583
412.89	33.682
413.25	34.777
413.60	34.472
413.96	34.172
414.31	34.695
414.67	33.611
415.03	35.153
415.38	33.355
415.74	35.309
416.09	35.271
416.45	35.314
416.80	34.567
417.16	35.912
417.51	35.843
417.87	34.355
418.22	35.039
418.58	35.987
418.93	35.235
419.29	34.571
419.64	35.062
420.00	36.272
420.35	35.045
420.71	35.784
421.06	36.894
421.42	34.976
421.77	35.376
422.12	35.698
422.48	36.221
422.83	35.557
423.19	35.779
423.54	35.215
423.90	35.925
424.25	36.739
424.61	36.720
424.96	36.760
425.31	36.568
425.67	35.798
426.02	37.456
426.38	37.007
426.73	37.288
427.09	38.165
427.44	36.706
427.79	37.065
428.15	36.711
428.50	35.857
428.85	36.486
429.21	37.408
429.56	37.574
429.92	37.237
430.27	36.040
430.62	35.233
430.98	36.730
431.33	38.170
431.68	36.368
432.04	37.563
432.39	37.764
432.74	36.560
433.10	39.195
433.45	38.112
433.80	37.261
434.16	37.175
434.51	37.204
434.86	37.340
435.22	37.297
435.57	38.677
435.92	37.305
436.28	38.223
436.63	37.878
436.98	37.080
437.34	37.266
437.69	38.640
438.04	36.809
438.39	37.874
438.75	39.101
439.10	37.295
439.45	38.953
439.81	37.370
440.16	39.252
440.51	38.687
440.86	38.731
441.22	37.670
441.57	37.804
441.92	39.717
442.27	38.027
442.63	39.026
442.98	38.886
443.33	37.785
443.68	38.515
444.03	39.245
444.39	37.727
444.74	39.576
445.09	38.808
445.44	38.234
445.79	39.660
446.15	37.885
446.50	38.658
446.85	39.267
447.20	39.520
447.55	38.783
447.91	38.917
448.26	39.499
448.61	38.803
448.96	39.816
449.31	39.711
449.66	38.328
450.02	39.133
450.37	39.123
450.72	39.404
451.07	40.316
451.42	38.577
451.77	38.999
452.12	38.696
452.47	38.699
452.83	39.635
453.18	39.658
453.53	39.949
453.88	40.134
454.23	39.644
454.58	40.113
454.93	39.884
455.28	38.794
455.63	39.182
455.98	39.627
456.34	40.421
456.69	40.661
457.04	41.399
457.39	38.700
457.74	39.782
458.09	38.788
458.44	38.678
458.79	39.160
459.14	39.703
459.49	40.478
459.84	39.650
460.19	39.867
460.54	39.914
460.89	39.773
461.24	40.373
461.59	39.311
461.94	39.497
462.29	40.290
462.64	40.465
462.99	39.743
463.34	40.403
463.69	38.610
464.04	39.952
464.39	39.236
464.74	39.202
465.09	39.239
465.44	38.661
465.79	37.868
466.14	37.856
466.49	39.045
466.84	39.143
467.19	39.675
467.54	38.506
467.89	39.545
468.24	39.599
468.59	39.429
468.94	39.619
469.29	39.213
469.64	39.166
469.99	40.925
470.34	40.546
470.68	41.462
471.03	41.047
471.38	39.943
471.73	40.616
472.08	39.756
472.43	39.597
472.78	39.136
473.13	39.592
473.48	39.088
473.83	38.730
474.17	40.674
474.52	40.268
474.87	40.242
475.22	39.353
475.57	39.074
475.92	40.044
476.27	40.454
476.61	40.394
476.96	38.762
477.31	40.346
477.66	39.607
478.01	40.146
478.36	40.305
478.70	40.566
479.05	40.220
479.40	40.329
479.75	39.885
480.10	39.734
480.45	39.150
480.79	40.332
481.14	40.113
481.49	40.000
481.84	39.141
482.19	39.008
482.53	39.616
482.88	39.045
483.23	40.307
483.58	39.198
483.92	38.867
484.27	38.696
484.62	39.758
484.97	39.428
485.31	37.789
485.66	36.566
486.01	36.201
486.36	35.954
486.70	36.757
487.05	37.413
487.40	37.565
487.75	38.197
488.09	38.690
488.44	38.824
488.79	39.223
489.13	40.304
489.48	39.590
489.83	39.283
490.17	39.146
490.52	39.584
490.87	39.472
491.22	40.879
491.56	40.560
491.91	40.105
492.26	40.058
492.60	38.724
492.95	40.433
493.30	39.472
493.64	41.356
493.99	40.145
494.34	39.709
494.68	40.048
495.03	39.854
495.37	40.383
495.72	40.485
496.07	40.537
496.41	39.670
496.76	40.212
497.11	39.311
497.45	39.761
497.80	41.120
498.14	40.040
498.49	39.411
498.84	40.669
499.18	40.110
499.53	40.377
499.87	39.689
500.22	40.950
500.56	40.393
500.91	39.859
501.26	39.150
501.60	40.236
501.95	40.757
502.29	39.952
502.64	41.071
502.98	40.454
503.33	39.385
503.67	40.048
504.02	41.740
504.36	40.079
504.71	40.202
505.06	40.715
505.40	40.254
505.75	41.340
506.09	40.091
506.44	41.427
506.78	41.582
507.13	41.158
507.47	40.888
507.82	40.865
508.16	40.148
508.51	40.923
508.85	41.654
509.19	41.511
509.54	41.984
509.88	40.561
510.23	41.205
510.57	40.620
510.92	40.085
511.26	40.971
511.61	41.529
511.95	41.425
512.30	41.242
512.64	41.068
512.98	41.101
513.33	41.466
513.67	41.728
514.02	42.563
514.36	42.400
514.70	42.890
515.05	42.714
515.39	42.031
515.74	43.413
516.08	43.634
516.42	42.815
516.77	43.066
517.11	41.899
517.46	43.567
517.80	43.206
518.14	42.192
518.49	42.428
518.83	43.256
519.17	42.389
519.52	42.806
519.86	42.557
520.20	43.439
520.55	43.527
520.89	44.354
521.23	43.382
521.58	44.290
521.92	44.231
522.26	43.331
522.61	44.416
522.95	45.232
523.29	44.028
523.64	43.901
523.98	44.200
524.32	42.977
524.66	44.046
525.01	45.325
525.35	44.005
525.69	44.310
526.04	44.444
526.38	43.126
526.72	43.427
527.06	43.385
527.41	44.921
527.75	42.761
528.09	44.718
528.43	45.307
528.78	44.092
529.12	44.581
529.46	43.795
529.80	44.775
530.15	46.403
530.49	45.589
530.83	45.144
531.17	44.056
531.51	45.280
531.86	45.615
532.20	44.816
532.54	44.724
532.88	45.106
533.22	43.683
533.57	44.102
533.91	43.473
534.25	45.313
534.59	43.297
534.93	43.801
535.27	42.576
535.62	43.098
535.96	43.770
536.30	44.525
536.64	45.555
536.98	44.181
537.32	45.021
537.66	44.741
538.01	44.196
538.35	44.105
538.69	44.075
539.03	43.472
539.37	44.280
539.71	44.513
540.05	45.961
540.39	44.598
540.73	45.955
541.07	45.028
541.42	44.892
541.76	45.148
542.10	43.496
542.44	45.031
542.78	42.739
543.12	42.926
543.46	43.672
543.80	45.108
544.14	42.790
544.48	44.970
544.82	44.703
545.16	45.355
545.50	44.860
545.84	44.759
546.18	45.957
546.52	44.340
546.86	44.572
547.20	46.137
547.54	43.534
547.88	45.109
548.22	43.327
548.56	44.129
548.90	44.744
549.24	45.592
549.58	44.640
549.92	44.532
550.26	46.227
550.60	45.130
550.94	46.901
551.28	46.213
551.62	46.385
551.96	46.165
552.30	45.322
552.64	44.922
552.98	45.429
553.32	45.150
553.66	45.428
554.00	46.350
554.34	46.381
554.68	45.428
555.02	47.173
555.36	46.148
555.69	44.469
556.03	45.396
556.37	45.979
556.71	46.859
557.05	44.594
557.39	44.312
557.73	47.226
558.07	47.360
558.41	46.631
558.75	45.986
559.08	47.912
559.42	47.381
559.76	46.918
560.10	46.789
560.44	46.314
560.78	46.224
561.12	47.532
561.45	45.678
561.79	46.289
562.13	47.268
562.47	45.324
562.81	45.821
563.15	45.205
563.48	45.474
563.82	45.779
564.16	45.682
564.50	44.527
564.84	45.783
565.17	46.546
565.51	46.926
565.85	46.159
566.19	45.491
566.52	46.448
566.86	46.465
567.20	44.209
567.54	45.195
567.88	46.046
568.21	45.023
568.55	43.913
568.89	44.302
569.23	43.621
569.56	42.207
569.90	42.347
570.24	40.789
570.57	42.036
570.91	41.478
571.25	40.283
571.59	40.424
571.92	39.526
572.26	40.157
572.60	40.248
572.93	39.975
573.27	39.561
573.61	40.483
573.95	39.842
574.28	39.036
574.62	38.673
574.96	39.242
575.29	39.551
575.63	38.404
575.97	38.845
576.30	39.134
576.64	39.073
576.98	39.176
577.31	39.395
577.65	39.174
577.98	38.715
578.32	38.790
578.66	38.685
578.99	38.769
579.33	38.746
579.67	38.683
580.00	39.671
580.34	39.726
580.67	38.749
581.01	39.601
581.35	38.351
581.68	38.339
582.02	38.392
582.35	38.143
582.69	38.644
583.02	38.923
583.36	40.123
583.70	40.732
584.03	40.784
584.37	42.321
584.70	40.440
585.04	39.534
585.37	39.091
585.71	40.114
586.04	39.713
586.38	39.664
586.72	40.631
587.05	41.103
587.39	40.760
587.72	40.651
588.06	40.852
588.39	40.216
588.73	41.026
589.06	41.683
589.40	42.171
589.73	42.351
590.07	43.127
590.40	41.873
590.73	44.069
591.07	43.596
591.40	44.256
591.74	43.982
592.07	43.970
592.41	43.684
592.74	42.613
593.08	40.412
593.41	41.944
593.75	41.053
594.08	40.748
594.41	42.103
594.75	42.214
595.08	42.376
595.42	41.774
595.75	43.372
596.09	42.611
596.42	42.993
596.75	44.139
597.09	43.599
597.42	43.993
597.75	43.014
598.09	41.648
598.42	43.096
598.76	42.171
599.09	42.468
599.42	41.076
599.76	41.723
600.09	41.667
600.42	41.433
600.76	41.493
601.09	42.672
601.42	41.911
601.76	42.358
602.09	42.904
602.42	43.597
602.76	43.930
603.09	43.106
603.42	43.771
603.76	42.419
604.09	42.932
604.42	43.613
604.76	44.949
605.09	42.870
605.42	44.605
605.75	42.688
606.09	42.251
606.42	42.744
606.75	43.853
607.09	43.253
607.42	42.800
607.75	43.872
608.08	42.453
608.42	43.033
608.75	44.771
609.08	44.943
609.41	44.721
609.75	44.607
610.08	44.433
610.41	44.589
610.74	43.735
611.07	44.599
611.41	44.992
611.74	46.055
612.07	45.664
612.40	45.405
612.73	46.158
613.07	46.344
613.40	46.007
613.73	45.104
614.06	45.409
614.39	46.080
614.72	45.378
615.06	45.922
615.39	45.524
615.72	44.564
616.05	45.587
616.38	44.330
616.71	46.300
617.05	46.510
617.38	47.329
617.71	47.484
618.04	47.238
618.37	47.289
618.70	47.129
619.03	48.333
619.36	48.191
619.69	49.962
620.03	50.256
620.36	47.425
620.69	47.752
621.02	48.242
621.35	50.456
621.68	51.190
622.01	50.667
622.34	49.641
622.67	49.369
623.00	49.541
623.33	49.771
623.66	47.569
623.99	49.546
624.32	49.354
624.65	47.820
624.99	49.812
625.32	48.143
625.65	50.589
625.98	51.894
626.31	49.210
626.64	50.953
626.97	50.698
627.30	51.226
627.63	50.173
627.96	51.842
628.29	52.729
628.62	54.376
628.95	52.705
629.28	53.831
629.61	51.844
629.94	53.079
630.26	53.261
630.59	55.151
630.92	54.154
631.25	52.410
631.58	55.396
631.91	54.386
632.24	54.931
632.57	56.477
632.90	56.584
633.23	55.412
633.56	58.186
633.89	55.734
634.22	56.790
634.55	58.069
634.88	56.577
635.20	56.667
635.53	58.400
635.86	57.087
636.19	56.921
636.52	56.760
636.85	56.700
637.18	56.604
637.51	55.220
637.83	56.242
638.16	56.753
638.49	56.131
638.82	56.447
639.15	57.395
639.48	61.073
639.81	59.554
640.13	59.019
640.46	59.038
640.79	57.732
641.12	60.414
641.45	58.859
641.77	57.926
642.10	61.769
642.43	56.913
642.76	60.726
643.09	62.359
643.41	58.738
643.74	59.802
644.07	60.099
644.40	60.473
644.73	60.595
645.05	58.389
645.38	62.610
645.71	60.461
646.04	61.939
646.36	61.348
646.69	62.590
647.02	64.272
647.35	62.313
647.67	64.351
648.00	65.112
648.33	61.604
648.66	59.831
648.98	59.129
649.31	58.678
649.64	59.969
649.96	59.643
650.29	60.988
650.62	60.855
650.94	64.815
651.27	60.708
651.60	64.144
651.92	60.490
652.25	61.279
652.58	59.000
652.90	62.607
653.23	60.000
653.56	60.068
653.88	59.278
654.21	57.968
654.54	60.272
654.86	61.290
655.19	56.871
655.52	51.548
655.84	40.462
656.17	44.018
656.49	59.294
656.82	63.109
657.15	49.067
657.47	37.484
657.80	28.281
658.13	28.327
658.45	44.639
658.78	44.937
659.10	46.801
659.43	47.161
659.75	50.715
660.08	52.966
660.41	56.997
660.73	61.050
661.06	62.738
661.38	61.448
661.71	59.138
662.03	67.811
662.36	64.615
662.68	65.708
663.01	66.812
663.33	68.213
663.66	65.116
663.98	63.488
664.31	62.473
664.63	67.972
664.96	62.609
665.28	62.031
665.61	64.069
665.93	67.174
666.26	64.642
666.58	61.969
666.91	68.235
667.23	69.575
667.56	68.957
667.88	69.784
668.21	66.587
668.53	67.849
668.86	68.632
669.18	67.689
669.50	63.923
669.83	65.116
670.15	65.268
670.48	66.986
670.80	64.516
671.13	64.206
671.45	64.155
671.77	64.378
672.10	62.376
672.42	58.240
672.75	60.924
673.07	63.148
673.39	60.734
673.72	59.172
674.04	62.917
674.37	67.161
674.69	63.383
675.01	66.444
675.34	67.568
675.66	68.981
675.98	63.636
676.31	64.450
676.63	66.508
676.95	63.182
677.28	70.588
677.60	67.470
677.92	64.908
678.25	64.114
678.57	64.069
678.89	62.605
679.22	65.324
679.54	60.040
679.86	60.636
680.18	63.107
680.51	59.848
680.83	60.636
681.15	63.600
681.48	64.549
681.80	64.876
682.12	62.097
682.44	61.297
682.77	62.693
683.09	61.327
683.41	62.727
683.73	63.364
684.06	64.823
684.38	61.075
684.70	66.667
685.02	63.900
685.34	58.696
685.67	59.475
685.99	59.675
686.31	58.230
686.63	59.926
686.96	59.506
687.28	61.010
687.60	58.175
687.92	62.828
688.24	60.484
688.56	62.882
688.89	64.286
689.21	62.889
689.53	59.165
689.85	62.558
690.17	60.268
690.49	63.593
690.82	65.291
691.14	62.619
691.46	66.589
691.78	64.414
692.10	63.011
692.42	59.957
692.74	63.462
693.06	61.036
693.39	60.633
693.71	60.860
694.03	60.046
694.35	62.150
694.67	65.152
694.99	59.530
695.31	67.102
695.63	64.750
695.95	58.586
696.27	65.285
696.59	63.889
696.91	65.546
697.23	60.925
697.56	66.584
697.88	61.075
698.20	65.831
698.52	63.529
698.84	59.809
699.16	63.750
699.48	65.163
699.80	64.020
700.12	67.385
700.44	68.347
700.76	66.279
701.08	65.758
701.40	68.976
701.72	70.988
702.04	68.647
702.36	68.562
702.68	62.162
703.00	70.000
703.32	63.636
703.64	60.734
703.96	69.855
704.28	68.405
704.60	65.714
704.91	64.353
705.23	70.100
705.55	73.498
705.87	70.036
706.19	68.148
706.51	68.041
706.83	67.203
707.15	61.682
707.47	62.745
707.79	60.937
708.11	62.500
708.43	62.000
708.74	63.049
709.06	65.915
709.38	66.361
709.70	68.343
710.02	67.197
710.34	65.944
710.66	59.295
710.98	63.245
711.29	69.836
711.61	63.390
711.93	65.147
712.25	69.416
712.57	67.033
712.89	66.045
713.20	62.976
713.52	66.899
713.84	64.846
714.16	63.574
714.48	65.806
714.80	67.949
715.11	64.742
715.43	60.188
715.75	65.000
716.07	62.126
716.39	65.436
716.70	65.683
717.02	64.885
717.34	70.850
717.66	69.912
717.97	69.565
718.29	70.293
718.61	69.685
718.93	65.891
719.24	65.019
719.56	68.273
719.88	62.199
720.20	70.833
720.51	68.582
720.83	66.795
721.15	68.067
721.46	67.742
721.78	65.217
722.10	63.569
722.42	63.485
722.73	72.245
723.05	68.980
723.37	70.763
723.68	66.216
724.00	68.376
724.32	66.222
724.63	69.091
724.95	69.432
725.27	72.811
725.58	69.068
725.90	61.905
726.22	67.181
726.53	63.051
726.85	62.921
727.16	66.792
727.48	58.300
727.80	66.397
728.11	68.644
728.43	64.706
728.74	59.677
729.06	67.200
729.38	69.549
729.69	63.347
730.01	63.077
730.32	63.806
730.64	59.011
730.96	67.547
731.27	59.000
731.59	62.373
731.90	62.739
732.22	62.461
732.53	63.787
732.85	59.574
733.16	63.636
733.48	60.072
733.80	70.290
734.11	60.678
734.43	61.856
734.74	60.000
735.06	60.912
735.37	62.236
735.69	61.279
736.00	62.021
736.32	60.403
736.63	63.380
736.95	62.116
737.26	59.786
737.58	60.067
737.89	63.004
738.21	60.150
738.52	70.782
738.83	65.066
739.15	60.262
739.46	64.173
739.78	60.440
740.09	55.556
740.41	61.957
740.72	59.055
741.04	66.397
741.35	59.149
741.66	61.137
741.98	69.898
742.29	64.851
742.61	62.827
742.92	59.716
743.23	60.185
743.55	66.063
743.86	65.072
744.18	65.550
744.49	69.149
744.80	70.109
745.12	72.193
745.43	67.805
745.74	73.438
746.06	66.829
746.37	66.492
746.68	63.507
747.00	64.894
747.31	77.612
747.62	69.903
747.94	64.115
748.25	68.317
748.56	74.317
748.88	66.492
749.19	67.553
749.50	72.906
749.82	59.906
750.13	61.468
750.44	66.165
750.75	66.418
751.07	64.234
751.38	59.770
751.69	60.392
752.01	66.279
752.32	63.347
752.63	66.798
752.94	70.259
753.26	66.109
753.57	62.896
753.88	61.504
754.19	64.583
754.51	62.810
754.82	62.348
755.13	69.167
755.44	60.484
755.75	59.766
756.07	64.202
756.38	61.509
756.69	62.452
757.00	60.667
757.31	55.229
757.63	57.317
757.94	55.278
758.25	54.795
758.56	53.457
758.87	55.241
759.18	54.829
759.50	57.818
759.81	55.518
760.12	60.323
760.43	54.242
760.74	57.716
761.05	58.154
761.36	54.545
761.67	59.394
761.99	57.143
762.30	56.364
762.61	60.079
762.92	65.611
763.23	59.910
763.54	62.150
763.85	57.203
764.16	61.411
764.47	60.484
764.78	58.974
765.10	57.576
765.41	58.675
765.72	56.825
766.03	60.526
766.34	56.934
766.65	60.558
766.96	60.606
767.27	64.362
767.58	62.069
767.89	70.922
768.20	61.364
768.51	61.538
768.82	58.621
769.13	56.221
769.44	55.365
769.75	53.425
770.06	60.776
770.37	57.212
770.68	65.482
770.99	52.036
771.30	59.314
771.61	57.466
771.92	62.069
772.23	65.025
772.54	63.978
772.85	62.963
773.16	62.360
773.47	73.856
773.78	62.745
774.09	55.689
774.39	67.333
774.70	61.146
775.01	65.517
775.32	75.714
775.63	65.289
775.94	66.412
776.25	66.142
776.56	61.667
776.87	78.846
777.18	64.957
777.48	66.379
777.79	64.348
778.10	57.143
778.41	57.658
778.72	65.079
779.03	61.654
779.34	62.411
779.65	65.068
779.95	55.479
780.26	57.931
780.57	63.415
780.88	62.205
781.19	64.655
781.50	65.891
781.80	50.296
782.11	49.057
782.42	67.692
782.73	63.309
783.04	65.185
783.34	56.944
783.65	49.573
783.96	65.574
784.27	64.138
784.57	60.976
784.88	58.594
785.19	64.000
785.50	70.000
785.81	60.345
786.11	65.517
786.42	61.165
786.73	70.000
787.04	66.327
787.34	58.036
787.65	71.429
787.96	57.522
788.26	69.091
788.57	48.718
788.88	61.719
789.19	56.349
789.49	58.261
789.80	66.327
790.11	67.677
790.41	50.909
790.72	59.783
791.03	71.591
791.33	80.000
791.64	56.250
791.95	69.767
792.25	71.277
792.56	73.034
792.87	71.233
793.17	63.768
793.48	65.333
793.79	66.250
794.09	76.250
794.40	56.604
794.70	57.282
795.01	57.724
795.32	54.701
795.62	52.381
795.93	68.627
796.23	66.038
796.54	68.750
796.85	69.118
797.15	59.155
797.46	66.667
797.76	78.788
798.07	50.000
798.37	53.947
798.68	62.121
798.99	53.086
799.29	81.429
799.60	65.217
799.90	62.667
800.21	73.770
800.51	73.846
800.82	86.441
801.12	47.826
801.43	67.213
801.73	60.317
802.04	78.000
802.34	65.672
802.65	86.538
802.95	50.000
803.26	75.000
803.56	72.549
803.87	78.261
804.17	70.667
804.48	79.365
804.78	62.963
805.09	73.913
805.39	48.889
805.70	77.778
806.00	56.140
806.30	64.789
806.61	77.143
806.91	59.722
807.22	67.105
807.52	62.667
807.83	67.273
808.13	61.111
808.43	52.941
808.74	41.791
809.04	55.932
809.35	73.077
809.65	56.250
809.95	64.865
810.26	50.000
810.56	52.055
810.86	83.333
811.17	78.000
811.47	85.714
811.77	63.158
812.08	84.091
812.38	64.151
812.69	77.500
812.99	57.576
813.29	92.105
813.59	65.714
813.90	72.727
814.20	76.923
814.50	61.538
814.81	64.151
815.11	34.043
815.41	83.051
815.72	50.000
816.02	66.667
816.32	66.667
816.62	41.463
816.93	48.649
817.23	77.143
817.53	75.000
817.84	50.000
818.14	40.385
818.44	39.474
818.74	76.087
819.04	40.000
819.35	78.378
819.65	58.824
819.95	83.333
820.25	92.857
820.56	82.500
820.86	51.724
821.16	80.000
821.46	68.085
821.76	80.000
822.07	55.814
822.37	40.541
822.67	71.875
822.97	69.048
823.27	64.286
823.57	72.000
823.88	51.852
824.18	60.714
824.48	52.941
824.78	93.548
825.08	65.217
825.38	90.909
825.69	37.500
825.99	55.263
826.29	83.333
826.59	173.333
826.89	90.476
827.19	58.696
827.49	52.500
827.79	80.000
828.09	85.714
828.39	84.848
828.70	94.595
829.00	64.286
829.30	61.905
829.60	46.667
829.90	62.500
830.20	21.053
830.50	92.593
830.80	52.174
831.10	68.182
831.40	93.939
831.70	83.871
832.00	33.333
832.30	61.905
832.60	125.000
832.90	58.621
833.20	55.000
833.50	63.636
833.80	40.741
834.10	46.154
834.40	37.500
834.70	77.778
835.00	78.947
835.30	115.385
835.60	226.667
835.90	64.516
836.20	27.273
836.50	82.143
836.80	-15.385
837.10	60.714
837.40	366.667
837.70	90.909
838.00	109.091
838.30	78.261
838.60	84.615
838.90	68.182
839.19	42.857
839.49	70.000
839.79	38.462
840.09	-16.667
840.39	103.571
840.69	35.714
840.99	42.308
841.29	57.895
841.59	20.000
841.88	136.364
842.18	110.000
842.48	112.500
842.78	73.333
843.08	44.444
843.38	-40.000
843.68	60.870
843.97	60.000
844.27	60.000
844.57	-5.000
844.87	83.333
845.17	33.333
845.47	113.333
845.76	52.381
846.06	100.000
846.36	0.000
846.66	21.429
846.96	60.000
847.25	-37.500
847.55	85.714
847.85	225.000
848.15	36.364
848.44	100.000
848.74	40.000
849.04	51.852
849.34	72.727
849.63	116.667
849.93	60.000
850.23	50.000
850.53	110.000
850.82	0.000
851.12	88.889
851.42	53.333
851.71	65.385
852.01	121.429
852.31	250.000
852.61	145.455
852.90	60.000
853.20	57.895
853.50	16.667
853.79	39.130
854.09	83.333
854.39	26.316
854.68	54.167
854.98	35.484
855.28	65.385
855.57	70.000
855.87	100.000
856.17	92.593
856.46	57.143
856.76	66.667
857.05	155.556
857.35	52.000
857.65	44.444
857.94	15.385
858.24	37.931
858.53	100.000
858.83	11.111
859.13	59.091
859.42	13.043
859.72	150.000
860.01	-200.000
860.31	44.000
860.60	61.905
860.90	300.000
861.20	-33.333
861.49	-350.000
861.79	53.333
862.08	50.000
862.38	40.000
862.67	-180.000
862.97	-116.667
863.26	200.000
863.56	88.889
863.85	-33.333
864.15	88.889
864.44	10.000
864.74	35.714
865.03	150.000
865.33	-20.000
865.62	-50.000
865.92	41.667
866.21	-33.333
866.51	68.750
866.80	90.909
867.10	-50.000
867.39	66.667
867.69	0.000
867.98	53.846
868.27	100.000
868.57	13.333
868.86	11.111
869.16	-15.385
869.45	86.667
869.75	-200.000
870.04	0.000
870.33	-57.143
870.63	71.429
870.92	200.000
871.22	20.000
871.51	500.000
871.80	77.778
872.10	166.667
>>>>>End Processed Spectral Data<<<<<
