SpectraSuite Data File
++++++++++++++++++++++++++++++++++++
Date: Fri May 15 20:15:58 PDT 2015
User: schluterlab
Dark Spectrum Present: Yes
Reference Spectrum Present: Yes
Number of Sampled Component Spectra: 1
Spectrometers: USB2E3373
Integration Time (usec): 3000 (USB2E3373)
Spectra Averaged: 3 (USB2E3373)
Boxcar Smoothing: 0 (USB2E3373)
Correct for Electrical Dark: No (USB2E3373)
Strobe/Lamp Enabled: No (USB2E3373)
Correct for Detector Non-linearity: No (USB2E3373)
Correct for Stray Light: No (USB2E3373)
Number of Pixels in Processed Spectrum: 2048
>>>>>Begin Processed Spectral Data<<<<<
178.53	0.000
178.91	0.000
179.29	125.000
179.67	-100.000
180.04	28.571
180.42	0.000
180.80	-200.000
181.18	133.333
181.56	150.000
181.94	100.000
182.31	200.000
182.69	-40.000
183.07	-133.333
183.45	40.000
183.83	83.333
184.20	9.091
184.58	166.667
184.96	-25.000
185.34	200.000
185.72	-400.000
186.09	76.923
186.47	-1200.000
186.85	66.667
187.23	77.778
187.61	-300.000
187.98	-166.667
188.36	111.111
188.74	-233.333
189.12	5.882
189.49	33.333
189.87	0.000
190.25	21.429
190.63	50.000
191.00	-200.000
191.38	-31.579
191.76	350.000
192.14	175.000
192.51	-250.000
192.89	-100.000
193.27	-57.143
193.65	333.333
194.02	127.273
194.40	-10.000
194.78	-62.500
195.15	75.000
195.53	-200.000
195.91	250.000
196.29	-200.000
196.66	161.538
197.04	57.143
197.42	-22.222
197.79	-166.667
198.17	-115.385
198.55	1100.000
198.92	-333.333
199.30	-400.000
199.68	320.000
200.05	-33.333
200.43	0.000
200.81	66.667
201.18	-33.333
201.56	1300.000
201.94	150.000
202.31	66.667
202.69	-360.000
203.07	50.000
203.44	0.000
203.82	0.000
204.19	64.286
204.57	-233.333
204.95	100.000
205.32	60.000
205.70	14.286
206.08	25.000
206.45	144.444
206.83	50.000
207.20	-171.429
207.58	-200.000
207.96	-200.000
208.33	-120.000
208.71	0.000
209.08	-166.667
209.46	-500.000
209.84	-80.000
210.21	-1600.000
210.59	-71.429
210.96	166.667
211.34	-225.000
211.71	0.000
212.09	-200.000
212.46	-1600.000
212.84	0.000
213.22	0.000
213.59	700.000
213.97	15.385
214.34	100.000
214.72	-50.000
215.09	350.000
215.47	15.385
215.84	36.364
216.22	-333.333
216.59	12.500
216.97	400.000
217.34	-50.000
217.72	0.000
218.09	150.000
218.47	112.500
218.84	-500.000
219.22	11.111
219.59	-200.000
219.97	300.000
220.34	275.000
220.72	-157.143
221.09	0.000
221.47	-200.000
221.84	-350.000
222.22	-600.000
222.59	18.182
222.97	0.000
223.34	-100.000
223.72	7.143
224.09	4.762
224.46	14.286
224.84	566.667
225.21	30.000
225.59	80.000
225.96	-100.000
226.34	300.000
226.71	-85.714
227.08	-150.000
227.46	50.000
227.83	-450.000
228.21	-22.222
228.58	0.000
228.95	25.000
229.33	200.000
229.70	31.250
230.08	-100.000
230.45	-100.000
230.82	42.857
231.20	6.667
231.57	-7.143
231.95	28.571
232.32	-50.000
232.69	21.429
233.07	-100.000
233.44	-40.000
233.81	-110.000
234.19	44.444
234.56	23.529
234.93	700.000
235.31	-125.000
235.68	-320.000
236.05	-100.000
236.43	-65.000
236.80	-58.824
237.17	-3.125
237.55	-5.000
237.92	-11.111
238.29	-19.444
238.67	-20.000
239.04	-8.824
239.41	-41.463
239.79	-40.000
240.16	-17.073
240.53	-47.368
240.91	-2.174
241.28	6.349
241.65	-10.714
242.02	12.329
242.40	0.000
242.77	-1.695
243.14	3.030
243.51	-6.250
243.89	12.644
244.26	-8.046
244.63	-5.952
245.00	4.124
245.38	0.000
245.75	-16.854
246.12	2.586
246.49	-2.479
246.87	0.000
247.24	-5.042
247.61	-13.158
247.98	0.000
248.36	-1.250
248.73	-0.658
249.10	-1.299
249.47	-3.165
249.84	-0.654
250.22	-1.176
250.59	-12.418
250.96	8.451
251.33	-6.395
251.70	-3.529
252.08	-2.030
252.45	0.000
252.82	-1.508
253.19	3.226
253.56	-4.206
253.94	4.505
254.31	-2.609
254.68	0.877
255.05	0.000
255.42	0.000
255.79	-0.772
256.16	-1.556
256.54	1.493
256.91	1.141
257.28	-0.372
257.65	0.749
258.02	-2.482
258.39	2.357
258.76	1.465
259.14	0.332
259.51	3.236
259.88	-1.718
260.25	2.288
260.62	0.694
260.99	-2.034
261.36	-1.027
261.73	-0.949
262.10	0.912
262.47	-0.613
262.85	-2.194
263.22	-2.462
263.59	0.000
263.96	-1.553
264.33	3.030
264.70	-1.190
265.07	-1.190
265.44	2.266
265.81	0.282
266.18	-0.546
266.55	1.542
266.92	2.073
267.29	-0.261
267.66	3.069
268.03	-2.094
268.40	0.522
268.77	4.813
269.14	1.439
269.51	0.771
269.88	-0.998
270.25	-1.531
270.62	-0.732
270.99	-1.023
271.36	0.244
271.73	0.704
272.10	1.217
272.47	0.946
272.84	-1.238
273.21	1.624
273.58	2.410
273.95	1.373
274.32	-2.771
274.69	-2.715
275.06	0.223
275.43	-0.680
275.80	0.662
276.17	-0.690
276.54	-0.428
276.91	1.535
277.28	-1.092
277.65	1.446
278.02	0.638
278.39	0.219
278.76	1.048
279.13	-1.867
279.50	2.941
279.87	0.648
280.23	-0.860
280.60	2.729
280.97	1.818
281.34	1.346
281.71	2.875
282.08	-0.818
282.45	-0.391
282.82	-1.158
283.19	1.547
283.56	1.156
283.92	-2.277
284.29	-1.538
284.66	0.969
285.03	0.393
285.40	-0.189
285.77	-0.879
286.14	1.444
286.51	-0.369
286.87	0.000
287.24	-0.184
287.61	-1.764
287.98	0.526
288.35	1.040
288.72	2.102
289.08	0.694
289.45	1.054
289.82	1.224
290.19	0.341
290.56	0.515
290.93	0.337
291.29	0.308
291.66	-0.787
292.03	-0.797
292.40	1.129
292.77	0.319
293.13	-1.786
293.50	-0.910
293.87	0.305
294.24	1.546
294.60	0.745
294.97	2.679
295.34	-0.153
295.71	0.000
296.08	-0.149
296.44	-0.996
296.81	1.111
297.18	0.435
297.55	1.220
297.91	1.233
298.28	1.715
298.65	-0.407
299.02	1.752
299.38	-1.915
299.75	0.690
300.12	-0.785
300.48	0.132
300.85	0.380
301.22	0.000
301.59	1.447
301.95	2.152
302.32	1.556
302.69	0.871
303.05	0.495
303.42	0.374
303.79	1.519
304.15	1.195
304.52	-0.476
304.89	0.819
305.25	-0.847
305.62	-0.117
305.99	0.585
306.35	0.000
306.72	-0.787
307.09	0.342
307.45	1.722
307.82	-0.579
308.19	1.626
308.55	0.981
308.92	0.109
309.29	0.112
309.65	0.215
310.02	0.220
310.38	0.549
310.75	0.984
311.12	0.215
311.48	0.636
311.85	0.942
312.22	0.105
312.58	0.212
312.95	0.000
313.31	-0.725
313.68	0.105
314.05	0.612
314.41	0.928
314.78	0.309
315.14	1.336
315.51	1.553
315.87	0.410
316.24	1.719
316.61	1.673
316.97	1.687
317.34	1.270
317.70	1.625
318.07	0.673
318.43	0.392
318.80	1.042
319.16	0.586
319.53	1.614
319.89	0.787
320.26	1.012
320.62	0.201
320.99	0.209
321.35	0.411
321.72	1.558
322.08	1.611
322.45	1.421
322.81	1.965
323.18	0.687
323.54	1.062
323.91	1.266
324.27	1.758
324.64	2.903
325.00	3.193
325.37	3.581
325.73	1.451
326.10	2.997
326.46	2.870
326.83	3.500
327.19	3.313
327.56	3.997
327.92	4.665
328.29	3.661
328.65	2.925
329.01	3.401
329.38	4.240
329.74	3.022
330.11	4.819
330.47	4.360
330.84	3.750
331.20	6.464
331.56	4.722
331.93	5.479
332.29	6.691
332.66	5.611
333.02	5.669
333.38	4.858
333.75	7.784
334.11	4.476
334.48	6.709
334.84	6.136
335.20	6.496
335.57	6.618
335.93	7.769
336.29	7.090
336.66	6.176
337.02	6.134
337.38	6.481
337.75	7.273
338.11	7.484
338.47	7.482
338.84	7.579
339.20	7.952
339.56	7.615
339.93	6.893
340.29	8.073
340.65	8.423
341.02	8.511
341.38	8.053
341.74	7.067
342.11	6.412
342.47	8.007
342.83	8.131
343.20	7.753
343.56	7.565
343.92	8.326
344.28	8.113
344.65	7.081
345.01	7.087
345.37	9.083
345.73	9.289
346.10	8.110
346.46	7.822
346.82	6.956
347.19	6.816
347.55	8.438
347.91	8.091
348.27	8.407
348.63	7.751
349.00	7.383
349.36	8.313
349.72	8.126
350.08	8.115
350.45	8.220
350.81	6.977
351.17	8.469
351.53	7.755
351.89	7.102
352.26	8.000
352.62	7.339
352.98	7.550
353.34	7.568
353.70	8.252
354.07	7.581
354.43	8.567
354.79	7.349
355.15	8.730
355.51	8.070
355.87	7.686
356.24	7.504
356.60	7.922
356.96	8.571
357.32	8.546
357.68	8.210
358.04	6.624
358.40	6.752
358.77	8.453
359.13	7.046
359.49	8.089
359.85	8.034
360.21	8.214
360.57	8.034
360.93	8.245
361.29	7.931
361.66	8.072
362.02	8.106
362.38	9.216
362.74	7.570
363.10	7.524
363.46	7.709
363.82	8.340
364.18	8.266
364.54	7.868
364.90	8.029
365.26	8.006
365.62	8.759
365.98	8.578
366.35	8.521
366.71	8.721
367.07	8.636
367.43	7.620
367.79	8.481
368.15	8.471
368.51	8.157
368.87	8.040
369.23	7.437
369.59	6.997
369.95	8.138
370.31	8.382
370.67	8.433
371.03	8.215
371.39	8.680
371.75	8.498
372.11	8.987
372.47	7.766
372.83	7.949
373.19	9.272
373.55	7.870
373.91	7.847
374.27	8.292
374.63	8.758
374.99	8.723
375.35	9.331
375.71	9.441
376.07	8.216
376.42	8.231
376.78	7.919
377.14	8.802
377.50	8.300
377.86	9.371
378.22	8.679
378.58	8.397
378.94	8.507
379.30	9.545
379.66	9.404
380.02	8.952
380.38	8.156
380.74	8.677
381.09	9.264
381.45	8.440
381.81	9.130
382.17	9.708
382.53	8.745
382.89	9.542
383.25	9.334
383.61	10.183
383.97	9.143
384.32	9.318
384.68	9.474
385.04	8.946
385.40	8.774
385.76	9.182
386.12	10.285
386.48	8.940
386.83	9.068
387.19	9.524
387.55	9.975
387.91	8.985
388.27	9.035
388.62	9.817
388.98	9.024
389.34	9.182
389.70	9.633
390.06	8.874
390.42	9.780
390.77	9.026
391.13	9.206
391.49	9.573
391.85	9.227
392.20	9.102
392.56	8.837
392.92	9.865
393.28	9.257
393.64	9.069
393.99	10.721
394.35	9.171
394.71	9.259
395.07	9.554
395.42	8.804
395.78	8.925
396.14	8.512
396.50	9.131
396.85	9.723
397.21	9.398
397.57	9.279
397.92	9.167
398.28	8.908
398.64	8.253
399.00	9.086
399.35	8.860
399.71	9.477
400.07	9.250
400.42	8.446
400.78	8.879
401.14	9.074
401.49	8.993
401.85	7.983
402.21	9.096
402.57	9.063
402.92	7.779
403.28	9.085
403.63	8.197
403.99	7.526
404.35	8.182
404.70	7.798
405.06	8.461
405.42	8.017
405.77	7.844
406.13	7.800
406.49	7.993
406.84	8.068
407.20	9.211
407.55	7.147
407.91	7.821
408.27	7.330
408.62	8.554
408.98	7.517
409.34	8.364
409.69	7.494
410.05	8.436
410.40	7.901
410.76	8.444
411.11	7.500
411.47	7.890
411.83	7.156
412.18	7.851
412.54	6.804
412.89	6.835
413.25	8.303
413.60	7.516
413.96	7.914
414.31	8.232
414.67	7.441
415.03	6.858
415.38	7.311
415.74	7.622
416.09	7.707
416.45	7.900
416.80	8.328
417.16	7.666
417.51	8.594
417.87	7.497
418.22	7.707
418.58	7.425
418.93	8.527
419.29	7.810
419.64	7.647
420.00	8.564
420.35	7.940
420.71	7.959
421.06	7.673
421.42	9.014
421.77	8.324
422.12	7.264
422.48	8.338
422.83	8.817
423.19	8.409
423.54	7.113
423.90	7.774
424.25	8.840
424.61	7.956
424.96	9.408
425.31	8.954
425.67	7.570
426.02	8.834
426.38	8.015
426.73	8.475
427.09	9.114
427.44	8.706
427.79	9.252
428.15	8.677
428.50	8.298
428.85	8.108
429.21	9.508
429.56	9.272
429.92	9.091
430.27	8.822
430.62	8.102
430.98	9.183
431.33	9.464
431.68	8.320
432.04	9.223
432.39	8.842
432.74	8.358
433.10	9.540
433.45	9.140
433.80	9.228
434.16	8.587
434.51	9.301
434.86	9.698
435.22	9.422
435.57	9.607
435.92	10.180
436.28	9.302
436.63	10.040
436.98	9.849
437.34	9.316
437.69	10.376
438.04	9.858
438.39	9.163
438.75	9.168
439.10	10.413
439.45	10.164
439.81	9.725
440.16	10.689
440.51	10.269
440.86	10.453
441.22	10.916
441.57	9.713
441.92	10.021
442.27	9.701
442.63	10.921
442.98	10.569
443.33	9.738
443.68	10.080
444.03	11.326
444.39	10.625
444.74	10.758
445.09	10.913
445.44	10.484
445.79	10.933
446.15	11.123
446.50	10.649
446.85	10.414
447.20	10.063
447.55	12.277
447.91	10.829
448.26	11.611
448.61	11.572
448.96	10.499
449.31	10.751
449.66	11.034
450.02	10.953
450.37	11.678
450.72	11.397
451.07	11.329
451.42	10.986
451.77	10.970
452.12	11.244
452.47	10.431
452.83	11.131
453.18	10.816
453.53	11.884
453.88	11.172
454.23	10.572
454.58	12.154
454.93	12.113
455.28	10.921
455.63	11.593
455.98	12.026
456.34	11.941
456.69	11.309
457.04	12.224
457.39	11.361
457.74	10.520
458.09	11.242
458.44	11.410
458.79	11.933
459.14	12.071
459.49	11.701
459.84	12.239
460.19	11.772
460.54	12.164
460.89	11.250
461.24	11.801
461.59	12.233
461.94	10.755
462.29	13.028
462.64	12.625
462.99	11.848
463.34	10.987
463.69	11.840
464.04	12.107
464.39	11.643
464.74	11.718
465.09	12.664
465.44	11.021
465.79	11.395
466.14	11.688
466.49	11.731
466.84	12.017
467.19	12.641
467.54	11.494
467.89	12.066
468.24	11.740
468.59	12.635
468.94	12.063
469.29	12.459
469.64	12.919
469.99	12.754
470.34	11.468
470.68	12.677
471.03	12.668
471.38	12.268
471.73	12.395
472.08	12.212
472.43	11.074
472.78	10.966
473.13	13.061
473.48	12.182
473.83	12.267
474.17	12.889
474.52	12.636
474.87	12.364
475.22	11.653
475.57	11.801
475.92	12.013
476.27	12.747
476.61	12.326
476.96	11.935
477.31	12.710
477.66	12.528
478.01	11.847
478.36	11.983
478.70	11.909
479.05	12.253
479.40	11.712
479.75	12.461
480.10	11.879
480.45	12.250
480.79	12.790
481.14	12.756
481.49	12.266
481.84	12.741
482.19	12.301
482.53	12.278
482.88	12.363
483.23	11.804
483.58	12.406
483.92	12.052
484.27	12.625
484.62	12.237
484.97	12.231
485.31	11.633
485.66	11.553
486.01	11.746
486.36	11.818
486.70	12.090
487.05	12.374
487.40	12.384
487.75	11.352
488.09	11.588
488.44	11.967
488.79	11.991
489.13	12.059
489.48	12.185
489.83	12.511
490.17	12.899
490.52	12.240
490.87	11.846
491.22	12.655
491.56	12.903
491.91	12.285
492.26	12.445
492.60	12.812
492.95	12.838
493.30	12.555
493.64	12.426
493.99	12.126
494.34	11.990
494.68	11.476
495.03	12.019
495.37	12.512
495.72	12.317
496.07	12.000
496.41	12.689
496.76	12.391
497.11	12.809
497.45	13.031
497.80	13.118
498.14	12.568
498.49	12.544
498.84	12.425
499.18	12.450
499.53	12.450
499.87	12.500
500.22	12.413
500.56	11.952
500.91	11.948
501.26	12.407
501.60	12.248
501.95	12.227
502.29	13.027
502.64	12.693
502.98	12.087
503.33	11.527
503.67	12.096
504.02	13.587
504.36	13.013
504.71	11.869
505.06	12.229
505.40	12.437
505.75	12.577
506.09	12.418
506.44	13.244
506.78	13.112
507.13	13.547
507.47	12.010
507.82	11.592
508.16	12.942
508.51	12.120
508.85	12.454
509.19	12.028
509.54	11.903
509.88	11.435
510.23	13.018
510.57	13.362
510.92	11.834
511.26	13.039
511.61	11.991
511.95	12.822
512.30	12.417
512.64	12.743
512.98	12.465
513.33	12.759
513.67	12.564
514.02	12.929
514.36	13.371
514.70	13.578
515.05	12.808
515.39	12.692
515.74	12.695
516.08	12.971
516.42	13.133
516.77	12.932
517.11	12.878
517.46	13.405
517.80	13.409
518.14	13.043
518.49	12.200
518.83	13.062
519.17	12.735
519.52	12.907
519.86	12.365
520.20	13.123
520.55	12.133
520.89	13.927
521.23	13.046
521.58	13.186
521.92	13.462
522.26	12.232
522.61	13.182
522.95	12.715
523.29	13.215
523.64	13.278
523.98	12.573
524.32	12.242
524.66	13.572
525.01	13.247
525.35	13.675
525.69	13.670
526.04	12.897
526.38	14.267
526.72	12.426
527.06	12.840
527.41	13.127
527.75	13.472
528.09	13.156
528.43	13.302
528.78	12.541
529.12	13.548
529.46	12.411
529.80	13.490
530.15	12.673
530.49	12.795
530.83	13.543
531.17	12.357
531.51	13.201
531.86	12.508
532.20	13.013
532.54	13.342
532.88	12.799
533.22	14.180
533.57	12.385
533.91	12.010
534.25	13.346
534.59	12.829
534.93	12.335
535.27	11.739
535.62	12.703
535.96	12.981
536.30	12.599
536.64	12.681
536.98	13.171
537.32	13.727
537.66	13.043
538.01	13.497
538.35	12.205
538.69	12.983
539.03	12.440
539.37	13.594
539.71	12.679
540.05	12.967
540.39	12.950
540.73	13.389
541.07	13.052
541.42	13.777
541.76	13.283
542.10	12.939
542.44	12.926
542.78	11.012
543.12	11.813
543.46	13.213
543.80	13.046
544.14	12.483
544.48	12.725
544.82	12.303
545.16	13.525
545.50	13.685
545.84	13.031
546.18	12.979
546.52	12.906
546.86	12.509
547.20	13.519
547.54	12.438
547.88	12.908
548.22	12.229
548.56	12.401
548.90	13.073
549.24	12.397
549.58	13.047
549.92	12.509
550.26	12.527
550.60	12.714
550.94	12.920
551.28	12.210
551.62	13.077
551.96	13.008
552.30	12.792
552.64	13.117
552.98	12.799
553.32	12.839
553.66	12.409
554.00	12.482
554.34	13.072
554.68	11.947
555.02	14.137
555.36	12.790
555.69	11.062
556.03	12.705
556.37	13.167
556.71	12.924
557.05	13.274
557.39	12.714
557.73	13.418
558.07	13.122
558.41	12.940
558.75	13.484
559.08	12.372
559.42	12.540
559.76	12.890
560.10	12.691
560.44	12.584
560.78	13.287
561.12	12.271
561.45	12.860
561.79	13.305
562.13	12.704
562.47	12.806
562.81	13.040
563.15	13.329
563.48	13.366
563.82	13.315
564.16	12.465
564.50	13.041
564.84	13.119
565.17	13.146
565.51	12.637
565.85	12.826
566.19	12.202
566.52	13.271
566.86	13.817
567.20	11.893
567.54	12.774
567.88	12.244
568.21	13.066
568.55	12.446
568.89	12.680
569.23	11.988
569.56	12.259
569.90	12.058
570.24	11.537
570.57	12.109
570.91	12.409
571.25	11.707
571.59	12.083
571.92	11.793
572.26	11.806
572.60	11.628
572.93	11.829
573.27	11.254
573.61	11.844
573.95	11.906
574.28	11.970
574.62	11.492
574.96	11.668
575.29	11.610
575.63	11.454
575.97	11.819
576.30	11.555
576.64	11.338
576.98	11.737
577.31	11.674
577.65	11.399
577.98	11.496
578.32	11.408
578.66	11.111
578.99	11.348
579.33	11.641
579.67	11.254
580.00	11.468
580.34	11.294
580.67	11.276
581.01	11.383
581.35	10.874
581.68	11.356
582.02	11.360
582.35	11.161
582.69	11.473
583.02	10.981
583.36	11.450
583.70	11.526
584.03	11.815
584.37	11.999
584.70	11.593
585.04	11.244
585.37	11.327
585.71	11.331
586.04	11.952
586.38	11.603
586.72	11.707
587.05	11.987
587.39	11.881
587.72	12.138
588.06	11.680
588.39	11.991
588.73	12.027
589.06	11.840
589.40	12.167
589.73	12.231
590.07	12.273
590.40	12.229
590.73	12.685
591.07	12.044
591.40	12.155
591.74	12.081
592.07	12.245
592.41	12.544
592.74	12.226
593.08	11.247
593.41	11.598
593.75	11.678
594.08	11.569
594.41	11.463
594.75	12.137
595.08	11.843
595.42	11.888
595.75	11.603
596.09	12.275
596.42	11.947
596.75	12.922
597.09	11.891
597.42	11.608
597.75	11.956
598.09	12.313
598.42	11.958
598.76	11.755
599.09	11.819
599.42	11.747
599.76	11.926
600.09	11.689
600.42	12.434
600.76	11.627
601.09	11.450
601.42	11.359
601.76	11.552
602.09	11.964
602.42	12.131
602.76	12.351
603.09	11.919
603.42	11.622
603.76	11.613
604.09	11.867
604.42	12.225
604.76	12.194
605.09	11.974
605.42	12.415
605.75	11.778
606.09	11.762
606.42	11.718
606.75	11.732
607.09	12.220
607.42	11.874
607.75	11.945
608.08	11.500
608.42	12.289
608.75	12.241
609.08	12.257
609.41	11.320
609.75	11.341
610.08	12.381
610.41	11.691
610.74	11.945
611.07	12.093
611.41	12.143
611.74	12.313
612.07	12.099
612.40	12.144
612.73	12.203
613.07	11.361
613.40	13.129
613.73	12.199
614.06	11.797
614.39	12.126
614.72	11.653
615.06	12.458
615.39	12.336
615.72	11.572
616.05	11.955
616.38	11.795
616.71	11.988
617.05	13.218
617.38	12.194
617.71	11.635
618.04	12.381
618.37	12.673
618.70	12.805
619.03	13.125
619.36	12.301
619.69	11.751
620.03	12.929
620.36	12.518
620.69	13.133
621.02	12.232
621.35	12.282
621.68	11.990
622.01	12.833
622.34	12.291
622.67	13.170
623.00	13.170
623.33	12.805
623.66	11.668
623.99	12.405
624.32	13.004
624.65	11.429
624.99	12.566
625.32	12.434
625.65	12.490
625.98	12.893
626.31	11.305
626.64	12.132
626.97	12.565
627.30	12.960
627.63	13.605
627.96	12.309
628.29	10.823
628.62	14.061
628.95	12.926
629.28	13.911
629.61	12.463
629.94	13.587
630.26	11.957
630.59	13.528
630.92	13.231
631.25	13.333
631.58	11.894
631.91	11.842
632.24	12.615
632.57	13.636
632.90	11.744
633.23	12.941
633.56	11.083
633.89	13.317
634.22	15.679
634.55	13.215
634.88	12.771
635.20	12.949
635.53	12.533
635.86	13.134
636.19	13.583
636.52	13.393
636.85	13.027
637.18	12.327
637.51	14.088
637.83	13.535
638.16	13.097
638.49	12.807
638.82	14.079
639.15	13.704
639.48	13.480
639.81	13.947
640.13	13.853
640.46	12.828
640.79	12.666
641.12	11.226
641.45	12.613
641.77	14.667
642.10	14.692
642.43	13.987
642.76	15.677
643.09	13.893
643.41	13.269
643.74	12.685
644.07	15.435
644.40	13.851
644.73	14.886
645.05	13.758
645.38	11.993
645.71	13.652
646.04	13.465
646.36	13.298
646.69	14.029
647.02	14.934
647.35	14.925
647.67	12.980
648.00	14.925
648.33	14.164
648.66	12.034
648.98	11.223
649.31	10.413
649.64	12.088
649.96	12.804
650.29	13.458
650.62	15.043
650.94	14.074
651.27	11.359
651.60	13.874
651.92	13.287
652.25	11.368
652.58	13.500
652.90	14.065
653.23	12.437
653.56	11.675
653.88	11.168
654.21	12.084
654.54	11.545
654.86	13.582
655.19	11.550
655.52	12.848
655.84	10.762
656.17	11.513
656.49	15.476
656.82	16.184
657.15	12.184
657.47	9.122
657.80	6.834
658.13	6.675
658.45	10.324
658.78	10.358
659.10	10.101
659.43	9.910
659.75	11.199
660.08	10.138
660.41	11.747
660.73	11.050
661.06	12.478
661.38	9.198
661.71	11.910
662.03	13.090
662.36	13.187
662.68	13.717
663.01	12.882
663.33	13.457
663.66	10.000
663.98	10.233
664.31	13.006
664.63	10.369
664.96	12.174
665.28	10.596
665.61	13.636
665.93	12.609
666.26	12.798
666.58	10.962
666.91	8.706
667.23	12.264
667.56	13.507
667.88	9.113
668.21	16.945
668.53	15.603
668.86	12.972
669.18	10.613
669.50	12.107
669.83	14.186
670.15	12.587
670.48	11.962
670.80	15.438
671.13	10.515
671.45	11.872
671.77	13.948
672.10	15.050
672.42	13.483
672.75	13.321
673.07	16.279
673.39	12.477
673.72	10.256
674.04	14.167
674.37	14.195
674.69	14.133
675.01	12.222
675.34	12.613
675.66	11.343
675.98	13.082
676.31	14.450
676.63	11.876
676.95	13.864
677.28	13.176
677.60	14.217
677.92	11.697
678.25	12.035
678.57	11.688
678.89	10.924
679.22	13.423
679.54	11.044
679.86	11.730
680.18	12.816
680.51	11.174
680.83	11.928
681.15	14.600
681.48	15.164
681.80	13.430
682.12	10.887
682.44	12.762
682.77	11.921
683.09	13.043
683.41	9.545
683.73	12.212
684.06	11.504
684.38	10.323
684.70	13.072
685.02	11.826
685.34	9.486
685.67	10.507
685.99	11.212
686.31	13.097
686.63	11.874
686.96	10.456
687.28	10.909
687.60	9.696
687.92	12.929
688.24	12.298
688.56	14.847
688.89	10.714
689.21	13.778
689.53	9.977
689.85	8.837
690.17	11.607
690.49	13.712
690.82	9.951
691.14	10.476
691.46	11.916
691.78	11.937
692.10	13.763
692.42	11.905
692.74	11.111
693.06	12.838
693.39	9.729
693.71	10.181
694.03	11.778
694.35	11.215
694.67	10.859
694.99	8.094
695.31	11.749
695.63	13.000
695.95	7.576
696.27	11.658
696.59	12.222
696.91	13.445
697.23	11.825
697.56	12.376
697.88	11.398
698.20	10.934
698.52	8.941
698.84	9.569
699.16	11.500
699.48	10.777
699.80	11.911
700.12	11.860
700.44	14.006
700.76	11.919
701.08	9.091
701.40	12.048
701.72	17.901
702.04	14.851
702.36	13.378
702.68	14.114
703.00	12.727
703.32	11.730
703.64	9.887
703.96	10.725
704.28	9.816
704.60	11.746
704.91	8.202
705.23	12.292
705.55	11.307
705.87	13.357
706.19	11.111
706.51	15.464
706.83	10.289
707.15	10.280
707.47	10.644
707.79	5.990
708.11	11.750
708.43	11.250
708.74	11.111
709.06	12.113
709.38	11.315
709.70	11.243
710.02	7.325
710.34	14.551
710.66	7.051
710.98	8.940
711.29	10.164
711.61	13.220
711.93	11.726
712.25	12.371
712.57	13.919
712.89	11.567
713.20	11.419
713.52	10.453
713.84	12.969
714.16	9.966
714.48	12.258
714.80	13.141
715.11	11.854
715.43	11.285
715.75	8.667
716.07	8.970
716.39	8.389
716.70	10.332
717.02	8.397
717.34	12.955
717.66	6.637
717.97	8.696
718.29	12.971
718.61	12.205
718.93	10.853
719.24	10.266
719.56	12.048
719.88	14.089
720.20	9.848
720.51	8.429
720.83	10.425
721.15	9.664
721.46	8.065
721.78	5.534
722.10	11.524
722.42	5.809
722.73	12.653
723.05	15.102
723.37	11.441
723.68	14.865
724.00	5.128
724.32	9.333
724.63	9.545
724.95	10.917
725.27	11.982
725.58	10.169
725.90	11.508
726.22	11.583
726.53	14.576
726.85	10.861
727.16	14.340
727.48	8.097
727.80	12.551
728.11	11.864
728.43	8.235
728.74	4.435
729.06	8.000
729.38	15.414
729.69	11.554
730.01	6.154
730.32	9.701
730.64	10.601
730.96	11.321
731.27	11.333
731.59	9.153
731.90	8.599
732.22	12.934
732.53	10.963
732.85	8.865
733.16	11.111
733.48	8.993
733.80	11.232
734.11	8.814
734.43	13.746
734.74	10.606
735.06	6.515
735.37	11.178
735.69	10.774
736.00	8.362
736.32	8.054
736.63	10.211
736.95	13.311
737.26	8.541
737.58	6.711
737.89	8.059
738.21	9.398
738.52	7.819
738.83	8.297
739.15	8.734
739.46	14.961
739.78	10.989
740.09	9.150
740.41	7.971
740.72	7.087
741.04	10.931
741.35	8.936
741.66	10.900
741.98	8.163
742.29	12.871
742.61	10.995
742.92	0.948
743.23	6.481
743.55	9.955
743.86	10.048
744.18	6.699
744.49	11.702
744.80	9.783
745.12	17.647
745.43	6.829
745.74	7.292
746.06	11.220
746.37	6.806
746.68	3.318
747.00	12.766
747.31	14.925
747.62	9.223
747.94	9.091
748.25	1.980
748.56	7.104
748.88	5.759
749.19	15.426
749.50	12.315
749.82	10.377
750.13	3.211
750.44	9.023
750.75	10.821
751.07	12.409
751.38	10.345
751.69	7.059
752.01	13.566
752.32	11.155
752.63	9.881
752.94	6.466
753.26	12.971
753.57	9.050
753.88	10.619
754.19	3.333
754.51	6.612
754.82	6.478
755.13	14.167
755.44	10.887
755.75	12.891
756.07	8.560
756.38	6.038
756.69	4.215
757.00	8.000
757.31	9.477
757.63	4.878
757.94	13.056
758.25	7.397
758.56	7.447
758.87	6.232
759.18	8.100
759.50	6.182
759.81	12.709
760.12	8.710
760.43	11.818
760.74	5.864
761.05	12.308
761.36	8.807
761.67	10.000
761.99	9.864
762.30	8.000
762.61	13.043
762.92	7.692
763.23	5.405
763.54	1.869
763.85	8.475
764.16	3.734
764.47	1.613
764.78	9.524
765.10	8.418
765.41	7.256
765.72	7.302
766.03	4.887
766.34	8.394
766.65	12.749
766.96	12.121
767.27	2.660
767.58	6.322
767.89	0.709
768.20	6.818
768.51	10.440
768.82	8.374
769.13	4.608
769.44	7.296
769.75	5.479
770.06	9.914
770.37	5.288
770.68	9.137
770.99	9.955
771.30	8.824
771.61	6.787
771.92	5.603
772.23	11.330
772.54	13.441
772.85	17.284
773.16	18.539
773.47	7.843
773.78	7.190
774.09	7.186
774.39	4.000
774.70	7.643
775.01	18.621
775.32	7.857
775.63	9.917
775.94	5.344
776.25	8.661
776.56	4.167
776.87	7.692
777.18	8.547
777.48	6.034
777.79	2.609
778.10	-5.714
778.41	12.613
778.72	5.556
779.03	9.774
779.34	7.092
779.65	4.795
779.95	0.685
780.26	9.655
780.57	0.000
780.88	8.661
781.19	6.897
781.50	9.302
781.80	4.142
782.11	-1.887
782.42	5.385
782.73	-6.475
783.04	8.889
783.34	11.806
783.65	-4.274
783.96	-1.639
784.27	13.103
784.57	-1.626
784.88	15.625
785.19	5.000
785.50	12.000
785.81	9.483
786.11	9.483
786.42	7.767
786.73	15.455
787.04	2.041
787.34	5.357
787.65	-0.952
787.96	0.000
788.26	13.636
788.57	0.855
788.88	14.063
789.19	3.175
789.49	-5.217
789.80	3.061
790.11	16.162
790.41	9.091
790.72	6.522
791.03	2.273
791.33	15.000
791.64	2.500
791.95	3.488
792.25	9.574
792.56	8.989
792.87	6.849
793.17	7.246
793.48	-2.667
793.79	11.250
794.09	12.500
794.40	7.547
794.70	0.000
795.01	4.065
795.32	16.239
795.62	-2.857
795.93	8.824
796.23	5.660
796.54	11.458
796.85	7.353
797.15	8.451
797.46	15.278
797.76	21.212
798.07	12.791
798.37	-3.947
798.68	-3.030
798.99	3.704
799.29	11.429
799.60	1.449
799.90	10.667
800.21	18.033
800.51	10.769
800.82	-1.695
801.12	4.348
801.43	13.115
801.73	15.873
802.04	14.000
802.34	5.970
802.65	3.846
802.95	-1.786
803.26	3.846
803.56	7.843
803.87	0.000
804.17	2.667
804.48	9.524
804.78	12.963
805.09	10.870
805.39	-11.111
805.70	5.556
806.00	0.000
806.30	16.901
806.61	14.286
806.91	-1.389
807.22	13.158
807.52	9.333
807.83	-1.818
808.13	9.722
808.43	13.235
808.74	7.463
809.04	-18.644
809.35	0.000
809.65	-7.812
809.95	-40.541
810.26	2.273
810.56	8.219
810.86	-2.381
811.17	16.000
811.47	12.245
811.77	-5.263
812.08	11.364
812.38	7.547
812.69	-2.500
812.99	12.121
813.29	-15.789
813.59	-11.429
813.90	0.000
814.20	-33.333
814.50	11.538
814.81	20.755
815.11	-10.638
815.41	20.339
815.72	7.143
816.02	7.843
816.32	10.417
816.62	12.195
816.93	-2.703
817.23	0.000
817.53	18.750
817.84	8.696
818.14	17.308
818.44	-21.053
818.74	6.522
819.04	-12.500
819.35	21.622
819.65	-41.176
819.95	-8.333
820.25	2.381
820.56	12.500
820.86	-37.931
821.16	20.000
821.46	8.511
821.76	12.500
822.07	11.628
822.37	-32.432
822.67	-18.750
822.97	19.048
823.27	-7.143
823.57	-8.000
823.88	-44.444
824.18	-3.571
824.48	2.941
824.78	9.677
825.08	-21.739
825.38	27.273
825.69	-37.500
825.99	21.053
826.29	-5.556
826.59	-6.667
826.89	-71.429
827.19	23.913
827.49	17.500
827.79	8.571
828.09	-10.714
828.39	24.242
828.70	21.622
829.00	-14.286
829.30	-33.333
829.60	-6.667
829.90	40.625
830.20	0.000
830.50	-33.333
830.80	-8.696
831.10	-4.545
831.40	39.394
831.70	12.903
832.00	4.762
832.30	-47.619
832.60	-83.333
832.90	3.448
833.20	-35.000
833.50	24.242
833.80	-3.704
834.10	11.538
834.40	40.625
834.70	-44.444
835.00	-5.263
835.30	30.769
835.60	-20.000
835.90	-3.226
836.20	50.000
836.50	17.857
836.80	-53.846
837.10	-3.571
837.40	-266.667
837.70	9.091
838.00	-63.636
838.30	13.043
838.60	-7.692
838.90	-9.091
839.19	7.143
839.49	6.667
839.79	0.000
840.09	-108.333
840.39	28.571
840.69	-7.143
840.99	7.692
841.29	-63.158
841.59	-50.000
841.88	-27.273
842.18	-100.000
842.48	-6.250
842.78	-40.000
843.08	3.704
843.38	-60.000
843.68	8.696
843.97	-26.667
844.27	60.000
844.57	-35.000
844.87	0.000
845.17	-14.286
845.47	-33.333
845.76	-19.048
846.06	35.294
846.36	-20.000
846.66	-100.000
846.96	6.667
847.25	-37.500
847.55	-42.857
847.85	-50.000
848.15	-9.091
848.44	-533.333
848.74	5.000
849.04	-18.519
849.34	-36.364
849.63	-183.333
849.93	-100.000
850.23	-5.556
850.53	-10.000
850.82	0.000
851.12	-88.889
851.42	-26.667
851.71	-7.692
852.01	0.000
852.31	-175.000
852.61	-9.091
852.90	-45.000
853.20	0.000
853.50	-41.667
853.79	26.087
854.09	20.833
854.39	-21.053
854.68	16.667
854.98	0.000
855.28	19.231
855.57	-10.000
855.87	5.556
856.17	3.704
856.46	0.000
856.76	26.667
857.05	11.111
857.35	-28.000
857.65	22.222
857.94	-7.692
858.24	55.172
858.53	38.889
858.83	-7.407
859.13	-40.909
859.42	0.000
859.72	-150.000
860.01	-466.667
860.31	-4.000
860.60	14.286
860.90	-300.000
861.20	-40.000
861.49	-450.000
861.79	13.333
862.08	15.000
862.38	73.333
862.67	-100.000
862.97	-50.000
863.26	8.333
863.56	38.889
863.85	-400.000
864.15	61.111
864.44	0.000
864.74	14.286
865.03	325.000
865.33	-160.000
865.62	0.000
865.92	66.667
866.21	-116.667
866.51	0.000
866.80	-54.545
867.10	-200.000
867.39	58.333
867.69	0.000
867.98	-7.692
868.27	-333.333
868.57	-6.667
868.86	66.667
869.16	-46.154
869.45	100.000
869.75	-1100.000
870.04	0.000
870.33	-171.429
870.63	14.286
870.92	566.667
871.22	-320.000
871.51	-300.000
871.80	44.444
872.10	300.000
>>>>>End Processed Spectral Data<<<<<
