SpectraSuite Data File
++++++++++++++++++++++++++++++++++++
Date: Fri May 15 17:14:22 PDT 2015
User: schluterlab
Dark Spectrum Present: Yes
Reference Spectrum Present: Yes
Number of Sampled Component Spectra: 1
Spectrometers: USB2E3373
Integration Time (usec): 3000 (USB2E3373)
Spectra Averaged: 3 (USB2E3373)
Boxcar Smoothing: 0 (USB2E3373)
Correct for Electrical Dark: No (USB2E3373)
Strobe/Lamp Enabled: No (USB2E3373)
Correct for Detector Non-linearity: No (USB2E3373)
Correct for Stray Light: No (USB2E3373)
Number of Pixels in Processed Spectrum: 2048
>>>>>Begin Processed Spectral Data<<<<<
178.53	0.000
178.91	0.000
179.29	75.000
179.67	-350.000
180.04	-128.571
180.42	50.000
180.80	1500.000
181.18	66.667
181.56	50.000
181.94	450.000
182.31	-200.000
182.69	60.000
183.07	-133.333
183.45	140.000
183.83	-16.667
184.20	54.545
184.58	100.000
184.96	100.000
185.34	-466.667
185.72	-300.000
186.09	61.538
186.47	-800.000
186.85	-116.667
187.23	44.444
187.61	-1200.000
187.98	0.000
188.36	88.889
188.74	166.667
189.12	94.118
189.49	105.556
189.87	0.000
190.25	78.571
190.63	-100.000
191.00	100.000
191.38	57.895
191.76	650.000
192.14	-0.000
192.51	500.000
192.89	111.111
193.27	71.429
193.65	33.333
194.02	136.364
194.40	150.000
194.78	-100.000
195.15	25.000
195.53	-137.500
195.91	275.000
196.29	100.000
196.66	76.923
197.04	-128.571
197.42	33.333
197.79	-266.667
198.17	-61.538
198.55	1500.000
198.92	66.667
199.30	-400.000
199.68	40.000
200.05	-33.333
200.43	0.000
200.81	33.333
201.18	66.667
201.56	500.000
201.94	0.000
202.31	-100.000
202.69	180.000
203.07	-50.000
203.44	0.000
203.82	0.000
204.19	121.429
204.57	-333.333
204.95	87.500
205.32	80.000
205.70	142.857
206.08	-150.000
206.45	177.778
206.83	71.429
207.20	114.286
207.58	-500.000
207.96	133.333
208.33	-40.000
208.71	250.000
209.08	-150.000
209.46	300.000
209.84	60.000
210.21	-300.000
210.59	171.429
210.96	150.000
211.34	75.000
211.71	20.000
212.09	28.571
212.46	-800.000
212.84	0.000
213.22	110.000
213.59	300.000
213.97	69.231
214.34	136.364
214.72	100.000
215.09	150.000
215.47	69.231
215.84	9.091
216.22	66.667
216.59	87.500
216.97	850.000
217.34	125.000
217.72	20.000
218.09	212.500
218.47	75.000
218.84	-200.000
219.22	11.111
219.59	-80.000
219.97	200.000
220.34	250.000
220.72	28.571
221.09	50.000
221.47	-200.000
221.84	-500.000
222.22	150.000
222.59	54.545
222.97	108.333
223.34	-466.667
223.72	28.571
224.09	71.429
224.46	25.000
224.84	400.000
225.21	-10.000
225.59	126.667
225.96	-100.000
226.34	-0.000
226.71	71.429
227.08	33.333
227.46	50.000
227.83	-50.000
228.21	133.333
228.58	45.455
228.95	75.000
229.33	60.000
229.70	93.750
230.08	0.000
230.45	0.000
230.82	271.429
231.20	13.333
231.57	14.286
231.95	185.714
232.32	30.000
232.69	71.429
233.07	100.000
233.44	240.000
233.81	-20.000
234.19	111.111
234.56	23.529
234.93	-400.000
235.31	150.000
235.68	-240.000
236.05	53.846
236.43	55.000
236.80	47.059
237.17	28.125
237.55	35.000
237.92	62.963
238.29	33.333
238.67	50.000
239.04	44.118
239.41	4.878
239.79	56.667
240.16	75.610
240.53	39.474
240.91	43.478
241.28	47.619
241.65	58.929
242.02	61.644
242.40	56.667
242.77	40.678
243.14	43.939
243.51	51.250
243.89	58.621
244.26	39.080
244.63	52.381
245.00	44.330
245.38	50.515
245.75	39.326
246.12	35.345
246.49	42.149
246.87	51.923
247.24	36.134
247.61	33.333
247.98	35.772
248.36	38.125
248.73	39.474
249.10	37.013
249.47	39.241
249.84	42.484
250.22	45.294
250.59	42.484
250.96	42.723
251.33	36.047
251.70	49.412
252.08	43.147
252.45	41.089
252.82	43.216
253.19	41.935
253.56	40.654
253.94	44.595
254.31	43.478
254.68	45.175
255.05	43.701
255.42	50.655
255.79	44.015
256.16	41.634
256.54	41.791
256.91	41.065
257.28	40.149
257.65	44.944
258.02	43.262
258.39	43.098
258.76	43.223
259.14	47.176
259.51	45.307
259.88	42.955
260.25	40.850
260.62	49.306
260.99	43.051
261.36	45.205
261.73	41.772
262.10	42.857
262.47	45.706
262.85	45.141
263.22	42.769
263.59	44.237
263.96	46.273
264.33	42.424
264.70	46.131
265.07	42.857
265.44	45.326
265.81	43.785
266.18	43.716
266.55	44.216
266.92	45.337
267.29	45.692
267.66	41.432
268.03	44.241
268.40	41.514
268.77	43.316
269.14	43.885
269.51	45.758
269.88	39.900
270.25	41.327
270.62	41.220
270.99	44.501
271.36	40.587
271.73	42.488
272.10	42.822
272.47	44.681
272.84	40.347
273.21	42.227
273.58	42.892
273.95	41.876
274.32	40.185
274.69	40.724
275.06	42.634
275.43	42.630
275.80	41.722
276.17	44.368
276.54	42.612
276.91	42.105
277.28	39.738
277.65	41.736
278.02	42.340
278.39	46.171
278.76	40.881
279.13	36.515
279.50	41.597
279.87	42.981
280.23	40.645
280.60	42.105
280.97	43.636
281.34	41.346
281.71	42.710
282.08	38.241
282.45	40.900
282.82	41.506
283.19	43.714
283.56	42.004
283.92	38.140
284.29	38.077
284.66	41.279
285.03	41.454
285.40	39.319
285.77	40.773
286.14	39.531
286.51	42.804
286.87	36.197
287.24	41.436
287.61	37.743
287.98	39.474
288.35	39.168
288.72	39.930
289.08	37.847
289.45	35.852
289.82	38.986
290.19	37.884
290.56	36.021
290.93	35.354
291.29	35.285
291.66	36.535
292.03	35.088
292.40	34.194
292.77	32.536
293.13	33.604
293.50	32.018
293.87	34.504
294.24	35.085
294.60	33.234
294.97	33.482
295.34	33.282
295.71	33.979
296.08	31.689
296.44	31.010
296.81	32.778
297.18	31.594
297.55	32.385
297.91	31.096
298.28	32.322
298.65	30.665
299.02	32.884
299.38	29.412
299.75	31.448
300.12	30.236
300.48	30.303
300.85	29.404
301.22	31.169
301.59	27.500
301.95	30.253
302.32	32.036
302.69	30.100
303.05	28.465
303.42	30.262
303.79	29.556
304.15	31.661
304.52	28.419
304.89	30.175
305.25	29.177
305.62	27.421
305.99	27.719
306.35	27.052
306.72	27.897
307.09	29.076
307.45	26.406
307.82	28.241
308.19	28.688
308.55	27.372
308.92	29.630
309.29	26.704
309.65	27.018
310.02	28.273
310.38	28.321
310.75	29.727
311.12	27.018
311.48	27.466
311.85	28.063
312.22	26.371
312.58	27.070
312.95	27.321
313.31	27.640
313.68	27.853
314.05	28.061
314.41	29.072
314.78	29.588
315.14	30.627
315.51	28.986
315.87	28.791
316.24	28.311
316.61	29.134
316.97	30.357
317.34	29.395
317.70	30.402
318.07	31.250
318.43	31.176
318.80	29.924
319.16	31.152
319.53	32.858
319.89	31.988
320.26	32.692
320.62	32.197
320.99	32.255
321.35	33.299
321.72	34.268
322.08	34.441
322.45	35.330
322.81	33.595
323.18	34.544
323.54	35.232
323.91	35.930
324.27	36.621
324.64	37.640
325.00	36.496
325.37	38.567
325.73	36.627
326.10	38.692
326.46	39.462
326.83	40.595
327.19	40.541
327.56	40.400
327.92	42.518
328.29	42.054
328.65	43.208
329.01	42.739
329.38	42.673
329.74	42.776
330.11	43.281
330.47	42.579
330.84	44.904
331.20	46.008
331.56	43.426
331.93	45.479
332.29	45.371
332.66	44.434
333.02	45.260
333.38	45.646
333.75	46.429
334.11	45.479
334.48	47.325
334.84	46.978
335.20	47.118
335.57	45.150
335.93	44.896
336.29	48.527
336.66	46.866
337.02	45.632
337.38	45.648
337.75	48.273
338.11	46.979
338.47	47.354
338.84	47.967
339.20	47.166
339.56	46.147
339.93	46.732
340.29	48.899
340.65	46.953
341.02	46.631
341.38	46.283
341.74	45.583
342.11	45.667
342.47	47.420
342.83	47.751
343.20	46.603
343.56	47.217
343.92	48.627
344.28	46.541
344.65	47.409
345.01	47.105
345.37	48.528
345.73	46.946
346.10	47.196
346.46	48.192
346.82	46.399
347.19	46.633
347.55	47.703
347.91	48.625
348.27	46.726
348.63	48.041
349.00	46.924
349.36	47.132
349.72	47.512
350.08	46.557
350.45	47.646
350.81	45.432
351.17	46.336
351.53	47.429
351.89	45.334
352.26	46.240
352.62	47.339
352.98	46.265
353.34	46.860
353.70	46.683
354.07	45.968
354.43	47.558
354.79	47.399
355.15	46.349
355.51	47.310
355.87	47.977
356.24	45.840
356.60	47.615
356.96	46.984
357.32	45.607
357.68	46.521
358.04	46.769
358.40	47.428
358.77	46.651
359.13	46.037
359.49	46.148
359.85	46.100
360.21	47.767
360.57	46.901
360.93	47.806
361.29	47.205
361.66	46.552
362.02	47.955
362.38	48.515
362.74	48.372
363.10	49.059
363.46	47.072
363.82	49.812
364.18	47.749
364.54	48.382
364.90	48.530
365.26	47.525
365.62	49.197
365.98	48.827
366.35	47.706
366.71	48.485
367.07	48.911
367.43	47.951
367.79	47.491
368.15	49.318
368.51	49.599
368.87	47.452
369.23	47.220
369.59	50.000
369.95	49.853
370.31	50.289
370.67	50.149
371.03	49.216
371.39	49.380
371.75	49.670
372.11	48.217
372.47	49.704
372.83	50.816
373.19	49.643
373.55	49.964
373.91	51.260
374.27	50.532
374.63	51.184
374.99	48.440
375.35	49.721
375.71	52.308
376.07	51.194
376.42	50.884
376.78	51.074
377.14	51.049
377.50	51.195
377.86	50.736
378.22	50.032
378.58	50.577
378.94	51.040
379.30	51.092
379.66	52.790
380.02	51.625
380.38	51.248
380.74	51.825
381.09	53.067
381.45	52.844
381.81	52.745
382.17	52.665
382.53	52.655
382.89	54.300
383.25	52.956
383.61	54.512
383.97	52.317
384.32	52.533
384.68	52.879
385.04	52.083
385.40	53.827
385.76	55.157
386.12	53.299
386.48	54.087
386.83	54.534
387.19	53.785
387.55	54.266
387.91	54.218
388.27	54.151
388.62	54.940
388.98	53.468
389.34	55.153
389.70	54.941
390.06	52.360
390.42	54.598
390.77	55.134
391.13	54.477
391.49	54.398
391.85	55.361
392.20	53.610
392.56	54.800
392.92	53.846
393.28	54.127
393.64	53.574
393.99	54.984
394.35	55.345
394.71	55.236
395.07	52.986
395.42	53.188
395.78	54.919
396.14	55.233
396.50	55.549
396.85	55.441
397.21	55.138
397.57	53.605
397.92	54.943
398.28	54.425
398.64	52.229
399.00	54.853
399.35	52.483
399.71	52.901
400.07	55.683
400.42	52.999
400.78	54.378
401.14	54.446
401.49	53.425
401.85	53.016
402.21	53.855
402.57	55.125
402.92	52.886
403.28	53.759
403.63	54.288
403.99	52.997
404.35	54.528
404.70	51.607
405.06	52.409
405.42	54.133
405.77	53.690
406.13	53.434
406.49	52.753
406.84	54.707
407.20	54.666
407.55	52.608
407.91	53.008
408.27	52.263
408.62	53.969
408.98	53.666
409.34	53.284
409.69	52.842
410.05	52.648
410.40	51.852
410.76	54.041
411.11	52.750
411.47	53.386
411.83	52.354
412.18	53.539
412.54	51.935
412.89	52.586
413.25	52.106
413.60	52.422
413.96	51.963
414.31	52.683
414.67	52.277
415.03	51.265
415.38	52.023
415.74	53.290
416.09	52.972
416.45	52.802
416.80	53.272
417.16	54.144
417.51	53.631
417.87	52.934
418.22	53.562
418.58	54.381
418.93	53.542
419.29	51.985
419.64	54.828
420.00	54.975
420.35	52.418
420.71	54.192
421.06	54.144
421.42	55.288
421.77	54.451
422.12	53.859
422.48	53.167
422.83	55.046
423.19	54.289
423.54	54.027
423.90	53.946
424.25	55.224
424.61	54.590
424.96	54.355
425.31	55.633
425.67	54.930
426.02	55.418
426.38	56.356
426.73	57.264
427.09	56.772
427.44	55.882
427.79	56.158
428.15	56.493
428.50	56.632
428.85	55.774
429.21	56.310
429.56	57.520
429.92	56.343
430.27	56.090
430.62	56.979
430.98	57.431
431.33	55.783
431.68	56.672
432.04	57.462
432.39	56.532
432.74	57.005
433.10	57.874
433.45	57.706
433.80	59.199
434.16	58.504
434.51	58.495
434.86	58.420
435.22	58.048
435.57	59.326
435.92	58.383
436.28	58.855
436.63	58.186
436.98	58.575
437.34	59.649
437.69	59.750
438.04	59.544
438.39	59.194
438.75	61.141
439.10	59.027
439.45	60.621
439.81	59.878
440.16	61.105
440.51	60.299
440.86	61.269
441.22	58.993
441.57	61.589
441.92	61.070
442.27	62.029
442.63	61.028
442.98	60.942
443.33	61.102
443.68	60.902
444.03	61.302
444.39	60.944
444.74	63.824
445.09	63.085
445.44	60.969
445.79	61.784
446.15	62.004
446.50	62.396
446.85	62.806
447.20	62.617
447.55	62.835
447.91	62.549
448.26	62.550
448.61	62.637
448.96	63.167
449.31	62.312
449.66	62.079
450.02	63.434
450.37	63.900
450.72	61.856
451.07	62.595
451.42	60.924
451.77	61.905
452.12	63.158
452.47	62.782
452.83	63.781
453.18	62.429
453.53	63.527
453.88	63.388
454.23	63.368
454.58	64.736
454.93	62.887
455.28	62.032
455.63	63.236
455.98	64.041
456.34	63.027
456.69	63.723
457.04	63.516
457.39	63.548
457.74	63.664
458.09	62.978
458.44	64.131
458.79	62.801
459.14	63.215
459.49	64.358
459.84	63.790
460.19	64.199
460.54	64.609
460.89	65.284
461.24	63.789
461.59	63.717
461.94	63.019
462.29	64.234
462.64	64.651
462.99	64.387
463.34	65.021
463.69	64.157
464.04	64.467
464.39	62.765
464.74	63.865
465.09	64.255
465.44	64.859
465.79	64.229
466.14	66.078
466.49	64.405
466.84	64.307
467.19	64.894
467.54	64.112
467.89	64.561
468.24	63.929
468.59	65.651
468.94	63.556
469.29	64.197
469.64	64.935
469.99	65.452
470.34	64.846
470.68	66.294
471.03	65.322
471.38	65.549
471.73	65.266
472.08	63.636
472.43	64.161
472.78	62.851
473.13	64.558
473.48	64.756
473.83	63.512
474.17	65.674
474.52	63.689
474.87	66.303
475.22	65.223
475.57	63.523
475.92	64.838
476.27	66.007
476.61	66.551
476.96	65.533
477.31	65.062
477.66	64.719
478.01	66.086
478.36	64.270
478.70	65.742
479.05	66.374
479.40	64.971
479.75	65.120
480.10	65.284
480.45	66.000
480.79	65.861
481.14	65.881
481.49	65.665
481.84	65.347
482.19	65.014
482.53	65.707
482.88	64.869
483.23	64.491
483.58	64.811
483.92	65.102
484.27	64.950
484.62	65.800
484.97	63.972
485.31	65.282
485.66	63.917
486.01	64.467
486.36	64.296
486.70	64.739
487.05	65.446
487.40	65.047
487.75	64.901
488.09	65.822
488.44	65.199
488.79	66.156
489.13	66.546
489.48	65.413
489.83	66.054
490.17	64.090
490.52	65.727
490.87	65.248
491.22	65.664
491.56	64.421
491.91	64.484
492.26	64.706
492.60	64.971
492.95	66.158
493.30	64.387
493.64	65.864
493.99	66.522
494.34	65.680
494.68	66.095
495.03	64.915
495.37	65.554
495.72	65.068
496.07	66.000
496.41	64.245
496.76	65.776
497.11	64.741
497.45	65.537
497.80	65.893
498.14	63.438
498.49	65.922
498.84	65.719
499.18	66.616
499.53	66.121
499.87	64.883
500.22	65.084
500.56	66.415
500.91	64.859
501.26	65.398
501.60	67.044
501.95	66.715
502.29	66.199
502.64	66.313
502.98	66.305
503.33	65.466
503.67	64.771
504.02	67.107
504.36	66.749
504.71	64.848
505.06	65.375
505.40	66.447
505.75	65.670
506.09	65.028
506.44	67.351
506.78	67.551
507.13	67.735
507.47	65.483
507.82	66.506
508.16	65.874
508.51	67.314
508.85	67.085
509.19	66.791
509.54	66.756
509.88	66.667
510.23	68.639
510.57	68.092
510.92	67.058
511.26	67.485
511.61	68.097
511.95	67.342
512.30	67.905
512.64	67.001
512.98	66.985
513.33	69.054
513.67	68.164
514.02	68.593
514.36	69.771
514.70	67.483
515.05	69.271
515.39	68.477
515.74	69.760
516.08	68.619
516.42	68.787
516.77	69.456
517.11	69.614
517.46	69.300
517.80	69.428
518.14	69.626
518.49	68.750
518.83	69.806
519.17	68.223
519.52	68.028
519.86	69.328
520.20	69.380
520.55	68.856
520.89	69.134
521.23	69.918
521.58	70.789
521.92	71.346
522.26	70.527
522.61	69.805
522.95	71.722
523.29	70.330
523.64	70.521
523.98	72.262
524.32	70.812
524.66	70.999
525.01	70.779
525.35	70.512
525.69	70.842
526.04	70.899
526.38	71.660
526.72	70.307
527.06	70.104
527.41	70.053
527.75	69.035
528.09	70.299
528.43	72.384
528.78	70.957
529.12	71.097
529.46	70.565
529.80	69.538
530.15	71.683
530.49	70.842
530.83	72.709
531.17	69.241
531.51	72.640
531.86	71.924
532.20	71.051
532.54	69.912
532.88	71.321
533.22	71.102
533.57	70.315
533.91	72.258
534.25	72.591
534.59	69.596
534.93	68.974
535.27	70.241
535.62	71.030
535.96	71.102
536.30	71.834
536.64	73.122
536.98	71.777
537.32	73.755
537.66	72.370
538.01	72.517
538.35	71.637
538.69	70.839
539.03	71.018
539.37	72.342
539.71	70.211
540.05	70.808
540.39	70.429
540.73	70.153
541.07	71.823
541.42	70.363
541.76	72.127
542.10	72.127
542.44	71.508
542.78	69.855
543.12	71.223
543.46	71.071
543.80	70.992
544.14	70.027
544.48	70.753
544.82	71.292
545.16	71.448
545.50	70.093
545.84	72.025
546.18	71.986
546.52	71.954
546.86	71.172
547.20	72.461
547.54	69.894
547.88	71.399
548.22	70.677
548.56	71.108
548.90	72.507
549.24	70.730
549.58	71.227
549.92	70.622
550.26	70.769
550.60	73.383
550.94	73.861
551.28	72.643
551.62	73.769
551.96	72.556
552.30	73.099
552.64	71.932
552.98	72.011
553.32	71.969
553.66	71.045
554.00	74.672
554.34	71.861
554.68	70.723
555.02	72.842
555.36	72.924
555.69	71.648
556.03	72.020
556.37	71.601
556.71	72.563
557.05	72.036
557.39	71.822
557.73	73.238
558.07	74.208
558.41	74.043
558.75	73.344
559.08	71.946
559.42	73.571
559.76	73.739
560.10	71.636
560.44	72.152
560.78	71.608
561.12	72.708
561.45	72.944
561.79	73.109
562.13	74.450
562.47	72.230
562.81	72.695
563.15	72.920
563.48	73.409
563.82	74.194
564.16	75.070
564.50	72.365
564.84	72.892
565.17	72.636
565.51	76.161
565.85	73.800
566.19	72.480
566.52	72.989
566.86	72.429
567.20	72.852
567.54	73.723
567.88	73.228
568.21	72.568
568.55	74.293
568.89	74.897
569.23	72.894
569.56	72.723
569.90	74.421
570.24	72.274
570.57	72.327
570.91	72.987
571.25	72.049
571.59	70.788
571.92	69.659
572.26	71.407
572.60	71.225
572.93	70.317
573.27	71.191
573.61	71.450
573.95	71.054
574.28	71.557
574.62	70.252
574.96	69.260
575.29	69.864
575.63	69.629
575.97	71.130
576.30	71.212
576.64	69.616
576.98	71.506
577.31	71.295
577.65	70.849
577.98	71.344
578.32	71.241
578.66	69.246
578.99	70.145
579.33	70.022
579.67	70.452
580.00	71.215
580.34	71.269
580.67	70.697
581.01	71.230
581.35	70.543
581.68	71.285
582.02	71.297
582.35	71.625
582.69	71.095
583.02	71.053
583.36	71.635
583.70	72.612
584.03	73.228
584.37	73.659
584.70	72.198
585.04	71.347
585.37	70.885
585.71	71.958
586.04	72.239
586.38	72.153
586.72	72.281
587.05	72.501
587.39	72.519
587.72	72.963
588.06	72.876
588.39	73.369
588.73	72.894
589.06	74.397
589.40	73.764
589.73	74.042
590.07	74.018
590.40	74.265
590.73	75.329
591.07	73.749
591.40	73.954
591.74	74.661
592.07	74.768
592.41	75.000
592.74	73.517
593.08	71.673
593.41	73.278
593.75	72.555
594.08	71.816
594.41	72.999
594.75	73.397
595.08	74.196
595.42	73.758
595.75	75.066
596.09	74.355
596.42	74.163
596.75	74.423
597.09	73.349
597.42	74.977
597.75	74.989
598.09	72.748
598.42	73.240
598.76	73.702
599.09	72.716
599.42	72.490
599.76	73.025
600.09	72.549
600.42	73.313
600.76	72.771
601.09	73.855
601.42	72.973
601.76	73.521
602.09	73.391
602.42	75.105
602.76	74.618
603.09	74.460
603.42	75.962
603.76	74.153
604.09	73.755
604.42	75.381
604.76	75.389
605.09	75.229
605.42	74.131
605.75	74.299
606.09	73.461
606.42	73.144
606.75	73.983
607.09	74.462
607.42	72.884
607.75	73.623
608.08	72.642
608.42	73.504
608.75	74.602
609.08	74.788
609.41	75.381
609.75	75.050
610.08	75.387
610.41	74.155
610.74	75.524
611.07	76.176
611.41	74.053
611.74	76.279
612.07	73.983
612.40	75.383
612.73	75.593
613.07	74.241
613.40	74.726
613.73	75.881
614.06	74.290
614.39	75.860
614.72	73.557
615.06	75.251
615.39	73.472
615.72	73.143
616.05	75.419
616.38	72.707
616.71	73.456
617.05	76.652
617.38	75.110
617.71	77.044
618.04	76.381
618.37	75.977
618.70	77.360
619.03	77.708
619.36	76.556
619.69	78.241
620.03	76.333
620.36	75.894
620.69	76.231
621.02	75.076
621.35	78.506
621.68	76.531
622.01	77.250
622.34	76.457
622.67	77.287
623.00	75.804
623.33	76.296
623.66	75.767
623.99	76.324
624.32	76.882
624.65	74.286
624.99	77.652
625.32	74.678
625.65	77.926
625.98	78.485
626.31	76.891
626.64	76.776
626.97	77.661
627.30	77.933
627.63	76.690
627.96	77.448
628.29	77.983
628.62	77.384
628.95	76.754
629.28	79.738
629.61	76.969
629.94	76.931
630.26	77.273
630.59	79.396
630.92	77.231
631.25	75.487
631.58	79.515
631.91	78.180
632.24	77.982
632.57	79.205
632.90	78.055
633.23	78.235
633.56	83.123
633.89	79.162
634.22	81.235
634.55	79.924
634.88	82.120
635.20	77.692
635.53	80.000
635.86	78.283
636.19	80.207
636.52	79.592
636.85	77.667
637.18	82.516
637.51	77.736
637.83	77.792
638.16	81.310
638.49	78.747
638.82	78.816
639.15	80.326
639.48	78.404
639.81	80.614
640.13	80.519
640.46	81.487
640.79	80.118
641.12	82.275
641.45	79.279
641.77	79.407
642.10	80.885
642.43	79.421
642.76	81.353
643.09	80.291
643.41	78.317
643.74	79.077
644.07	80.788
644.40	80.743
644.73	83.187
645.05	79.027
645.38	80.423
645.71	79.433
646.04	84.201
646.36	81.028
646.69	83.273
647.02	82.798
647.35	81.716
647.67	80.622
648.00	85.448
648.33	78.669
648.66	80.508
648.98	77.052
649.31	80.165
649.64	80.063
649.96	79.417
650.29	81.601
650.62	81.538
650.94	81.481
651.27	83.054
651.60	79.640
651.92	80.594
652.25	80.995
652.58	77.500
652.90	82.504
653.23	80.672
653.56	81.049
653.88	80.412
654.21	80.911
654.54	79.457
654.86	78.947
655.19	77.924
655.52	76.858
655.84	71.686
656.17	79.613
656.49	100.000
656.82	100.000
657.15	100.000
657.47	67.975
657.80	49.591
658.13	48.585
658.45	75.791
658.78	76.521
659.10	76.431
659.43	78.047
659.75	80.316
660.08	78.828
660.41	82.329
660.73	79.420
661.06	82.669
661.38	81.018
661.71	78.645
662.03	85.622
662.36	83.077
662.68	80.088
663.01	81.659
663.33	81.206
663.66	79.767
663.98	84.884
664.31	82.090
664.63	82.949
664.96	75.435
665.28	79.029
665.61	81.385
665.93	79.783
666.26	82.646
666.58	81.655
666.91	83.529
667.23	83.962
667.56	84.123
667.88	84.173
668.21	82.339
668.53	86.998
668.86	80.896
669.18	79.481
669.50	83.293
669.83	80.698
670.15	76.224
670.48	80.622
670.80	78.341
671.13	78.747
671.45	77.626
671.77	78.755
672.10	79.010
672.42	76.404
672.75	80.462
673.07	81.932
673.39	79.817
673.72	78.698
674.04	80.000
674.37	77.754
674.69	80.514
675.01	85.556
675.34	83.108
675.66	83.333
675.98	79.379
676.31	82.339
676.63	82.898
676.95	77.727
677.28	81.412
677.60	83.614
677.92	78.211
678.25	82.057
678.57	77.273
678.89	77.521
679.22	84.340
679.54	80.321
679.86	79.125
680.18	81.165
680.51	76.326
680.83	76.342
681.15	79.400
681.48	79.303
681.80	82.438
682.12	78.831
682.44	80.753
682.77	81.898
683.09	80.092
683.41	78.864
683.73	84.101
684.06	78.540
684.38	78.495
684.70	83.660
685.02	82.158
685.34	77.866
685.67	78.236
685.99	79.385
686.31	79.646
686.63	79.406
686.96	75.856
687.28	78.384
687.60	74.715
687.92	79.798
688.24	79.032
688.56	83.406
688.89	80.357
689.21	81.778
689.53	80.278
689.85	79.767
690.17	79.688
690.49	81.087
690.82	82.524
691.14	79.048
691.46	78.738
691.78	78.153
692.10	82.796
692.42	80.519
692.74	78.632
693.06	81.081
693.39	77.828
693.71	78.959
694.03	81.293
694.35	74.533
694.67	81.313
694.99	82.507
695.31	82.768
695.63	79.000
695.95	81.313
696.27	79.793
696.59	85.278
696.91	77.871
697.23	77.635
697.56	81.683
697.88	80.860
698.20	82.460
698.52	79.059
698.84	81.100
699.16	80.500
699.48	83.960
699.80	78.412
700.12	80.593
700.44	81.232
700.76	79.651
701.08	83.030
701.40	83.434
701.72	84.259
702.04	84.818
702.36	87.291
702.68	78.979
703.00	82.121
703.32	81.232
703.64	74.576
703.96	79.710
704.28	80.675
704.60	83.810
704.91	75.079
705.23	82.392
705.55	84.806
705.87	79.061
706.19	84.074
706.51	79.038
706.83	79.100
707.15	78.505
707.47	83.473
707.79	73.177
708.11	78.750
708.43	79.250
708.74	77.261
709.06	82.254
709.38	86.850
709.70	81.361
710.02	82.166
710.34	78.328
710.66	77.244
710.98	82.781
711.29	83.279
711.61	80.000
711.93	74.593
712.25	86.942
712.57	80.952
712.89	78.358
713.20	76.471
713.52	74.216
713.84	78.840
714.16	79.725
714.48	80.000
714.80	84.615
715.11	76.292
715.43	77.429
715.75	82.000
716.07	80.066
716.39	74.161
716.70	81.919
717.02	79.389
717.34	81.781
717.66	81.858
717.97	84.783
718.29	82.845
718.61	83.858
718.93	82.171
719.24	88.593
719.56	85.141
719.88	77.663
720.20	76.515
720.51	78.927
720.83	79.923
721.15	87.395
721.46	79.032
721.78	79.447
722.10	78.439
722.42	83.402
722.73	81.224
723.05	86.122
723.37	85.169
723.68	86.937
724.00	80.769
724.32	78.667
724.63	79.545
724.95	79.913
725.27	85.714
725.58	79.237
725.90	76.984
726.22	81.853
726.53	75.932
726.85	79.026
727.16	80.755
727.48	82.591
727.80	84.615
728.11	83.898
728.43	70.588
728.74	75.000
729.06	79.200
729.38	77.820
729.69	81.275
730.01	76.923
730.32	80.224
730.64	75.618
730.96	82.264
731.27	74.667
731.59	76.610
731.90	71.338
732.22	77.603
732.53	82.724
732.85	82.979
733.16	79.125
733.48	76.259
733.80	78.261
734.11	73.220
734.43	85.567
734.74	81.818
735.06	80.456
735.37	82.175
735.69	82.155
736.00	79.791
736.32	76.510
736.63	81.690
736.95	80.887
737.26	74.733
737.58	74.497
737.89	79.853
738.21	80.451
738.52	82.305
738.83	80.786
739.15	82.533
739.46	79.921
739.78	74.359
740.09	71.242
740.41	80.435
740.72	81.102
741.04	79.757
741.35	77.872
741.66	80.569
741.98	83.163
742.29	81.683
742.61	82.199
742.92	74.408
743.23	75.463
743.55	79.186
743.86	75.598
744.18	76.077
744.49	86.702
744.80	81.522
745.12	90.909
745.43	81.463
745.74	86.979
746.06	87.805
746.37	85.864
746.68	76.303
747.00	81.383
747.31	84.577
747.62	82.524
747.94	76.555
748.25	82.178
748.56	79.235
748.88	81.675
749.19	86.170
749.50	77.340
749.82	74.057
750.13	83.945
750.44	80.075
750.75	78.358
751.07	81.752
751.38	81.609
751.69	76.471
752.01	77.907
752.32	81.673
752.63	78.261
752.94	84.914
753.26	79.916
753.57	78.733
753.88	81.416
754.19	80.000
754.51	78.512
754.82	85.020
755.13	83.333
755.44	81.048
755.75	83.203
756.07	79.377
756.38	75.472
756.69	75.479
757.00	76.667
757.31	75.817
757.63	72.866
757.94	71.389
758.25	72.603
758.56	70.479
758.87	76.204
759.18	70.405
759.50	80.727
759.81	80.936
760.12	78.387
760.43	70.000
760.74	79.321
761.05	76.000
761.36	78.693
761.67	80.606
761.99	77.211
762.30	74.182
762.61	77.470
762.92	76.471
763.23	76.577
763.54	78.037
763.85	80.508
764.16	80.083
764.47	70.161
764.78	75.092
765.10	81.145
765.41	77.287
765.72	75.873
766.03	77.068
766.34	78.467
766.65	74.104
766.96	79.798
767.27	78.191
767.58	79.310
767.89	89.362
768.20	72.727
768.51	77.473
768.82	76.355
769.13	72.811
769.44	65.665
769.75	80.822
770.06	75.000
770.37	80.288
770.68	78.680
770.99	67.873
771.30	86.765
771.61	82.353
771.92	76.724
772.23	79.310
772.54	81.183
772.85	88.272
773.16	71.910
773.47	83.660
773.78	78.431
774.09	71.257
774.39	84.667
774.70	73.885
775.01	80.000
775.32	77.143
775.63	84.298
775.94	72.519
776.25	77.953
776.56	88.333
776.87	76.923
777.18	75.214
777.48	81.897
777.79	81.739
778.10	81.905
778.41	77.477
778.72	71.429
779.03	76.692
779.34	88.652
779.65	73.973
779.95	71.918
780.26	77.931
780.57	82.114
780.88	74.803
781.19	88.793
781.50	80.620
781.80	70.414
782.11	75.472
782.42	99.231
782.73	81.295
783.04	84.444
783.34	72.222
783.65	82.051
783.96	77.049
784.27	75.172
784.57	78.049
784.88	80.469
785.19	93.000
785.50	93.000
785.81	84.483
786.11	80.172
786.42	79.612
786.73	83.636
787.04	79.592
787.34	79.464
787.65	70.476
787.96	68.142
788.26	78.182
788.57	70.940
788.88	85.156
789.19	69.048
789.49	80.000
789.80	90.816
790.11	73.737
790.41	54.545
790.72	90.217
791.03	76.136
791.33	86.250
791.64	87.500
791.95	74.419
792.25	78.723
792.56	69.663
792.87	79.452
793.17	82.609
793.48	60.000
793.79	76.250
794.09	88.750
794.40	84.906
794.70	81.553
795.01	59.350
795.32	81.197
795.62	73.333
795.93	83.333
796.23	71.698
796.54	73.958
796.85	89.706
797.15	67.606
797.46	79.167
797.76	107.576
798.07	70.930
798.37	75.000
798.68	72.727
798.99	76.543
799.29	71.429
799.60	69.565
799.90	73.333
800.21	81.967
800.51	75.385
800.82	64.407
801.12	84.058
801.43	73.770
801.73	92.063
802.04	80.000
802.34	70.149
802.65	100.000
802.95	46.429
803.26	82.692
803.56	78.431
803.87	63.043
804.17	68.000
804.48	79.365
804.78	88.889
805.09	80.435
805.39	88.889
805.70	55.556
806.00	77.193
806.30	70.423
806.61	70.000
806.91	75.000
807.22	73.684
807.52	85.333
807.83	63.636
808.13	73.611
808.43	85.294
808.74	79.104
809.04	69.492
809.35	88.462
809.65	81.250
809.95	89.189
810.26	77.273
810.56	45.205
810.86	95.238
811.17	84.000
811.47	75.510
811.77	65.789
812.08	77.273
812.38	90.566
812.69	82.500
812.99	87.879
813.29	84.211
813.59	80.000
813.90	79.545
814.20	84.615
814.50	90.385
814.81	98.113
815.11	74.468
815.41	69.492
815.72	92.857
816.02	84.314
816.32	66.667
816.62	60.976
816.93	78.378
817.23	88.571
817.53	95.833
817.84	58.696
818.14	78.846
818.44	63.158
818.74	71.739
819.04	42.500
819.35	67.568
819.65	50.000
819.95	61.111
820.25	78.571
820.56	72.500
820.86	62.069
821.16	87.500
821.46	65.957
821.76	100.000
822.07	86.047
822.37	54.054
822.67	46.875
822.97	78.571
823.27	128.571
823.57	96.000
823.88	25.926
824.18	60.714
824.48	70.588
824.78	67.742
825.08	60.870
825.38	66.667
825.69	54.167
825.99	52.632
826.29	58.333
826.59	173.333
826.89	42.857
827.19	71.739
827.49	55.000
827.79	105.714
828.09	114.286
828.39	75.758
828.70	97.297
829.00	64.286
829.30	109.524
829.60	56.667
829.90	75.000
830.20	31.579
830.50	77.778
830.80	78.261
831.10	59.091
831.40	69.697
831.70	90.323
832.00	104.762
832.30	33.333
832.60	25.000
832.90	48.276
833.20	60.000
833.50	81.818
833.80	14.815
834.10	53.846
834.40	71.875
834.70	211.111
835.00	84.211
835.30	115.385
835.60	186.667
835.90	70.968
836.20	72.727
836.50	92.857
836.80	34.615
837.10	60.714
837.40	333.333
837.70	9.091
838.00	63.636
838.30	69.565
838.60	153.846
838.90	72.727
839.19	64.286
839.49	66.667
839.79	30.769
840.09	-16.667
840.39	89.286
840.69	67.857
840.99	26.923
841.29	42.105
841.59	100.000
841.88	72.727
842.18	50.000
842.48	81.250
842.78	100.000
843.08	55.556
843.38	140.000
843.68	56.522
843.97	126.667
844.27	86.667
844.57	100.000
844.87	100.000
845.17	52.381
845.47	80.000
845.76	33.333
846.06	58.824
846.36	190.000
846.66	64.286
846.96	120.000
847.25	-62.500
847.55	92.857
847.85	175.000
848.15	31.818
848.44	-200.000
848.74	130.000
849.04	62.963
849.34	81.818
849.63	-16.667
849.93	120.000
850.23	44.444
850.53	120.000
850.82	61.538
851.12	22.222
851.42	60.000
851.71	69.231
852.01	64.286
852.31	125.000
852.61	54.545
852.90	35.000
853.20	57.895
853.50	75.000
853.79	117.391
854.09	120.833
854.39	94.737
854.68	75.000
854.98	87.097
855.28	57.692
855.57	105.000
855.87	100.000
856.17	92.593
856.46	57.143
856.76	86.667
857.05	133.333
857.35	64.000
857.65	50.000
857.94	46.154
858.24	27.586
858.53	66.667
858.83	70.370
859.13	90.909
859.42	82.609
859.72	425.000
860.01	-166.667
860.31	40.000
860.60	61.905
860.90	-33.333
861.20	33.333
861.49	0.000
861.79	53.333
862.08	70.000
862.38	106.667
862.67	-60.000
862.97	183.333
863.26	100.000
863.56	94.444
863.85	133.333
864.15	138.889
864.44	70.000
864.74	100.000
865.03	-325.000
865.33	40.000
865.62	283.333
865.92	58.333
866.21	-16.667
866.51	62.500
866.80	27.273
867.10	300.000
867.39	116.667
867.69	0.000
867.98	115.385
868.27	100.000
868.57	20.000
868.86	50.000
869.16	53.846
869.45	120.000
869.75	200.000
870.04	0.000
870.33	-142.857
870.63	85.714
870.92	200.000
871.22	-60.000
871.51	200.000
871.80	222.222
872.10	166.667
>>>>>End Processed Spectral Data<<<<<
