SpectraSuite Data File
++++++++++++++++++++++++++++++++++++
Date: Fri May 15 17:32:55 PDT 2015
User: schluterlab
Dark Spectrum Present: Yes
Reference Spectrum Present: Yes
Number of Sampled Component Spectra: 1
Spectrometers: USB2E3373
Integration Time (usec): 3000 (USB2E3373)
Spectra Averaged: 3 (USB2E3373)
Boxcar Smoothing: 0 (USB2E3373)
Correct for Electrical Dark: No (USB2E3373)
Strobe/Lamp Enabled: No (USB2E3373)
Correct for Detector Non-linearity: No (USB2E3373)
Correct for Stray Light: No (USB2E3373)
Number of Pixels in Processed Spectrum: 2048
>>>>>Begin Processed Spectral Data<<<<<
178.53	0.000
178.91	0.000
179.29	112.500
179.67	-300.000
180.04	-85.714
180.42	175.000
180.80	700.000
181.18	33.333
181.56	350.000
181.94	-150.000
182.31	-100.000
182.69	-60.000
183.07	-500.000
183.45	40.000
183.83	-116.667
184.20	63.636
184.58	-33.333
184.96	150.000
185.34	33.333
185.72	100.000
186.09	53.846
186.47	700.000
186.85	33.333
187.23	155.556
187.61	400.000
187.98	233.333
188.36	77.778
188.74	0.000
189.12	76.471
189.49	66.667
189.87	0.000
190.25	14.286
190.63	100.000
191.00	200.000
191.38	26.316
191.76	500.000
192.14	-150.000
192.51	350.000
192.89	-22.222
193.27	-71.429
193.65	116.667
194.02	109.091
194.40	50.000
194.78	-25.000
195.15	25.000
195.53	-100.000
195.91	125.000
196.29	-150.000
196.66	23.077
197.04	-28.571
197.42	-122.222
197.79	-366.667
198.17	-92.308
198.55	700.000
198.92	-400.000
199.30	200.000
199.68	40.000
200.05	-100.000
200.43	0.000
200.81	-233.333
201.18	366.667
201.56	900.000
201.94	300.000
202.31	33.333
202.69	-100.000
203.07	-75.000
203.44	300.000
203.82	0.000
204.19	85.714
204.57	-533.333
204.95	12.500
205.32	130.000
205.70	0.000
206.08	25.000
206.45	266.667
206.83	35.714
207.20	-114.286
207.58	900.000
207.96	66.667
208.33	40.000
208.71	25.000
209.08	-233.333
209.46	400.000
209.84	0.000
210.21	-500.000
210.59	71.429
210.96	83.333
211.34	-50.000
211.71	53.333
212.09	-100.000
212.46	-400.000
212.84	0.000
213.22	40.000
213.59	100.000
213.97	107.692
214.34	100.000
214.72	50.000
215.09	25.000
215.47	53.846
215.84	-63.636
216.22	-66.667
216.59	62.500
216.97	300.000
217.34	175.000
217.72	20.000
218.09	25.000
218.47	12.500
218.84	0.000
219.22	-11.111
219.59	-200.000
219.97	33.333
220.34	25.000
220.72	-42.857
221.09	-75.000
221.47	150.000
221.84	-100.000
222.22	0.000
222.59	9.091
222.97	133.333
223.34	-166.667
223.72	28.571
224.09	42.857
224.46	64.286
224.84	-33.333
225.21	120.000
225.59	60.000
225.96	300.000
226.34	25.000
226.71	-14.286
227.08	116.667
227.46	-125.000
227.83	-600.000
228.21	77.778
228.58	127.273
228.95	-25.000
229.33	40.000
229.70	50.000
230.08	37.500
230.45	57.143
230.82	0.000
231.20	40.000
231.57	100.000
231.95	200.000
232.32	-70.000
232.69	28.571
233.07	166.667
233.44	120.000
233.81	-90.000
234.19	133.333
234.56	100.000
234.93	-200.000
235.31	50.000
235.68	0.000
236.05	46.154
236.43	85.000
236.80	111.765
237.17	65.625
237.55	60.000
237.92	55.556
238.29	52.778
238.67	90.000
239.04	29.412
239.41	53.659
239.79	90.000
240.16	117.073
240.53	71.053
240.91	71.739
241.28	61.905
241.65	55.357
242.02	63.014
242.40	68.333
242.77	71.186
243.14	68.182
243.51	67.500
243.89	65.517
244.26	67.816
244.63	72.619
245.00	60.825
245.38	71.134
245.75	70.787
246.12	63.793
246.49	64.463
246.87	81.731
247.24	70.588
247.61	71.053
247.98	72.358
248.36	59.375
248.73	76.974
249.10	69.481
249.47	72.785
249.84	66.667
250.22	68.235
250.59	80.392
250.96	69.484
251.33	70.349
251.70	78.824
252.08	71.066
252.45	64.851
252.82	73.367
253.19	64.055
253.56	70.093
253.94	69.369
254.31	73.913
254.68	75.000
255.05	62.992
255.42	69.869
255.79	69.112
256.16	73.541
256.54	71.269
256.91	71.863
257.28	68.030
257.65	67.041
258.02	67.021
258.39	67.340
258.76	69.597
259.14	68.771
259.51	69.579
259.88	74.914
260.25	65.686
260.62	70.486
260.99	71.525
261.36	68.493
261.73	67.089
262.10	71.733
262.47	69.018
262.85	71.787
263.22	68.615
263.59	72.586
263.96	74.224
264.33	70.606
264.70	71.429
265.07	71.131
265.44	71.955
265.81	67.797
266.18	66.393
266.55	69.923
266.92	69.171
267.29	69.452
267.66	63.939
268.03	68.325
268.40	68.930
268.77	71.925
269.14	68.345
269.51	69.409
269.88	69.576
270.25	66.582
270.62	66.829
270.99	67.008
271.36	66.259
271.73	66.197
272.10	70.803
272.47	66.667
272.84	68.812
273.21	63.573
273.58	66.988
273.95	67.506
274.32	65.820
274.69	62.896
275.06	66.964
275.43	67.800
275.80	68.433
276.17	68.966
276.54	63.597
276.91	63.596
277.28	67.904
277.65	64.050
278.02	63.830
278.39	64.770
278.76	63.941
279.13	61.411
279.50	65.546
279.87	63.283
280.23	63.656
280.60	62.963
280.97	64.242
281.34	59.615
281.71	65.298
282.08	64.417
282.45	62.231
282.82	61.969
283.19	62.089
283.56	63.584
283.92	60.721
284.29	64.423
284.66	60.271
285.03	63.261
285.40	59.546
285.77	58.699
286.14	58.845
286.51	63.100
286.87	56.673
287.24	61.142
287.61	58.907
287.98	62.982
288.35	56.846
288.72	58.844
289.08	58.333
289.45	57.645
289.82	56.119
290.19	56.485
290.56	57.461
290.93	56.061
291.29	51.464
291.66	54.803
292.03	53.110
292.40	55.000
292.77	52.951
293.13	52.435
293.50	51.290
293.87	50.229
294.24	49.150
294.60	49.329
294.97	50.000
295.34	49.540
295.71	49.478
296.08	46.487
296.44	46.515
296.81	45.972
297.18	48.261
297.55	49.593
297.91	48.082
298.28	48.153
298.65	45.183
299.02	43.935
299.38	43.776
299.75	46.621
300.12	45.550
300.48	44.664
300.85	45.374
301.22	42.338
301.59	45.132
301.95	44.051
302.32	44.877
302.69	42.040
303.05	41.337
303.42	44.209
303.79	42.757
304.15	43.369
304.52	41.498
304.89	41.053
305.25	42.131
305.62	40.490
305.99	40.819
306.35	40.925
306.72	40.382
307.09	40.251
307.45	41.676
307.82	40.625
308.19	41.115
308.55	39.695
308.92	40.523
309.29	40.559
309.65	39.397
310.02	38.174
310.38	39.407
310.75	40.984
311.12	41.981
311.48	40.191
311.85	38.429
312.22	38.608
312.58	39.597
312.95	39.274
313.31	37.681
313.68	36.649
314.05	36.633
314.41	38.454
314.78	38.866
315.14	39.054
315.51	37.578
315.87	39.754
316.24	39.434
316.61	37.795
316.97	37.302
317.34	37.402
317.70	36.520
318.07	37.308
318.43	38.824
318.80	36.932
319.16	39.355
319.53	37.132
319.89	37.205
320.26	37.247
320.62	37.412
320.99	35.595
321.35	37.616
321.72	36.345
322.08	37.261
322.45	37.360
322.81	36.837
323.18	37.390
323.54	36.583
323.91	36.417
324.27	36.914
324.64	35.955
325.00	36.588
325.37	37.649
325.73	36.355
326.10	36.785
326.46	37.220
326.83	34.558
327.19	36.443
327.56	37.011
327.92	37.764
328.29	35.804
328.65	36.509
329.01	35.754
329.38	36.498
329.74	35.316
330.11	35.403
330.47	34.601
330.84	34.904
331.20	37.072
331.56	35.648
331.93	35.799
332.29	34.739
332.66	34.208
333.02	34.944
333.38	34.005
333.75	36.172
334.11	33.393
334.48	35.086
334.84	35.531
335.20	33.577
335.57	35.449
335.93	34.869
336.29	34.991
336.66	34.242
337.02	33.736
337.38	33.056
337.75	34.455
338.11	34.265
338.47	35.219
338.84	34.566
339.20	33.729
339.56	34.404
339.93	34.199
340.29	34.037
340.65	34.588
341.02	34.309
341.38	33.097
341.74	33.569
342.11	31.976
342.47	33.185
342.83	33.910
343.20	32.317
343.56	33.565
343.92	33.570
344.28	32.878
344.65	32.297
345.01	32.757
345.37	33.389
345.73	34.477
346.10	33.736
346.46	33.474
346.82	32.324
347.19	32.170
347.55	32.832
347.91	32.686
348.27	33.387
348.63	33.731
349.00	33.388
349.36	33.167
349.72	32.504
350.08	32.213
350.45	32.163
350.81	31.645
351.17	32.085
351.53	34.041
351.89	32.535
352.26	30.960
352.62	32.419
352.98	32.691
353.34	32.287
353.70	33.010
354.07	31.129
354.43	31.545
354.79	32.040
355.15	32.222
355.51	31.883
355.87	32.767
356.24	31.729
356.60	30.154
356.96	31.190
357.32	31.390
357.68	30.962
358.04	30.452
358.40	31.833
358.77	31.419
359.13	31.145
359.49	30.200
359.85	31.045
360.21	31.260
360.57	30.069
360.93	30.182
361.29	30.514
361.66	32.053
362.02	32.121
362.38	30.845
362.74	31.491
363.10	31.603
363.46	30.467
363.82	31.104
364.18	30.627
364.54	29.779
364.90	29.892
365.26	30.713
365.62	32.555
365.98	30.205
366.35	31.391
366.71	31.559
367.07	30.914
367.43	29.260
367.79	29.965
368.15	30.940
368.51	30.663
368.87	29.648
369.23	29.747
369.59	29.883
369.95	30.425
370.31	29.624
370.67	29.478
371.03	29.798
371.39	29.103
371.75	28.864
372.11	29.601
372.47	29.364
372.83	29.524
373.19	29.815
373.55	29.314
373.91	30.022
374.27	29.837
374.63	29.218
374.99	28.794
375.35	29.735
375.71	30.699
376.07	29.986
376.42	28.571
376.78	29.262
377.14	29.993
377.50	29.814
377.86	29.786
378.22	29.611
378.58	28.718
378.94	29.175
379.30	29.757
379.66	29.906
380.02	29.614
380.38	28.728
380.74	27.887
381.09	30.552
381.45	29.174
381.81	28.809
382.17	29.569
382.53	28.482
382.89	29.441
383.25	29.869
383.61	28.963
383.97	28.889
384.32	28.893
384.68	28.483
385.04	28.002
385.40	28.314
385.76	29.623
386.12	30.660
386.48	29.502
386.83	28.028
387.19	29.792
387.55	28.733
387.91	29.279
388.27	28.571
388.62	30.082
388.98	29.405
389.34	28.607
389.70	29.397
390.06	28.508
390.42	28.886
390.77	28.254
391.13	28.184
391.49	29.237
391.85	29.500
392.20	29.316
392.56	29.116
392.92	29.888
393.28	29.953
393.64	29.249
393.99	29.530
394.35	28.906
394.71	29.374
395.07	28.850
395.42	27.930
395.78	28.795
396.14	28.878
396.50	29.423
396.85	28.203
397.21	28.947
397.57	28.025
397.92	28.700
398.28	29.253
398.64	28.614
399.00	29.289
399.35	28.950
399.71	29.351
400.07	29.323
400.42	29.498
400.78	29.271
401.14	29.522
401.49	30.137
401.85	28.946
402.21	28.976
402.57	28.250
402.92	27.039
403.28	29.198
403.63	28.373
403.99	28.061
404.35	29.232
404.70	28.274
405.06	28.907
405.42	30.081
405.77	27.658
406.13	28.638
406.49	28.715
406.84	29.523
407.20	28.718
407.55	27.753
407.91	28.142
408.27	28.681
408.62	28.554
408.98	28.774
409.34	28.625
409.69	29.393
410.05	28.818
410.40	27.963
410.76	28.106
411.11	29.312
411.47	28.665
411.83	27.370
412.18	28.571
412.54	28.402
412.89	28.202
413.25	29.122
413.60	28.137
413.96	28.282
414.31	28.963
414.67	28.031
415.03	29.228
415.38	28.264
415.74	27.557
416.09	28.347
416.45	28.022
416.80	28.222
417.16	28.039
417.51	29.114
417.87	27.640
418.22	28.109
418.58	28.562
418.93	29.154
419.29	26.633
419.64	28.257
420.00	28.463
420.35	27.761
420.71	28.797
421.06	27.993
421.42	28.906
421.77	29.017
422.12	28.207
422.48	28.912
422.83	28.422
423.19	27.427
423.54	27.984
423.90	28.327
424.25	28.071
424.61	28.335
424.96	28.688
425.31	28.769
425.67	28.286
426.02	28.386
426.38	28.053
426.73	27.421
427.09	28.481
427.44	28.294
427.79	28.285
428.15	28.519
428.50	28.225
428.85	27.826
429.21	28.353
429.56	27.925
429.92	28.968
430.27	27.970
430.62	28.385
430.98	28.981
431.33	28.864
431.68	28.100
432.04	28.508
432.39	27.895
432.74	27.300
433.10	27.989
433.45	28.973
433.80	26.582
434.16	28.033
434.51	27.903
434.86	28.455
435.22	27.818
435.57	28.883
435.92	28.204
436.28	27.907
436.63	27.781
436.98	27.057
437.34	27.405
437.69	27.967
438.04	29.231
438.39	27.550
438.75	28.658
439.10	27.391
439.45	28.424
439.81	27.584
440.16	28.325
440.51	28.239
440.86	29.124
441.22	26.923
441.57	28.146
441.92	28.332
442.27	29.047
442.63	28.747
442.98	27.743
443.33	27.880
443.68	27.905
444.03	28.068
444.39	28.480
444.74	29.041
445.09	29.009
445.44	28.775
445.79	28.468
446.15	27.974
446.50	27.898
446.85	28.693
447.20	27.268
447.55	28.739
447.91	27.919
448.26	27.945
448.61	27.864
448.96	28.399
449.31	28.092
449.66	27.294
450.02	27.952
450.37	28.216
450.72	27.491
451.07	28.038
451.42	27.216
451.77	27.486
452.12	26.555
452.47	26.916
452.83	28.327
453.18	27.008
453.53	27.370
453.88	27.747
454.23	27.658
454.58	27.519
454.93	27.448
455.28	26.032
455.63	27.898
455.98	27.901
456.34	28.097
456.69	27.192
457.04	28.859
457.39	27.825
457.74	28.114
458.09	26.898
458.44	27.150
458.79	26.835
459.14	28.776
459.49	27.582
459.84	27.411
460.19	27.427
460.54	27.873
460.89	27.898
461.24	27.205
461.59	28.029
461.94	26.918
462.29	27.865
462.64	28.040
462.99	26.811
463.34	26.147
463.69	26.126
464.04	28.087
464.39	27.107
464.74	27.239
465.09	28.072
465.44	26.486
465.79	27.381
466.14	27.081
466.49	27.372
466.84	27.424
467.19	27.597
467.54	26.373
467.89	26.153
468.24	26.521
468.59	27.111
468.94	27.048
469.29	26.885
469.64	27.956
469.99	27.610
470.34	25.461
470.68	26.846
471.03	26.115
471.38	25.820
471.73	27.031
472.08	25.577
472.43	25.369
472.78	25.154
473.13	25.986
473.48	26.710
473.83	26.837
474.17	26.619
474.52	25.654
474.87	26.424
475.22	26.174
475.57	25.861
475.92	27.098
476.27	26.950
476.61	25.810
476.96	26.771
477.31	27.637
477.66	26.685
478.01	26.839
478.36	25.708
478.70	26.862
479.05	26.868
479.40	26.815
479.75	25.547
480.10	25.755
480.45	26.050
480.79	26.838
481.14	25.717
481.49	26.601
481.84	26.158
482.19	26.707
482.53	26.906
482.88	26.396
483.23	25.432
483.58	25.566
483.92	25.557
484.27	25.661
484.62	27.028
484.97	25.166
485.31	26.445
485.66	27.405
486.01	28.639
486.36	28.242
486.70	28.523
487.05	28.390
487.40	27.611
487.75	27.775
488.09	27.318
488.44	26.651
488.79	26.560
489.13	25.881
489.48	25.524
489.83	25.022
490.17	24.584
490.52	25.450
490.87	24.757
491.22	25.692
491.56	24.478
491.91	25.430
492.26	25.425
492.60	25.960
492.95	25.381
493.30	24.670
493.64	24.754
493.99	25.652
494.34	24.709
494.68	25.619
495.03	24.818
495.37	24.828
495.72	24.987
496.07	25.854
496.41	24.953
496.76	25.702
497.11	24.779
497.45	25.107
497.80	25.832
498.14	24.441
498.49	25.140
498.84	24.501
499.18	25.301
499.53	24.702
499.87	24.368
500.22	24.233
500.56	25.517
500.91	24.498
501.26	24.518
501.60	25.086
501.95	25.716
502.29	25.036
502.64	24.903
502.98	25.802
503.33	25.216
503.67	25.060
504.02	25.024
504.36	25.136
504.71	25.051
505.06	24.962
505.40	25.076
505.75	24.794
506.09	24.430
506.44	26.232
506.78	25.153
507.13	24.457
507.47	23.812
507.82	24.092
508.16	23.930
508.51	24.397
508.85	24.437
509.19	24.534
509.54	24.182
509.88	23.571
510.23	23.884
510.57	24.425
510.92	23.721
511.26	24.441
511.61	24.037
511.95	24.055
512.30	24.113
512.64	23.484
512.98	23.582
513.33	23.671
513.67	23.536
514.02	24.485
514.36	23.543
514.70	24.650
515.05	25.088
515.39	23.554
515.74	22.934
516.08	24.029
516.42	24.205
516.77	23.230
517.11	23.323
517.46	23.639
517.80	23.659
518.14	22.780
518.49	22.716
518.83	23.026
519.17	22.862
519.52	22.676
519.86	22.989
520.20	22.904
520.55	23.327
520.89	23.024
521.23	22.989
521.58	23.470
521.92	21.731
522.26	23.422
522.61	22.662
522.95	23.377
523.29	22.935
523.64	23.126
523.98	23.590
524.32	23.647
524.66	23.431
525.01	23.506
525.35	22.878
525.69	21.953
526.04	22.222
526.38	23.476
526.72	22.106
527.06	22.114
527.41	24.142
527.75	22.386
528.09	22.259
528.43	23.160
528.78	23.036
529.12	22.581
529.46	22.222
529.80	22.609
530.15	23.366
530.49	22.559
530.83	23.187
531.17	22.565
531.51	23.187
531.86	22.570
532.20	22.269
532.54	22.805
532.88	22.040
533.22	22.849
533.57	22.936
533.91	21.671
534.25	23.633
534.59	23.220
534.93	22.782
535.27	22.652
535.62	23.331
535.96	23.353
536.30	24.142
536.64	23.432
536.98	22.091
537.32	23.471
537.66	23.703
538.01	23.077
538.35	23.509
538.69	24.234
539.03	23.103
539.37	23.284
539.71	22.904
540.05	21.453
540.39	22.992
540.73	22.245
541.07	22.997
541.42	24.059
541.76	23.813
542.10	22.505
542.44	22.724
542.78	22.161
543.12	22.871
543.46	23.366
543.80	22.137
544.14	21.963
544.48	22.252
544.82	22.556
545.16	23.907
545.50	24.099
545.84	23.725
546.18	24.043
546.52	22.927
546.86	23.293
547.20	23.462
547.54	22.968
547.88	23.370
548.22	23.603
548.56	23.483
548.90	24.259
549.24	21.970
549.58	22.355
549.92	21.801
550.26	23.663
550.60	22.677
550.94	22.704
551.28	22.720
551.62	23.154
551.96	23.083
552.30	23.757
552.64	22.849
552.98	23.066
553.32	22.468
553.66	22.932
554.00	23.431
554.34	23.708
554.68	21.681
555.02	23.140
555.36	23.411
555.69	22.491
556.03	22.912
556.37	22.420
556.71	23.032
557.05	22.595
557.39	21.487
557.73	23.163
558.07	22.624
558.41	23.047
558.75	22.681
559.08	21.434
559.42	22.381
559.76	22.258
560.10	22.554
560.44	22.264
560.78	22.517
561.12	23.343
561.45	23.963
561.79	23.319
562.13	23.776
562.47	23.165
562.81	22.478
563.15	23.131
563.48	23.338
563.82	23.336
564.16	23.189
564.50	22.432
564.84	23.427
565.17	22.602
565.51	23.975
565.85	23.525
566.19	23.342
566.52	24.464
566.86	23.650
567.20	24.097
567.54	24.696
567.88	25.366
568.21	25.283
568.55	24.891
568.89	25.565
569.23	25.469
569.56	25.963
569.90	26.188
570.24	26.386
570.57	27.091
570.91	27.327
571.25	26.603
571.59	26.503
571.92	26.341
572.26	26.540
572.60	26.388
572.93	26.671
573.27	26.113
573.61	27.178
573.95	26.980
574.28	27.251
574.62	26.723
574.96	26.801
575.29	27.309
575.63	26.276
575.97	26.267
576.30	26.314
576.64	26.940
576.98	27.336
577.31	27.402
577.65	28.234
577.98	27.346
578.32	27.466
578.66	27.574
578.99	27.071
579.33	26.655
579.67	26.697
580.00	27.063
580.34	27.065
580.67	26.929
581.01	27.522
581.35	27.498
581.68	27.514
582.02	27.803
582.35	27.874
582.69	27.522
583.02	27.131
583.36	27.348
583.70	27.285
584.03	27.162
584.37	27.583
584.70	27.418
585.04	26.580
585.37	27.174
585.71	27.129
586.04	27.131
586.38	26.807
586.72	27.202
587.05	27.787
587.39	27.146
587.72	27.638
588.06	26.764
588.39	27.001
588.73	26.893
589.06	27.332
589.40	27.031
589.73	26.798
590.07	26.133
590.40	26.587
590.73	27.100
591.07	25.827
591.40	25.779
591.74	26.244
592.07	26.113
592.41	25.928
592.74	26.683
593.08	25.847
593.41	26.623
593.75	26.529
594.08	26.159
594.41	26.346
594.75	25.420
595.08	26.636
595.42	26.573
595.75	26.699
596.09	27.013
596.42	26.044
596.75	26.110
597.09	26.424
597.42	26.152
597.75	25.882
598.09	25.939
598.42	26.173
598.76	25.997
599.09	26.162
599.42	25.692
599.76	26.862
600.09	25.867
600.42	26.422
600.76	25.966
601.09	25.420
601.42	26.479
601.76	26.479
602.09	25.743
602.42	26.411
602.76	26.104
603.09	26.703
603.42	27.216
603.76	25.887
604.09	25.800
604.42	25.931
604.76	26.435
605.09	26.143
605.42	25.598
605.75	25.569
606.09	26.369
606.42	25.813
606.75	26.104
607.09	26.418
607.42	25.831
607.75	26.021
608.08	25.472
608.42	25.720
608.75	26.506
609.08	26.208
609.41	25.381
609.75	25.706
610.08	25.961
610.41	24.589
610.74	24.768
611.07	25.013
611.41	25.999
611.74	25.426
612.07	25.535
612.40	24.945
612.73	25.480
613.07	24.634
613.40	24.508
613.73	24.622
614.06	26.377
614.39	25.324
614.72	24.706
615.06	25.587
615.39	25.218
615.72	25.296
616.05	25.475
616.38	23.989
616.71	24.771
617.05	25.201
617.38	24.764
617.71	25.157
618.04	26.032
618.37	25.158
618.70	24.752
619.03	25.139
619.36	23.155
619.69	24.488
620.03	25.639
620.36	24.535
620.69	23.483
621.02	22.859
621.35	23.900
621.68	23.299
622.01	22.333
622.34	23.623
622.67	24.132
623.00	24.043
623.33	24.924
623.66	23.411
623.99	23.828
624.32	25.399
624.65	23.308
624.99	24.153
625.32	23.351
625.65	24.980
625.98	24.416
626.31	23.026
626.64	24.523
626.97	23.997
627.30	22.767
627.63	23.310
627.96	23.540
628.29	22.942
628.62	23.795
628.95	21.844
629.28	22.177
629.61	22.931
629.94	23.363
630.26	22.036
630.59	23.309
630.92	23.590
631.25	21.641
631.58	22.687
631.91	20.285
632.24	22.706
632.57	22.614
632.90	20.996
633.23	22.824
633.56	20.655
633.89	20.838
634.22	22.222
634.55	21.347
634.88	19.796
635.20	20.513
635.53	21.333
635.86	20.156
636.19	21.992
636.52	20.663
636.85	20.968
637.18	21.006
637.51	22.013
637.83	20.762
638.16	20.600
638.49	19.074
638.82	21.053
639.15	20.624
639.48	20.633
639.81	20.921
640.13	21.356
640.46	20.262
640.79	18.704
641.12	19.498
641.45	20.721
641.77	22.222
642.10	20.537
642.43	21.061
642.76	21.452
643.09	21.002
643.41	18.608
643.74	19.110
644.07	22.496
644.40	22.804
644.73	19.615
645.05	20.805
645.38	21.164
645.71	20.035
646.04	21.185
646.36	19.326
646.69	21.403
647.02	21.928
647.35	19.030
647.67	19.013
648.00	22.201
648.33	22.526
648.66	18.136
648.98	18.593
649.31	19.504
649.64	20.094
649.96	19.125
650.29	20.784
650.62	22.222
650.94	21.481
651.27	21.415
651.60	20.000
651.92	20.280
652.25	19.893
652.58	21.667
652.90	21.098
653.23	20.672
653.56	18.443
653.88	20.447
654.21	18.914
654.54	19.015
654.86	19.864
655.19	21.053
655.52	26.316
655.84	27.868
656.17	33.101
656.49	45.268
656.82	47.308
657.15	35.682
657.47	26.139
657.80	19.513
658.13	19.128
658.45	28.964
658.78	28.681
659.10	27.553
659.43	26.546
659.75	24.963
660.08	23.862
660.41	23.187
660.73	20.580
661.06	20.451
661.38	17.025
661.71	18.891
662.03	20.172
662.36	18.462
662.68	18.805
663.01	19.651
663.33	17.169
663.66	16.279
663.98	15.116
664.31	22.388
664.63	16.129
664.96	16.522
665.28	15.673
665.61	17.316
665.93	20.000
666.26	19.957
666.58	18.568
666.91	19.294
667.23	20.991
667.56	20.853
667.88	20.384
668.21	18.377
668.53	20.331
668.86	19.340
669.18	17.453
669.50	17.676
669.83	19.302
670.15	18.415
670.48	18.182
670.80	18.203
671.13	19.016
671.45	15.525
671.77	23.605
672.10	20.990
672.42	19.476
672.75	21.492
673.07	20.572
673.39	21.468
673.72	19.527
674.04	18.750
674.37	22.881
674.69	19.914
675.01	21.778
675.34	17.568
675.66	20.370
675.98	23.503
676.31	19.495
676.63	20.903
676.95	17.727
677.28	21.176
677.60	19.759
677.92	19.725
678.25	23.414
678.57	21.645
678.89	19.958
679.22	22.371
679.54	20.884
679.86	19.085
680.18	24.078
680.51	20.265
680.83	20.676
681.15	20.800
681.48	24.590
681.80	21.074
682.12	20.766
682.44	19.665
682.77	19.426
683.09	21.968
683.41	20.455
683.73	22.350
684.06	18.805
684.38	18.710
684.70	22.222
685.02	21.577
685.34	18.379
685.67	21.576
685.99	21.519
686.31	22.655
686.63	21.892
686.96	20.722
687.28	19.394
687.60	19.011
687.92	21.414
688.24	21.573
688.56	21.616
688.89	19.420
689.21	21.556
689.53	19.722
689.85	19.767
690.17	20.759
690.49	22.459
690.82	18.447
691.14	20.000
691.46	21.495
691.78	21.847
692.10	19.355
692.42	22.944
692.74	22.436
693.06	21.396
693.39	19.231
693.71	20.362
694.03	21.940
694.35	20.794
694.67	20.960
694.99	20.627
695.31	20.888
695.63	22.750
695.95	16.667
696.27	20.207
696.59	20.000
696.91	16.807
697.23	20.823
697.56	24.010
697.88	24.731
698.20	23.918
698.52	20.471
698.84	20.096
699.16	21.250
699.48	22.306
699.80	21.340
700.12	21.833
700.44	22.969
700.76	17.442
701.08	21.515
701.40	18.072
701.72	22.840
702.04	21.452
702.36	14.716
702.68	18.619
703.00	19.394
703.32	19.062
703.64	18.927
703.96	19.130
704.28	16.564
704.60	20.952
704.91	17.981
705.23	17.608
705.55	22.615
705.87	20.578
706.19	18.148
706.51	20.275
706.83	18.650
707.15	18.380
707.47	21.289
707.79	20.833
708.11	20.000
708.43	20.750
708.74	22.222
709.06	20.282
709.38	22.936
709.70	20.414
710.02	19.108
710.34	22.291
710.66	16.346
710.98	16.556
711.29	21.311
711.61	22.034
711.93	24.756
712.25	18.213
712.57	16.484
712.89	21.269
713.20	23.875
713.52	17.073
713.84	19.795
714.16	20.619
714.48	19.677
714.80	23.397
715.11	25.228
715.43	20.063
715.75	22.333
716.07	19.934
716.39	20.470
716.70	19.926
717.02	19.847
717.34	17.409
717.66	15.929
717.97	20.000
718.29	19.247
718.61	20.079
718.93	18.992
719.24	22.814
719.56	20.884
719.88	20.619
720.20	21.970
720.51	19.540
720.83	21.236
721.15	22.269
721.46	20.565
721.78	20.158
722.10	21.190
722.42	13.693
722.73	20.816
723.05	25.306
723.37	24.153
723.68	20.270
724.00	26.496
724.32	17.333
724.63	23.636
724.95	23.581
725.27	20.276
725.58	19.915
725.90	17.460
726.22	23.166
726.53	24.068
726.85	22.846
727.16	24.906
727.48	19.838
727.80	24.291
728.11	21.186
728.43	25.098
728.74	20.968
729.06	18.400
729.38	30.827
729.69	22.311
730.01	18.077
730.32	25.000
730.64	22.615
730.96	24.906
731.27	21.333
731.59	22.034
731.90	22.293
732.22	24.921
732.53	22.591
732.85	25.177
733.16	24.579
733.48	20.504
733.80	20.290
734.11	24.068
734.43	22.680
734.74	25.455
735.06	21.498
735.37	26.586
735.69	28.620
736.00	21.254
736.32	22.483
736.63	26.761
736.95	24.573
737.26	22.064
737.58	21.477
737.89	20.879
738.21	27.068
738.52	24.691
738.83	19.651
739.15	18.777
739.46	24.803
739.78	24.908
740.09	21.895
740.41	25.362
740.72	20.866
741.04	21.862
741.35	15.745
741.66	22.275
741.98	17.857
742.29	21.287
742.61	24.607
742.92	16.588
743.23	18.519
743.55	21.719
743.86	18.182
744.18	17.703
744.49	19.149
744.80	13.043
745.12	24.064
745.43	21.951
745.74	27.083
746.06	22.439
746.37	25.131
746.68	22.749
747.00	14.362
747.31	22.886
747.62	19.417
747.94	20.574
748.25	20.792
748.56	17.486
748.88	20.419
749.19	25.532
749.50	23.645
749.82	14.623
750.13	22.477
750.44	27.068
750.75	27.239
751.07	25.547
751.38	22.222
751.69	21.569
752.01	25.969
752.32	26.295
752.63	20.949
752.94	21.121
753.26	28.033
753.57	23.077
753.88	24.779
754.19	17.917
754.51	20.661
754.82	23.077
755.13	27.083
755.44	25.403
755.75	28.125
756.07	22.568
756.38	27.547
756.69	21.839
757.00	26.000
757.31	23.856
757.63	25.305
757.94	20.278
758.25	23.562
758.56	23.670
758.87	24.363
759.18	23.053
759.50	24.727
759.81	22.742
760.12	28.065
760.43	20.606
760.74	25.000
761.05	26.769
761.36	23.295
761.67	30.000
761.99	23.469
762.30	24.364
762.61	22.134
762.92	20.362
763.23	24.775
763.54	21.028
763.85	25.424
764.16	26.556
764.47	20.161
764.78	25.641
765.10	25.926
765.41	24.290
765.72	23.492
766.03	24.060
766.34	28.102
766.65	30.279
766.96	24.747
767.27	23.404
767.58	18.391
767.89	19.149
768.20	17.045
768.51	20.330
768.82	25.123
769.13	23.502
769.44	23.605
769.75	27.397
770.06	24.569
770.37	26.442
770.68	21.320
770.99	25.792
771.30	30.392
771.61	21.719
771.92	27.586
772.23	29.064
772.54	25.269
772.85	25.926
773.16	29.213
773.47	35.948
773.78	34.641
774.09	20.958
774.39	20.667
774.70	24.841
775.01	30.345
775.32	22.143
775.63	16.529
775.94	20.611
776.25	17.323
776.56	21.667
776.87	14.423
777.18	23.077
777.48	27.586
777.79	10.435
778.10	12.381
778.41	22.523
778.72	26.190
779.03	30.075
779.34	26.950
779.65	26.712
779.95	18.493
780.26	24.138
780.57	22.764
780.88	28.346
781.19	23.276
781.50	19.380
781.80	24.260
782.11	12.579
782.42	23.077
782.73	22.302
783.04	18.519
783.34	26.389
783.65	9.402
783.96	26.230
784.27	20.690
784.57	21.951
784.88	21.094
785.19	29.000
785.50	37.000
785.81	21.552
786.11	18.966
786.42	23.301
786.73	40.000
787.04	31.633
787.34	23.214
787.65	20.000
787.96	27.434
788.26	19.091
788.57	16.239
788.88	21.094
789.19	21.429
789.49	27.826
789.80	17.347
790.11	23.232
790.41	30.000
790.72	31.522
791.03	29.545
791.33	30.000
791.64	21.250
791.95	18.605
792.25	19.149
792.56	17.978
792.87	12.329
793.17	11.594
793.48	14.667
793.79	20.000
794.09	25.000
794.40	30.189
794.70	29.126
795.01	27.642
795.32	14.530
795.62	29.524
795.93	14.706
796.23	27.358
796.54	26.042
796.85	39.706
797.15	15.493
797.46	30.556
797.76	13.636
798.07	20.930
798.37	27.632
798.68	7.576
798.99	23.457
799.29	27.143
799.60	17.391
799.90	24.000
800.21	19.672
800.51	15.385
800.82	33.898
801.12	23.188
801.43	31.148
801.73	26.984
802.04	18.000
802.34	26.866
802.65	13.462
802.95	23.214
803.26	7.692
803.56	23.529
803.87	30.435
804.17	24.000
804.48	17.460
804.78	22.222
805.09	6.522
805.39	8.889
805.70	29.630
806.00	-10.526
806.30	25.352
806.61	20.000
806.91	8.333
807.22	40.789
807.52	34.667
807.83	21.818
808.13	22.222
808.43	29.412
808.74	20.896
809.04	11.864
809.35	21.154
809.65	28.125
809.95	-24.324
810.26	18.182
810.56	28.767
810.86	11.905
811.17	22.000
811.47	14.286
811.77	23.684
812.08	13.636
812.38	24.528
812.69	27.500
812.99	6.061
813.29	31.579
813.59	-37.143
813.90	18.182
814.20	10.256
814.50	36.538
814.81	24.528
815.11	-4.255
815.41	28.814
815.72	33.333
816.02	43.137
816.32	22.917
816.62	14.634
816.93	-5.405
817.23	34.286
817.53	31.250
817.84	13.043
818.14	21.154
818.44	2.632
818.74	32.609
819.04	5.000
819.35	21.622
819.65	5.882
819.95	25.000
820.25	4.762
820.56	37.500
820.86	-24.138
821.16	30.000
821.46	21.277
821.76	27.500
822.07	46.512
822.37	-16.216
822.67	31.250
822.97	16.667
823.27	10.714
823.57	-16.000
823.88	11.111
824.18	32.143
824.48	8.824
824.78	25.806
825.08	30.435
825.38	24.242
825.69	-45.833
825.99	2.632
826.29	13.889
826.59	73.333
826.89	19.048
827.19	39.130
827.49	27.500
827.79	31.429
828.09	-14.286
828.39	42.424
828.70	37.838
829.00	21.429
829.30	4.762
829.60	40.000
829.90	15.625
830.20	21.053
830.50	-3.704
830.80	-13.043
831.10	18.182
831.40	45.455
831.70	80.645
832.00	47.619
832.30	0.000
832.60	-108.333
832.90	34.483
833.20	0.000
833.50	33.333
833.80	25.926
834.10	0.000
834.40	3.125
834.70	-44.444
835.00	26.316
835.30	61.538
835.60	-6.667
835.90	32.258
836.20	-18.182
836.50	39.286
836.80	34.615
837.10	-3.571
837.40	-33.333
837.70	36.364
838.00	-45.455
838.30	17.391
838.60	0.000
838.90	31.818
839.19	21.429
839.49	23.333
839.79	7.692
840.09	58.333
840.39	39.286
840.69	-28.571
840.99	3.846
841.29	0.000
841.59	-110.000
841.88	9.091
842.18	100.000
842.48	18.750
842.78	-73.333
843.08	40.741
843.38	-130.000
843.68	47.826
843.97	0.000
844.27	-53.333
844.57	45.000
844.87	22.222
845.17	0.000
845.47	13.333
845.76	23.810
846.06	17.647
846.36	-50.000
846.66	14.286
846.96	13.333
847.25	-87.500
847.55	21.429
847.85	150.000
848.15	45.455
848.44	233.333
848.74	30.000
849.04	44.444
849.34	45.455
849.63	-83.333
849.93	-200.000
850.23	-22.222
850.53	40.000
850.82	7.692
851.12	-11.111
851.42	33.333
851.71	3.846
852.01	28.571
852.31	-75.000
852.61	-63.636
852.90	50.000
853.20	10.526
853.50	-58.333
853.79	52.174
854.09	33.333
854.39	15.789
854.68	37.500
854.98	45.161
855.28	3.846
855.57	-15.000
855.87	16.667
856.17	40.741
856.46	85.714
856.76	40.000
857.05	-77.778
857.35	12.000
857.65	0.000
857.94	-23.077
858.24	41.379
858.53	-11.111
858.83	0.000
859.13	40.909
859.42	4.348
859.72	100.000
860.01	-133.333
860.31	52.000
860.60	0.000
860.90	-66.667
861.20	-13.333
861.49	-50.000
861.79	-26.667
862.08	10.000
862.38	66.667
862.67	20.000
862.97	50.000
863.26	16.667
863.56	44.444
863.85	-300.000
864.15	5.556
864.44	0.000
864.74	57.143
865.03	75.000
865.33	-20.000
865.62	116.667
865.92	0.000
866.21	-83.333
866.51	68.750
866.80	9.091
867.10	-50.000
867.39	33.333
867.69	0.000
867.98	-7.692
868.27	-33.333
868.57	-33.333
868.86	61.111
869.16	-23.077
869.45	66.667
869.75	-1200.000
870.04	0.000
870.33	-100.000
870.63	38.095
870.92	133.333
871.22	-180.000
871.51	400.000
871.80	77.778
872.10	366.667
>>>>>End Processed Spectral Data<<<<<
