SpectraSuite Data File
++++++++++++++++++++++++++++++++++++
Date: Fri May 15 20:10:35 PDT 2015
User: schluterlab
Dark Spectrum Present: Yes
Reference Spectrum Present: Yes
Number of Sampled Component Spectra: 1
Spectrometers: USB2E3373
Integration Time (usec): 3000 (USB2E3373)
Spectra Averaged: 3 (USB2E3373)
Boxcar Smoothing: 0 (USB2E3373)
Correct for Electrical Dark: No (USB2E3373)
Strobe/Lamp Enabled: No (USB2E3373)
Correct for Detector Non-linearity: No (USB2E3373)
Correct for Stray Light: No (USB2E3373)
Number of Pixels in Processed Spectrum: 2048
>>>>>Begin Processed Spectral Data<<<<<
178.53	0.000
178.91	0.000
179.29	62.500
179.67	-350.000
180.04	-14.286
180.42	150.000
180.80	-600.000
181.18	166.667
181.56	450.000
181.94	200.000
182.31	-0.000
182.69	0.000
183.07	-66.667
183.45	0.000
183.83	50.000
184.20	36.364
184.58	-11.111
184.96	-25.000
185.34	-166.667
185.72	-250.000
186.09	53.846
186.47	400.000
186.85	-0.000
187.23	177.778
187.61	-0.000
187.98	266.667
188.36	22.222
188.74	-33.333
189.12	64.706
189.49	44.444
189.87	0.000
190.25	78.571
190.63	200.000
191.00	0.000
191.38	31.579
191.76	200.000
192.14	-125.000
192.51	150.000
192.89	-77.778
193.27	-85.714
193.65	266.667
194.02	45.455
194.40	10.000
194.78	-87.500
195.15	-25.000
195.53	62.500
195.91	300.000
196.29	-75.000
196.66	92.308
197.04	71.429
197.42	-11.111
197.79	-433.333
198.17	-53.846
198.55	1500.000
198.92	-400.000
199.30	0.000
199.68	80.000
200.05	0.000
200.43	0.000
200.81	366.667
201.18	-200.000
201.56	1200.000
201.94	-150.000
202.31	166.667
202.69	-260.000
203.07	-50.000
203.44	0.000
203.82	0.000
204.19	42.857
204.57	-233.333
204.95	162.500
205.32	-60.000
205.70	114.286
206.08	-25.000
206.45	177.778
206.83	107.143
207.20	-128.571
207.58	800.000
207.96	-200.000
208.33	10.000
208.71	100.000
209.08	-133.333
209.46	-200.000
209.84	-40.000
210.21	-200.000
210.59	100.000
210.96	133.333
211.34	25.000
211.71	-6.667
212.09	-57.143
212.46	-400.000
212.84	0.000
213.22	50.000
213.59	-250.000
213.97	138.462
214.34	27.273
214.72	-16.667
215.09	-25.000
215.47	23.077
215.84	-45.455
216.22	100.000
216.59	37.500
216.97	450.000
217.34	50.000
217.72	-160.000
218.09	0.000
218.47	150.000
218.84	1200.000
219.22	-22.222
219.59	-20.000
219.97	300.000
220.34	250.000
220.72	28.571
221.09	100.000
221.47	100.000
221.84	-250.000
222.22	-100.000
222.59	0.000
222.97	100.000
223.34	-133.333
223.72	21.429
224.09	-9.524
224.46	32.143
224.84	366.667
225.21	0.000
225.59	40.000
225.96	50.000
226.34	175.000
226.71	42.857
227.08	33.333
227.46	-12.500
227.83	-700.000
228.21	-33.333
228.58	54.545
228.95	87.500
229.33	110.000
229.70	6.250
230.08	-37.500
230.45	-100.000
230.82	142.857
231.20	40.000
231.57	92.857
231.95	0.000
232.32	0.000
232.69	57.143
233.07	133.333
233.44	-180.000
233.81	-40.000
234.19	-22.222
234.56	23.529
234.93	-50.000
235.31	-50.000
235.68	-260.000
236.05	-7.692
236.43	0.000
236.80	11.765
237.17	28.125
237.55	-20.000
237.92	37.037
238.29	11.111
238.67	6.667
239.04	38.235
239.41	-2.439
239.79	10.000
240.16	12.195
240.53	18.421
240.91	4.348
241.28	30.159
241.65	37.500
242.02	27.397
242.40	25.000
242.77	25.424
243.14	4.545
243.51	16.250
243.89	22.989
244.26	13.793
244.63	22.619
245.00	25.773
245.38	22.680
245.75	11.236
246.12	6.034
246.49	15.702
246.87	12.500
247.24	17.647
247.61	7.895
247.98	15.447
248.36	14.375
248.73	19.737
249.10	22.078
249.47	19.620
249.84	30.719
250.22	17.647
250.59	20.915
250.96	20.188
251.33	16.860
251.70	19.412
252.08	16.244
252.45	20.792
252.82	19.598
253.19	18.894
253.56	15.888
253.94	16.216
254.31	22.174
254.68	20.614
255.05	13.386
255.42	14.410
255.79	18.147
256.16	17.899
256.54	23.881
256.91	15.209
257.28	16.729
257.65	16.105
258.02	19.504
258.39	17.172
258.76	22.711
259.14	17.276
259.51	19.741
259.88	14.089
260.25	17.320
260.62	21.181
260.99	17.627
261.36	17.466
261.73	13.924
262.10	20.973
262.47	15.337
262.85	13.793
263.22	14.154
263.59	18.380
263.96	18.634
264.33	20.000
264.70	15.476
265.07	17.560
265.44	18.130
265.81	18.079
266.18	18.306
266.55	18.252
266.92	16.839
267.29	15.144
267.66	15.857
268.03	16.754
268.40	14.883
268.77	17.380
269.14	17.986
269.51	16.967
269.88	16.958
270.25	17.092
270.62	16.098
270.99	16.880
271.36	16.137
271.73	18.779
272.10	16.788
272.47	18.440
272.84	15.594
273.21	17.401
273.58	17.590
273.95	16.705
274.32	15.473
274.69	14.932
275.06	17.857
275.43	17.460
275.80	15.894
276.17	14.943
276.54	16.702
276.91	16.667
277.28	14.410
277.65	16.529
278.02	15.319
278.39	16.630
278.76	16.562
279.13	12.448
279.50	16.176
279.87	18.359
280.23	15.054
280.60	16.959
280.97	15.960
281.34	16.154
281.71	17.248
282.08	15.133
282.45	15.068
282.82	14.286
283.19	17.602
283.56	16.378
283.92	13.093
284.29	14.231
284.66	15.310
285.03	15.128
285.40	14.745
285.77	15.290
286.14	14.079
286.51	17.528
286.87	16.088
287.24	15.470
287.61	11.817
287.98	15.263
288.35	13.172
288.72	14.886
289.08	14.757
289.45	16.872
289.82	15.559
290.19	15.700
290.56	14.237
290.93	11.616
291.29	13.251
291.66	14.803
292.03	11.483
292.40	15.000
292.77	11.802
293.13	10.714
293.50	12.443
293.87	13.893
294.24	14.374
294.60	14.009
294.97	11.756
295.34	11.350
295.71	12.668
296.08	12.706
296.44	10.100
296.81	12.917
297.18	10.870
297.55	13.957
297.91	12.603
298.28	13.456
298.65	11.398
299.02	12.264
299.38	11.354
299.75	11.448
300.12	10.471
300.48	11.989
300.85	12.674
301.22	10.260
301.59	11.447
301.95	12.911
302.32	12.711
302.69	12.065
303.05	12.005
303.42	10.959
303.79	12.850
304.15	11.708
304.52	10.583
304.89	9.357
305.25	10.291
305.62	11.085
305.99	10.175
306.35	10.289
306.72	10.349
307.09	11.174
307.45	10.907
307.82	10.648
308.19	11.382
308.55	10.796
308.92	11.329
309.29	10.615
309.65	11.518
310.02	11.771
310.38	11.416
310.75	11.585
311.12	11.733
311.48	11.241
311.85	10.995
312.22	11.181
312.58	10.934
312.95	10.993
313.31	11.491
313.68	11.728
314.05	11.633
314.41	13.814
314.78	12.268
315.14	13.361
315.51	13.665
315.87	13.525
316.24	14.965
316.61	14.764
316.97	15.079
317.34	15.137
317.70	15.870
318.07	15.769
318.43	16.667
318.80	16.288
319.16	18.066
319.53	18.139
319.89	18.504
320.26	18.826
320.62	21.163
320.99	18.476
321.35	20.452
321.72	20.561
322.08	22.256
322.45	22.640
322.81	22.790
323.18	24.043
323.54	25.193
323.91	25.122
324.27	27.734
324.64	28.558
325.00	30.566
325.37	33.517
325.73	31.278
326.10	33.969
326.46	36.592
326.83	36.745
327.19	39.320
327.56	39.705
327.92	40.581
328.29	40.536
328.65	43.868
329.01	44.485
329.38	45.161
329.74	46.648
330.11	46.432
330.47	47.681
330.84	49.135
331.20	51.996
331.56	51.389
331.93	51.598
332.29	54.445
332.66	52.941
333.02	53.996
333.38	54.537
333.75	54.945
334.11	54.879
334.48	56.664
334.84	57.326
335.20	57.457
335.57	58.658
335.93	59.801
336.29	58.011
336.66	59.310
337.02	60.037
337.38	59.444
337.75	59.727
338.11	60.054
338.47	62.135
338.84	61.830
339.20	61.243
339.56	62.110
339.93	61.594
340.29	62.752
340.65	61.022
341.02	61.259
341.38	60.265
341.74	61.572
342.11	61.958
342.47	62.367
342.83	63.235
343.20	60.976
343.56	62.000
343.92	63.508
344.28	63.877
344.65	63.472
345.01	62.576
345.37	62.658
345.73	63.347
346.10	64.884
346.46	62.153
346.82	62.602
347.19	62.427
347.55	62.991
347.91	62.945
348.27	62.813
348.63	65.162
349.00	63.577
349.36	64.505
349.72	66.169
350.08	63.279
350.45	63.128
350.81	64.535
351.17	64.984
351.53	64.408
351.89	62.758
352.26	65.040
352.62	63.145
352.98	62.731
353.34	62.802
353.70	65.129
354.07	64.597
354.43	63.731
354.79	64.905
355.15	63.889
355.51	67.484
355.87	65.615
356.24	64.111
356.60	65.158
356.96	65.159
357.32	63.898
357.68	62.549
358.04	66.721
358.40	65.997
358.77	65.231
359.13	67.654
359.49	64.715
359.85	66.147
360.21	67.145
360.57	64.881
360.93	67.095
361.29	64.577
361.66	66.771
362.02	66.364
362.38	66.794
362.74	67.373
363.10	68.397
363.46	67.087
363.82	67.393
364.18	66.937
364.54	66.250
364.90	66.810
365.26	66.812
365.62	68.394
365.98	68.695
366.35	68.609
366.71	68.367
367.07	67.344
367.43	68.296
367.79	67.703
368.15	68.988
368.51	68.609
368.87	67.767
369.23	67.870
369.59	68.294
369.95	68.622
370.31	67.124
370.67	68.134
371.03	67.140
371.39	68.855
371.75	68.864
372.11	66.548
372.47	69.231
372.83	66.927
373.19	65.835
373.55	67.365
373.91	67.747
374.27	68.816
374.63	69.131
374.99	69.007
375.35	69.290
375.71	71.608
376.07	69.312
376.42	68.435
376.78	69.195
377.14	70.074
377.50	70.651
377.86	70.080
378.22	68.730
378.58	70.256
378.94	69.313
379.30	69.245
379.66	70.721
380.02	68.302
380.38	68.716
380.74	69.180
381.09	70.368
381.45	70.214
381.81	70.080
382.17	70.431
382.53	69.956
382.89	69.931
383.25	71.437
383.61	69.634
383.97	70.667
384.32	70.732
384.68	70.279
385.04	68.689
385.40	69.695
385.76	72.075
386.12	70.116
386.48	70.690
386.83	70.640
387.19	69.475
387.55	72.334
387.91	69.377
388.27	68.926
388.62	70.548
388.98	68.877
389.34	69.582
389.70	70.106
390.06	68.282
390.42	69.689
390.77	70.373
391.13	67.907
391.49	68.241
391.85	69.916
392.20	68.675
392.56	69.803
392.92	67.939
393.28	67.335
393.64	69.249
393.99	70.721
394.35	69.576
394.71	68.582
395.07	67.128
395.42	67.456
395.78	69.381
396.14	67.276
396.50	68.548
396.85	69.028
397.21	66.541
397.57	68.276
397.92	67.765
398.28	68.103
398.64	66.084
399.00	66.817
399.35	66.761
399.71	65.882
400.07	66.626
400.42	66.157
400.78	66.197
401.14	66.606
401.49	66.289
401.85	65.265
402.21	66.084
402.57	66.188
402.92	63.990
403.28	64.975
403.63	66.456
403.99	64.860
404.35	64.335
404.70	62.619
405.06	63.866
405.42	63.580
405.77	64.730
406.13	64.785
406.49	63.233
406.84	64.120
407.20	64.238
407.55	63.748
407.91	61.832
408.27	62.651
408.62	63.077
408.98	62.847
409.34	62.515
409.69	60.207
410.05	61.207
410.40	62.654
410.76	62.666
411.11	62.500
411.47	62.722
411.83	61.833
412.18	62.355
412.54	61.798
412.89	60.406
413.25	61.793
413.60	61.491
413.96	59.509
414.31	61.585
414.67	60.359
415.03	60.053
415.38	60.509
415.74	61.368
416.09	61.594
416.45	62.188
416.80	60.013
417.16	62.086
417.51	62.092
417.87	60.235
418.22	61.593
418.58	62.007
418.93	62.633
419.29	59.731
419.64	62.865
420.00	63.350
420.35	61.134
420.71	61.786
421.06	62.063
421.42	61.418
421.77	63.468
422.12	61.407
422.48	61.830
422.83	62.877
423.19	61.287
423.54	62.787
423.90	61.543
424.25	63.088
424.61	63.586
424.96	62.834
425.31	64.760
425.67	64.202
426.02	64.900
426.38	64.245
426.73	64.467
427.09	64.684
427.44	64.706
427.79	63.760
428.15	65.109
428.50	65.112
428.85	64.865
429.21	66.497
429.56	65.445
429.92	65.639
430.27	64.361
430.62	65.761
430.98	65.340
431.33	66.562
431.68	65.725
432.04	66.294
432.39	64.860
432.74	65.244
433.10	66.782
433.45	66.906
433.80	67.382
434.16	67.202
434.51	67.527
434.86	67.131
435.22	65.620
435.57	67.498
435.92	67.605
436.28	66.786
436.63	68.340
436.98	66.860
437.34	68.663
437.69	69.410
438.04	67.578
438.39	67.379
438.75	70.006
439.10	69.157
439.45	69.872
439.81	70.398
440.16	69.715
440.51	69.493
440.86	70.695
441.22	69.344
441.57	71.413
441.92	70.619
442.27	71.896
442.63	70.289
442.98	69.673
443.33	69.449
443.68	69.231
444.03	71.187
444.39	69.011
444.74	72.297
445.09	72.160
445.44	70.427
445.79	71.222
446.15	70.154
446.50	70.327
446.85	70.616
447.20	71.376
447.55	71.875
447.91	71.066
448.26	71.087
448.61	71.675
448.96	72.748
449.31	70.405
449.66	70.383
450.02	70.850
450.37	71.488
450.72	71.478
451.07	70.190
451.42	67.978
451.77	70.042
452.12	69.079
452.47	70.702
452.83	71.496
453.18	71.410
453.53	70.670
453.88	70.917
454.23	70.191
454.58	72.040
454.93	71.456
455.28	70.222
455.63	73.466
455.98	72.219
456.34	71.073
456.69	70.648
457.04	70.762
457.39	71.993
457.74	72.733
458.09	70.865
458.44	72.967
458.79	71.373
459.14	72.254
459.49	72.478
459.84	72.420
460.19	70.813
460.54	72.249
460.89	72.898
461.24	72.050
461.59	72.625
461.94	70.943
462.29	71.411
462.64	71.561
462.99	70.955
463.34	69.819
463.69	69.949
464.04	71.308
464.39	72.226
464.74	70.613
465.09	72.863
465.44	72.649
465.79	71.088
466.14	71.893
466.49	71.823
466.84	72.933
467.19	71.527
467.54	70.307
467.89	71.699
468.24	71.776
468.59	72.063
468.94	69.143
469.29	70.098
469.64	70.198
469.99	71.619
470.34	69.488
470.68	70.470
471.03	70.347
471.38	70.043
471.73	70.308
472.08	69.607
472.43	71.745
472.78	69.705
473.13	71.361
473.48	70.358
473.83	69.801
474.17	71.308
474.52	69.304
474.87	71.333
475.22	72.361
475.57	70.695
475.92	70.872
476.27	70.722
476.61	72.164
476.96	69.604
477.31	71.011
477.66	69.045
478.01	72.207
478.36	70.370
478.70	71.506
479.05	70.275
479.40	70.641
479.75	69.864
480.10	70.865
480.45	70.100
480.79	72.306
481.14	71.773
481.49	70.788
481.84	71.429
482.19	70.112
482.53	70.456
482.88	69.547
483.23	70.777
483.58	70.236
483.92	70.281
484.27	69.371
484.62	69.924
484.97	71.393
485.31	70.737
485.66	72.730
486.01	75.506
486.36	74.662
486.70	73.730
487.05	72.705
487.40	72.363
487.75	71.127
488.09	69.159
488.44	68.604
488.79	69.182
489.13	70.152
489.48	69.218
489.83	68.475
490.17	70.067
490.52	69.284
490.87	69.459
491.22	70.726
491.56	68.264
491.91	67.734
492.26	68.887
492.60	68.762
492.95	70.143
493.30	69.370
493.64	71.365
493.99	69.324
494.34	70.097
494.68	68.333
495.03	68.710
495.37	68.449
495.72	69.107
496.07	69.122
496.41	69.623
496.76	70.060
497.11	69.679
497.45	69.785
497.80	69.173
498.14	69.300
498.49	69.121
498.84	68.513
499.18	69.930
499.53	69.891
499.87	68.677
500.22	69.041
500.56	69.491
500.91	69.578
501.26	68.611
501.60	69.257
501.95	68.705
502.29	69.007
502.64	69.643
502.98	68.624
503.33	69.068
503.67	68.241
504.02	69.501
504.36	68.778
504.71	67.677
505.06	67.136
505.40	68.376
505.75	68.763
506.09	68.272
506.44	69.353
506.78	68.214
507.13	67.994
507.47	66.475
507.82	67.201
508.16	68.516
508.51	68.730
508.85	68.655
509.19	66.472
509.54	68.204
509.88	67.799
510.23	68.316
510.57	67.611
510.92	66.684
511.26	67.103
511.61	68.427
511.95	68.438
512.30	67.794
512.64	67.001
512.98	67.996
513.33	68.607
513.67	67.823
514.02	69.108
514.36	67.257
514.70	68.823
515.05	68.625
515.39	67.828
515.74	68.084
516.08	67.244
516.42	69.081
516.77	66.530
517.11	68.309
517.46	69.719
517.80	67.223
518.14	66.871
518.49	66.647
518.83	67.072
519.17	65.797
519.52	65.364
519.86	66.327
520.20	66.525
520.55	67.417
520.89	66.248
521.23	67.891
521.58	67.129
521.92	65.897
522.26	66.493
522.61	65.519
522.95	67.351
523.29	65.629
523.64	66.391
523.98	67.531
524.32	65.979
524.66	66.261
525.01	66.494
525.35	65.716
525.69	67.138
526.04	65.344
526.38	67.639
526.72	65.271
527.06	66.148
527.41	65.831
527.75	65.550
528.09	65.449
528.43	67.117
528.78	65.809
529.12	67.226
529.46	66.602
529.80	65.231
530.15	66.799
530.49	67.407
530.83	66.553
531.17	64.674
531.51	65.527
531.86	64.922
532.20	66.597
532.54	64.670
532.88	66.598
533.22	66.801
533.57	65.990
533.91	65.992
534.25	65.625
534.59	66.774
534.93	64.884
535.27	66.117
535.62	64.744
535.96	65.427
536.30	64.446
536.64	65.059
536.98	64.460
537.32	65.647
537.66	65.919
538.01	64.965
538.35	64.979
538.69	65.113
539.03	66.097
539.37	65.343
539.71	66.326
540.05	64.223
540.39	65.720
540.73	65.342
541.07	65.470
541.42	64.718
541.76	68.066
542.10	66.001
542.44	66.435
542.78	64.418
543.12	65.385
543.46	65.369
543.80	65.926
544.14	64.553
544.48	65.756
544.82	65.345
545.16	66.803
545.50	64.286
545.84	65.581
546.18	65.957
546.52	66.042
546.86	66.355
547.20	66.309
547.54	65.795
547.88	65.489
548.22	65.615
548.56	64.776
548.90	67.049
549.24	65.083
549.58	65.233
549.92	65.332
550.26	66.007
550.60	65.651
550.94	65.571
551.28	64.992
551.62	66.385
551.96	65.263
552.30	66.082
552.64	66.079
552.98	65.893
553.32	65.621
553.66	66.183
554.00	66.350
554.34	67.282
554.68	63.274
555.02	65.774
555.36	65.669
555.69	66.007
556.03	65.382
556.37	65.623
556.71	66.570
557.05	65.250
557.39	64.758
557.73	65.742
558.07	65.535
558.41	66.003
558.75	65.160
559.08	65.485
559.42	65.714
559.76	67.014
560.10	64.908
560.44	67.386
560.78	66.923
561.12	65.938
561.45	69.852
561.79	66.527
562.13	66.643
562.47	67.050
562.81	66.787
563.15	65.021
563.48	67.963
563.82	66.026
564.16	67.688
564.50	66.486
564.84	66.600
565.17	67.136
565.51	67.896
565.85	68.381
566.19	66.247
566.52	67.426
566.86	69.602
567.20	67.186
567.54	69.039
567.88	69.361
568.21	69.740
568.55	68.641
568.89	69.610
569.23	70.438
569.56	70.534
569.90	71.498
570.24	70.748
570.57	71.527
570.91	71.732
571.25	70.602
571.59	70.632
571.92	69.274
572.26	70.894
572.60	69.736
572.93	69.062
573.27	68.589
573.61	71.301
573.95	70.344
574.28	70.816
574.62	70.430
574.96	69.858
575.29	69.914
575.63	67.582
575.97	68.420
576.30	69.722
576.64	68.397
576.98	70.090
577.31	70.410
577.65	70.940
577.98	71.746
578.32	70.115
578.66	69.998
578.99	69.233
579.33	68.599
579.67	67.272
580.00	69.063
580.34	70.124
580.67	69.065
581.01	70.749
581.35	70.607
581.68	72.151
582.02	71.353
582.35	71.755
582.69	71.387
583.02	70.840
583.36	70.570
583.70	70.379
584.03	69.697
584.37	71.739
584.70	71.154
585.04	70.052
585.37	71.695
585.71	71.563
586.04	71.281
586.38	70.899
586.72	72.080
587.05	72.270
587.39	71.680
587.72	72.854
588.06	72.184
588.39	71.148
588.73	71.612
589.06	71.331
589.40	70.653
589.73	71.668
590.07	70.884
590.40	71.749
590.73	72.158
591.07	70.568
591.40	71.104
591.74	70.407
592.07	71.011
592.41	71.908
592.74	71.924
593.08	71.918
593.41	73.410
593.75	72.391
594.08	72.159
594.41	72.853
594.75	72.863
595.08	71.964
595.42	72.065
595.75	72.550
596.09	71.853
596.42	72.799
596.75	71.314
597.09	70.615
597.42	70.687
597.75	71.782
598.09	71.163
598.42	70.848
598.76	71.943
599.09	71.995
599.42	70.822
599.76	72.348
600.09	72.021
600.42	72.365
600.76	71.360
601.09	71.679
601.42	71.680
601.76	72.370
602.09	71.493
602.42	71.820
602.76	71.307
603.09	72.633
603.42	74.624
603.76	72.702
604.09	71.851
604.42	72.547
604.76	73.565
605.09	71.389
605.42	71.332
605.75	72.198
606.09	72.187
606.42	71.059
606.75	71.602
607.09	71.824
607.42	70.979
607.75	71.803
608.08	69.677
608.42	69.575
608.75	72.000
609.08	71.350
609.41	71.421
609.75	70.060
610.08	73.190
610.41	69.952
610.74	70.990
611.07	71.990
611.41	72.548
611.74	73.241
612.07	71.413
612.40	71.061
612.73	71.751
613.07	71.316
613.40	69.967
613.73	71.237
614.06	71.842
614.39	72.702
614.72	69.300
615.06	70.726
615.39	69.323
615.72	69.268
616.05	72.011
616.38	68.889
616.71	70.703
617.05	70.476
617.38	70.333
617.71	71.698
618.04	71.365
618.37	71.501
618.70	71.023
619.03	70.556
619.36	71.635
619.69	71.342
620.03	72.023
620.36	69.957
620.69	70.521
621.02	68.884
621.35	69.959
621.68	70.833
622.01	70.750
622.34	70.072
622.67	69.164
623.00	68.836
623.33	71.875
623.66	70.307
623.99	68.835
624.32	70.875
624.65	69.398
624.99	70.730
625.32	69.371
625.65	70.778
625.98	70.105
626.31	67.082
626.64	70.104
626.97	69.895
627.30	67.776
627.63	69.324
627.96	69.182
628.29	66.512
628.62	69.027
628.95	67.635
629.28	70.565
629.61	68.195
629.94	69.990
630.26	68.182
630.59	69.615
630.92	68.103
631.25	66.872
631.58	68.502
631.91	68.092
632.24	67.775
632.57	67.614
632.90	65.955
633.23	67.294
633.56	69.144
633.89	67.201
634.22	67.531
634.55	67.344
634.88	64.623
635.20	66.795
635.53	69.200
635.86	66.060
636.19	67.400
636.52	67.857
636.85	66.873
637.18	65.660
637.51	65.283
637.83	64.520
638.16	65.621
638.49	63.760
638.82	68.289
639.15	66.079
639.48	65.887
639.81	67.364
640.13	64.502
640.46	66.764
640.79	65.096
641.12	66.617
641.45	65.916
641.77	64.000
642.10	67.773
642.43	66.238
642.76	69.637
643.09	64.620
643.41	64.078
643.74	64.745
644.07	64.532
644.40	66.554
644.73	66.375
645.05	61.242
645.38	63.492
645.71	64.007
646.04	68.761
646.36	66.667
646.69	67.626
647.02	67.108
647.35	65.858
647.67	65.265
648.00	67.164
648.33	64.164
648.66	66.780
648.98	63.987
649.31	69.256
649.64	65.306
649.96	66.288
650.29	69.336
650.62	64.786
650.94	66.111
651.27	66.667
651.60	67.387
651.92	64.510
652.25	65.542
652.58	66.333
652.90	67.581
653.23	64.202
653.56	65.990
653.88	64.948
654.21	63.573
654.54	64.177
654.86	66.893
655.19	67.836
655.52	76.935
655.84	81.216
656.17	89.057
656.49	100.000
656.82	100.000
657.15	100.000
657.47	82.940
657.80	47.733
658.13	46.420
658.45	70.042
658.78	67.325
659.10	64.450
659.43	63.472
659.75	63.690
660.08	61.034
660.41	63.841
660.73	62.707
661.06	62.565
661.38	63.992
661.71	60.780
662.03	67.811
662.36	65.055
662.68	64.602
663.01	67.031
663.33	63.341
663.66	62.791
663.98	65.581
664.31	60.981
664.63	62.673
664.96	61.957
665.28	62.031
665.61	64.286
665.93	65.217
666.26	65.293
666.58	64.877
666.91	63.294
667.23	64.858
667.56	64.455
667.88	62.110
668.21	63.962
668.53	65.248
668.86	62.972
669.18	63.443
669.50	62.470
669.83	63.721
670.15	61.538
670.48	62.201
670.80	63.364
671.13	60.626
671.45	61.187
671.77	63.305
672.10	65.149
672.42	66.854
672.75	65.897
673.07	66.905
673.39	63.670
673.72	61.736
674.04	65.417
674.37	62.500
674.69	62.313
675.01	64.222
675.34	59.459
675.66	62.963
675.98	63.193
676.31	65.596
676.63	61.758
676.95	62.500
677.28	61.647
677.60	67.711
677.92	57.569
678.25	67.177
678.57	62.771
678.89	61.975
679.22	69.351
679.54	61.847
679.86	64.215
680.18	65.243
680.51	64.962
680.83	63.618
681.15	64.800
681.48	68.238
681.80	64.463
682.12	62.903
682.44	63.389
682.77	61.369
683.09	64.989
683.41	60.000
683.73	63.134
684.06	64.602
684.38	64.086
684.70	65.795
685.02	64.523
685.34	63.636
685.67	66.604
685.99	66.004
686.31	64.248
686.63	65.492
686.96	64.829
687.28	63.636
687.60	63.118
687.92	65.859
688.24	63.710
688.56	63.100
688.89	64.955
689.21	63.778
689.53	64.733
689.85	63.721
690.17	62.946
690.49	65.248
690.82	63.107
691.14	62.857
691.46	62.383
691.78	66.667
692.10	64.301
692.42	64.286
692.74	59.829
693.06	63.514
693.39	61.991
693.71	62.670
694.03	63.048
694.35	64.486
694.67	65.152
694.99	61.880
695.31	62.402
695.63	62.250
695.95	64.899
696.27	60.363
696.59	63.611
696.91	61.625
697.23	60.668
697.56	64.851
697.88	64.731
698.20	65.604
698.52	63.765
698.84	60.287
699.16	63.250
699.48	63.158
699.80	61.042
700.12	62.264
700.44	64.706
700.76	61.337
701.08	60.909
701.40	63.855
701.72	65.432
702.04	63.366
702.36	62.876
702.68	62.462
703.00	62.424
703.32	60.704
703.64	57.627
703.96	58.841
704.28	61.963
704.60	61.587
704.91	61.514
705.23	61.130
705.55	61.837
705.87	62.094
706.19	62.222
706.51	58.763
706.83	62.058
707.15	60.436
707.47	65.826
707.79	60.937
708.11	62.750
708.43	62.250
708.74	60.465
709.06	68.732
709.38	62.385
709.70	61.243
710.02	59.236
710.34	59.752
710.66	59.936
710.98	60.596
711.29	60.000
711.61	60.000
711.93	66.450
712.25	68.041
712.57	67.766
712.89	60.075
713.20	59.516
713.52	60.976
713.84	64.164
714.16	62.543
714.48	58.710
714.80	65.385
715.11	65.046
715.43	59.248
715.75	63.333
716.07	58.140
716.39	59.060
716.70	59.410
717.02	55.344
717.34	64.372
717.66	67.257
717.97	62.174
718.29	64.017
718.61	57.480
718.93	60.078
719.24	58.175
719.56	66.265
719.88	60.481
720.20	65.530
720.51	57.471
720.83	63.707
721.15	62.185
721.46	66.129
721.78	58.498
722.10	58.364
722.42	59.336
722.73	62.857
723.05	64.490
723.37	63.136
723.68	66.216
724.00	58.547
724.32	59.556
724.63	59.545
724.95	59.825
725.27	60.829
725.58	62.288
725.90	57.143
726.22	62.162
726.53	58.983
726.85	61.423
727.16	67.547
727.48	60.729
727.80	59.109
728.11	61.017
728.43	55.294
728.74	59.677
729.06	67.200
729.38	62.782
729.69	59.761
730.01	57.692
730.32	62.313
730.64	64.664
730.96	63.774
731.27	60.000
731.59	66.780
731.90	61.465
732.22	62.776
732.53	63.123
732.85	62.766
733.16	59.259
733.48	59.353
733.80	66.304
734.11	59.322
734.43	64.948
734.74	67.879
735.06	61.564
735.37	62.236
735.69	64.310
736.00	58.537
736.32	58.389
736.63	64.085
736.95	60.410
737.26	59.786
737.58	58.054
737.89	60.440
738.21	66.541
738.52	68.313
738.83	61.135
739.15	62.009
739.46	61.417
739.78	63.004
740.09	62.092
740.41	61.232
740.72	53.543
741.04	61.538
741.35	57.872
741.66	59.242
741.98	63.265
742.29	55.941
742.61	62.827
742.92	54.976
743.23	56.019
743.55	64.706
743.86	60.766
744.18	53.110
744.49	59.574
744.80	58.152
745.12	67.380
745.43	60.000
745.74	61.979
746.06	55.610
746.37	59.162
746.68	58.294
747.00	56.915
747.31	63.184
747.62	54.854
747.94	58.373
748.25	65.842
748.56	64.481
748.88	57.068
749.19	59.574
749.50	62.069
749.82	58.019
750.13	53.211
750.44	67.669
750.75	65.672
751.07	61.314
751.38	55.939
751.69	59.608
752.01	62.016
752.32	56.972
752.63	54.941
752.94	61.638
753.26	64.017
753.57	57.919
753.88	64.602
754.19	62.500
754.51	62.810
754.82	56.275
755.13	67.500
755.44	61.290
755.75	63.281
756.07	60.700
756.38	61.887
756.69	61.686
757.00	59.333
757.31	60.131
757.63	57.927
757.94	60.556
758.25	58.356
758.56	61.968
758.87	58.640
759.18	53.271
759.50	54.182
759.81	59.532
760.12	61.290
760.43	60.606
760.74	64.815
761.05	65.538
761.36	58.807
761.67	58.788
761.99	62.245
762.30	56.364
762.61	59.684
762.92	53.846
763.23	61.712
763.54	58.879
763.85	65.678
764.16	58.091
764.47	62.097
764.78	60.073
765.10	62.290
765.41	62.461
765.72	58.413
766.03	59.774
766.34	56.569
766.65	60.558
766.96	58.081
767.27	58.511
767.58	54.023
767.89	60.284
768.20	60.795
768.51	57.143
768.82	57.143
769.13	53.456
769.44	54.506
769.75	60.731
770.06	54.741
770.37	58.173
770.68	56.345
770.99	56.561
771.30	65.196
771.61	57.014
771.92	66.379
772.23	62.562
772.54	60.753
772.85	61.728
773.16	59.551
773.47	65.359
773.78	58.170
774.09	52.695
774.39	56.667
774.70	51.592
775.01	59.310
775.32	49.286
775.63	52.893
775.94	55.725
776.25	56.693
776.56	53.333
776.87	70.192
777.18	43.590
777.48	52.586
777.79	46.957
778.10	60.952
778.41	57.658
778.72	57.937
779.03	54.135
779.34	63.121
779.65	54.795
779.95	44.521
780.26	48.966
780.57	52.033
780.88	54.331
781.19	53.448
781.50	62.016
781.80	56.213
782.11	49.057
782.42	60.769
782.73	48.921
783.04	61.481
783.34	40.972
783.65	48.718
783.96	63.115
784.27	60.690
784.57	50.407
784.88	53.906
785.19	64.000
785.50	65.000
785.81	56.034
786.11	56.897
786.42	61.165
786.73	53.636
787.04	56.122
787.34	40.179
787.65	56.190
787.96	49.558
788.26	58.182
788.57	55.556
788.88	58.594
789.19	55.556
789.49	56.522
789.80	64.286
790.11	51.515
790.41	44.545
790.72	63.043
791.03	52.273
791.33	55.000
791.64	51.250
791.95	51.163
792.25	52.128
792.56	64.045
792.87	45.205
793.17	55.072
793.48	48.000
793.79	38.750
794.09	68.750
794.40	57.547
794.70	55.340
795.01	47.154
795.32	51.282
795.62	55.238
795.93	55.882
796.23	59.434
796.54	47.917
796.85	54.412
797.15	40.845
797.46	45.833
797.76	63.636
798.07	39.535
798.37	46.053
798.68	45.455
798.99	51.852
799.29	60.000
799.60	47.826
799.90	49.333
800.21	57.377
800.51	50.769
800.82	52.542
801.12	52.174
801.43	54.098
801.73	68.254
802.04	66.000
802.34	41.791
802.65	59.615
802.95	46.429
803.26	48.077
803.56	72.549
803.87	43.478
804.17	54.667
804.48	65.079
804.78	50.000
805.09	56.522
805.39	44.444
805.70	57.407
806.00	19.298
806.30	28.169
806.61	68.571
806.91	37.500
807.22	46.053
807.52	49.333
807.83	56.364
808.13	58.333
808.43	57.353
808.74	47.761
809.04	45.763
809.35	38.462
809.65	40.625
809.95	64.865
810.26	50.000
810.56	47.945
810.86	73.810
811.17	50.000
811.47	48.980
811.77	65.789
812.08	47.727
812.38	43.396
812.69	45.000
812.99	39.394
813.29	52.632
813.59	40.000
813.90	29.545
814.20	46.154
814.50	55.769
814.81	73.585
815.11	44.681
815.41	38.983
815.72	66.667
816.02	50.980
816.32	39.583
816.62	36.585
816.93	24.324
817.23	57.143
817.53	54.167
817.84	19.565
818.14	36.538
818.44	36.842
818.74	39.130
819.04	2.500
819.35	43.243
819.65	35.294
819.95	41.667
820.25	33.333
820.56	55.000
820.86	24.138
821.16	57.500
821.46	31.915
821.76	62.500
822.07	48.837
822.37	13.514
822.67	50.000
822.97	52.381
823.27	39.286
823.57	44.000
823.88	29.630
824.18	35.714
824.48	14.706
824.78	41.935
825.08	39.130
825.38	33.333
825.69	12.500
825.99	23.684
826.29	41.667
826.59	40.000
826.89	0.000
827.19	13.043
827.49	30.000
827.79	60.000
828.09	64.286
828.39	72.727
828.70	83.784
829.00	25.000
829.30	61.905
829.60	60.000
829.90	25.000
830.20	15.789
830.50	40.741
830.80	4.348
831.10	36.364
831.40	33.333
831.70	45.161
832.00	52.381
832.30	19.048
832.60	75.000
832.90	20.690
833.20	20.000
833.50	75.758
833.80	37.037
834.10	38.462
834.40	62.500
834.70	33.333
835.00	73.684
835.30	107.692
835.60	100.000
835.90	51.613
836.20	36.364
836.50	64.286
836.80	-11.538
837.10	3.571
837.40	-366.667
837.70	45.455
838.00	0.000
838.30	34.783
838.60	38.462
838.90	36.364
839.19	42.857
839.49	53.333
839.79	53.846
840.09	33.333
840.39	42.857
840.69	32.143
840.99	46.154
841.29	31.579
841.59	0.000
841.88	109.091
842.18	120.000
842.48	81.250
842.78	13.333
843.08	51.852
843.38	-70.000
843.68	47.826
843.97	26.667
844.27	-13.333
844.57	0.000
844.87	11.111
845.17	38.095
845.47	106.667
845.76	42.857
846.06	35.294
846.36	20.000
846.66	0.000
846.96	73.333
847.25	-25.000
847.55	0.000
847.85	-12.500
848.15	-13.636
848.44	-266.667
848.74	10.000
849.04	55.556
849.34	36.364
849.63	50.000
849.93	-220.000
850.23	-5.556
850.53	20.000
850.82	7.692
851.12	-77.778
851.42	46.667
851.71	3.846
852.01	14.286
852.31	75.000
852.61	36.364
852.90	15.000
853.20	26.316
853.50	8.333
853.79	30.435
854.09	58.333
854.39	105.263
854.68	54.167
854.98	58.065
855.28	73.077
855.57	45.000
855.87	27.778
856.17	74.074
856.46	128.571
856.76	40.000
857.05	66.667
857.35	28.000
857.65	66.667
857.94	15.385
858.24	55.172
858.53	72.222
858.83	25.926
859.13	0.000
859.42	39.130
859.72	-300.000
860.01	-333.333
860.31	88.000
860.60	19.048
860.90	33.333
861.20	60.000
861.49	-550.000
861.79	6.667
862.08	50.000
862.38	113.333
862.67	40.000
862.97	50.000
863.26	33.333
863.56	38.889
863.85	-500.000
864.15	22.222
864.44	30.000
864.74	107.143
865.03	-25.000
865.33	-160.000
865.62	-16.667
865.92	-8.333
866.21	-50.000
866.51	6.250
866.80	-27.273
867.10	-300.000
867.39	108.333
867.69	0.000
867.98	61.538
868.27	66.667
868.57	33.333
868.86	33.333
869.16	-53.846
869.45	100.000
869.75	-500.000
870.04	0.000
870.33	28.571
870.63	57.143
870.92	166.667
871.22	-220.000
871.51	-300.000
871.80	100.000
872.10	300.000
>>>>>End Processed Spectral Data<<<<<
