SpectraSuite Data File
++++++++++++++++++++++++++++++++++++
Date: Fri May 15 17:25:18 PDT 2015
User: schluterlab
Dark Spectrum Present: Yes
Reference Spectrum Present: Yes
Number of Sampled Component Spectra: 1
Spectrometers: USB2E3373
Integration Time (usec): 3000 (USB2E3373)
Spectra Averaged: 3 (USB2E3373)
Boxcar Smoothing: 0 (USB2E3373)
Correct for Electrical Dark: No (USB2E3373)
Strobe/Lamp Enabled: No (USB2E3373)
Correct for Detector Non-linearity: No (USB2E3373)
Correct for Stray Light: No (USB2E3373)
Number of Pixels in Processed Spectrum: 2048
>>>>>Begin Processed Spectral Data<<<<<
178.53	0.000
178.91	0.000
179.29	112.500
179.67	-250.000
180.04	-14.286
180.42	-50.000
180.80	-100.000
181.18	-66.667
181.56	600.000
181.94	200.000
182.31	300.000
182.69	260.000
183.07	-100.000
183.45	0.000
183.83	200.000
184.20	9.091
184.58	11.111
184.96	-0.000
185.34	-166.667
185.72	-600.000
186.09	46.154
186.47	-300.000
186.85	16.667
187.23	111.111
187.61	-800.000
187.98	-66.667
188.36	77.778
188.74	-166.667
189.12	47.059
189.49	50.000
189.87	0.000
190.25	42.857
190.63	400.000
191.00	-33.333
191.38	-10.526
191.76	750.000
192.14	175.000
192.51	500.000
192.89	-66.667
193.27	-28.571
193.65	83.333
194.02	154.545
194.40	10.000
194.78	-150.000
195.15	-16.667
195.53	75.000
195.91	450.000
196.29	-100.000
196.66	115.385
197.04	42.857
197.42	-11.111
197.79	-366.667
198.17	-15.385
198.55	1300.000
198.92	-66.667
199.30	-700.000
199.68	-180.000
200.05	-233.333
200.43	0.000
200.81	366.667
201.18	66.667
201.56	700.000
201.94	-300.000
202.31	-300.000
202.69	-60.000
203.07	-175.000
203.44	100.000
203.82	0.000
204.19	42.857
204.57	-100.000
204.95	150.000
205.32	90.000
205.70	100.000
206.08	350.000
206.45	200.000
206.83	57.143
207.20	-57.143
207.58	100.000
207.96	-166.667
208.33	-50.000
208.71	-25.000
209.08	-83.333
209.46	-300.000
209.84	-100.000
210.21	-800.000
210.59	71.429
210.96	300.000
211.34	175.000
211.71	66.667
212.09	-14.286
212.46	-1500.000
212.84	0.000
213.22	140.000
213.59	350.000
213.97	53.846
214.34	-9.091
214.72	-166.667
215.09	275.000
215.47	-84.615
215.84	-18.182
216.22	-33.333
216.59	37.500
216.97	-200.000
217.34	-50.000
217.72	-80.000
218.09	87.500
218.47	162.500
218.84	-1100.000
219.22	-11.111
219.59	20.000
219.97	466.667
220.34	175.000
220.72	-85.714
221.09	-50.000
221.47	-200.000
221.84	-100.000
222.22	200.000
222.59	18.182
222.97	33.333
223.34	-666.667
223.72	64.286
224.09	42.857
224.46	7.143
224.84	66.667
225.21	-30.000
225.59	13.333
225.96	150.000
226.34	275.000
226.71	-71.429
227.08	-16.667
227.46	100.000
227.83	-850.000
228.21	100.000
228.58	127.273
228.95	12.500
229.33	-0.000
229.70	-6.250
230.08	12.500
230.45	-28.571
230.82	57.143
231.20	13.333
231.57	35.714
231.95	14.286
232.32	-100.000
232.69	57.143
233.07	66.667
233.44	-40.000
233.81	-100.000
234.19	133.333
234.56	23.529
234.93	150.000
235.31	-75.000
235.68	-240.000
236.05	15.385
236.43	-10.000
236.80	-5.882
237.17	3.125
237.55	15.000
237.92	0.000
238.29	5.556
238.67	20.000
239.04	14.706
239.41	-24.390
239.79	-23.333
240.16	12.195
240.53	-15.789
240.91	6.522
241.28	11.111
241.65	32.143
242.02	21.918
242.40	10.000
242.77	0.000
243.14	-3.030
243.51	-6.250
243.89	2.299
244.26	2.299
244.63	-1.190
245.00	2.062
245.38	3.093
245.75	1.124
246.12	6.034
246.49	13.223
246.87	5.769
247.24	-5.882
247.61	-4.386
247.98	4.065
248.36	3.750
248.73	1.974
249.10	1.299
249.47	8.861
249.84	-0.654
250.22	10.000
250.59	5.882
250.96	9.859
251.33	7.558
251.70	4.706
252.08	5.584
252.45	6.436
252.82	6.533
253.19	9.677
253.56	-0.467
253.94	2.252
254.31	5.217
254.68	7.895
255.05	7.087
255.42	4.367
255.79	6.950
256.16	8.560
256.54	8.582
256.91	5.323
257.28	3.717
257.65	6.367
258.02	3.191
258.39	5.051
258.76	5.861
259.14	7.641
259.51	8.414
259.88	1.718
260.25	6.209
260.62	7.292
260.99	3.051
261.36	-0.685
261.73	6.013
262.10	5.167
262.47	4.908
262.85	4.389
263.22	5.538
263.59	6.542
263.96	6.832
264.33	3.030
264.70	4.762
265.07	4.167
265.44	3.966
265.81	8.192
266.18	6.284
266.55	7.198
266.92	4.663
267.29	7.311
267.66	4.859
268.03	6.545
268.40	4.178
268.77	9.091
269.14	8.153
269.51	7.712
269.88	5.237
270.25	4.592
270.62	5.854
270.99	3.325
271.36	2.934
271.73	4.460
272.10	3.893
272.47	4.255
272.84	5.693
273.21	5.568
273.58	6.265
273.95	7.094
274.32	3.002
274.69	0.905
275.06	7.589
275.43	4.535
275.80	4.857
276.17	3.678
276.54	5.567
276.91	5.263
277.28	3.057
277.65	5.992
278.02	5.319
278.39	4.595
278.76	4.403
279.13	1.452
279.50	6.303
279.87	5.400
280.23	3.441
280.60	5.458
280.97	4.646
281.34	5.192
281.71	5.339
282.08	3.885
282.45	3.914
282.82	4.054
283.19	3.675
283.56	5.010
283.92	2.467
284.29	4.231
284.66	3.682
285.03	6.680
285.40	3.781
285.77	4.569
286.14	3.430
286.51	5.720
286.87	4.570
287.24	5.341
287.61	3.351
287.98	5.439
288.35	3.813
288.72	4.378
289.08	3.472
289.45	5.624
289.82	4.895
290.19	2.901
290.56	3.087
290.93	4.377
291.29	4.006
291.66	5.039
292.03	2.552
292.40	3.387
292.77	3.349
293.13	2.110
293.50	2.276
293.87	5.038
294.24	3.709
294.60	4.769
294.97	5.060
295.34	4.448
295.71	4.620
296.08	5.381
296.44	1.707
296.81	4.306
297.18	3.768
297.55	4.607
297.91	4.795
298.28	8.179
298.65	4.749
299.02	3.100
299.38	2.326
299.75	3.724
300.12	3.665
300.48	2.503
300.85	5.450
301.22	3.506
301.59	2.368
301.95	3.038
302.32	4.021
302.69	4.851
303.05	4.579
303.42	3.362
303.79	3.154
304.15	4.659
304.52	3.092
304.89	1.988
305.25	3.148
305.62	3.501
305.99	2.339
306.35	1.618
306.72	2.925
307.09	3.649
307.45	3.904
307.82	2.662
308.19	4.065
308.55	2.617
308.92	4.248
309.29	2.905
309.65	3.337
310.02	3.630
310.38	3.622
310.75	4.262
311.12	4.521
311.48	3.075
311.85	4.084
312.22	2.954
312.58	2.654
312.95	2.882
313.31	2.277
313.68	3.874
314.05	2.551
314.41	3.299
314.78	3.093
315.14	3.494
315.51	4.555
315.87	3.893
316.24	5.561
316.61	6.004
316.97	3.671
317.34	3.906
317.70	4.015
318.07	4.231
318.43	4.706
318.80	3.598
319.16	3.711
319.53	4.653
319.89	5.413
320.26	4.858
320.62	6.118
320.99	3.445
321.35	4.419
321.72	5.296
322.08	5.136
322.45	5.888
322.81	4.813
323.18	5.496
323.54	4.923
323.91	5.842
324.27	6.348
324.64	6.461
325.00	6.661
325.37	7.713
325.73	4.805
326.10	6.994
326.46	7.713
326.83	7.087
327.19	6.277
327.56	7.124
327.92	7.218
328.29	7.500
328.65	6.887
329.01	8.456
329.38	7.373
329.74	6.232
330.11	9.082
330.47	7.328
330.84	7.596
331.20	8.270
331.56	8.611
331.93	8.858
332.29	8.524
332.66	7.602
333.02	9.015
333.38	9.166
333.75	9.341
334.11	8.774
334.48	8.704
334.84	9.432
335.20	8.417
335.57	8.976
335.93	9.666
336.29	8.195
336.66	8.265
337.02	7.621
337.38	8.519
337.75	9.182
338.11	10.099
338.47	9.215
338.84	9.242
339.20	9.232
339.56	9.633
339.93	9.400
340.29	9.725
340.65	10.305
341.02	10.018
341.38	9.823
341.74	8.569
342.11	7.972
342.47	8.986
342.83	10.640
343.20	9.843
343.56	9.478
343.92	9.212
344.28	9.991
344.65	9.240
345.01	9.162
345.37	10.008
345.73	9.874
346.10	9.664
346.46	9.504
346.82	8.920
347.19	8.728
347.55	10.526
347.91	10.194
348.27	9.054
348.63	9.625
349.00	9.106
349.36	8.728
349.72	10.282
350.08	9.672
350.45	9.338
350.81	9.053
351.17	9.853
351.53	9.388
351.89	8.175
352.26	9.040
352.62	9.677
352.98	9.799
353.34	9.340
353.70	10.275
354.07	9.919
354.43	9.287
354.79	8.836
355.15	10.476
355.51	10.285
355.87	9.223
356.24	9.462
356.60	10.105
356.96	10.794
357.32	10.144
357.68	10.321
358.04	9.532
358.40	10.611
358.77	10.686
359.13	9.928
359.49	10.092
359.85	10.296
360.21	9.888
360.57	10.329
360.93	10.514
361.29	10.498
361.66	9.953
362.02	10.227
362.38	10.282
362.74	10.144
363.10	10.609
363.46	10.007
363.82	12.171
364.18	10.627
364.54	10.000
364.90	9.821
365.26	10.844
365.62	11.752
365.98	11.437
366.35	11.435
366.71	11.013
367.07	11.466
367.43	10.424
367.79	11.095
368.15	10.983
368.51	11.143
368.87	10.768
369.23	11.264
369.59	10.714
369.95	11.584
370.31	11.705
370.67	11.791
371.03	10.605
371.39	10.868
371.75	11.429
372.11	12.126
372.47	12.352
372.83	11.710
373.19	12.482
373.55	12.347
373.91	12.023
374.27	12.332
374.63	12.276
374.99	11.702
375.35	12.604
375.71	13.287
376.07	12.851
376.42	12.449
376.78	13.490
377.14	12.729
377.50	12.683
377.86	12.651
378.22	13.338
378.58	12.821
378.94	12.917
379.30	13.600
379.66	13.981
380.02	12.998
380.38	13.634
380.74	13.046
381.09	14.233
381.45	13.823
381.81	13.695
382.17	14.023
382.53	14.054
382.89	14.313
383.25	14.499
383.61	14.878
383.97	15.048
384.32	14.759
384.68	14.799
385.04	14.522
385.40	14.624
385.76	15.849
386.12	15.847
386.48	15.453
386.83	16.170
387.19	16.117
387.55	16.311
387.91	15.342
388.27	15.140
388.62	16.551
388.98	16.268
389.34	16.115
389.70	17.340
390.06	15.041
390.42	15.933
390.77	16.220
391.13	15.700
391.49	16.171
391.85	16.244
392.20	16.635
392.56	16.211
392.92	17.381
393.28	16.863
393.64	17.417
393.99	17.743
394.35	17.457
394.71	17.050
395.07	17.410
395.42	17.122
395.78	17.524
396.14	18.852
396.50	18.199
396.85	17.772
397.21	17.857
397.57	18.182
397.92	18.035
398.28	18.046
398.64	18.554
399.00	19.018
399.35	18.172
399.71	18.553
400.07	19.045
400.42	17.931
400.78	18.983
401.14	18.693
401.49	18.642
401.85	18.769
402.21	19.036
402.57	18.438
402.92	18.507
403.28	20.050
403.63	19.231
403.99	19.643
404.35	19.863
404.70	18.214
405.06	19.389
405.42	19.142
405.77	19.349
406.13	18.335
406.49	18.413
406.84	19.377
407.20	20.530
407.55	18.802
407.91	19.051
408.27	19.057
408.62	20.677
408.98	20.086
409.34	19.145
409.69	20.220
410.05	18.966
410.40	20.741
410.76	20.024
411.11	19.875
411.47	20.973
411.83	19.460
412.18	20.463
412.54	19.850
412.89	20.012
413.25	20.096
413.60	20.000
413.96	20.613
414.31	20.244
414.67	20.141
415.03	19.507
415.38	20.757
415.74	21.173
416.09	21.424
416.45	21.472
416.80	20.886
417.16	21.685
417.51	21.586
417.87	21.056
418.22	21.438
418.58	20.669
418.93	21.630
419.29	19.654
419.64	20.415
420.00	22.355
420.35	20.955
420.71	21.081
421.06	21.056
421.42	22.416
421.77	21.908
422.12	21.396
422.48	21.278
422.83	22.390
423.19	22.065
423.54	22.163
423.90	21.555
424.25	22.847
424.61	22.766
424.96	22.242
425.31	22.588
425.67	22.535
426.02	22.379
426.38	23.043
426.73	22.639
427.09	23.797
427.44	22.706
427.79	23.335
428.15	23.604
428.50	22.229
428.85	23.157
429.21	23.033
429.56	24.151
429.92	23.164
430.27	23.609
430.62	23.471
430.98	23.885
431.33	23.081
431.68	23.653
432.04	23.644
432.39	23.274
432.74	23.031
433.10	24.253
433.45	24.134
433.80	24.956
434.16	23.657
434.51	24.140
434.86	24.274
435.22	25.294
435.57	24.080
435.92	24.072
436.28	24.270
436.63	24.929
436.98	24.508
437.34	24.864
437.69	25.581
438.04	25.698
438.39	25.535
438.75	25.076
439.10	25.806
439.45	25.320
439.81	25.443
440.16	25.772
440.51	25.433
440.86	25.136
441.22	24.774
441.57	25.993
441.92	26.600
442.27	25.998
442.63	26.552
442.98	25.962
443.33	25.042
443.68	25.729
444.03	26.279
444.39	25.922
444.74	26.700
445.09	26.392
445.44	26.439
445.79	27.127
446.15	26.487
446.50	26.068
446.85	26.780
447.20	25.860
447.55	26.842
447.91	26.227
448.26	26.693
448.61	27.116
448.96	27.424
449.31	27.110
449.66	26.829
450.02	26.070
450.37	26.734
450.72	26.460
451.07	27.722
451.42	26.030
451.77	27.306
452.12	25.897
452.47	26.529
452.83	26.973
453.18	27.198
453.53	27.181
453.88	27.505
454.23	26.122
454.58	27.456
454.93	28.093
455.28	26.921
455.63	28.146
455.98	28.503
456.34	26.948
456.69	27.700
457.04	28.103
457.39	27.764
457.74	26.723
458.09	26.486
458.44	26.273
458.79	26.891
459.14	28.032
459.49	28.597
459.84	28.144
460.19	27.913
460.54	28.606
460.89	27.386
461.24	27.578
461.59	27.910
461.94	27.233
462.29	26.297
462.64	28.970
462.99	28.436
463.34	27.608
463.69	27.349
464.04	28.632
464.39	26.258
464.74	27.117
465.09	28.883
465.44	28.102
465.79	27.778
466.14	28.107
466.49	27.372
466.84	27.365
467.19	27.660
467.54	27.522
467.89	27.922
468.24	28.224
468.59	28.254
468.94	28.190
469.29	29.443
469.64	27.956
469.99	28.451
470.34	27.782
470.68	28.561
471.03	29.866
471.38	28.174
471.73	28.852
472.08	28.833
472.43	28.389
472.78	27.553
473.13	28.707
473.48	28.599
473.83	28.269
474.17	28.497
474.52	27.951
474.87	28.364
475.22	28.371
475.57	28.346
475.92	30.005
476.27	29.278
476.61	28.993
476.96	27.775
477.31	28.989
477.66	27.978
478.01	28.636
478.36	28.649
478.70	28.276
479.05	30.000
479.40	28.458
479.75	28.676
480.10	28.520
480.45	29.050
480.79	29.557
481.14	29.355
481.49	28.227
481.84	28.813
482.19	28.204
482.53	28.441
482.88	28.544
483.23	28.551
483.58	27.830
483.92	28.461
484.27	28.213
484.62	27.970
484.97	27.695
485.31	28.215
485.66	27.405
486.01	27.421
486.36	26.940
486.70	27.333
487.05	26.915
487.40	27.353
487.75	27.718
488.09	26.916
488.44	27.545
488.79	27.867
489.13	28.606
489.48	28.388
489.83	28.206
490.17	28.494
490.52	28.730
490.87	28.043
491.22	29.226
491.56	28.748
491.91	28.298
492.26	29.071
492.60	29.367
492.95	29.808
493.30	27.162
493.64	29.470
493.99	28.744
494.34	28.301
494.68	29.048
495.03	28.078
495.37	28.803
495.72	28.925
496.07	29.854
496.41	28.726
496.76	28.881
497.11	28.225
497.45	29.499
497.80	30.071
498.14	29.011
498.49	28.898
498.84	28.842
499.18	29.920
499.53	29.266
499.87	29.426
500.22	30.069
500.56	29.551
500.91	29.568
501.26	28.571
501.60	29.415
501.95	29.840
502.29	29.007
502.64	29.730
502.98	29.946
503.33	28.626
503.67	29.301
504.02	29.472
504.36	29.985
504.71	28.535
505.06	28.787
505.40	29.188
505.75	29.485
506.09	28.789
506.44	30.236
506.78	29.898
507.13	29.059
507.47	28.616
507.82	29.380
508.16	30.111
508.51	30.010
508.85	30.926
509.19	29.537
509.54	30.938
509.88	29.989
510.23	30.662
510.57	30.465
510.92	29.211
511.26	30.769
511.61	31.188
511.95	30.630
512.30	30.543
512.64	30.217
512.98	31.162
513.33	31.281
513.67	31.609
514.02	32.265
514.36	31.600
514.70	32.984
515.05	32.726
515.39	30.815
515.74	31.796
516.08	31.859
516.42	32.568
516.77	31.539
517.11	32.047
517.46	31.538
517.80	32.062
518.14	32.578
518.49	32.332
518.83	33.111
519.17	31.413
519.52	31.557
519.86	31.513
520.20	32.078
520.55	31.144
520.89	33.563
521.23	32.236
521.58	33.375
521.92	32.564
522.26	32.596
522.61	32.922
522.95	33.709
523.29	32.910
523.64	33.291
523.98	32.858
524.32	32.410
524.66	33.867
525.01	33.701
525.35	33.312
525.69	33.199
526.04	32.540
526.38	34.436
526.72	31.720
527.06	32.750
527.41	33.773
527.75	32.373
528.09	32.226
528.43	34.369
528.78	33.069
529.12	33.871
529.46	32.814
529.80	33.376
530.15	34.323
530.49	33.468
530.83	34.200
531.17	32.236
531.51	33.721
531.86	31.679
532.20	32.707
532.54	33.560
532.88	34.018
533.22	34.073
533.57	34.404
533.91	33.225
534.25	34.570
534.59	32.264
534.93	32.159
535.27	32.614
535.62	33.377
535.96	33.725
536.30	33.311
536.64	34.045
536.98	32.822
537.32	34.495
537.66	34.432
538.01	34.895
538.35	33.842
538.69	33.688
539.03	33.151
539.37	34.657
539.71	33.129
540.05	33.809
540.39	34.280
540.73	33.821
541.07	34.669
541.42	34.812
541.76	34.618
542.10	33.448
542.44	34.607
542.78	32.553
543.12	32.143
543.46	34.910
543.80	33.033
544.14	32.043
544.48	33.578
544.82	33.288
545.16	33.880
545.50	33.511
545.84	35.411
546.18	34.894
546.52	34.463
546.86	34.867
547.20	34.263
547.54	33.286
547.88	34.647
548.22	33.136
548.56	34.631
548.90	34.434
549.24	33.815
549.58	34.274
549.92	33.738
550.26	33.626
550.60	35.539
550.94	35.773
551.28	34.853
551.62	35.769
551.96	34.962
552.30	34.137
552.64	35.261
552.98	34.107
553.32	34.023
553.66	33.817
554.00	35.766
554.34	35.081
554.68	34.145
555.02	34.747
555.36	34.779
555.69	34.212
556.03	34.047
556.37	34.093
556.71	35.018
557.05	35.720
557.39	34.498
557.73	35.232
558.07	36.350
558.41	35.605
558.75	35.308
559.08	35.303
559.42	35.952
559.76	36.349
560.10	35.321
560.44	34.103
560.78	35.245
561.12	34.556
561.45	34.996
561.79	35.364
562.13	35.273
562.47	34.964
562.81	36.527
563.15	34.908
563.48	34.866
563.82	35.072
564.16	36.072
564.50	34.392
564.84	34.404
565.17	34.339
565.51	35.383
565.85	35.048
566.19	34.947
566.52	35.858
566.86	35.219
567.20	33.748
567.54	34.428
567.88	35.149
568.21	34.955
568.55	33.804
568.89	34.189
569.23	34.088
569.56	33.231
569.90	32.562
570.24	33.160
570.57	33.091
570.91	32.590
571.25	32.456
571.59	31.454
571.92	31.585
572.26	31.371
572.60	32.000
572.93	31.974
573.27	31.975
573.61	31.384
573.95	32.141
574.28	31.276
574.62	31.121
574.96	30.616
575.29	30.994
575.63	30.060
575.97	30.767
576.30	30.700
576.64	30.861
576.98	32.381
577.31	31.556
577.65	31.353
577.98	31.805
578.32	31.032
578.66	30.819
578.99	31.048
579.33	30.777
579.67	31.088
580.00	31.418
580.34	31.542
580.67	31.330
581.01	31.316
581.35	30.922
581.68	31.136
582.02	31.070
582.35	30.548
582.69	31.301
583.02	30.998
583.36	31.299
583.70	32.269
584.03	32.277
584.37	32.665
584.70	32.170
585.04	31.425
585.37	31.769
585.71	31.350
586.04	31.770
586.38	31.795
586.72	32.941
587.05	32.525
587.39	32.625
587.72	33.461
588.06	32.715
588.39	32.469
588.73	32.845
589.06	32.942
589.40	33.667
589.73	33.735
590.07	34.177
590.40	34.056
590.73	34.761
591.07	34.733
591.40	34.105
591.74	34.796
592.07	34.276
592.41	34.408
592.74	33.971
593.08	33.007
593.41	33.641
593.75	33.399
594.08	32.647
594.41	33.115
594.75	33.702
595.08	33.220
595.42	34.008
595.75	34.735
596.09	34.636
596.42	34.560
596.75	34.192
597.09	34.533
597.42	35.095
597.75	34.540
598.09	34.269
598.42	34.612
598.76	34.406
599.09	33.814
599.42	33.687
599.76	33.710
600.09	33.446
600.42	33.927
600.76	33.135
601.09	33.664
601.42	33.999
601.76	33.545
602.09	34.571
602.42	35.762
602.76	34.720
603.09	34.925
603.42	35.744
603.76	33.831
604.09	33.617
604.42	34.602
604.76	35.470
605.09	34.872
605.42	34.808
605.75	34.676
606.09	34.140
606.42	34.529
606.75	35.238
607.09	34.637
607.42	34.116
607.75	34.103
608.08	34.771
608.42	34.171
608.75	36.048
609.08	35.874
609.41	35.939
609.75	35.685
610.08	35.597
610.41	35.652
610.74	35.202
611.07	35.866
611.41	36.741
611.74	36.620
612.07	35.332
612.40	36.324
612.73	36.271
613.07	35.602
613.40	36.160
613.73	35.870
614.06	35.559
614.39	36.153
614.72	36.134
615.06	35.698
615.39	35.371
615.72	36.114
616.05	36.145
616.38	34.929
616.71	36.758
617.05	36.442
617.38	35.701
617.71	36.415
618.04	37.333
618.37	38.209
618.70	37.690
619.03	38.542
619.36	36.686
619.69	38.969
620.03	37.619
620.36	37.482
620.69	38.258
621.02	38.303
621.35	39.004
621.68	39.796
622.01	37.833
622.34	39.425
622.67	38.249
623.00	37.672
623.33	38.034
623.66	38.743
623.99	38.124
624.32	38.403
624.65	36.466
624.99	37.998
625.32	38.817
625.65	39.120
625.98	39.645
626.31	38.736
626.64	40.121
626.97	39.965
627.30	40.105
627.63	38.908
627.96	39.533
628.29	40.611
628.62	42.281
628.95	39.379
629.28	41.331
629.61	40.678
629.94	40.958
630.26	41.107
630.59	43.288
630.92	39.795
631.25	40.513
631.58	42.291
631.91	40.680
632.24	39.335
632.57	42.727
632.90	42.467
633.23	42.353
633.56	43.199
633.89	42.540
634.22	43.333
634.55	43.583
634.88	41.762
635.20	43.462
635.53	44.133
635.86	42.653
636.19	43.467
636.52	42.985
636.85	42.680
637.18	40.252
637.51	41.258
637.83	41.524
638.16	44.065
638.49	42.234
638.82	42.632
639.15	43.826
639.48	44.567
639.81	42.538
640.13	44.589
640.46	45.335
640.79	44.035
641.12	43.722
641.45	44.144
641.77	48.296
642.10	48.183
642.43	46.141
642.76	44.719
643.09	45.073
643.41	42.557
643.74	44.316
644.07	45.484
644.40	46.791
644.73	47.285
645.05	45.973
645.38	47.619
645.71	43.972
646.04	47.397
646.36	44.681
646.69	47.842
647.02	47.637
647.35	49.067
647.67	43.693
648.00	47.575
648.33	46.246
648.66	47.458
648.98	44.389
649.31	43.471
649.64	45.526
649.96	42.139
650.29	48.552
650.62	45.641
650.94	49.259
651.27	45.996
651.60	48.468
651.92	47.552
652.25	42.984
652.58	44.333
652.90	47.341
653.23	45.882
653.56	44.162
653.88	45.533
654.21	43.082
654.54	44.312
654.86	45.331
655.19	44.006
655.52	40.635
655.84	34.719
656.17	38.065
656.49	51.313
656.82	53.680
657.15	40.854
657.47	30.491
657.80	22.844
658.13	22.634
658.45	35.807
658.78	35.509
659.10	35.578
659.43	36.600
659.75	38.777
660.08	39.586
660.41	42.799
660.73	43.923
661.06	46.620
661.38	46.380
661.71	44.764
662.03	48.283
662.36	50.330
662.68	44.469
663.01	51.092
663.33	45.708
663.66	47.442
663.98	49.535
664.31	48.188
664.63	48.157
664.96	44.130
665.28	43.488
665.61	48.052
665.93	50.000
666.26	50.759
666.58	47.427
666.91	49.412
667.23	50.000
667.56	48.104
667.88	47.962
668.21	50.358
668.53	53.191
668.86	51.651
669.18	49.292
669.50	46.489
669.83	48.140
670.15	48.019
670.48	48.804
670.80	50.000
671.13	50.336
671.45	48.174
671.77	47.854
672.10	46.733
672.42	45.880
672.75	45.648
673.07	47.227
673.39	46.972
673.72	42.012
674.04	43.750
674.37	47.669
674.69	42.612
675.01	47.111
675.34	49.775
675.66	47.454
675.98	47.007
676.31	47.477
676.63	48.694
676.95	47.500
677.28	52.471
677.60	47.952
677.92	47.248
678.25	47.046
678.57	49.134
678.89	46.008
679.22	47.875
679.54	44.779
679.86	44.334
680.18	46.019
680.51	46.970
680.83	44.135
681.15	46.600
681.48	47.746
681.80	47.934
682.12	46.976
682.44	47.071
682.77	49.890
683.09	47.826
683.41	47.727
683.73	52.074
684.06	47.345
684.38	47.097
684.70	46.405
685.02	46.473
685.34	45.059
685.67	47.092
685.99	46.293
686.31	45.310
686.63	46.011
686.96	42.395
687.28	45.657
687.60	43.536
687.92	49.899
688.24	47.379
688.56	49.563
688.89	48.884
689.21	46.889
689.53	49.652
689.85	48.372
690.17	46.205
690.49	46.572
690.82	47.573
691.14	50.714
691.46	47.196
691.78	50.000
692.10	47.742
692.42	44.805
692.74	47.436
693.06	49.775
693.39	49.321
693.71	48.190
694.03	46.651
694.35	46.495
694.67	47.980
694.99	46.997
695.31	48.564
695.63	50.000
695.95	46.717
696.27	48.705
696.59	50.000
696.91	47.059
697.23	47.301
697.56	52.475
697.88	44.946
698.20	47.836
698.52	48.941
698.84	44.019
699.16	47.750
699.48	49.624
699.80	46.650
700.12	49.326
700.44	48.739
700.76	51.453
701.08	47.273
701.40	53.313
701.72	54.630
702.04	52.805
702.36	55.518
702.68	47.447
703.00	51.515
703.32	49.560
703.64	44.915
703.96	51.014
704.28	52.454
704.60	51.746
704.91	50.158
705.23	49.169
705.55	56.537
705.87	54.874
706.19	52.593
706.51	51.890
706.83	52.733
707.15	45.171
707.47	50.140
707.79	47.656
708.11	48.500
708.43	49.000
708.74	45.995
709.06	55.775
709.38	50.765
709.70	50.000
710.02	46.497
710.34	51.393
710.66	51.282
710.98	49.007
711.29	47.869
711.61	49.492
711.93	50.163
712.25	51.890
712.57	51.648
712.89	53.731
713.20	54.671
713.52	44.599
713.84	50.171
714.16	50.859
714.48	53.548
714.80	48.397
715.11	50.152
715.43	44.514
715.75	50.333
716.07	47.508
716.39	46.644
716.70	52.768
717.02	48.092
717.34	51.822
717.66	55.310
717.97	51.304
718.29	52.301
718.61	52.362
718.93	48.062
719.24	54.373
719.56	51.807
719.88	50.172
720.20	51.136
720.51	51.341
720.83	52.510
721.15	60.084
721.46	53.629
721.78	42.688
722.10	44.610
722.42	46.888
722.73	54.286
723.05	53.061
723.37	57.627
723.68	57.658
724.00	51.709
724.32	53.778
724.63	54.545
724.95	51.092
725.27	56.221
725.58	50.000
725.90	44.841
726.22	54.826
726.53	50.847
726.85	54.682
727.16	52.453
727.48	47.773
727.80	54.251
728.11	48.729
728.43	43.922
728.74	50.806
729.06	52.400
729.38	51.504
729.69	49.004
730.01	43.846
730.32	48.881
730.64	51.237
730.96	51.698
731.27	46.333
731.59	48.475
731.90	45.541
732.22	49.211
732.53	52.824
732.85	47.872
733.16	51.178
733.48	46.043
733.80	49.638
734.11	49.831
734.43	48.454
734.74	45.758
735.06	45.277
735.37	48.640
735.69	48.485
736.00	43.554
736.32	45.638
736.63	47.535
736.95	47.099
737.26	48.754
737.58	47.315
737.89	46.886
738.21	48.120
738.52	56.790
738.83	55.895
739.15	42.358
739.46	48.425
739.78	46.154
740.09	43.464
740.41	47.101
740.72	46.063
741.04	46.964
741.35	51.915
741.66	47.867
741.98	54.592
742.29	51.485
742.61	54.974
742.92	46.445
743.23	50.926
743.55	54.751
743.86	49.761
744.18	46.890
744.49	50.532
744.80	58.152
745.12	60.428
745.43	47.317
745.74	51.562
746.06	51.707
746.37	58.115
746.68	51.659
747.00	51.064
747.31	58.706
747.62	49.029
747.94	55.981
748.25	52.970
748.56	57.923
748.88	53.403
749.19	58.511
749.50	53.202
749.82	45.755
750.13	47.248
750.44	50.752
750.75	54.478
751.07	51.460
751.38	53.257
751.69	47.059
752.01	47.674
752.32	47.809
752.63	48.221
752.94	53.017
753.26	51.883
753.57	49.321
753.88	46.018
754.19	49.583
754.51	54.959
754.82	50.202
755.13	55.417
755.44	54.032
755.75	53.906
756.07	52.918
756.38	48.679
756.69	47.893
757.00	46.000
757.31	47.059
757.63	46.646
757.94	45.556
758.25	45.753
758.56	43.351
758.87	43.909
759.18	46.106
759.50	50.545
759.81	49.833
760.12	47.419
760.43	48.788
760.74	45.679
761.05	48.000
761.36	46.023
761.67	50.000
761.99	48.299
762.30	46.545
762.61	50.198
762.92	48.869
763.23	53.604
763.54	50.935
763.85	48.729
764.16	46.888
764.47	47.984
764.78	43.590
765.10	50.168
765.41	47.634
765.72	46.667
766.03	45.113
766.34	47.445
766.65	50.199
766.96	54.545
767.27	45.745
767.58	51.149
767.89	48.936
768.20	45.455
768.51	46.154
768.82	48.768
769.13	44.240
769.44	47.639
769.75	49.315
770.06	46.983
770.37	48.558
770.68	51.777
770.99	46.606
771.30	53.431
771.61	46.154
771.92	48.707
772.23	50.739
772.54	59.140
772.85	59.259
773.16	48.876
773.47	61.438
773.78	50.980
774.09	39.521
774.39	48.667
774.70	49.682
775.01	50.345
775.32	49.286
775.63	52.893
775.94	60.305
776.25	60.630
776.56	57.500
776.87	63.462
777.18	57.265
777.48	52.586
777.79	49.565
778.10	48.571
778.41	43.243
778.72	54.762
779.03	51.880
779.34	49.645
779.65	52.055
779.95	40.411
780.26	58.621
780.57	55.285
780.88	48.819
781.19	56.897
781.50	58.915
781.80	46.154
782.11	40.881
782.42	48.462
782.73	50.360
783.04	48.889
783.34	43.056
783.65	46.154
783.96	59.836
784.27	53.793
784.57	50.407
784.88	46.094
785.19	56.000
785.50	60.000
785.81	42.241
786.11	54.310
786.42	46.602
786.73	60.000
787.04	47.959
787.34	48.214
787.65	52.381
787.96	46.903
788.26	56.364
788.57	47.009
788.88	44.531
789.19	42.857
789.49	48.696
789.80	59.184
790.11	49.495
790.41	36.364
790.72	54.348
791.03	54.545
791.33	63.750
791.64	48.750
791.95	39.535
792.25	39.362
792.56	57.303
792.87	53.425
793.17	62.319
793.48	48.000
793.79	35.000
794.09	66.250
794.40	50.943
794.70	40.777
795.01	46.341
795.32	49.573
795.62	50.476
795.93	47.059
796.23	52.830
796.54	37.500
796.85	57.353
797.15	54.930
797.46	62.500
797.76	63.636
798.07	52.326
798.37	39.474
798.68	62.121
798.99	46.914
799.29	44.286
799.60	50.725
799.90	44.000
800.21	50.820
800.51	55.385
800.82	57.627
801.12	47.826
801.43	44.262
801.73	60.317
802.04	42.000
802.34	40.299
802.65	76.923
802.95	44.643
803.26	50.000
803.56	66.667
803.87	36.957
804.17	54.667
804.48	55.556
804.78	44.444
805.09	45.652
805.39	64.444
805.70	61.111
806.00	21.053
806.30	57.746
806.61	50.000
806.91	43.056
807.22	57.895
807.52	52.000
807.83	38.182
808.13	51.389
808.43	45.588
808.74	46.269
809.04	55.932
809.35	53.846
809.65	39.063
809.95	5.405
810.26	54.545
810.56	32.877
810.86	52.381
811.17	46.000
811.47	51.020
811.77	57.895
812.08	63.636
812.38	37.736
812.69	80.000
812.99	39.394
813.29	52.632
813.59	31.429
813.90	50.000
814.20	53.846
814.50	48.077
814.81	47.170
815.11	27.660
815.41	66.102
815.72	52.381
816.02	47.059
816.32	56.250
816.62	39.024
816.93	54.054
817.23	80.000
817.53	41.667
817.84	43.478
818.14	50.000
818.44	44.737
818.74	67.391
819.04	-2.500
819.35	75.676
819.65	50.000
819.95	86.111
820.25	33.333
820.56	65.000
820.86	62.069
821.16	72.500
821.46	51.064
821.76	70.000
822.07	44.186
822.37	37.838
822.67	46.875
822.97	64.286
823.27	28.571
823.57	48.000
823.88	18.519
824.18	46.429
824.48	29.412
824.78	61.290
825.08	69.565
825.38	33.333
825.69	66.667
825.99	55.263
826.29	33.333
826.59	86.667
826.89	38.095
827.19	36.957
827.49	60.000
827.79	51.429
828.09	92.857
828.39	75.758
828.70	72.973
829.00	46.429
829.30	80.952
829.60	73.333
829.90	43.750
830.20	39.474
830.50	11.111
830.80	39.130
831.10	50.000
831.40	75.758
831.70	70.968
832.00	57.143
832.30	-19.048
832.60	33.333
832.90	3.448
833.20	-50.000
833.50	48.485
833.80	48.148
834.10	61.538
834.40	50.000
834.70	133.333
835.00	84.211
835.30	142.308
835.60	80.000
835.90	35.484
836.20	40.909
836.50	46.429
836.80	-3.846
837.10	17.857
837.40	233.333
837.70	77.273
838.00	27.273
838.30	73.913
838.60	7.692
838.90	95.455
839.19	21.429
839.49	63.333
839.79	76.923
840.09	33.333
840.39	75.000
840.69	39.286
840.99	38.462
841.29	21.053
841.59	-80.000
841.88	27.273
842.18	50.000
842.48	93.750
842.78	40.000
843.08	48.148
843.38	-30.000
843.68	47.826
843.97	100.000
844.27	20.000
844.57	50.000
844.87	77.778
845.17	28.571
845.47	60.000
845.76	-4.762
846.06	70.588
846.36	10.000
846.66	21.429
846.96	86.667
847.25	-50.000
847.55	50.000
847.85	12.500
848.15	54.545
848.44	-333.333
848.74	35.000
849.04	81.481
849.34	100.000
849.63	-50.000
849.93	200.000
850.23	50.000
850.53	80.000
850.82	23.077
851.12	44.444
851.42	60.000
851.71	38.462
852.01	21.429
852.31	25.000
852.61	18.182
852.90	30.000
853.20	36.842
853.50	-50.000
853.79	26.087
854.09	62.500
854.39	31.579
854.68	12.500
854.98	45.161
855.28	53.846
855.57	30.000
855.87	55.556
856.17	3.704
856.46	100.000
856.76	-6.667
857.05	77.778
857.35	44.000
857.65	22.222
857.94	-23.077
858.24	58.621
858.53	72.222
858.83	66.667
859.13	54.545
859.42	21.739
859.72	100.000
860.01	-66.667
860.31	12.000
860.60	57.143
860.90	166.667
861.20	26.667
861.49	-250.000
861.79	6.667
862.08	35.000
862.38	86.667
862.67	-40.000
862.97	66.667
863.26	100.000
863.56	88.889
863.85	-266.667
864.15	100.000
864.44	10.000
864.74	85.714
865.03	75.000
865.33	-220.000
865.62	216.667
865.92	-41.667
866.21	-83.333
866.51	37.500
866.80	-18.182
867.10	250.000
867.39	91.667
867.69	0.000
867.98	115.385
868.27	0.000
868.57	73.333
868.86	11.111
869.16	-23.077
869.45	26.667
869.75	-1200.000
870.04	0.000
870.33	42.857
870.63	47.619
870.92	300.000
871.22	20.000
871.51	-600.000
871.80	22.222
872.10	266.667
>>>>>End Processed Spectral Data<<<<<
