SpectraSuite Data File
++++++++++++++++++++++++++++++++++++
Date: Fri May 15 17:28:25 PDT 2015
User: schluterlab
Dark Spectrum Present: Yes
Reference Spectrum Present: Yes
Number of Sampled Component Spectra: 1
Spectrometers: USB2E3373
Integration Time (usec): 3000 (USB2E3373)
Spectra Averaged: 3 (USB2E3373)
Boxcar Smoothing: 0 (USB2E3373)
Correct for Electrical Dark: No (USB2E3373)
Strobe/Lamp Enabled: No (USB2E3373)
Correct for Detector Non-linearity: No (USB2E3373)
Correct for Stray Light: No (USB2E3373)
Number of Pixels in Processed Spectrum: 2048
>>>>>Begin Processed Spectral Data<<<<<
178.53	0.000
178.91	0.000
179.29	100.000
179.67	-50.000
180.04	-0.000
180.42	200.000
180.80	-400.000
181.18	-166.667
181.56	150.000
181.94	-150.000
182.31	700.000
182.69	-60.000
183.07	-100.000
183.45	-100.000
183.83	-66.667
184.20	0.000
184.58	66.667
184.96	-400.000
185.34	-266.667
185.72	50.000
186.09	69.231
186.47	600.000
186.85	-0.000
187.23	233.333
187.61	-100.000
187.98	-100.000
188.36	11.111
188.74	66.667
189.12	47.059
189.49	-11.111
189.87	0.000
190.25	28.571
190.63	100.000
191.00	-100.000
191.38	-5.263
191.76	300.000
192.14	-125.000
192.51	250.000
192.89	0.000
193.27	-57.143
193.65	133.333
194.02	63.636
194.40	-20.000
194.78	-150.000
195.15	8.333
195.53	-25.000
195.91	100.000
196.29	-25.000
196.66	53.846
197.04	14.286
197.42	0.000
197.79	-433.333
198.17	7.692
198.55	1400.000
198.92	-200.000
199.30	-200.000
199.68	-40.000
200.05	-566.667
200.43	0.000
200.81	200.000
201.18	33.333
201.56	900.000
201.94	-500.000
202.31	-500.000
202.69	-100.000
203.07	-125.000
203.44	-200.000
203.82	0.000
204.19	57.143
204.57	-233.333
204.95	87.500
205.32	90.000
205.70	142.857
206.08	-25.000
206.45	288.889
206.83	157.143
207.20	28.571
207.58	500.000
207.96	-33.333
208.33	-130.000
208.71	-25.000
209.08	-166.667
209.46	500.000
209.84	20.000
210.21	-900.000
210.59	157.143
210.96	150.000
211.34	225.000
211.71	86.667
212.09	-142.857
212.46	-500.000
212.84	0.000
213.22	-10.000
213.59	250.000
213.97	69.231
214.34	36.364
214.72	16.667
215.09	425.000
215.47	76.923
215.84	54.545
216.22	-366.667
216.59	-62.500
216.97	-200.000
217.34	350.000
217.72	-140.000
218.09	175.000
218.47	262.500
218.84	-300.000
219.22	-33.333
219.59	160.000
219.97	166.667
220.34	550.000
220.72	0.000
221.09	0.000
221.47	-100.000
221.84	-550.000
222.22	-400.000
222.59	-9.091
222.97	108.333
223.34	-100.000
223.72	28.571
224.09	19.048
224.46	7.143
224.84	433.333
225.21	160.000
225.59	53.333
225.96	-50.000
226.34	200.000
226.71	-42.857
227.08	166.667
227.46	87.500
227.83	-450.000
228.21	22.222
228.58	72.727
228.95	-75.000
229.33	140.000
229.70	43.750
230.08	-50.000
230.45	0.000
230.82	42.857
231.20	60.000
231.57	28.571
231.95	71.429
232.32	-60.000
232.69	64.286
233.07	200.000
233.44	-160.000
233.81	0.000
234.19	55.556
234.56	52.941
234.93	300.000
235.31	50.000
235.68	-300.000
236.05	-30.769
236.43	5.000
236.80	64.706
237.17	15.625
237.55	-45.000
237.92	3.704
238.29	13.889
238.67	26.667
239.04	-17.647
239.41	12.195
239.79	-6.667
240.16	14.634
240.53	-13.158
240.91	0.000
241.28	14.286
241.65	10.714
242.02	17.808
242.40	10.000
242.77	11.864
243.14	10.606
243.51	13.750
243.89	33.333
244.26	8.046
244.63	8.333
245.00	20.619
245.38	16.495
245.75	5.618
246.12	6.034
246.49	9.917
246.87	19.231
247.24	6.723
247.61	7.895
247.98	17.073
248.36	13.750
248.73	19.079
249.10	9.740
249.47	13.924
249.84	10.458
250.22	11.765
250.59	11.111
250.96	16.432
251.33	11.047
251.70	16.471
252.08	10.152
252.45	9.901
252.82	15.578
253.19	14.747
253.56	10.280
253.94	11.261
254.31	16.522
254.68	17.105
255.05	15.748
255.42	9.607
255.79	12.355
256.16	11.673
256.54	13.433
256.91	12.548
257.28	9.665
257.65	9.738
258.02	9.220
258.39	14.478
258.76	19.780
259.14	14.286
259.51	10.356
259.88	13.058
260.25	10.458
260.62	14.583
260.99	7.797
261.36	12.671
261.73	7.278
262.10	14.286
262.47	13.190
262.85	13.793
263.22	13.231
263.59	14.019
263.96	13.354
264.33	13.333
264.70	11.012
265.07	10.714
265.44	9.915
265.81	12.994
266.18	11.749
266.55	14.139
266.92	12.953
267.29	12.010
267.66	11.253
268.03	10.471
268.40	11.227
268.77	14.439
269.14	12.710
269.51	13.882
269.88	10.723
270.25	9.184
270.62	7.561
270.99	9.719
271.36	11.247
271.73	12.676
272.10	12.652
272.47	13.948
272.84	8.911
273.21	13.689
273.58	11.084
273.95	12.128
274.32	10.855
274.69	9.276
275.06	12.500
275.43	10.658
275.80	9.713
276.17	9.885
276.54	11.349
276.91	10.965
277.28	10.917
277.65	13.017
278.02	13.830
278.39	10.066
278.76	11.111
279.13	10.166
279.50	11.765
279.87	9.503
280.23	10.753
280.60	11.501
280.97	13.535
281.34	9.231
281.71	13.552
282.08	10.225
282.45	9.980
282.82	10.039
283.19	9.671
283.56	13.487
283.92	9.867
284.29	11.346
284.66	8.915
285.03	11.984
285.40	10.397
285.77	9.490
286.14	10.650
286.51	11.070
286.87	10.969
287.24	11.602
287.61	9.700
287.98	11.579
288.35	10.399
288.72	12.960
289.08	9.375
289.45	12.302
289.82	9.615
290.19	8.532
290.56	11.492
290.93	9.764
291.29	9.091
291.66	12.441
292.03	10.686
292.40	9.677
292.77	10.367
293.13	9.740
293.50	9.256
293.87	10.534
294.24	9.892
294.60	11.326
294.97	11.310
295.34	8.742
295.71	9.985
296.08	9.268
296.44	8.819
296.81	10.417
297.18	9.275
297.55	11.382
297.91	11.644
298.28	10.686
298.65	10.176
299.02	10.647
299.38	8.345
299.75	8.000
300.12	8.115
300.48	10.672
300.85	10.139
301.22	10.779
301.59	8.421
301.95	11.266
302.32	10.376
302.69	10.323
303.05	10.520
303.42	9.963
303.79	9.579
304.15	9.558
304.52	8.680
304.89	9.825
305.25	9.201
305.62	8.985
305.99	9.240
306.35	10.289
306.72	8.886
307.09	9.350
307.45	12.285
307.82	10.069
308.19	11.382
308.55	10.251
308.92	11.874
309.29	9.721
309.65	11.733
310.02	11.551
310.38	10.977
310.75	11.038
311.12	10.872
311.48	10.923
311.85	11.204
312.22	12.975
312.58	12.420
312.95	11.419
313.31	12.836
313.68	11.309
314.05	13.265
314.41	12.474
314.78	13.402
315.14	15.827
315.51	14.493
315.87	13.832
316.24	15.167
316.61	14.862
316.97	14.980
317.34	15.820
317.70	14.914
318.07	15.096
318.43	16.863
318.80	15.057
319.16	17.090
319.53	17.474
319.89	17.028
320.26	18.320
320.62	17.653
320.99	16.597
321.35	16.855
321.72	19.315
322.08	19.637
322.45	19.289
322.81	18.861
323.18	19.921
323.54	20.463
323.91	20.545
324.27	21.582
324.64	21.348
325.00	23.266
325.37	24.059
325.73	24.660
326.10	23.887
326.46	26.816
326.83	25.372
327.19	27.027
327.56	27.802
327.92	29.225
328.29	27.143
328.65	30.189
329.01	29.320
329.38	29.954
329.74	29.556
330.11	30.120
330.47	29.777
330.84	31.635
331.20	34.791
331.56	31.852
331.93	32.237
332.29	33.364
332.66	33.122
333.02	32.807
333.38	32.906
333.75	34.799
334.11	33.483
334.48	34.995
334.84	34.066
335.20	32.937
335.57	33.364
335.93	33.875
336.29	32.781
336.66	33.424
337.02	35.223
337.38	35.370
337.75	34.273
338.11	34.175
338.47	34.398
338.84	33.457
339.20	34.644
339.56	34.037
339.93	35.900
340.29	35.505
340.65	35.394
341.02	35.106
341.38	34.159
341.74	33.481
342.11	33.536
342.47	34.786
342.83	36.073
343.20	34.321
343.56	34.609
343.92	35.872
344.28	36.208
344.65	34.888
345.01	34.399
345.37	33.894
345.73	34.142
346.10	35.116
346.46	35.492
346.82	34.288
347.19	33.583
347.55	35.088
347.91	35.113
348.27	34.196
348.63	37.308
349.00	34.290
349.36	36.825
349.72	34.909
350.08	35.574
350.45	35.515
350.81	35.382
351.17	35.912
351.53	35.347
351.89	34.352
352.26	35.600
352.62	34.919
352.98	35.100
353.34	36.151
353.70	37.217
354.07	35.161
354.43	34.588
354.79	36.003
355.15	36.111
355.51	37.025
355.87	37.621
356.24	34.176
356.60	35.812
356.96	35.556
357.32	35.623
357.68	37.373
358.04	37.480
358.40	36.495
358.77	37.879
359.13	36.429
359.49	36.133
359.85	36.349
360.21	36.204
360.57	37.108
360.93	37.595
361.29	37.160
361.66	36.677
362.02	37.576
362.38	38.157
362.74	37.926
363.10	38.676
363.46	37.658
363.82	38.392
364.18	38.303
364.54	37.794
364.90	37.634
365.26	38.282
365.62	39.562
365.98	39.370
366.35	39.330
366.71	38.137
367.07	38.824
367.43	39.684
367.79	39.647
368.15	39.914
368.51	39.985
368.87	39.196
369.23	38.484
369.59	40.233
369.95	40.029
370.31	40.896
370.67	41.343
371.03	41.449
371.39	40.846
371.75	40.952
372.11	39.943
372.47	41.124
372.83	42.725
373.19	42.297
373.55	41.949
373.91	41.253
374.27	42.381
374.63	42.929
374.99	41.277
375.35	42.549
375.71	44.056
376.07	43.750
376.42	44.286
376.78	42.685
377.14	43.737
377.50	44.290
377.86	45.047
378.22	44.033
378.58	44.808
378.94	43.919
379.30	43.731
379.66	45.016
380.02	45.248
380.38	44.492
380.74	45.123
381.09	45.951
381.45	46.239
381.81	45.466
382.17	44.924
382.53	46.159
382.89	47.081
383.25	49.284
383.61	48.049
383.97	46.730
384.32	46.842
384.68	48.483
385.04	46.446
385.40	47.915
385.76	49.497
386.12	48.706
386.48	48.723
386.83	49.081
387.19	50.244
387.55	50.125
387.91	49.878
388.27	50.122
388.62	50.283
388.98	50.522
389.34	50.406
389.70	50.963
390.06	49.087
390.42	50.518
390.77	51.275
391.13	49.622
391.49	51.164
391.85	51.007
392.20	50.847
392.56	51.812
392.92	50.851
393.28	52.123
393.64	50.751
393.99	52.476
394.35	51.486
394.71	52.682
395.07	51.414
395.42	50.759
395.78	52.704
396.14	51.009
396.50	51.490
396.85	52.286
397.21	52.632
397.57	52.539
397.92	52.247
398.28	51.494
398.64	50.542
399.00	52.709
399.35	51.411
399.71	51.637
400.07	51.451
400.42	52.632
400.78	53.582
401.14	52.269
401.49	51.697
401.85	52.651
402.21	52.108
402.57	52.250
402.92	51.819
403.28	52.193
403.63	52.522
403.99	53.699
404.35	54.841
404.70	51.845
405.06	51.880
405.42	52.579
405.77	52.586
406.13	52.678
406.49	51.391
406.84	53.606
407.20	53.101
407.55	52.543
407.91	52.473
408.27	51.880
408.62	53.415
408.98	53.112
409.34	53.098
409.69	52.390
410.05	52.586
410.40	52.160
410.76	52.955
411.11	54.500
411.47	54.175
411.83	52.291
412.18	53.282
412.54	52.622
412.89	52.032
413.25	53.490
413.60	52.422
413.96	52.270
414.31	54.329
414.67	52.405
415.03	53.196
415.38	51.762
415.74	53.355
416.09	54.017
416.45	54.018
416.80	53.073
417.16	53.867
417.51	53.231
417.87	54.107
418.22	55.699
418.58	54.047
418.93	53.103
419.29	52.945
419.64	55.736
420.00	55.605
420.35	55.463
420.71	55.286
421.06	55.310
421.42	55.529
421.77	55.780
422.12	54.881
422.48	55.441
422.83	56.148
423.19	54.684
423.54	55.673
423.90	56.066
424.25	55.166
424.61	55.936
424.96	55.923
425.31	56.672
425.67	57.453
426.02	57.185
426.38	58.485
426.73	56.961
427.09	57.785
427.44	57.471
427.79	57.160
428.15	58.495
428.50	58.389
428.85	57.924
429.21	58.404
429.56	59.623
429.92	57.319
430.27	57.794
430.62	57.397
430.98	58.015
431.33	58.517
431.68	58.399
432.04	59.922
432.39	57.958
432.74	58.148
433.10	59.885
433.45	60.872
433.80	59.896
434.16	59.114
434.51	60.161
434.86	59.582
435.22	59.675
435.57	61.510
435.92	59.401
436.28	58.974
436.63	59.897
436.98	59.154
437.34	60.133
437.69	61.061
438.04	59.886
438.39	60.232
438.75	60.656
439.10	60.951
439.45	61.716
439.81	60.061
440.16	61.995
440.51	61.433
440.86	63.565
441.22	60.973
441.57	62.638
441.92	63.274
442.27	62.084
442.63	62.045
442.98	61.976
443.33	61.046
443.68	60.584
444.03	62.096
444.39	61.436
444.74	62.709
445.09	62.584
445.44	63.305
445.79	63.641
446.15	62.115
446.50	61.620
446.85	63.656
447.20	63.608
447.55	62.835
447.91	62.944
448.26	62.891
448.61	62.637
448.96	63.339
449.31	62.543
449.66	62.253
450.02	62.464
450.37	62.715
450.72	62.829
451.07	62.658
451.42	62.235
451.77	62.688
452.12	61.005
452.47	63.748
452.83	62.839
453.18	62.745
453.53	63.780
453.88	63.267
454.23	63.122
454.58	64.861
454.93	62.049
455.28	62.984
455.63	63.794
455.98	64.642
456.34	63.665
456.69	63.850
457.04	64.083
457.39	63.487
457.74	63.543
458.09	62.036
458.44	63.136
458.79	62.801
459.14	63.558
459.49	63.582
459.84	61.703
460.19	64.199
460.54	63.509
460.89	62.955
461.24	63.230
461.59	63.183
461.94	63.962
462.29	63.209
462.64	63.721
462.99	63.507
463.34	62.935
463.69	63.385
464.04	63.317
464.39	62.583
464.74	63.436
465.09	64.691
465.44	63.243
465.79	62.755
466.14	63.455
466.49	62.910
466.84	63.891
467.19	63.579
467.54	62.516
467.89	63.171
468.24	63.200
468.59	64.254
468.94	63.111
469.29	62.820
469.64	62.406
469.99	64.681
470.34	63.003
470.68	64.579
471.03	61.288
471.38	63.481
471.73	63.445
472.08	63.501
472.43	62.550
472.78	62.851
473.13	63.333
473.48	63.322
473.83	63.512
474.17	62.306
474.52	62.731
474.87	62.606
475.22	62.111
475.57	63.015
475.92	63.961
476.27	62.631
476.61	64.352
476.96	62.131
477.31	64.035
477.66	62.584
478.01	62.998
478.36	61.220
478.70	63.458
479.05	63.407
479.40	61.738
479.75	62.304
480.10	61.905
480.45	62.800
480.79	64.451
481.14	63.934
481.49	61.478
481.84	63.562
482.19	62.488
482.53	63.789
482.88	61.575
483.23	61.948
483.58	61.981
483.92	62.488
484.27	61.531
484.62	61.811
484.97	62.604
485.31	62.717
485.66	64.186
486.01	65.586
486.36	65.231
486.70	65.586
487.05	64.552
487.40	64.245
487.75	63.493
488.09	62.052
488.44	60.695
488.79	62.794
489.13	62.220
489.48	62.249
489.83	62.197
490.17	62.157
490.52	61.617
490.87	60.435
491.22	61.461
491.56	61.765
491.91	60.468
492.26	61.400
492.60	60.125
492.95	62.223
493.30	59.697
493.64	62.672
493.99	62.174
494.34	60.243
494.68	61.190
495.03	61.606
495.37	61.433
495.72	60.777
496.07	62.146
496.41	62.311
496.76	61.538
497.11	60.270
497.45	61.527
497.80	60.797
498.14	60.556
498.49	60.386
498.84	59.032
499.18	62.400
499.53	61.310
499.87	60.457
500.22	60.831
500.56	61.775
500.91	60.542
501.26	60.751
501.60	60.698
501.95	60.213
502.29	61.259
502.64	61.052
502.98	62.210
503.33	59.414
503.67	61.060
504.02	60.948
504.36	60.168
504.71	59.747
505.06	60.695
505.40	60.711
505.75	60.979
506.09	59.959
506.44	61.294
506.78	60.510
507.13	61.479
507.47	59.478
507.82	61.592
508.16	60.116
508.51	60.913
508.85	61.434
509.19	60.830
509.54	61.233
509.88	60.140
510.23	60.409
510.57	60.342
510.92	57.942
511.26	59.738
511.61	60.286
511.95	60.384
512.30	60.477
512.64	59.154
512.98	60.303
513.33	59.989
513.67	60.205
514.02	61.098
514.36	59.943
514.70	60.548
515.05	60.576
515.39	59.445
515.74	60.838
516.08	60.490
516.42	61.013
516.77	60.035
517.11	60.178
517.46	61.101
517.80	59.058
518.14	58.420
518.49	58.353
518.83	58.748
519.17	59.066
519.52	58.792
519.86	58.764
520.20	58.627
520.55	58.099
520.89	58.595
521.23	57.378
521.58	59.621
521.92	59.679
522.26	59.922
522.61	59.351
522.95	59.934
523.29	58.323
523.64	59.276
523.98	60.013
524.32	59.343
524.66	60.051
525.01	59.545
525.35	58.976
525.69	59.057
526.04	58.796
526.38	59.792
526.72	57.554
527.06	57.977
527.41	58.707
527.75	57.105
528.09	59.269
528.43	58.744
528.78	58.548
529.12	59.226
529.46	60.234
529.80	58.265
530.15	61.188
530.49	59.259
530.83	58.960
531.17	57.824
531.51	59.508
531.86	58.056
532.20	58.107
532.54	58.747
532.88	59.001
533.22	59.005
533.57	58.978
533.91	59.269
534.25	58.398
534.59	60.167
534.93	58.590
535.27	57.995
535.62	58.522
535.96	58.708
536.30	58.839
536.64	59.752
536.98	58.955
537.32	57.681
537.66	58.766
538.01	59.790
538.35	57.698
538.69	58.655
539.03	58.578
539.37	58.950
539.71	59.441
540.05	56.755
540.39	59.211
540.73	58.577
541.07	58.494
541.42	58.199
541.76	60.083
542.10	58.981
542.44	58.860
542.78	57.949
543.12	58.997
543.46	58.275
543.80	60.999
544.14	57.610
544.48	58.561
544.82	59.740
545.16	59.768
545.50	58.945
545.84	59.065
546.18	58.723
546.52	57.967
546.86	58.591
547.20	57.296
547.54	57.880
547.88	59.307
548.22	58.711
548.56	58.377
548.90	59.636
549.24	57.920
549.58	57.828
549.92	57.827
550.26	57.656
550.60	59.554
550.94	58.701
551.28	57.496
551.62	58.000
551.96	57.744
552.30	58.187
552.64	59.520
552.98	57.173
553.32	58.274
553.66	57.910
554.00	58.029
554.34	58.346
554.68	58.038
555.02	57.292
555.36	59.237
555.69	58.022
556.03	58.458
556.37	57.651
556.71	57.834
557.05	57.420
557.39	57.323
557.73	57.421
558.07	58.296
558.41	58.576
558.75	58.145
559.08	58.629
559.42	56.746
559.76	58.367
560.10	58.333
560.44	57.111
560.78	58.042
561.12	58.956
561.45	59.171
561.79	58.683
562.13	58.552
562.47	57.626
562.81	58.357
563.15	58.815
563.48	58.699
563.82	58.957
564.16	60.933
564.50	57.905
564.84	58.166
565.17	57.814
565.51	59.153
565.85	61.111
566.19	58.621
566.52	59.450
566.86	59.961
567.20	59.340
567.54	60.097
567.88	61.336
568.21	59.729
568.55	61.413
568.89	61.396
569.23	61.387
569.56	61.602
569.90	62.810
570.24	62.598
570.57	63.491
570.91	63.576
571.25	61.657
571.59	62.348
571.92	61.807
572.26	62.198
572.60	60.899
572.93	61.312
573.27	60.909
573.61	61.963
573.95	61.933
574.28	62.076
574.62	61.505
574.96	61.705
575.29	61.459
575.63	60.612
575.97	60.450
576.30	61.906
576.64	61.563
576.98	62.471
577.31	62.546
577.65	62.798
577.98	63.504
578.32	62.753
578.66	61.595
578.99	61.418
579.33	61.154
579.67	61.141
580.00	61.899
580.34	62.239
580.67	61.029
581.01	61.840
581.35	61.542
581.68	62.881
582.02	63.223
582.35	63.380
582.69	62.758
583.02	62.145
583.36	62.030
583.70	62.643
584.03	63.219
584.37	62.112
584.70	62.060
585.04	61.658
585.37	61.916
585.71	62.972
586.04	62.885
586.38	62.283
586.72	62.095
587.05	63.374
587.39	62.622
587.72	63.860
588.06	62.746
588.39	61.720
588.73	62.057
589.06	63.144
589.40	61.977
589.73	61.884
590.07	62.538
590.40	61.726
590.73	62.974
591.07	61.323
591.40	60.997
591.74	61.448
592.07	61.039
592.41	61.749
592.74	60.812
593.08	61.334
593.41	62.076
593.75	62.152
594.08	61.414
594.41	61.718
594.75	61.641
595.08	62.051
595.42	61.686
595.75	63.087
596.09	61.689
596.42	61.306
596.75	60.657
597.09	61.959
597.42	61.834
597.75	61.292
598.09	59.801
598.42	59.251
598.76	60.232
599.09	61.338
599.42	61.046
599.76	61.475
600.09	60.709
600.42	60.804
600.76	61.107
601.09	61.603
601.42	60.713
601.76	61.771
602.09	61.716
602.42	62.890
602.76	61.587
603.09	62.749
603.42	64.130
603.76	61.815
604.09	61.158
604.42	61.125
604.76	62.439
605.09	61.289
605.42	59.865
605.75	61.165
606.09	60.934
606.42	60.801
606.75	60.736
607.09	59.956
607.42	59.592
607.75	60.835
608.08	59.299
608.42	59.068
608.75	61.205
609.08	60.987
609.41	59.543
609.75	60.887
610.08	62.356
610.41	59.807
610.74	60.702
611.07	61.344
611.41	60.353
611.74	60.394
612.07	60.171
612.40	59.573
612.73	60.395
613.07	59.674
613.40	59.300
613.73	60.101
614.06	59.599
614.39	59.560
614.72	60.896
615.06	60.335
615.39	59.116
615.72	60.226
616.05	59.330
616.38	57.778
616.71	60.061
617.05	59.419
617.38	58.831
617.71	60.629
618.04	61.524
618.37	62.106
618.70	60.132
619.03	60.833
619.36	58.466
619.69	58.074
620.03	60.336
620.36	60.229
620.69	59.029
621.02	59.251
621.35	58.008
621.68	58.503
622.01	58.500
622.34	58.739
622.67	58.202
623.00	57.504
623.33	58.537
623.66	57.666
623.99	57.035
624.32	58.859
624.65	58.872
624.99	59.669
625.32	58.605
625.65	59.544
625.98	58.098
626.31	57.938
626.64	59.532
626.97	57.679
627.30	57.443
627.63	58.406
627.96	56.155
628.29	57.724
628.62	56.244
628.95	57.615
629.28	57.359
629.61	58.126
629.94	57.380
630.26	55.040
630.59	58.897
630.92	56.410
631.25	54.872
631.58	57.269
631.91	56.798
632.24	56.651
632.57	56.705
632.90	56.346
633.23	53.647
633.56	57.053
633.89	55.117
634.22	54.815
634.55	55.781
634.88	54.406
635.20	53.846
635.53	56.667
635.86	55.007
636.19	56.533
636.52	56.378
636.85	54.218
637.18	56.855
637.51	55.975
637.83	54.534
638.16	55.116
638.49	54.632
638.82	55.395
639.15	55.631
639.48	54.333
639.81	54.812
640.13	54.401
640.46	55.102
640.79	53.608
641.12	53.619
641.45	52.853
641.77	53.630
642.10	55.924
642.43	54.180
642.76	55.281
643.09	52.019
643.41	52.913
643.74	52.554
644.07	55.993
644.40	55.912
644.73	54.466
645.05	54.530
645.38	55.556
645.71	54.078
646.04	54.219
646.36	53.191
646.69	54.317
647.02	55.766
647.35	54.104
647.67	53.016
648.00	55.784
648.33	51.024
648.66	53.898
648.98	53.769
649.31	54.876
649.64	55.259
649.96	54.781
650.29	56.048
650.62	54.872
650.94	56.111
651.27	53.445
651.60	55.315
651.92	52.448
652.25	53.641
652.58	54.000
652.90	56.261
653.23	56.807
653.56	53.807
653.88	53.608
654.21	54.641
654.54	53.990
654.86	54.839
655.19	53.509
655.52	62.926
655.84	64.650
656.17	73.891
656.49	97.988
656.82	100.000
657.15	79.398
657.47	56.750
657.80	42.263
658.13	41.022
658.45	63.418
658.78	61.287
659.10	59.203
659.43	59.168
659.75	59.595
660.08	56.828
660.41	56.078
660.73	53.315
661.06	55.286
661.38	53.229
661.71	50.924
662.03	52.790
662.36	50.330
662.68	51.327
663.01	55.022
663.33	53.828
663.66	52.558
663.98	53.953
664.31	49.893
664.63	53.456
664.96	49.130
665.28	52.318
665.61	54.329
665.93	53.913
666.26	52.711
666.58	53.915
666.91	52.235
667.23	50.472
667.56	52.370
667.88	53.237
668.21	51.551
668.53	53.664
668.86	51.887
669.18	53.302
669.50	52.542
669.83	49.767
670.15	53.613
670.48	53.110
670.80	52.535
671.13	48.993
671.45	48.630
671.77	56.009
672.10	53.861
672.42	55.056
672.75	55.417
673.07	55.635
673.39	56.330
673.72	51.677
674.04	53.542
674.37	51.907
674.69	52.034
675.01	55.778
675.34	53.378
675.66	51.389
675.98	51.885
676.31	54.587
676.63	52.732
676.95	49.091
677.28	52.941
677.60	55.181
677.92	51.147
678.25	53.829
678.57	55.844
678.89	55.252
679.22	55.481
679.54	51.606
679.86	52.286
680.18	56.505
680.51	54.735
680.83	55.467
681.15	55.000
681.48	57.172
681.80	55.992
682.12	50.403
682.44	53.975
682.77	56.512
683.09	55.835
683.41	51.591
683.73	52.995
684.06	53.319
684.38	51.398
684.70	56.645
685.02	53.942
685.34	53.953
685.67	54.221
685.99	55.696
686.31	55.221
686.63	56.030
686.96	54.183
687.28	53.737
687.60	51.711
687.92	58.586
688.24	56.048
688.56	55.677
688.89	54.911
689.21	52.222
689.53	51.508
689.85	54.186
690.17	54.464
690.49	55.556
690.82	54.612
691.14	52.619
691.46	53.271
691.78	54.279
692.10	55.269
692.42	54.113
692.74	55.983
693.06	53.604
693.39	54.299
693.71	53.167
694.03	54.503
694.35	52.336
694.67	53.283
694.99	51.436
695.31	54.569
695.63	51.750
695.95	53.535
696.27	52.073
696.59	54.444
696.91	50.980
697.23	55.527
697.56	54.703
697.88	56.774
698.20	54.897
698.52	54.824
698.84	53.349
699.16	54.750
699.48	55.388
699.80	49.628
700.12	55.256
700.44	52.941
700.76	50.872
701.08	48.788
701.40	52.711
701.72	52.160
702.04	55.446
702.36	53.177
702.68	53.453
703.00	51.515
703.32	52.199
703.64	50.282
703.96	50.725
704.28	53.681
704.60	56.190
704.91	48.896
705.23	52.492
705.55	50.177
705.87	53.069
706.19	48.889
706.51	48.110
706.83	51.125
707.15	48.910
707.47	55.182
707.79	51.823
708.11	56.000
708.43	52.250
708.74	55.297
709.06	58.310
709.38	55.352
709.70	52.367
710.02	52.548
710.34	51.393
710.66	50.000
710.98	52.980
711.29	58.689
711.61	52.542
711.93	55.375
712.25	53.608
712.57	54.945
712.89	50.000
713.20	54.325
713.52	51.220
713.84	54.266
714.16	56.357
714.48	50.968
714.80	57.372
715.11	51.976
715.43	51.411
715.75	51.333
716.07	54.817
716.39	51.007
716.70	52.030
717.02	50.382
717.34	55.466
717.66	54.867
717.97	50.435
718.29	49.791
718.61	51.969
718.93	50.000
719.24	50.570
719.56	53.815
719.88	50.515
720.20	54.167
720.51	53.257
720.83	54.826
721.15	61.765
721.46	55.242
721.78	51.779
722.10	47.584
722.42	55.187
722.73	50.612
723.05	56.327
723.37	52.542
723.68	55.856
724.00	52.137
724.32	51.111
724.63	49.091
724.95	54.148
725.27	55.760
725.58	45.763
725.90	52.778
726.22	54.440
726.53	55.593
726.85	53.184
727.16	58.868
727.48	52.227
727.80	53.036
728.11	55.085
728.43	58.824
728.74	49.194
729.06	50.000
729.38	59.023
729.69	52.590
730.01	53.462
730.32	54.851
730.64	59.717
730.96	58.868
731.27	57.667
731.59	54.915
731.90	55.414
732.22	60.252
732.53	58.804
732.85	58.865
733.16	59.596
733.48	52.518
733.80	53.623
734.11	53.559
734.43	58.763
734.74	56.970
735.06	54.397
735.37	55.891
735.69	57.576
736.00	54.704
736.32	53.691
736.63	59.155
736.95	58.020
737.26	55.516
737.58	55.034
737.89	56.777
738.21	53.383
738.52	55.556
738.83	58.515
739.15	58.515
739.46	55.906
739.78	52.747
740.09	56.863
740.41	58.696
740.72	58.661
741.04	60.324
741.35	51.489
741.66	55.450
741.98	54.082
742.29	53.960
742.61	53.927
742.92	44.076
743.23	50.463
743.55	51.584
743.86	51.675
744.18	48.325
744.49	49.468
744.80	54.348
745.12	55.615
745.43	52.683
745.74	59.375
746.06	49.268
746.37	61.257
746.68	59.242
747.00	57.447
747.31	58.706
747.62	54.854
747.94	52.632
748.25	54.950
748.56	61.202
748.88	59.162
749.19	57.447
749.50	50.739
749.82	51.887
750.13	61.009
750.44	59.774
750.75	60.448
751.07	56.934
751.38	58.238
751.69	56.471
752.01	60.078
752.32	58.566
752.63	52.964
752.94	59.052
753.26	53.138
753.57	54.299
753.88	58.850
754.19	52.917
754.51	51.653
754.82	56.275
755.13	51.667
755.44	53.629
755.75	58.203
756.07	54.864
756.38	56.981
756.69	53.640
757.00	61.000
757.31	52.288
757.63	54.573
757.94	51.667
758.25	55.068
758.56	58.777
758.87	54.391
759.18	48.287
759.50	57.091
759.81	57.191
760.12	58.387
760.43	55.758
760.74	61.111
761.05	59.077
761.36	55.398
761.67	58.485
761.99	59.184
762.30	54.182
762.61	50.988
762.92	53.846
763.23	56.757
763.54	56.542
763.85	60.169
764.16	54.772
764.47	53.226
764.78	56.044
765.10	57.239
765.41	59.306
765.72	56.508
766.03	55.263
766.34	54.745
766.65	56.175
766.96	56.061
767.27	52.128
767.58	45.977
767.89	50.355
768.20	44.886
768.51	52.747
768.82	56.650
769.13	52.995
769.44	55.365
769.75	53.881
770.06	55.603
770.37	52.404
770.68	59.391
770.99	53.394
771.30	63.235
771.61	59.276
771.92	58.621
772.23	63.547
772.54	56.452
772.85	66.049
773.16	55.618
773.47	60.131
773.78	55.556
774.09	51.497
774.39	52.000
774.70	49.045
775.01	53.793
775.32	49.286
775.63	54.545
775.94	41.221
776.25	59.843
776.56	50.000
776.87	57.692
777.18	51.282
777.48	50.000
777.79	49.565
778.10	48.571
778.41	46.847
778.72	51.587
779.03	58.647
779.34	46.809
779.65	52.740
779.95	52.055
780.26	55.172
780.57	56.098
780.88	45.669
781.19	43.103
781.50	52.713
781.80	50.888
782.11	49.686
782.42	56.923
782.73	60.432
783.04	49.630
783.34	51.389
783.65	52.991
783.96	50.820
784.27	55.862
784.57	49.593
784.88	46.094
785.19	67.000
785.50	61.000
785.81	56.034
786.11	52.586
786.42	48.544
786.73	63.636
787.04	44.898
787.34	58.929
787.65	60.000
787.96	51.327
788.26	59.091
788.57	62.393
788.88	54.688
789.19	46.825
789.49	56.522
789.80	67.347
790.11	61.616
790.41	39.091
790.72	53.261
791.03	57.955
791.33	61.250
791.64	51.250
791.95	51.163
792.25	43.617
792.56	57.303
792.87	43.836
793.17	50.725
793.48	33.333
793.79	45.000
794.09	51.250
794.40	57.547
794.70	65.049
795.01	52.846
795.32	58.120
795.62	57.143
795.93	64.706
796.23	55.660
796.54	48.958
796.85	54.412
797.15	46.479
797.46	55.556
797.76	63.636
798.07	48.837
798.37	40.789
798.68	39.394
798.99	39.506
799.29	52.857
799.60	40.580
799.90	56.000
800.21	45.902
800.51	50.769
800.82	49.153
801.12	57.971
801.43	63.934
801.73	44.444
802.04	42.000
802.34	34.328
802.65	53.846
802.95	46.429
803.26	30.769
803.56	52.941
803.87	36.957
804.17	45.333
804.48	58.730
804.78	48.148
805.09	56.522
805.39	35.556
805.70	44.444
806.00	29.825
806.30	56.338
806.61	45.714
806.91	51.389
807.22	52.632
807.52	76.000
807.83	50.909
808.13	51.389
808.43	54.412
808.74	43.284
809.04	33.898
809.35	51.923
809.65	50.000
809.95	18.919
810.26	40.909
810.56	31.507
810.86	45.238
811.17	34.000
811.47	34.694
811.77	31.579
812.08	40.909
812.38	47.170
812.69	37.500
812.99	60.606
813.29	57.895
813.59	37.143
813.90	47.727
814.20	43.590
814.50	48.077
814.81	58.491
815.11	29.787
815.41	44.068
815.72	45.238
816.02	58.824
816.32	43.750
816.62	41.463
816.93	16.216
817.23	48.571
817.53	62.500
817.84	45.652
818.14	51.923
818.44	21.053
818.74	41.304
819.04	25.000
819.35	59.459
819.65	55.882
819.95	41.667
820.25	38.095
820.56	87.500
820.86	-3.448
821.16	72.500
821.46	36.170
821.76	55.000
822.07	60.465
822.37	27.027
822.67	31.250
822.97	40.476
823.27	46.429
823.57	76.000
823.88	11.111
824.18	57.143
824.48	32.353
824.78	25.806
825.08	43.478
825.38	48.485
825.69	54.167
825.99	47.368
826.29	47.222
826.59	33.333
826.89	57.143
827.19	43.478
827.49	30.000
827.79	82.857
828.09	50.000
828.39	39.394
828.70	67.568
829.00	57.143
829.30	42.857
829.60	40.000
829.90	65.625
830.20	63.158
830.50	22.222
830.80	34.783
831.10	18.182
831.40	54.545
831.70	54.839
832.00	42.857
832.30	-4.762
832.60	33.333
832.90	48.276
833.20	30.000
833.50	57.576
833.80	25.926
834.10	50.000
834.40	34.375
834.70	-11.111
835.00	57.895
835.30	65.385
835.60	100.000
835.90	25.806
836.20	50.000
836.50	46.429
836.80	-11.538
837.10	42.857
837.40	466.667
837.70	36.364
838.00	27.273
838.30	34.783
838.60	76.923
838.90	36.364
839.19	42.857
839.49	53.333
839.79	15.385
840.09	16.667
840.39	46.429
840.69	-14.286
840.99	30.769
841.29	0.000
841.59	-40.000
841.88	54.545
842.18	20.000
842.48	12.500
842.78	-20.000
843.08	55.556
843.38	-50.000
843.68	21.739
843.97	46.667
844.27	-13.333
844.57	15.000
844.87	11.111
845.17	23.810
845.47	66.667
845.76	14.286
846.06	58.824
846.36	90.000
846.66	35.714
846.96	-13.333
847.25	-100.000
847.55	28.571
847.85	-25.000
848.15	36.364
848.44	-333.333
848.74	60.000
849.04	62.963
849.34	72.727
849.63	-66.667
849.93	60.000
850.23	0.000
850.53	100.000
850.82	38.462
851.12	-44.444
851.42	-13.333
851.71	61.538
852.01	78.571
852.31	-200.000
852.61	100.000
852.90	10.000
853.20	42.105
853.50	25.000
853.79	8.696
854.09	58.333
854.39	0.000
854.68	16.667
854.98	45.161
855.28	65.385
855.57	60.000
855.87	72.222
856.17	85.185
856.46	92.857
856.76	46.667
857.05	22.222
857.35	4.000
857.65	55.556
857.94	15.385
858.24	24.138
858.53	83.333
858.83	66.667
859.13	45.455
859.42	-8.696
859.72	100.000
860.01	33.333
860.31	48.000
860.60	85.714
860.90	-66.667
861.20	33.333
861.49	-250.000
861.79	33.333
862.08	55.000
862.38	113.333
862.67	-20.000
862.97	200.000
863.26	16.667
863.56	61.111
863.85	-100.000
864.15	33.333
864.44	-50.000
864.74	71.429
865.03	-25.000
865.33	-180.000
865.62	100.000
865.92	100.000
866.21	-50.000
866.51	43.750
866.80	-36.364
867.10	500.000
867.39	116.667
867.69	0.000
867.98	53.846
868.27	66.667
868.57	53.333
868.86	72.222
869.16	-76.923
869.45	33.333
869.75	-500.000
870.04	0.000
870.33	-100.000
870.63	66.667
870.92	200.000
871.22	-80.000
871.51	100.000
871.80	155.556
872.10	233.333
>>>>>End Processed Spectral Data<<<<<
