SpectraSuite Data File
++++++++++++++++++++++++++++++++++++
Date: Fri May 15 17:09:04 PDT 2015
User: schluterlab
Dark Spectrum Present: Yes
Reference Spectrum Present: Yes
Number of Sampled Component Spectra: 1
Spectrometers: USB2E3373
Integration Time (usec): 3000 (USB2E3373)
Spectra Averaged: 3 (USB2E3373)
Boxcar Smoothing: 0 (USB2E3373)
Correct for Electrical Dark: No (USB2E3373)
Strobe/Lamp Enabled: No (USB2E3373)
Correct for Detector Non-linearity: No (USB2E3373)
Correct for Stray Light: No (USB2E3373)
Number of Pixels in Processed Spectrum: 2048
>>>>>Begin Processed Spectral Data<<<<<
178.53	0.000
178.91	0.000
179.29	62.500
179.67	-300.000
180.04	-142.857
180.42	350.000
180.80	-100.000
181.18	166.667
181.56	250.000
181.94	150.000
182.31	100.000
182.69	20.000
183.07	-33.333
183.45	-80.000
183.83	183.333
184.20	63.636
184.58	77.778
184.96	75.000
185.34	-0.000
185.72	350.000
186.09	100.000
186.47	400.000
186.85	66.667
187.23	77.778
187.61	-300.000
187.98	-66.667
188.36	133.333
188.74	100.000
189.12	82.353
189.49	83.333
189.87	0.000
190.25	100.000
190.63	550.000
191.00	33.333
191.38	78.947
191.76	300.000
192.14	-150.000
192.51	450.000
192.89	11.111
193.27	157.143
193.65	150.000
194.02	118.182
194.40	110.000
194.78	25.000
195.15	16.667
195.53	62.500
195.91	-225.000
196.29	75.000
196.66	7.692
197.04	128.571
197.42	-55.556
197.79	-233.333
198.17	-61.538
198.55	1000.000
198.92	0.000
199.30	800.000
199.68	60.000
200.05	-33.333
200.43	0.000
200.81	233.333
201.18	-33.333
201.56	600.000
201.94	0.000
202.31	-333.333
202.69	40.000
203.07	275.000
203.44	600.000
203.82	0.000
204.19	85.714
204.57	-66.667
204.95	-25.000
205.32	20.000
205.70	-71.429
206.08	150.000
206.45	233.333
206.83	78.571
207.20	42.857
207.58	-700.000
207.96	0.000
208.33	-60.000
208.71	0.000
209.08	-66.667
209.46	100.000
209.84	360.000
210.21	400.000
210.59	42.857
210.96	116.667
211.34	225.000
211.71	73.333
212.09	114.286
212.46	-1200.000
212.84	0.000
213.22	90.000
213.59	650.000
213.97	92.308
214.34	27.273
214.72	50.000
215.09	75.000
215.47	15.385
215.84	18.182
216.22	66.667
216.59	175.000
216.97	100.000
217.34	200.000
217.72	-100.000
218.09	150.000
218.47	50.000
218.84	800.000
219.22	33.333
219.59	-20.000
219.97	133.333
220.34	125.000
220.72	85.714
221.09	125.000
221.47	150.000
221.84	-100.000
222.22	-550.000
222.59	100.000
222.97	41.667
223.34	100.000
223.72	14.286
224.09	61.905
224.46	17.857
224.84	300.000
225.21	100.000
225.59	126.667
225.96	50.000
226.34	250.000
226.71	57.143
227.08	116.667
227.46	75.000
227.83	-300.000
228.21	100.000
228.58	136.364
228.95	100.000
229.33	40.000
229.70	93.750
230.08	62.500
230.45	57.143
230.82	71.429
231.20	46.667
231.57	28.571
231.95	185.714
232.32	-10.000
232.69	50.000
233.07	-133.333
233.44	60.000
233.81	-60.000
234.19	155.556
234.56	-5.882
234.93	-200.000
235.31	325.000
235.68	-340.000
236.05	23.077
236.43	-5.000
236.80	17.647
237.17	40.625
237.55	15.000
237.92	7.407
238.29	30.556
238.67	10.000
239.04	23.529
239.41	4.878
239.79	-20.000
240.16	29.268
240.53	28.947
240.91	2.174
241.28	12.698
241.65	25.000
242.02	27.397
242.40	28.333
242.77	30.508
243.14	24.242
243.51	25.000
243.89	26.437
244.26	5.747
244.63	-1.190
245.00	15.464
245.38	31.959
245.75	-3.371
246.12	17.241
246.49	19.835
246.87	11.538
247.24	-0.840
247.61	1.754
247.98	9.756
248.36	12.500
248.73	12.500
249.10	13.636
249.47	12.658
249.84	13.072
250.22	8.824
250.59	13.725
250.96	17.840
251.33	9.884
251.70	17.059
252.08	14.213
252.45	10.396
252.82	10.050
253.19	16.129
253.56	9.346
253.94	14.865
254.31	13.043
254.68	13.596
255.05	7.087
255.42	13.974
255.79	15.058
256.16	14.008
256.54	14.179
256.91	15.209
257.28	13.383
257.65	14.232
258.02	9.574
258.39	11.785
258.76	7.326
259.14	12.292
259.51	13.269
259.88	13.746
260.25	13.725
260.62	10.764
260.99	9.153
261.36	8.562
261.73	12.025
262.10	13.374
262.47	11.963
262.85	10.972
263.22	10.462
263.59	13.707
263.96	13.975
264.33	10.303
264.70	14.286
265.07	7.143
265.44	14.164
265.81	10.169
266.18	15.847
266.55	13.882
266.92	11.140
267.29	11.488
267.66	12.532
268.03	9.424
268.40	12.794
268.77	11.765
269.14	12.470
269.51	13.625
269.88	10.474
270.25	10.969
270.62	10.732
270.99	6.394
271.36	12.714
271.73	14.789
272.10	13.139
272.47	11.584
272.84	10.891
273.21	9.977
273.58	14.699
273.95	12.815
274.32	11.085
274.69	11.312
275.06	10.268
275.43	10.658
275.80	12.141
276.17	10.345
276.54	11.349
276.91	12.939
277.28	11.135
277.65	12.190
278.02	12.979
278.39	12.035
278.76	12.579
279.13	7.884
279.50	13.445
279.87	13.607
280.23	12.043
280.60	11.306
280.97	9.899
281.34	9.038
281.71	12.526
282.08	9.202
282.45	9.980
282.82	9.459
283.19	13.540
283.56	10.405
283.92	10.247
284.29	11.731
284.66	11.822
285.03	10.413
285.40	9.452
285.77	9.139
286.14	10.469
286.51	11.808
286.87	10.969
287.24	11.786
287.61	10.582
287.98	11.053
288.35	8.666
288.72	11.384
289.08	8.854
289.45	9.490
289.82	9.091
290.19	9.556
290.56	8.233
290.93	8.923
291.29	10.015
291.66	9.606
292.03	10.526
292.40	9.355
292.77	8.772
293.13	6.006
293.50	8.042
293.87	8.244
294.24	9.274
294.60	9.985
294.97	11.161
295.34	7.669
295.71	8.197
296.08	7.324
296.44	7.112
296.81	7.639
297.18	7.246
297.55	10.027
297.91	9.041
298.28	9.367
298.65	9.091
299.02	7.412
299.38	6.566
299.75	9.103
300.12	7.592
300.48	8.300
300.85	7.985
301.22	7.662
301.59	7.105
301.95	10.000
302.32	9.079
302.69	8.209
303.05	7.550
303.42	7.597
303.79	8.645
304.15	8.722
304.52	6.540
304.89	5.965
305.25	7.506
305.62	7.001
305.99	7.135
306.35	7.977
306.72	7.312
307.09	8.324
307.45	7.463
307.82	7.870
308.19	6.620
308.55	7.961
308.92	7.625
309.29	6.816
309.65	7.535
310.02	8.251
310.38	7.903
310.75	7.104
311.12	8.827
311.48	7.211
311.85	6.806
312.22	6.751
312.58	8.811
312.95	8.218
313.31	7.143
313.68	6.806
314.05	7.143
314.41	8.351
314.78	7.526
315.14	8.222
315.51	9.524
315.87	9.016
316.24	8.898
316.61	8.563
316.97	9.524
317.34	8.984
317.70	8.891
318.07	9.423
318.43	9.706
318.80	10.038
319.16	11.230
319.53	10.541
319.89	9.350
320.26	10.526
320.62	11.434
320.99	11.065
321.35	11.819
321.72	12.876
322.08	11.883
322.45	12.386
322.81	13.065
323.18	14.230
323.54	13.803
323.91	14.314
324.27	14.941
324.64	16.386
325.00	16.971
325.37	16.988
325.73	16.863
326.10	17.530
326.46	18.565
326.83	18.110
327.19	18.396
327.56	20.591
327.92	20.687
328.29	20.268
328.65	22.547
329.01	21.875
329.38	21.935
329.74	22.191
330.11	24.282
330.47	22.635
330.84	22.596
331.20	25.760
331.56	25.093
331.93	26.119
332.29	25.115
332.66	25.520
333.02	25.836
333.38	26.031
333.75	27.656
334.11	25.962
334.48	27.380
334.84	27.656
335.20	27.905
335.57	27.199
335.93	27.371
336.29	27.440
336.66	27.611
337.02	26.301
337.38	28.333
337.75	28.909
338.11	28.765
338.47	27.646
338.84	29.945
339.20	29.982
339.56	28.257
339.93	28.738
340.29	31.009
340.65	29.659
341.02	29.167
341.38	29.292
341.74	28.799
342.11	27.123
342.47	28.559
342.83	28.633
343.20	28.397
343.56	30.261
343.92	28.875
344.28	29.718
344.65	27.547
345.01	29.127
345.37	28.007
345.73	29.456
346.10	30.026
346.46	29.184
346.82	29.378
347.19	28.096
347.55	29.073
347.91	28.722
348.27	28.779
348.63	29.898
349.00	28.548
349.36	28.429
349.72	29.934
350.08	29.918
350.45	29.449
350.81	27.741
351.17	27.036
351.53	29.388
351.89	27.993
352.26	28.400
352.62	29.194
352.98	27.791
353.34	28.180
353.70	29.288
354.07	29.758
354.43	27.702
354.79	29.232
355.15	29.365
355.51	29.747
355.87	28.722
356.24	27.080
356.60	28.537
356.96	29.365
357.32	28.514
357.68	28.929
358.04	28.352
358.40	28.296
358.77	28.788
359.13	28.983
359.49	28.120
359.85	28.861
360.21	27.671
360.57	29.304
360.93	28.290
361.29	27.644
361.66	27.743
362.02	29.924
362.38	29.170
362.74	27.631
363.10	29.345
363.46	28.021
363.82	29.902
364.18	27.749
364.54	28.088
364.90	28.817
365.26	28.311
365.62	29.708
365.98	28.666
366.35	29.352
366.71	29.194
367.07	29.028
367.43	27.750
367.79	28.269
368.15	29.146
368.51	28.696
368.87	28.571
369.23	28.014
369.59	28.863
369.95	27.639
370.31	29.408
370.67	30.000
371.03	28.305
371.39	28.228
371.75	27.619
372.11	28.459
372.47	28.698
372.83	29.879
373.19	28.245
373.55	28.736
373.91	29.590
374.27	29.554
374.63	29.864
374.99	28.298
375.35	29.666
375.71	30.350
376.07	28.862
376.42	28.980
376.78	28.658
377.14	29.790
377.50	29.084
377.86	28.581
378.22	29.930
378.58	29.103
378.94	29.238
379.30	29.757
379.66	30.219
380.02	29.123
380.38	28.484
380.74	28.546
381.09	29.571
381.45	29.602
381.81	29.488
382.17	29.442
382.53	28.607
382.89	29.881
383.25	29.060
383.61	29.268
383.97	28.508
384.32	29.581
384.68	28.793
385.04	27.757
385.40	29.745
385.76	29.434
386.12	30.207
386.48	30.268
386.83	29.613
387.19	29.243
387.55	30.113
387.91	28.606
388.27	28.938
388.62	29.452
388.98	28.975
389.34	29.981
389.70	29.832
390.06	28.508
390.42	29.534
390.77	29.627
391.13	29.950
391.49	29.366
391.85	29.045
392.20	28.437
392.56	29.116
392.92	29.243
393.28	29.186
393.64	28.288
393.99	30.031
394.35	28.779
394.71	29.119
395.07	29.227
395.42	29.083
395.78	29.837
396.14	29.193
396.50	29.296
396.85	28.525
397.21	28.885
397.57	28.401
397.92	28.460
398.28	29.310
398.64	27.952
399.00	28.837
399.35	27.540
399.71	28.719
400.07	29.686
400.42	28.397
400.78	29.516
401.14	29.099
401.49	28.588
401.85	28.458
402.21	28.614
402.57	28.750
402.92	26.976
403.28	28.697
403.63	28.499
403.99	27.934
404.35	29.232
404.70	27.083
405.06	27.615
405.42	28.216
405.77	27.949
406.13	28.172
406.49	28.005
406.84	27.751
407.20	27.875
407.55	27.624
407.91	27.340
408.27	27.470
408.62	28.615
408.98	27.911
409.34	28.129
409.69	26.744
410.05	27.340
410.40	27.469
410.76	28.227
411.11	28.000
411.47	28.074
411.83	27.684
412.18	27.928
412.54	27.029
412.89	27.217
413.25	28.099
413.60	27.329
413.96	26.810
414.31	28.232
414.67	28.031
415.03	27.830
415.38	28.068
415.74	29.055
416.09	28.086
416.45	28.022
416.80	27.693
417.16	29.834
417.51	27.648
417.87	28.227
418.22	29.145
418.58	27.759
418.93	28.464
419.29	26.889
419.64	27.803
420.00	29.660
420.35	28.358
420.71	29.222
421.06	28.975
421.42	28.906
421.77	28.728
422.12	28.604
422.48	28.858
422.83	29.118
423.19	28.499
423.54	27.690
423.90	28.857
424.25	28.760
424.61	29.559
424.96	28.746
425.31	30.445
425.67	28.110
426.02	30.683
426.38	29.368
426.73	30.327
427.09	29.937
427.44	30.235
427.79	30.171
428.15	29.976
428.50	29.921
428.85	29.853
429.21	30.560
429.56	30.296
429.92	30.149
430.27	30.326
430.62	30.319
430.98	29.352
431.33	30.862
431.68	30.351
432.04	30.408
432.39	31.204
432.74	29.826
433.10	32.011
433.45	31.362
433.80	31.399
434.16	30.582
434.51	30.860
434.86	31.533
435.22	31.969
435.57	32.127
435.92	32.635
436.28	31.544
436.63	32.116
436.98	31.170
437.34	31.458
437.69	32.618
438.04	31.681
438.39	31.277
438.75	32.180
439.10	31.975
439.45	31.832
439.81	31.498
440.16	32.542
440.51	32.358
440.86	33.172
441.22	32.975
441.57	32.947
441.92	33.316
442.27	33.758
442.63	33.619
442.98	32.510
443.33	33.222
443.68	33.050
444.03	33.383
444.39	32.956
444.74	34.560
445.09	32.795
445.44	34.359
445.79	34.193
446.15	32.819
446.50	32.668
446.85	32.997
447.20	33.472
447.55	34.096
447.91	32.939
448.26	35.060
448.61	33.564
448.96	33.678
449.31	33.353
449.66	33.682
450.02	33.086
450.37	35.033
450.72	34.021
451.07	33.861
451.42	33.396
451.77	34.659
452.12	33.313
452.47	34.578
452.83	34.158
453.18	33.713
453.53	34.703
453.88	34.426
454.23	34.296
454.58	34.761
454.93	33.763
455.28	33.143
455.63	34.594
455.98	34.155
456.34	32.950
456.69	34.498
457.04	34.531
457.39	33.961
457.74	33.132
458.09	33.137
458.44	33.411
458.79	33.782
459.14	34.840
459.49	35.284
459.84	34.574
460.19	33.313
460.54	34.597
460.89	34.205
461.24	34.037
461.59	33.848
461.94	34.403
462.29	35.042
462.64	34.884
462.99	34.597
463.34	34.423
463.69	33.912
464.04	34.806
464.39	33.354
464.74	34.294
465.09	34.685
465.44	34.622
465.79	33.447
466.14	35.234
466.49	34.215
466.84	34.087
467.19	33.980
467.54	35.249
467.89	34.112
468.24	33.698
468.59	35.111
468.94	34.159
469.29	34.885
469.64	34.313
469.99	35.529
470.34	33.379
470.68	35.123
471.03	34.820
471.38	34.451
471.73	34.244
472.08	34.600
472.43	33.557
472.78	33.859
473.13	34.898
473.48	34.853
473.83	33.935
474.17	34.780
474.52	33.950
474.87	34.485
475.22	33.923
475.57	34.444
475.92	34.449
476.27	33.818
476.61	35.069
476.96	33.073
477.31	34.613
477.66	34.101
478.01	34.643
478.36	33.388
478.70	34.965
479.05	34.341
479.40	33.757
479.75	33.942
480.10	34.255
480.45	33.800
480.79	34.189
481.14	34.682
481.49	33.645
481.84	34.604
482.19	34.004
482.53	33.765
482.88	32.363
483.23	33.973
483.58	34.198
483.92	32.720
484.27	32.407
484.62	33.079
484.97	33.499
485.31	33.309
485.66	33.369
486.01	33.726
486.36	33.534
486.70	33.676
487.05	32.901
487.40	32.859
487.75	33.155
488.09	32.726
488.44	33.184
488.79	33.097
489.13	33.173
489.48	32.749
489.83	33.004
490.17	33.303
490.52	33.118
490.87	32.809
491.22	33.333
491.56	33.302
491.91	33.031
492.26	33.350
492.60	32.582
492.95	33.743
493.30	32.487
493.64	33.448
493.99	33.333
494.34	32.670
494.68	32.952
495.03	32.165
495.37	32.974
495.72	33.317
496.07	32.927
496.41	32.547
496.76	32.427
497.11	32.417
497.45	32.792
497.80	32.745
498.14	32.737
498.49	32.504
498.84	32.485
499.18	32.078
499.53	32.440
499.87	33.123
500.22	31.998
500.56	33.283
500.91	31.928
501.26	31.933
501.60	31.628
501.95	31.926
502.29	32.785
502.64	32.432
502.98	32.314
503.33	30.836
503.67	31.904
504.02	31.769
504.36	32.410
504.71	31.717
505.06	31.907
505.40	31.827
505.75	32.165
506.09	31.272
506.44	32.649
506.78	31.582
507.13	32.161
507.47	30.183
507.82	31.357
508.16	31.273
508.51	31.584
508.85	31.554
509.19	30.867
509.54	31.475
509.88	30.421
510.23	31.791
510.57	31.106
510.92	29.318
511.26	30.387
511.61	30.528
511.95	31.616
512.30	31.596
512.64	31.441
512.98	30.882
513.33	31.617
513.67	30.870
514.02	32.208
514.36	30.857
514.70	31.760
515.05	31.904
515.39	30.224
515.74	32.156
516.08	31.441
516.42	32.391
516.77	31.597
517.11	31.869
517.46	31.299
517.80	31.049
518.14	29.884
518.49	29.928
518.83	30.316
519.17	29.897
519.52	29.722
519.86	30.132
520.20	30.620
520.55	29.456
520.89	29.925
521.23	30.526
521.58	31.230
521.92	30.769
522.26	30.384
522.61	31.104
522.95	30.728
523.29	29.225
523.64	30.178
523.98	30.266
524.32	30.541
524.66	31.626
525.01	30.909
525.35	30.331
525.69	30.034
526.04	29.563
526.38	31.128
526.72	30.281
527.06	29.053
527.41	29.749
527.75	30.094
528.09	28.771
528.43	30.182
528.78	30.099
529.12	30.645
529.46	29.500
529.80	30.019
530.15	30.099
530.49	30.774
530.83	30.164
531.17	29.013
531.51	29.275
531.86	28.212
532.20	29.923
532.54	30.769
532.88	30.390
533.22	30.511
533.57	29.489
533.91	28.786
534.25	30.924
534.59	28.223
534.93	28.949
535.27	29.505
535.62	29.877
535.96	30.202
536.30	30.739
536.64	29.428
536.98	29.059
537.32	29.730
537.66	29.243
538.01	30.070
538.35	30.374
538.69	29.427
539.03	28.366
539.37	30.148
539.71	29.993
540.05	29.803
540.39	29.294
540.73	30.056
541.07	29.765
541.42	29.435
541.76	29.525
542.10	29.043
542.44	29.256
542.78	27.942
543.12	29.327
543.46	29.138
543.80	30.118
544.14	27.971
544.48	29.247
544.82	28.571
545.16	29.303
545.50	29.105
545.84	29.391
546.18	28.794
546.52	29.128
546.86	27.894
547.20	28.326
547.54	28.622
547.88	28.601
548.22	27.219
548.56	27.309
548.90	28.504
549.24	28.168
549.58	28.914
549.92	28.306
550.26	28.205
550.60	29.219
550.94	29.201
551.28	27.512
551.62	28.231
551.96	27.218
552.30	28.216
552.64	27.362
552.98	28.270
553.32	27.247
553.66	28.012
554.00	28.832
554.34	28.139
554.68	28.466
555.02	27.530
555.36	27.375
555.69	26.813
556.03	27.052
556.37	27.473
556.71	27.076
557.05	27.815
557.39	26.097
557.73	27.961
558.07	27.753
558.41	27.182
558.75	26.812
559.08	26.162
559.42	26.587
559.76	26.982
560.10	26.988
560.44	27.699
560.78	27.063
561.12	26.587
561.45	27.618
561.79	27.591
562.13	27.892
562.47	27.194
562.81	27.089
563.15	27.080
563.48	26.945
563.82	27.248
564.16	25.696
564.50	25.473
564.84	26.908
565.17	27.632
565.51	27.732
565.85	27.435
566.19	26.724
566.52	26.542
566.86	26.928
567.20	26.712
567.54	26.642
567.88	27.944
568.21	26.867
568.55	26.957
568.89	27.567
569.23	26.818
569.56	27.320
569.90	27.081
570.24	26.907
570.57	27.018
570.91	26.978
571.25	26.373
571.59	26.503
571.92	26.548
572.26	26.812
572.60	26.450
572.93	26.514
573.27	26.332
573.61	26.134
573.95	26.352
574.28	26.245
574.62	26.240
574.96	26.477
575.29	25.972
575.63	25.758
575.97	25.779
576.30	25.724
576.64	26.066
576.98	26.203
577.31	26.346
577.65	26.216
577.98	26.416
578.32	25.798
578.66	25.038
578.99	24.942
579.33	25.131
579.67	25.132
580.00	26.025
580.34	25.995
580.67	25.767
581.01	26.321
581.35	25.280
581.68	25.546
582.02	25.638
582.35	25.831
582.69	26.081
583.02	25.657
583.36	25.313
583.70	25.987
584.03	26.411
584.37	25.974
584.70	25.769
585.04	25.207
585.37	25.774
585.71	25.401
586.04	25.769
586.38	25.553
586.72	25.911
587.05	25.765
587.39	25.496
587.72	26.052
588.06	25.436
588.39	25.520
588.73	25.733
589.06	26.321
589.40	25.579
589.73	26.068
590.07	25.415
590.40	25.542
590.73	25.412
591.07	24.555
591.40	25.289
591.74	25.249
592.07	25.788
592.41	25.618
592.74	25.010
593.08	24.834
593.41	25.832
593.75	24.992
594.08	24.476
594.41	25.910
594.75	25.802
595.08	25.615
595.42	25.543
595.75	25.235
596.09	25.098
596.42	24.928
596.75	24.778
597.09	24.510
597.42	24.029
597.75	25.699
598.09	24.943
598.42	24.504
598.76	25.225
599.09	24.639
599.42	24.517
599.76	24.906
600.09	24.661
600.42	24.905
600.76	24.257
601.09	25.153
601.42	24.285
601.76	24.811
602.09	24.711
602.42	25.147
602.76	25.340
603.09	25.291
603.42	25.794
603.76	25.202
604.09	24.504
604.42	24.788
604.76	24.833
605.09	24.452
605.42	24.470
605.75	24.081
606.09	24.416
606.42	23.978
606.75	23.853
607.09	24.615
607.42	24.191
607.75	24.156
608.08	22.686
608.42	24.623
608.75	24.867
609.08	24.664
609.41	24.873
609.75	23.942
610.08	24.463
610.41	23.768
610.74	24.915
611.07	24.238
611.41	24.857
611.74	24.733
612.07	23.769
612.40	24.891
612.73	23.672
613.07	24.184
613.40	23.961
613.73	23.951
614.06	24.151
614.39	25.155
614.72	23.922
615.06	23.911
615.39	23.472
615.72	23.466
616.05	24.916
616.38	22.735
616.71	24.037
617.05	24.274
617.38	23.696
617.71	23.522
618.04	23.429
618.37	25.095
618.70	23.366
619.03	25.625
619.36	23.444
619.69	24.185
620.03	24.982
620.36	23.391
620.69	22.841
621.02	22.095
621.35	23.402
621.68	23.980
622.01	24.000
622.34	22.825
622.67	23.817
623.00	23.507
623.33	24.543
623.66	23.485
623.99	23.449
624.32	24.791
624.65	22.707
624.99	23.552
625.32	23.048
625.65	24.038
625.98	23.771
626.31	22.860
626.64	24.523
626.97	24.084
627.30	23.030
627.63	24.350
627.96	23.810
628.29	24.237
628.62	24.189
628.95	24.449
629.28	24.496
629.61	23.928
629.94	23.851
630.26	22.431
630.59	23.933
630.92	23.282
631.25	23.077
631.58	22.687
631.91	22.149
632.24	23.050
632.57	23.068
632.90	23.843
633.23	22.941
633.56	23.804
633.89	23.181
634.22	24.568
634.55	24.142
634.88	22.350
635.20	21.154
635.53	24.000
635.86	22.237
636.19	24.580
636.52	23.980
636.85	21.836
637.18	23.270
637.51	24.403
637.83	23.127
638.16	24.011
638.49	22.480
638.82	22.763
639.15	23.474
639.48	23.521
639.81	21.897
640.13	22.367
640.46	22.741
640.79	21.797
641.12	21.713
641.45	21.471
641.77	21.926
642.10	22.117
642.43	23.473
642.76	23.927
643.09	23.425
643.41	22.492
643.74	23.558
644.07	24.138
644.40	25.676
644.73	21.191
645.05	21.812
645.38	24.339
645.71	21.809
646.04	24.237
646.36	25.177
646.69	24.460
647.02	24.386
647.35	23.321
647.67	23.218
648.00	26.306
648.33	22.696
648.66	23.051
648.98	21.943
649.31	20.000
649.64	21.507
649.96	22.042
650.29	22.828
650.62	22.735
650.94	22.222
651.27	21.043
651.60	22.342
651.92	21.154
652.25	21.492
652.58	24.167
652.90	22.642
653.23	21.176
653.56	20.135
653.88	20.962
654.21	19.615
654.54	21.222
654.86	23.769
655.19	22.368
655.52	23.142
655.84	22.309
656.17	25.496
656.49	34.413
656.82	35.605
657.15	26.872
657.47	19.854
657.80	14.707
658.13	14.290
658.45	21.643
658.78	21.853
659.10	21.380
659.43	20.759
659.75	22.102
660.08	20.345
660.41	22.370
660.73	20.856
661.06	23.397
661.38	19.765
661.71	20.739
662.03	26.180
662.36	22.857
662.68	24.115
663.01	23.581
663.33	22.506
663.66	19.535
663.98	22.093
664.31	23.454
664.63	20.968
664.96	19.130
665.28	20.309
665.61	21.645
665.93	23.043
666.26	21.692
666.58	18.568
666.91	24.000
667.23	23.585
667.56	20.853
667.88	21.823
668.21	22.196
668.53	21.986
668.86	21.698
669.18	19.575
669.50	18.886
669.83	17.442
670.15	22.611
670.48	19.139
670.80	22.811
671.13	20.134
671.45	18.721
671.77	21.888
672.10	22.970
672.42	21.536
672.75	22.025
673.07	23.077
673.39	21.468
673.72	21.302
674.04	21.250
674.37	22.458
674.69	20.985
675.01	21.778
675.34	22.748
675.66	20.139
675.98	25.499
676.31	21.330
676.63	22.328
676.95	19.318
677.28	26.353
677.60	22.651
677.92	21.101
678.25	22.538
678.57	19.481
678.89	21.429
679.22	22.595
679.54	20.080
679.86	19.881
680.18	21.165
680.51	21.023
680.83	17.296
681.15	21.000
681.48	23.361
681.80	22.107
682.12	19.960
682.44	18.828
682.77	22.296
683.09	20.595
683.41	21.591
683.73	21.198
684.06	21.460
684.38	19.570
684.70	21.133
685.02	20.539
685.34	20.949
685.67	20.638
685.99	23.327
686.31	20.354
686.63	21.336
686.96	21.293
687.28	17.980
687.60	21.863
687.92	21.212
688.24	20.968
688.56	20.306
688.89	22.321
689.21	21.556
689.53	21.114
689.85	20.930
690.17	21.875
690.49	22.459
690.82	17.961
691.14	21.190
691.46	21.262
691.78	18.018
692.10	21.720
692.42	19.264
692.74	22.650
693.06	21.847
693.39	18.326
693.71	22.398
694.03	18.476
694.35	24.766
694.67	21.212
694.99	19.582
695.31	20.888
695.63	23.000
695.95	19.192
696.27	23.575
696.59	18.056
696.91	21.289
697.23	19.537
697.56	24.010
697.88	23.441
698.20	19.134
698.52	21.176
698.84	21.292
699.16	16.250
699.48	21.053
699.80	22.084
700.12	17.520
700.44	21.569
700.76	17.151
701.08	16.061
701.40	18.976
701.72	26.543
702.04	21.782
702.36	18.729
702.68	19.520
703.00	20.909
703.32	20.528
703.64	15.819
703.96	20.000
704.28	22.393
704.60	18.413
704.91	17.981
705.23	17.940
705.55	24.028
705.87	23.105
706.19	14.444
706.51	20.962
706.83	19.614
707.15	20.872
707.47	18.487
707.79	17.448
708.11	21.500
708.43	20.500
708.74	22.222
709.06	22.817
709.38	19.266
709.70	18.047
710.02	20.382
710.34	21.672
710.66	18.590
710.98	19.536
711.29	20.656
711.61	22.034
711.93	18.241
712.25	24.055
712.57	22.344
712.89	20.149
713.20	21.107
713.52	21.603
713.84	17.747
714.16	17.182
714.48	21.290
714.80	22.756
715.11	19.453
715.43	19.122
715.75	17.000
716.07	20.930
716.39	20.470
716.70	17.343
717.02	17.557
717.34	25.101
717.66	15.929
717.97	19.565
718.29	20.502
718.61	20.866
718.93	19.767
719.24	23.574
719.56	21.285
719.88	25.773
720.20	20.455
720.51	18.391
720.83	22.780
721.15	22.689
721.46	22.984
721.78	17.787
722.10	17.100
722.42	13.693
722.73	19.184
723.05	22.449
723.37	21.186
723.68	26.577
724.00	21.795
724.32	22.667
724.63	16.818
724.95	15.721
725.27	23.041
725.58	20.763
725.90	19.048
726.22	23.938
726.53	22.712
726.85	23.596
727.16	23.396
727.48	19.433
727.80	19.433
728.11	13.983
728.43	19.608
728.74	17.742
729.06	15.600
729.38	24.436
729.69	16.733
730.01	16.154
730.32	22.761
730.64	21.201
730.96	21.887
731.27	22.333
731.59	20.000
731.90	20.382
732.22	23.659
732.53	19.934
732.85	18.794
733.16	24.242
733.48	17.626
733.80	19.203
734.11	16.949
734.43	19.931
734.74	20.000
735.06	16.612
735.37	25.378
735.69	19.529
736.00	18.815
736.32	22.148
736.63	21.127
736.95	23.549
737.26	15.302
737.58	19.128
737.89	21.245
738.21	19.925
738.52	17.284
738.83	16.157
739.15	14.410
739.46	21.260
739.78	19.048
740.09	18.954
740.41	18.116
740.72	15.748
741.04	20.243
741.35	17.021
741.66	21.327
741.98	12.755
742.29	19.307
742.61	16.230
742.92	14.692
743.23	18.981
743.55	17.195
743.86	18.182
744.18	20.574
744.49	22.872
744.80	10.326
745.12	22.460
745.43	15.610
745.74	19.792
746.06	18.537
746.37	16.754
746.68	18.483
747.00	14.362
747.31	20.896
747.62	14.078
747.94	22.967
748.25	21.287
748.56	18.033
748.88	22.513
749.19	22.872
749.50	19.704
749.82	16.038
750.13	14.679
750.44	21.053
750.75	21.269
751.07	22.628
751.38	19.157
751.69	18.824
752.01	20.930
752.32	17.530
752.63	17.391
752.94	13.793
753.26	26.360
753.57	15.385
753.88	19.912
754.19	17.500
754.51	15.702
754.82	16.194
755.13	24.167
755.44	20.161
755.75	17.578
756.07	15.564
756.38	20.000
756.69	20.690
757.00	16.000
757.31	21.895
757.63	16.159
757.94	17.222
758.25	18.630
758.56	19.947
758.87	15.581
759.18	18.380
759.50	19.636
759.81	19.398
760.12	18.065
760.43	17.576
760.74	16.975
761.05	18.154
761.36	20.739
761.67	20.000
761.99	21.429
762.30	17.818
762.61	22.925
762.92	17.195
763.23	20.270
763.54	17.757
763.85	16.949
764.16	17.012
764.47	20.968
764.78	19.048
765.10	17.172
765.41	22.397
765.72	18.413
766.03	17.293
766.34	18.978
766.65	17.928
766.96	19.192
767.27	14.362
767.58	14.943
767.89	10.638
768.20	21.591
768.51	20.879
768.82	16.749
769.13	16.590
769.44	18.026
769.75	16.438
770.06	18.534
770.37	14.904
770.68	17.259
770.99	17.647
771.30	22.059
771.61	19.005
771.92	22.414
772.23	21.182
772.54	18.280
772.85	22.222
773.16	21.348
773.47	23.529
773.78	14.379
774.09	18.563
774.39	18.667
774.70	21.019
775.01	23.448
775.32	27.857
775.63	11.570
775.94	22.137
776.25	22.047
776.56	16.667
776.87	16.346
777.18	15.385
777.48	16.379
777.79	15.652
778.10	5.714
778.41	18.018
778.72	19.841
779.03	14.286
779.34	21.277
779.65	18.493
779.95	16.438
780.26	22.759
780.57	13.008
780.88	22.835
781.19	17.241
781.50	24.031
781.80	20.118
782.11	13.208
782.42	17.692
782.73	10.791
783.04	20.000
783.34	15.278
783.65	9.402
783.96	17.213
784.27	22.759
784.57	25.203
784.88	30.469
785.19	37.000
785.50	25.000
785.81	13.793
786.11	22.414
786.42	7.767
786.73	21.818
787.04	24.490
787.34	26.786
787.65	21.905
787.96	11.504
788.26	18.182
788.57	25.641
788.88	18.750
789.19	19.841
789.49	12.174
789.80	10.204
790.11	13.131
790.41	13.636
790.72	22.826
791.03	21.591
791.33	23.750
791.64	15.000
791.95	17.442
792.25	28.723
792.56	25.843
792.87	17.808
793.17	14.493
793.48	14.667
793.79	12.500
794.09	30.000
794.40	8.491
794.70	10.680
795.01	20.325
795.32	18.803
795.62	22.857
795.93	13.725
796.23	26.415
796.54	26.042
796.85	32.353
797.15	5.634
797.46	25.000
797.76	19.697
798.07	27.907
798.37	17.105
798.68	9.091
798.99	27.160
799.29	21.429
799.60	27.536
799.90	28.000
800.21	27.869
800.51	16.923
800.82	20.339
801.12	24.638
801.43	16.393
801.73	33.333
802.04	8.000
802.34	11.940
802.65	36.538
802.95	37.500
803.26	25.000
803.56	19.608
803.87	10.870
804.17	14.667
804.48	28.571
804.78	20.370
805.09	39.130
805.39	24.444
805.70	12.963
806.00	5.263
806.30	40.845
806.61	22.857
806.91	12.500
807.22	22.368
807.52	29.333
807.83	16.364
808.13	22.222
808.43	19.118
808.74	8.955
809.04	16.949
809.35	17.308
809.65	15.625
809.95	-5.405
810.26	15.909
810.56	12.329
810.86	19.048
811.17	16.000
811.47	34.694
811.77	-13.158
812.08	6.818
812.38	18.868
812.69	22.500
812.99	12.121
813.29	18.421
813.59	-8.571
813.90	15.909
814.20	10.256
814.50	17.308
814.81	15.094
815.11	6.383
815.41	25.424
815.72	21.429
816.02	29.412
816.32	10.417
816.62	24.390
816.93	32.432
817.23	11.429
817.53	27.083
817.84	4.348
818.14	5.769
818.44	2.632
818.74	30.435
819.04	-5.000
819.35	51.351
819.65	11.765
819.95	11.111
820.25	23.810
820.56	37.500
820.86	-20.690
821.16	50.000
821.46	42.553
821.76	32.500
822.07	37.209
822.37	10.811
822.67	40.625
822.97	42.857
823.27	25.000
823.57	20.000
823.88	22.222
824.18	25.000
824.48	35.294
824.78	12.903
825.08	39.130
825.38	21.212
825.69	8.333
825.99	23.684
826.29	8.333
826.59	-13.333
826.89	-4.762
827.19	32.609
827.49	22.500
827.79	37.143
828.09	39.286
828.39	63.636
828.70	43.243
829.00	-7.143
829.30	14.286
829.60	33.333
829.90	43.750
830.20	23.684
830.50	44.444
830.80	-21.739
831.10	18.182
831.40	48.485
831.70	22.581
832.00	47.619
832.30	-4.762
832.60	-25.000
832.90	20.690
833.20	-5.000
833.50	30.303
833.80	51.852
834.10	34.615
834.40	53.125
834.70	-11.111
835.00	10.526
835.30	73.077
835.60	46.667
835.90	38.710
836.20	9.091
836.50	53.571
836.80	0.000
837.10	-7.143
837.40	66.667
837.70	31.818
838.00	-27.273
838.30	34.783
838.60	61.538
838.90	22.727
839.19	25.000
839.49	40.000
839.79	15.385
840.09	58.333
840.39	42.857
840.69	3.571
840.99	0.000
841.29	-10.526
841.59	-140.000
841.88	36.364
842.18	90.000
842.48	37.500
842.78	46.667
843.08	37.037
843.38	-100.000
843.68	78.261
843.97	106.667
844.27	-66.667
844.57	5.000
844.87	44.444
845.17	23.810
845.47	26.667
845.76	28.571
846.06	11.765
846.36	110.000
846.66	21.429
846.96	40.000
847.25	-37.500
847.55	-7.143
847.85	-37.500
848.15	-18.182
848.44	-433.333
848.74	10.000
849.04	59.259
849.34	27.273
849.63	-66.667
849.93	-120.000
850.23	11.111
850.53	70.000
850.82	-7.692
851.12	77.778
851.42	86.667
851.71	38.462
852.01	42.857
852.31	50.000
852.61	36.364
852.90	40.000
853.20	-5.263
853.50	8.333
853.79	47.826
854.09	66.667
854.39	26.316
854.68	8.333
854.98	48.387
855.28	46.154
855.57	60.000
855.87	38.889
856.17	51.852
856.46	-7.143
856.76	0.000
857.05	77.778
857.35	48.000
857.65	16.667
857.94	53.846
858.24	41.379
858.53	22.222
858.83	25.926
859.13	9.091
859.42	17.391
859.72	50.000
860.01	-166.667
860.31	36.000
860.60	76.190
860.90	-166.667
861.20	6.667
861.49	-200.000
861.79	-6.667
862.08	50.000
862.38	46.667
862.67	-120.000
862.97	66.667
863.26	91.667
863.56	61.111
863.85	-66.667
864.15	33.333
864.44	-30.000
864.74	92.857
865.03	450.000
865.33	-220.000
865.62	83.333
865.92	25.000
866.21	83.333
866.51	75.000
866.80	45.455
867.10	100.000
867.39	108.333
867.69	0.000
867.98	69.231
868.27	-300.000
868.57	93.333
868.86	38.889
869.16	69.231
869.45	66.667
869.75	0.000
870.04	0.000
870.33	-28.571
870.63	57.143
870.92	233.333
871.22	0.000
871.51	300.000
871.80	66.667
872.10	400.000
>>>>>End Processed Spectral Data<<<<<
