SpectraSuite Data File
++++++++++++++++++++++++++++++++++++
Date: Fri May 15 20:02:20 PDT 2015
User: schluterlab
Dark Spectrum Present: Yes
Reference Spectrum Present: Yes
Number of Sampled Component Spectra: 1
Spectrometers: USB2E3373
Integration Time (usec): 3000 (USB2E3373)
Spectra Averaged: 3 (USB2E3373)
Boxcar Smoothing: 0 (USB2E3373)
Correct for Electrical Dark: No (USB2E3373)
Strobe/Lamp Enabled: No (USB2E3373)
Correct for Detector Non-linearity: No (USB2E3373)
Correct for Stray Light: No (USB2E3373)
Number of Pixels in Processed Spectrum: 2048
>>>>>Begin Processed Spectral Data<<<<<
178.53	0.000
178.91	0.000
179.29	100.000
179.67	-300.000
180.04	-14.286
180.42	200.000
180.80	-1000.000
181.18	133.333
181.56	300.000
181.94	-350.000
182.31	900.000
182.69	40.000
183.07	-233.333
183.45	-140.000
183.83	166.667
184.20	54.545
184.58	55.556
184.96	-250.000
185.34	-66.667
185.72	300.000
186.09	84.615
186.47	-800.000
186.85	100.000
187.23	77.778
187.61	-900.000
187.98	33.333
188.36	77.778
188.74	166.667
189.12	47.059
189.49	83.333
189.87	0.000
190.25	78.571
190.63	400.000
191.00	66.667
191.38	36.842
191.76	500.000
192.14	75.000
192.51	100.000
192.89	33.333
193.27	-85.714
193.65	16.667
194.02	154.545
194.40	30.000
194.78	-100.000
195.15	50.000
195.53	-75.000
195.91	150.000
196.29	-50.000
196.66	15.385
197.04	14.286
197.42	44.444
197.79	-366.667
198.17	-30.769
198.55	1100.000
198.92	-33.333
199.30	400.000
199.68	-60.000
200.05	-133.333
200.43	0.000
200.81	0.000
201.18	66.667
201.56	1300.000
201.94	100.000
202.31	-33.333
202.69	-120.000
203.07	175.000
203.44	800.000
203.82	0.000
204.19	42.857
204.57	-166.667
204.95	50.000
205.32	110.000
205.70	42.857
206.08	25.000
206.45	111.111
206.83	100.000
207.20	100.000
207.58	-0.000
207.96	-33.333
208.33	-30.000
208.71	-25.000
209.08	-83.333
209.46	-100.000
209.84	-120.000
210.21	600.000
210.59	14.286
210.96	66.667
211.34	150.000
211.71	113.333
212.09	57.143
212.46	-400.000
212.84	0.000
213.22	160.000
213.59	-0.000
213.97	53.846
214.34	127.273
214.72	83.333
215.09	125.000
215.47	69.231
215.84	0.000
216.22	133.333
216.59	-62.500
216.97	600.000
217.34	-25.000
217.72	-140.000
218.09	125.000
218.47	137.500
218.84	100.000
219.22	-88.889
219.59	20.000
219.97	333.333
220.34	-25.000
220.72	-57.143
221.09	-250.000
221.47	350.000
221.84	50.000
222.22	-150.000
222.59	-9.091
222.97	41.667
223.34	166.667
223.72	21.429
224.09	28.571
224.46	67.857
224.84	333.333
225.21	-10.000
225.59	100.000
225.96	200.000
226.34	75.000
226.71	42.857
227.08	0.000
227.46	12.500
227.83	100.000
228.21	55.556
228.58	-9.091
228.95	0.000
229.33	120.000
229.70	50.000
230.08	12.500
230.45	-57.143
230.82	71.429
231.20	33.333
231.57	100.000
231.95	85.714
232.32	-20.000
232.69	42.857
233.07	333.333
233.44	100.000
233.81	30.000
234.19	55.556
234.56	35.294
234.93	-250.000
235.31	175.000
235.68	-40.000
236.05	46.154
236.43	40.000
236.80	70.588
237.17	53.125
237.55	35.000
237.92	18.519
238.29	27.778
238.67	56.667
239.04	50.000
239.41	48.780
239.79	56.667
240.16	43.902
240.53	44.737
240.91	21.739
241.28	50.794
241.65	64.286
242.02	43.836
242.40	58.333
242.77	49.153
243.14	43.939
243.51	48.750
243.89	66.667
244.26	45.977
244.63	57.143
245.00	44.330
245.38	59.794
245.75	50.562
246.12	34.483
246.49	45.455
246.87	49.038
247.24	50.420
247.61	54.386
247.98	49.593
248.36	43.125
248.73	50.658
249.10	53.896
249.47	50.633
249.84	47.712
250.22	51.176
250.59	56.209
250.96	47.418
251.33	52.907
251.70	55.294
252.08	57.360
252.45	45.545
252.82	56.784
253.19	50.691
253.56	50.935
253.94	53.153
254.31	50.435
254.68	50.877
255.05	46.457
255.42	52.402
255.79	47.104
256.16	52.529
256.54	51.493
256.91	45.627
257.28	48.327
257.65	50.936
258.02	46.099
258.39	52.189
258.76	56.410
259.14	49.834
259.51	50.485
259.88	48.110
260.25	49.673
260.62	53.819
260.99	47.119
261.36	49.658
261.73	51.899
262.10	51.672
262.47	54.601
262.85	47.335
263.22	48.615
263.59	47.975
263.96	56.211
264.33	52.121
264.70	50.298
265.07	51.786
265.44	52.125
265.81	52.542
266.18	50.273
266.55	50.643
266.92	49.482
267.29	52.219
267.66	50.895
268.03	51.832
268.40	49.869
268.77	50.267
269.14	48.921
269.51	49.100
269.88	48.878
270.25	48.469
270.62	48.293
270.99	50.384
271.36	45.966
271.73	47.887
272.10	49.878
272.47	51.773
272.84	48.020
273.21	46.404
273.58	48.916
273.95	48.513
274.32	45.727
274.69	46.154
275.06	51.116
275.43	47.619
275.80	48.565
276.17	48.046
276.54	46.467
276.91	48.026
277.28	47.598
277.65	47.727
278.02	47.021
278.39	49.015
278.76	47.589
279.13	45.021
279.50	48.950
279.87	50.324
280.23	47.527
280.60	48.928
280.97	46.667
281.34	45.769
281.71	48.049
282.08	48.057
282.45	46.771
282.82	46.718
283.19	49.710
283.56	48.170
283.92	47.249
284.29	45.769
284.66	46.124
285.03	45.383
285.40	46.503
285.77	45.518
286.14	45.126
286.51	51.292
286.87	46.801
287.24	45.672
287.61	44.797
287.98	46.491
288.35	46.620
288.72	45.359
289.08	44.444
289.45	44.640
289.82	46.503
290.19	42.833
290.56	43.053
290.93	45.118
291.29	42.835
291.66	43.465
292.03	41.148
292.40	42.742
292.77	41.786
293.13	41.071
293.50	40.212
293.87	42.137
294.24	41.113
294.60	40.238
294.97	40.030
295.34	40.798
295.71	40.387
296.08	38.864
296.44	38.407
296.81	40.139
297.18	39.855
297.55	41.463
297.91	38.493
298.28	39.446
298.65	38.535
299.02	38.140
299.38	39.124
299.75	40.552
300.12	37.565
300.48	37.813
300.85	39.290
301.22	37.403
301.59	39.342
301.95	38.861
302.32	37.354
302.69	37.065
303.05	38.243
303.42	37.609
303.79	36.332
304.15	37.754
304.52	35.791
304.89	35.205
305.25	37.772
305.62	34.656
305.99	36.257
306.35	36.532
306.72	35.321
307.09	35.120
307.45	36.969
307.82	35.995
308.19	37.515
308.55	36.641
308.92	37.691
309.29	35.754
309.65	35.845
310.02	37.514
310.38	35.126
310.75	36.393
311.12	37.352
311.48	34.464
311.85	34.450
312.22	35.443
312.58	35.881
312.95	34.365
313.31	35.714
313.68	35.393
314.05	33.980
314.41	34.330
314.78	34.742
315.14	37.307
315.51	35.507
315.87	34.529
316.24	35.794
316.61	34.843
316.97	34.623
317.34	35.352
317.70	34.130
318.07	33.846
318.43	36.078
318.80	34.943
319.16	35.352
319.53	35.708
319.89	36.516
320.26	34.919
320.62	36.710
320.99	33.925
321.35	34.635
321.72	34.476
322.08	35.650
322.45	35.635
322.81	35.167
323.18	36.506
323.54	36.004
323.91	35.930
324.27	36.621
324.64	36.610
325.00	35.584
325.37	37.557
325.73	34.814
326.10	37.693
326.46	37.578
326.83	38.058
327.19	37.838
327.56	38.488
327.92	39.261
328.29	39.554
328.65	40.000
329.01	40.165
329.38	41.106
329.74	40.227
330.11	40.500
330.47	39.981
330.84	41.538
331.20	42.490
331.56	42.685
331.93	42.648
332.29	43.538
332.66	43.077
333.02	42.565
333.38	43.446
333.75	44.872
334.11	42.972
334.48	45.150
334.84	45.147
335.20	44.739
335.57	44.062
335.93	44.625
336.29	46.225
336.66	44.596
337.02	46.004
337.38	43.981
337.75	45.364
338.11	46.078
338.47	45.255
338.84	46.488
339.20	46.069
339.56	46.055
339.93	46.195
340.29	46.606
340.65	47.312
341.02	46.188
341.38	44.956
341.74	44.700
342.11	44.107
342.47	46.174
342.83	46.280
343.20	45.819
343.56	47.565
343.92	46.058
344.28	46.968
344.65	45.596
345.01	45.117
345.37	44.743
345.73	46.862
346.10	46.419
346.46	43.734
346.82	43.372
347.19	44.472
347.55	44.528
347.91	46.926
348.27	43.735
348.63	44.123
349.00	44.217
349.36	44.638
349.72	45.025
350.08	46.393
350.45	45.411
350.81	44.352
351.17	44.544
351.53	44.816
351.89	43.022
352.26	44.080
352.62	46.129
352.98	44.257
353.34	43.881
353.70	45.065
354.07	43.871
354.43	43.315
354.79	43.683
355.15	44.524
355.51	43.908
355.87	44.094
356.24	43.556
356.60	43.169
356.96	44.524
357.32	44.728
357.68	43.081
358.04	43.538
358.40	43.248
358.77	43.541
359.13	43.635
359.49	43.991
359.85	44.618
360.21	43.222
360.57	42.464
360.93	43.797
361.29	43.505
361.66	42.868
362.02	44.015
362.38	43.717
362.74	44.058
363.10	44.018
363.46	42.921
363.82	44.403
364.18	43.395
364.54	43.235
364.90	44.731
365.26	42.940
365.62	44.015
365.98	44.575
366.35	43.918
366.71	44.346
367.07	43.904
367.43	43.853
367.79	43.604
368.15	44.365
368.51	44.720
368.87	43.790
369.23	43.394
369.59	43.732
369.95	43.768
370.31	42.341
370.67	44.552
371.03	43.391
371.39	43.618
371.75	45.128
372.11	44.365
372.47	44.749
372.83	44.287
373.19	44.151
373.55	43.899
373.91	43.485
374.27	45.500
374.63	46.016
374.99	43.759
375.35	44.359
375.71	45.455
376.07	44.944
376.42	45.986
376.78	45.369
377.14	44.753
377.50	45.485
377.86	45.248
378.22	44.863
378.58	46.218
378.94	44.865
379.30	45.602
379.66	46.708
380.02	46.045
380.38	45.526
380.74	45.482
381.09	46.687
381.45	46.116
381.81	44.540
382.17	45.685
382.53	45.721
382.89	47.081
383.25	46.111
383.61	46.890
383.97	46.032
384.32	45.403
384.68	46.935
385.04	46.078
385.40	46.920
385.76	48.679
386.12	47.930
386.48	48.276
386.83	47.749
387.19	47.802
387.55	48.745
387.91	47.616
388.27	47.253
388.62	48.521
388.98	46.961
389.34	47.470
389.70	47.483
390.06	47.199
390.42	47.927
390.77	48.790
391.13	47.478
391.49	48.383
391.85	49.448
392.20	48.650
392.56	47.616
392.92	48.738
393.28	48.703
393.64	48.468
393.99	48.966
394.35	48.767
394.71	48.467
395.07	47.706
395.42	47.845
395.78	48.925
396.14	48.550
396.50	48.383
396.85	48.744
397.21	48.434
397.57	49.530
397.92	48.232
398.28	47.759
398.64	48.012
399.00	48.138
399.35	47.630
399.71	47.559
400.07	47.823
400.42	47.491
400.78	49.235
401.14	47.792
401.49	48.422
401.85	47.593
402.21	47.108
402.57	48.187
402.92	47.051
403.28	48.559
403.63	48.424
403.99	47.640
404.35	48.470
404.70	46.667
405.06	47.004
405.42	46.924
405.77	46.949
406.13	46.740
406.49	46.477
406.84	47.922
407.20	47.140
407.55	46.748
407.91	46.457
408.27	46.654
408.62	47.323
408.98	47.073
409.34	47.770
409.69	47.222
410.05	46.552
410.40	46.358
410.76	47.105
411.11	47.812
411.47	47.798
411.83	46.704
412.18	47.362
412.54	46.692
412.89	45.320
413.25	47.714
413.60	46.522
413.96	46.380
414.31	45.793
414.67	45.606
415.03	46.138
415.38	46.671
415.74	48.208
416.09	47.289
416.45	46.928
416.80	47.257
417.16	48.273
417.51	47.235
417.87	46.675
418.22	47.798
418.58	47.425
418.93	48.777
419.29	46.479
419.64	46.922
420.00	48.426
420.35	47.104
420.71	47.448
421.06	47.145
421.42	47.236
421.77	47.168
422.12	48.014
422.48	47.537
422.83	47.738
423.19	47.743
423.54	47.913
423.90	47.350
424.25	47.933
424.61	47.552
424.96	47.096
425.31	48.816
425.67	48.592
426.02	48.410
426.38	49.280
426.73	48.487
427.09	49.557
427.44	49.059
427.79	48.321
428.15	48.240
428.50	49.001
428.85	47.727
429.21	49.066
429.56	49.811
429.92	48.793
430.27	47.419
430.62	48.719
430.98	48.673
431.33	48.002
431.68	48.875
432.04	49.748
432.39	47.804
432.74	48.286
433.10	50.287
433.45	49.582
433.80	49.100
434.16	49.806
434.51	49.086
434.86	50.116
435.22	49.355
435.57	49.657
435.92	51.078
436.28	47.823
436.63	49.572
436.98	49.594
437.34	49.304
437.69	49.911
438.04	49.915
438.39	50.519
438.75	51.488
439.10	49.406
439.45	51.126
439.81	49.908
440.16	50.594
440.51	51.701
440.86	52.145
441.22	50.113
441.57	50.717
441.92	49.843
442.27	51.220
442.63	50.321
442.98	50.890
443.33	49.137
443.68	50.345
444.03	50.224
444.39	49.779
444.74	52.007
445.09	50.223
445.44	50.769
445.79	51.625
446.15	51.432
446.50	50.028
446.85	51.382
447.20	50.782
447.55	50.670
447.91	50.987
448.26	50.768
448.61	51.295
448.96	51.176
449.31	51.503
449.66	50.581
450.02	50.941
450.37	51.452
450.72	50.515
451.07	52.595
451.42	50.000
451.77	50.874
452.12	50.179
452.47	50.741
452.83	50.471
453.18	50.791
453.53	51.643
453.88	51.670
454.23	51.752
454.58	52.582
454.93	51.611
455.28	50.476
455.63	51.209
455.98	51.052
456.34	50.639
456.69	51.017
457.04	51.733
457.39	50.668
457.74	51.149
458.09	49.617
458.44	51.317
458.79	50.308
459.14	51.602
459.49	51.045
459.84	50.874
460.19	50.121
460.54	52.323
460.89	52.216
461.24	51.615
461.59	51.781
461.94	49.874
462.29	50.724
462.64	51.362
462.99	51.997
463.34	51.391
463.69	50.901
464.04	51.211
464.39	50.758
464.74	50.123
465.09	50.343
465.44	51.125
465.79	50.000
466.14	51.425
466.49	51.351
466.84	50.744
467.19	51.377
467.54	51.660
467.89	52.116
468.24	50.122
468.59	52.127
468.94	49.905
469.29	52.984
469.64	51.196
469.99	52.838
470.34	51.126
470.68	52.498
471.03	52.017
471.38	52.068
471.73	51.261
472.08	51.967
472.43	52.349
472.78	51.337
473.13	52.041
473.48	50.814
473.83	50.809
474.17	52.655
474.52	49.649
474.87	51.394
475.22	51.190
475.57	50.819
475.92	52.660
476.27	52.619
476.61	52.488
476.96	49.749
477.31	51.379
477.66	50.562
478.01	52.555
478.36	51.089
478.70	52.909
479.05	51.813
479.40	51.881
479.75	49.896
480.10	51.152
480.45	51.100
480.79	52.518
481.14	53.227
481.49	51.379
481.84	51.110
482.19	50.748
482.53	51.511
482.88	50.979
483.23	49.904
483.58	51.132
483.92	51.113
484.27	50.273
484.62	51.053
484.97	50.498
485.31	50.686
485.66	48.898
486.01	49.204
486.36	48.807
486.70	49.820
487.05	50.279
487.40	50.776
487.75	51.408
488.09	51.422
488.44	51.204
488.79	50.990
489.13	51.282
489.48	51.133
489.83	51.300
490.17	50.876
490.52	51.455
490.87	50.255
491.22	51.289
491.56	51.139
491.91	50.860
492.26	51.094
492.60	51.440
492.95	53.123
493.30	51.295
493.64	52.259
493.99	51.546
494.34	51.699
494.68	52.619
495.03	51.046
495.37	52.306
495.72	52.297
496.07	52.976
496.41	50.943
496.76	52.142
497.11	51.653
497.45	52.029
497.80	52.825
498.14	50.969
498.49	52.514
498.84	51.597
499.18	52.058
499.53	51.935
499.87	51.605
500.22	51.780
500.56	51.841
500.91	52.460
501.26	51.063
501.60	51.697
501.95	52.111
502.29	52.349
502.64	51.255
502.98	51.653
503.33	49.808
503.67	50.602
504.02	51.906
504.36	53.093
504.71	50.960
505.06	50.931
505.40	51.472
505.75	51.701
506.09	51.039
506.44	52.413
506.78	51.531
507.13	52.275
507.47	52.219
507.82	51.923
508.16	51.611
508.51	51.469
508.85	52.852
509.19	51.251
509.54	52.118
509.88	51.510
510.23	52.394
510.57	52.218
510.92	50.906
511.26	52.700
511.61	53.025
511.95	51.726
512.30	52.716
512.64	51.697
512.98	51.544
513.33	51.483
513.67	53.781
514.02	53.204
514.36	53.029
514.70	52.797
515.05	52.938
515.39	52.538
515.74	53.892
516.08	54.513
516.42	53.062
516.77	53.130
517.11	52.166
517.46	53.082
517.80	53.099
518.14	53.766
518.49	53.666
518.83	52.248
519.17	52.092
519.52	52.635
519.86	52.641
520.20	53.584
520.55	52.408
520.89	54.454
521.23	53.452
521.58	51.924
521.92	54.231
522.26	52.700
522.61	53.636
522.95	54.636
523.29	53.431
523.64	53.685
523.98	54.310
524.32	53.286
524.66	54.161
525.01	53.896
525.35	53.402
525.69	53.468
526.04	52.910
526.38	53.437
526.72	52.845
527.06	53.178
527.41	54.156
527.75	54.625
528.09	54.020
528.43	54.693
528.78	53.399
529.12	53.935
529.46	53.216
529.80	54.528
530.15	54.785
530.49	55.017
530.83	54.309
531.17	54.130
531.51	54.241
531.86	53.161
532.20	53.514
532.54	53.097
532.88	54.141
533.22	54.032
533.57	52.228
533.91	53.003
534.25	53.125
534.59	52.790
534.93	52.675
535.27	51.967
535.62	53.338
535.96	54.403
536.30	53.628
536.64	54.307
536.98	53.101
537.32	55.050
537.66	54.067
538.01	53.427
538.35	54.230
538.69	53.063
539.03	52.358
539.37	53.028
539.71	53.783
540.05	52.546
540.39	53.601
540.73	53.626
541.07	53.315
541.42	53.427
541.76	54.646
542.10	54.301
542.44	54.691
542.78	53.613
543.12	54.121
543.46	52.851
543.80	53.782
544.14	51.602
544.48	53.165
544.82	53.110
545.16	54.235
545.50	52.937
545.84	54.320
546.18	54.468
546.52	54.001
546.86	53.559
547.20	53.362
547.54	53.074
547.88	53.465
548.22	51.677
548.56	52.770
548.90	55.054
549.24	51.997
549.58	52.891
549.92	52.609
550.26	53.480
550.60	54.721
550.94	54.817
551.28	52.473
551.62	54.462
551.96	54.511
552.30	54.459
552.64	53.244
552.98	52.532
553.32	53.210
553.66	53.338
554.00	53.577
554.34	53.471
554.68	53.024
555.02	53.869
555.36	53.553
555.69	53.040
556.03	52.891
556.37	52.954
556.71	53.430
557.05	54.810
557.39	53.309
557.73	54.573
558.07	54.600
558.41	53.905
558.75	53.936
559.08	54.768
559.42	56.190
559.76	54.363
560.10	54.511
560.44	52.941
560.78	53.147
561.12	54.795
561.45	54.181
561.79	53.221
562.13	54.365
562.47	53.094
562.81	54.179
563.15	53.456
563.48	54.950
563.82	53.878
564.16	53.273
564.50	52.703
564.84	53.481
565.17	52.515
565.51	54.713
565.85	53.567
566.19	52.520
566.52	54.625
566.86	53.278
567.20	52.740
567.54	53.650
567.88	53.076
568.21	53.733
568.55	52.772
568.89	52.361
569.23	52.335
569.56	51.182
569.90	51.644
570.24	50.130
570.57	51.382
570.91	50.784
571.25	50.312
571.59	49.486
571.92	49.244
572.26	49.698
572.60	50.171
572.93	50.235
573.27	49.060
573.61	50.089
573.95	49.945
574.28	49.153
574.62	48.869
574.96	48.841
575.29	48.688
575.63	48.510
575.97	49.363
576.30	49.817
576.64	48.583
576.98	50.193
577.31	49.447
577.65	49.404
577.98	49.451
578.32	48.926
578.66	48.356
578.99	48.620
579.33	48.888
579.67	49.205
580.00	48.684
580.34	49.453
580.67	48.492
581.01	49.400
581.35	48.471
581.68	48.809
582.02	48.541
582.35	48.617
582.69	48.617
583.02	48.558
583.36	48.900
583.70	49.429
584.03	50.820
584.37	50.452
584.70	49.918
585.04	48.497
585.37	49.140
585.71	49.247
586.04	48.840
586.38	48.333
586.72	49.211
587.05	50.087
587.39	50.238
587.72	50.301
588.06	49.433
588.39	49.103
588.73	49.267
589.06	50.457
589.40	49.499
589.73	51.187
590.07	51.171
590.40	50.774
590.73	52.142
591.07	51.145
591.40	51.202
591.74	50.995
592.07	50.928
592.41	50.751
592.74	49.781
593.08	48.306
593.41	48.797
593.75	48.871
594.08	48.816
594.41	50.000
594.75	50.229
595.08	50.057
595.42	50.313
595.75	49.493
596.09	50.156
596.42	51.468
596.75	50.488
597.09	50.797
597.42	50.678
597.75	50.756
598.09	48.800
598.42	50.587
598.76	50.322
599.09	49.199
599.42	49.034
599.76	48.984
600.09	48.341
600.42	49.469
600.76	48.960
601.09	49.084
601.42	49.471
601.76	48.829
602.09	49.340
602.42	50.674
602.76	50.085
603.09	51.370
603.42	50.125
603.76	48.992
604.09	49.251
604.42	50.212
604.76	50.957
605.09	49.909
605.42	49.932
605.75	49.037
606.09	49.554
606.42	48.832
606.75	49.784
607.09	49.187
607.42	49.668
607.75	49.645
608.08	48.787
608.42	48.744
608.75	51.566
609.08	51.719
609.41	50.711
609.75	50.353
610.08	50.225
610.41	49.324
610.74	49.391
611.07	50.801
611.41	51.012
611.74	50.640
612.07	50.375
612.40	50.711
612.73	51.412
613.07	50.394
613.40	50.547
613.73	49.580
614.06	51.308
614.39	50.028
614.72	49.132
615.06	49.777
615.39	49.672
615.72	49.193
616.05	50.000
616.38	49.858
616.71	49.297
617.05	51.452
617.38	50.849
617.71	51.509
618.04	51.238
618.37	51.387
618.70	50.561
619.03	51.667
619.36	52.460
619.69	53.222
620.03	52.958
620.36	51.860
620.69	52.248
621.02	51.376
621.35	53.195
621.68	53.827
622.01	52.750
622.34	52.753
622.67	51.262
623.00	52.067
623.33	51.601
623.66	50.337
623.99	52.042
624.32	52.928
624.65	50.075
624.99	52.069
625.32	50.644
625.65	53.260
625.98	53.586
626.31	52.286
626.64	51.993
626.97	52.705
627.30	52.802
627.63	50.693
627.96	53.549
628.29	53.284
628.62	53.786
628.95	53.507
629.28	53.629
629.61	52.742
629.94	53.568
630.26	52.470
630.59	53.486
630.92	53.846
631.25	52.103
631.58	52.974
631.91	52.522
632.24	54.702
632.57	55.682
632.90	53.381
633.23	54.824
633.56	55.668
633.89	54.254
634.22	55.185
634.55	55.909
634.88	55.428
635.20	55.000
635.53	56.000
635.86	54.746
636.19	56.792
636.52	54.592
636.85	54.218
637.18	52.075
637.51	55.346
637.83	55.848
638.16	56.889
638.49	54.360
638.82	55.921
639.15	54.003
639.48	54.746
639.81	55.230
640.13	54.545
640.46	54.665
640.79	54.345
641.12	54.357
641.45	54.955
641.77	55.111
642.10	55.924
642.43	55.949
642.76	56.931
643.09	55.574
643.41	57.282
643.74	55.189
644.07	57.143
644.40	57.601
644.73	55.692
645.05	56.544
645.38	55.556
645.71	56.560
646.04	59.605
646.36	57.979
646.69	57.914
647.02	56.144
647.35	57.463
647.67	59.232
648.00	56.157
648.33	55.631
648.66	55.932
648.98	53.769
649.31	55.868
649.64	54.003
649.96	56.726
650.29	55.537
650.62	53.675
650.94	57.778
651.27	57.356
651.60	58.739
651.92	54.371
652.25	57.371
652.58	54.167
652.90	57.461
653.23	56.807
653.56	54.484
653.88	54.811
654.21	52.539
654.54	56.027
654.86	56.706
655.19	54.240
655.52	52.709
655.84	45.266
656.17	49.195
656.49	66.414
656.82	69.974
657.15	53.941
657.47	40.942
657.80	31.058
658.13	31.200
658.45	48.717
658.78	48.374
659.10	48.934
659.43	49.801
659.75	51.159
660.08	51.172
660.41	52.400
660.73	53.039
661.06	56.326
661.38	55.382
661.71	54.004
662.03	57.511
662.36	55.604
662.68	56.858
663.01	56.987
663.33	56.845
663.66	58.837
663.98	56.977
664.31	56.503
664.63	53.456
664.96	52.609
665.28	55.408
665.61	56.926
665.93	53.913
666.26	57.484
666.58	57.047
666.91	57.647
667.23	56.604
667.56	59.716
667.88	55.875
668.21	56.563
668.53	59.811
668.86	54.481
669.18	56.368
669.50	55.448
669.83	55.116
670.15	55.478
670.48	56.938
670.80	58.065
671.13	55.928
671.45	51.598
671.77	54.292
672.10	54.257
672.42	52.996
672.75	51.155
673.07	53.131
673.39	52.661
673.72	49.901
674.04	53.125
674.37	53.390
674.69	53.961
675.01	55.778
675.34	54.279
675.66	54.630
675.98	53.659
676.31	55.275
676.63	57.957
676.95	52.955
677.28	54.118
677.60	57.831
677.92	55.505
678.25	52.954
678.57	52.381
678.89	55.252
679.22	53.691
679.54	56.024
679.86	52.286
680.18	55.340
680.51	55.871
680.83	51.889
681.15	52.600
681.48	55.123
681.80	53.719
682.12	54.839
682.44	51.464
682.77	56.071
683.09	56.064
683.41	55.455
683.73	54.839
684.06	56.195
684.38	51.613
684.70	54.031
685.02	56.639
685.34	49.802
685.67	53.283
685.99	53.526
686.31	52.566
686.63	52.505
686.96	50.380
687.28	48.283
687.60	50.380
687.92	54.343
688.24	53.427
688.56	53.712
688.89	54.241
689.21	53.556
689.53	52.204
689.85	52.791
690.17	52.009
690.49	54.137
690.82	51.456
691.14	53.810
691.46	54.907
691.78	53.378
692.10	54.409
692.42	51.732
692.74	54.701
693.06	52.027
693.39	49.548
693.71	54.751
694.03	48.961
694.35	49.766
694.67	53.283
694.99	47.781
695.31	54.569
695.63	55.500
695.95	49.242
696.27	53.368
696.59	54.167
696.91	52.941
697.23	49.871
697.56	55.198
697.88	51.613
698.20	51.708
698.52	53.647
698.84	49.761
699.16	51.250
699.48	54.887
699.80	49.876
700.12	52.022
700.44	55.182
700.76	51.163
701.08	53.030
701.40	54.217
701.72	57.099
702.04	57.426
702.36	55.184
702.68	55.856
703.00	50.909
703.32	53.959
703.64	53.955
703.96	51.304
704.28	53.681
704.60	52.381
704.91	53.628
705.23	53.156
705.55	62.898
705.87	58.484
706.19	55.556
706.51	55.326
706.83	51.768
707.15	51.090
707.47	54.342
707.79	49.479
708.11	51.250
708.43	48.500
708.74	50.904
709.06	53.803
709.38	54.740
709.70	55.917
710.02	52.548
710.34	51.084
710.66	50.641
710.98	53.311
711.29	57.049
711.61	52.203
711.93	52.769
712.25	60.825
712.57	53.846
712.89	54.851
713.20	56.401
713.52	48.432
713.84	53.242
714.16	49.828
714.48	50.968
714.80	48.718
715.11	51.064
715.43	48.589
715.75	51.667
716.07	48.837
716.39	51.678
716.70	49.446
717.02	51.527
717.34	49.798
717.66	56.195
717.97	53.478
718.29	47.699
718.61	51.969
718.93	54.651
719.24	52.852
719.56	58.635
719.88	54.296
720.20	50.379
720.51	45.211
720.83	53.282
721.15	54.202
721.46	52.016
721.78	52.964
722.10	50.929
722.42	51.452
722.73	52.653
723.05	50.204
723.37	51.695
723.68	54.505
724.00	47.863
724.32	50.222
724.63	50.909
724.95	49.345
725.27	51.613
725.58	50.847
725.90	46.032
726.22	49.035
726.53	50.169
726.85	55.056
727.16	54.717
727.48	48.583
727.80	53.036
728.11	56.780
728.43	49.804
728.74	48.790
729.06	51.600
729.38	49.624
729.69	49.801
730.01	45.385
730.32	46.269
730.64	50.883
730.96	53.585
731.27	48.333
731.59	50.508
731.90	49.045
732.22	48.580
732.53	49.169
732.85	50.000
733.16	51.515
733.48	44.964
733.80	51.812
734.11	46.780
734.43	49.141
734.74	51.818
735.06	45.277
735.37	53.474
735.69	48.822
736.00	48.432
736.32	52.685
736.63	48.592
736.95	51.536
737.26	49.466
737.58	46.980
737.89	47.253
738.21	51.128
738.52	49.383
738.83	51.965
739.15	50.218
739.46	52.756
739.78	49.817
740.09	46.732
740.41	54.710
740.72	44.882
741.04	53.036
741.35	46.809
741.66	52.607
741.98	53.061
742.29	56.436
742.61	52.880
742.92	45.024
743.23	45.370
743.55	52.941
743.86	54.545
744.18	44.976
744.49	45.213
744.80	50.543
745.12	56.150
745.43	44.390
745.74	60.938
746.06	47.317
746.37	57.068
746.68	51.185
747.00	53.723
747.31	55.721
747.62	46.117
747.94	54.545
748.25	47.525
748.56	59.563
748.88	48.168
749.19	54.255
749.50	51.724
749.82	43.396
750.13	51.835
750.44	46.617
750.75	50.373
751.07	52.190
751.38	50.192
751.69	45.882
752.01	48.837
752.32	44.223
752.63	48.221
752.94	43.534
753.26	56.485
753.57	44.796
753.88	50.000
754.19	50.833
754.51	47.934
754.82	46.964
755.13	52.500
755.44	45.565
755.75	50.000
756.07	46.693
756.38	46.415
756.69	44.828
757.00	46.000
757.31	47.386
757.63	45.122
757.94	42.222
758.25	43.288
758.56	44.947
758.87	45.326
759.18	41.745
759.50	46.545
759.81	45.485
760.12	49.355
760.43	41.515
760.74	48.765
761.05	46.462
761.36	46.307
761.67	47.879
761.99	45.578
762.30	47.636
762.61	47.826
762.92	52.941
763.23	47.748
763.54	50.000
763.85	44.492
764.16	43.154
764.47	48.790
764.78	44.322
765.10	48.822
765.41	46.057
765.72	48.571
766.03	42.105
766.34	41.971
766.65	49.402
766.96	51.010
767.27	45.213
767.58	48.276
767.89	40.426
768.20	44.318
768.51	43.956
768.82	47.291
769.13	47.465
769.44	42.489
769.75	44.749
770.06	47.845
770.37	48.558
770.68	47.716
770.99	45.249
771.30	49.020
771.61	43.891
771.92	51.293
772.23	55.665
772.54	48.925
772.85	58.025
773.16	53.371
773.47	61.438
773.78	51.634
774.09	43.114
774.39	49.333
774.70	48.408
775.01	46.897
775.32	47.143
775.63	51.240
775.94	50.382
776.25	58.268
776.56	41.667
776.87	50.962
777.18	48.718
777.48	49.138
777.79	43.478
778.10	36.190
778.41	54.955
778.72	46.032
779.03	46.617
779.34	44.681
779.65	52.055
779.95	39.726
780.26	44.828
780.57	46.341
780.88	45.669
781.19	42.241
781.50	55.039
781.80	42.012
782.11	37.107
782.42	52.308
782.73	52.518
783.04	45.926
783.34	43.750
783.65	43.590
783.96	49.180
784.27	54.483
784.57	39.837
784.88	46.094
785.19	62.000
785.50	50.000
785.81	52.586
786.11	46.552
786.42	52.427
786.73	48.182
787.04	42.857
787.34	33.929
787.65	46.667
787.96	42.478
788.26	53.636
788.57	36.752
788.88	53.125
789.19	37.302
789.49	46.087
789.80	50.000
790.11	43.434
790.41	43.636
790.72	60.870
791.03	40.909
791.33	67.500
791.64	42.500
791.95	34.884
792.25	46.809
792.56	49.438
792.87	50.685
793.17	52.174
793.48	30.667
793.79	45.000
794.09	53.750
794.40	42.453
794.70	38.835
795.01	37.398
795.32	35.897
795.62	49.524
795.93	46.078
796.23	50.943
796.54	50.000
796.85	67.647
797.15	38.028
797.46	44.444
797.76	54.545
798.07	48.837
798.37	50.000
798.68	34.848
798.99	38.272
799.29	45.714
799.60	49.275
799.90	42.667
800.21	55.738
800.51	47.692
800.82	61.017
801.12	47.826
801.43	55.738
801.73	60.317
802.04	44.000
802.34	35.821
802.65	55.769
802.95	26.786
803.26	63.462
803.56	64.706
803.87	43.478
804.17	41.333
804.48	42.857
804.78	27.778
805.09	41.304
805.39	35.556
805.70	44.444
806.00	22.807
806.30	50.704
806.61	54.286
806.91	38.889
807.22	61.842
807.52	53.333
807.83	32.727
808.13	33.333
808.43	42.647
808.74	38.806
809.04	27.119
809.35	36.538
809.65	45.313
809.95	32.432
810.26	50.000
810.56	39.726
810.86	69.048
811.17	56.000
811.47	57.143
811.77	44.737
812.08	31.818
812.38	35.849
812.69	32.500
812.99	75.758
813.29	44.737
813.59	17.143
813.90	59.091
814.20	23.077
814.50	42.308
814.81	54.717
815.11	14.894
815.41	57.627
815.72	45.238
816.02	52.941
816.32	12.500
816.62	58.537
816.93	37.838
817.23	48.571
817.53	35.417
817.84	60.870
818.14	38.462
818.44	34.211
818.74	58.696
819.04	20.000
819.35	56.757
819.65	64.706
819.95	47.222
820.25	45.238
820.56	65.000
820.86	13.793
821.16	62.500
821.46	65.957
821.76	65.000
822.07	37.209
822.37	24.324
822.67	3.125
822.97	71.429
823.27	25.000
823.57	20.000
823.88	59.259
824.18	64.286
824.48	35.294
824.78	35.484
825.08	82.609
825.38	36.364
825.69	25.000
825.99	36.842
826.29	41.667
826.59	120.000
826.89	-9.524
827.19	50.000
827.49	42.500
827.79	42.857
828.09	53.571
828.39	36.364
828.70	121.622
829.00	25.000
829.30	38.095
829.60	36.667
829.90	21.875
830.20	36.842
830.50	40.741
830.80	13.043
831.10	45.455
831.40	93.939
831.70	54.839
832.00	47.619
832.30	-14.286
832.60	-91.667
832.90	72.414
833.20	40.000
833.50	78.788
833.80	40.741
834.10	50.000
834.40	31.250
834.70	100.000
835.00	-15.789
835.30	65.385
835.60	113.333
835.90	70.968
836.20	27.273
836.50	78.571
836.80	0.000
837.10	50.000
837.40	300.000
837.70	59.091
838.00	54.545
838.30	56.522
838.60	61.538
838.90	77.273
839.19	32.143
839.49	50.000
839.79	30.769
840.09	8.333
840.39	71.429
840.69	21.429
840.99	-7.692
841.29	-21.053
841.59	10.000
841.88	72.727
842.18	90.000
842.48	37.500
842.78	53.333
843.08	48.148
843.38	30.000
843.68	60.870
843.97	60.000
844.27	33.333
844.57	45.000
844.87	33.333
845.17	4.762
845.47	60.000
845.76	0.000
846.06	35.294
846.36	140.000
846.66	0.000
846.96	40.000
847.25	-112.500
847.55	42.857
847.85	112.500
848.15	0.000
848.44	-33.333
848.74	10.000
849.04	48.148
849.34	36.364
849.63	-83.333
849.93	-160.000
850.23	-5.556
850.53	140.000
850.82	-7.692
851.12	33.333
851.42	20.000
851.71	38.462
852.01	-7.143
852.31	150.000
852.61	-45.455
852.90	80.000
853.20	52.632
853.50	16.667
853.79	52.174
854.09	58.333
854.39	42.105
854.68	54.167
854.98	51.613
855.28	57.692
855.57	-35.000
855.87	77.778
856.17	51.852
856.46	57.143
856.76	93.333
857.05	100.000
857.35	60.000
857.65	44.444
857.94	53.846
858.24	75.862
858.53	127.778
858.83	25.926
859.13	68.182
859.42	30.435
859.72	125.000
860.01	-200.000
860.31	72.000
860.60	38.095
860.90	-133.333
861.20	20.000
861.49	350.000
861.79	-46.667
862.08	85.000
862.38	80.000
862.67	-80.000
862.97	-16.667
863.26	50.000
863.56	83.333
863.85	-466.667
864.15	116.667
864.44	40.000
864.74	128.571
865.03	-25.000
865.33	-60.000
865.62	0.000
865.92	66.667
866.21	-16.667
866.51	93.750
866.80	72.727
867.10	100.000
867.39	150.000
867.69	0.000
867.98	30.769
868.27	33.333
868.57	-26.667
868.86	61.111
869.16	0.000
869.45	40.000
869.75	-600.000
870.04	0.000
870.33	-42.857
870.63	47.619
870.92	100.000
871.22	-160.000
871.51	100.000
871.80	55.556
872.10	133.333
>>>>>End Processed Spectral Data<<<<<
