SpectraSuite Data File
++++++++++++++++++++++++++++++++++++
Date: Fri May 15 17:13:09 PDT 2015
User: schluterlab
Dark Spectrum Present: Yes
Reference Spectrum Present: Yes
Number of Sampled Component Spectra: 1
Spectrometers: USB2E3373
Integration Time (usec): 3000 (USB2E3373)
Spectra Averaged: 3 (USB2E3373)
Boxcar Smoothing: 0 (USB2E3373)
Correct for Electrical Dark: No (USB2E3373)
Strobe/Lamp Enabled: No (USB2E3373)
Correct for Detector Non-linearity: No (USB2E3373)
Correct for Stray Light: No (USB2E3373)
Number of Pixels in Processed Spectrum: 2048
>>>>>Begin Processed Spectral Data<<<<<
178.53	0.000
178.91	0.000
179.29	62.500
179.67	150.000
180.04	-185.714
180.42	75.000
180.80	500.000
181.18	-300.000
181.56	150.000
181.94	0.000
182.31	-0.000
182.69	80.000
183.07	100.000
183.45	-20.000
183.83	150.000
184.20	45.455
184.58	133.333
184.96	-50.000
185.34	-133.333
185.72	-100.000
186.09	46.154
186.47	-300.000
186.85	16.667
187.23	66.667
187.61	500.000
187.98	-166.667
188.36	77.778
188.74	-133.333
189.12	52.941
189.49	11.111
189.87	0.000
190.25	142.857
190.63	250.000
191.00	266.667
191.38	42.105
191.76	750.000
192.14	-500.000
192.51	650.000
192.89	33.333
193.27	114.286
193.65	-16.667
194.02	-0.000
194.40	180.000
194.78	-62.500
195.15	83.333
195.53	-12.500
195.91	-0.000
196.29	-50.000
196.66	53.846
197.04	-0.000
197.42	44.444
197.79	-266.667
198.17	-38.462
198.55	700.000
198.92	33.333
199.30	900.000
199.68	-140.000
200.05	333.333
200.43	0.000
200.81	-66.667
201.18	166.667
201.56	1300.000
201.94	-250.000
202.31	-166.667
202.69	40.000
203.07	100.000
203.44	600.000
203.82	0.000
204.19	28.571
204.57	-233.333
204.95	75.000
205.32	50.000
205.70	-28.571
206.08	-50.000
206.45	366.667
206.83	100.000
207.20	42.857
207.58	-0.000
207.96	-133.333
208.33	-40.000
208.71	-100.000
209.08	-83.333
209.46	100.000
209.84	40.000
210.21	-500.000
210.59	114.286
210.96	166.667
211.34	225.000
211.71	60.000
212.09	-57.143
212.46	-2100.000
212.84	0.000
213.22	130.000
213.59	-0.000
213.97	84.615
214.34	36.364
214.72	-33.333
215.09	75.000
215.47	61.538
215.84	0.000
216.22	200.000
216.59	62.500
216.97	400.000
217.34	225.000
217.72	-160.000
218.09	25.000
218.47	-12.500
218.84	-100.000
219.22	77.778
219.59	-20.000
219.97	100.000
220.34	125.000
220.72	85.714
221.09	-25.000
221.47	0.000
221.84	-100.000
222.22	-350.000
222.59	127.273
222.97	91.667
223.34	0.000
223.72	50.000
224.09	0.000
224.46	42.857
224.84	266.667
225.21	100.000
225.59	40.000
225.96	150.000
226.34	-175.000
226.71	-85.714
227.08	50.000
227.46	62.500
227.83	50.000
228.21	22.222
228.58	54.545
228.95	-12.500
229.33	90.000
229.70	43.750
230.08	-25.000
230.45	14.286
230.82	-114.286
231.20	106.667
231.57	121.429
231.95	0.000
232.32	-80.000
232.69	64.286
233.07	66.667
233.44	0.000
233.81	10.000
234.19	66.667
234.56	23.529
234.93	-50.000
235.31	125.000
235.68	-60.000
236.05	-61.538
236.43	-30.000
236.80	47.059
237.17	18.750
237.55	15.000
237.92	7.407
238.29	30.556
238.67	46.667
239.04	-8.824
239.41	-26.829
239.79	20.000
240.16	9.756
240.53	7.895
240.91	-6.522
241.28	9.524
241.65	19.643
242.02	6.849
242.40	6.667
242.77	0.000
243.14	1.515
243.51	-6.250
243.89	12.644
244.26	1.149
244.63	3.571
245.00	3.093
245.38	12.371
245.75	-3.371
246.12	6.034
246.49	0.826
246.87	7.692
247.24	-8.403
247.61	0.877
247.98	0.000
248.36	1.250
248.73	3.947
249.10	3.896
249.47	5.696
249.84	1.961
250.22	2.353
250.59	3.268
250.96	12.207
251.33	-5.233
251.70	4.118
252.08	5.584
252.45	1.980
252.82	4.523
253.19	4.147
253.56	-3.271
253.94	8.559
254.31	4.348
254.68	6.140
255.05	1.181
255.42	2.183
255.79	1.931
256.16	2.335
256.54	5.597
256.91	1.141
257.28	2.230
257.65	0.749
258.02	1.418
258.39	4.040
258.76	5.128
259.14	4.651
259.51	4.531
259.88	3.093
260.25	4.575
260.62	5.903
260.99	-0.339
261.36	1.027
261.73	5.063
262.10	1.520
262.47	-1.534
262.85	2.194
263.22	2.769
263.59	1.869
263.96	3.106
264.33	2.727
264.70	0.000
265.07	1.190
265.44	3.683
265.81	4.237
266.18	5.464
266.55	5.141
266.92	3.109
267.29	2.611
267.66	4.859
268.03	3.141
268.40	2.350
268.77	7.219
269.14	5.276
269.51	2.571
269.88	1.496
270.25	2.551
270.62	3.415
270.99	0.512
271.36	-0.244
271.73	3.052
272.10	0.243
272.47	1.182
272.84	4.208
273.21	5.336
273.58	2.410
273.95	1.602
274.32	3.464
274.69	1.131
275.06	6.027
275.43	4.082
275.80	2.870
276.17	0.000
276.54	3.212
276.91	3.728
277.28	2.402
277.65	4.959
278.02	2.128
278.39	3.501
278.76	2.516
279.13	0.415
279.50	2.311
279.87	3.024
280.23	0.645
280.60	4.094
280.97	2.020
281.34	2.308
281.71	4.517
282.08	1.022
282.45	1.566
282.82	2.896
283.19	3.095
283.56	1.734
283.92	1.708
284.29	2.692
284.66	2.326
285.03	2.554
285.40	3.403
285.77	1.933
286.14	3.791
286.51	3.875
286.87	1.097
287.24	1.657
287.61	1.940
287.98	7.018
288.35	1.213
288.72	2.802
289.08	2.951
289.45	3.163
289.82	1.748
290.19	2.389
290.56	1.544
290.93	1.852
291.29	2.311
291.66	3.622
292.03	0.638
292.40	1.774
292.77	2.871
293.13	-0.325
293.50	-0.455
293.87	3.206
294.24	3.400
294.60	2.385
294.97	3.125
295.34	1.380
295.71	0.745
296.08	0.747
296.44	0.284
296.81	3.056
297.18	2.029
297.55	4.201
297.91	2.055
298.28	4.881
298.65	3.121
299.02	1.887
299.38	0.684
299.75	1.793
300.12	1.047
300.48	1.845
300.85	2.788
301.22	0.909
301.59	-0.263
301.95	3.671
302.32	2.594
302.69	1.990
303.05	2.104
303.42	2.242
303.79	2.921
304.15	2.987
304.52	0.713
304.89	2.456
305.25	1.574
305.62	0.583
305.99	1.754
306.35	0.809
306.72	1.462
307.09	1.596
307.45	1.378
307.82	1.968
308.19	3.600
308.55	2.508
308.92	2.723
309.29	0.559
309.65	1.076
310.02	1.760
310.38	2.086
310.75	1.530
311.12	2.691
311.48	1.909
311.85	1.675
312.22	0.422
312.58	2.335
312.95	0.854
313.31	0.414
313.68	1.780
314.05	0.816
314.41	1.649
314.78	1.753
315.14	2.672
315.51	2.381
315.87	1.537
316.24	2.932
316.61	2.756
316.97	2.778
317.34	2.148
317.70	3.824
318.07	2.308
318.43	2.941
318.80	3.314
319.16	3.809
319.53	4.179
319.89	3.150
320.26	3.036
320.62	4.313
320.99	4.071
321.35	4.008
321.72	4.569
322.08	4.431
322.45	4.569
322.81	4.126
323.18	4.612
323.54	5.019
323.91	5.745
324.27	6.152
324.64	7.397
325.00	8.759
325.37	9.183
325.73	8.160
326.10	8.538
326.46	10.314
326.83	10.674
327.19	10.549
327.56	11.555
327.92	13.116
328.29	11.161
328.65	13.396
329.01	12.592
329.38	12.719
329.74	14.731
330.11	15.477
330.47	14.564
330.84	14.615
331.20	16.540
331.56	16.667
331.93	16.530
332.29	16.957
332.66	17.014
333.02	17.100
333.38	16.957
333.75	17.857
334.11	17.726
334.48	19.039
334.84	19.231
335.20	18.847
335.57	18.495
335.93	20.596
336.29	20.442
336.66	18.074
337.02	19.610
337.38	18.704
337.75	20.909
338.11	20.379
338.47	20.620
338.84	20.702
339.20	20.293
339.56	20.734
339.93	21.218
340.29	20.642
340.65	21.774
341.02	21.099
341.38	21.858
341.74	20.495
342.11	20.537
342.47	21.441
342.83	21.626
343.20	22.038
343.56	22.087
343.92	21.523
344.28	21.947
344.65	21.503
345.01	21.003
345.37	22.035
345.73	22.678
346.10	23.123
346.46	23.213
346.82	22.013
347.19	21.613
347.55	22.306
347.91	23.220
348.27	22.878
348.63	22.402
349.00	22.642
349.36	22.527
349.72	23.383
350.08	22.623
350.45	22.985
350.81	23.837
351.17	22.394
351.53	23.429
351.89	23.039
352.26	23.520
352.62	23.871
352.98	22.972
353.34	23.591
353.70	24.191
354.07	24.113
354.43	24.019
354.79	23.617
355.15	25.397
355.51	24.209
355.87	23.948
356.24	24.225
356.60	24.171
356.96	25.000
357.32	25.399
357.68	25.254
358.04	26.333
358.40	24.678
358.77	25.439
359.13	24.980
359.49	24.345
359.85	26.677
360.21	25.678
360.57	25.402
360.93	25.416
361.29	25.453
361.66	25.705
362.02	25.152
362.38	27.266
362.74	26.495
363.10	27.464
363.46	26.019
363.82	27.423
364.18	26.716
364.54	27.132
364.90	27.670
365.26	27.438
365.62	28.686
365.98	26.760
366.35	27.895
366.71	29.342
367.07	29.173
367.43	28.397
367.79	29.329
368.15	28.643
368.51	30.444
368.87	28.859
369.23	30.036
369.59	29.519
369.95	29.326
370.31	30.636
370.67	29.104
371.03	28.902
371.39	29.395
371.75	30.696
372.11	30.100
372.47	31.065
372.83	31.796
373.19	30.528
373.55	30.325
373.91	31.030
374.27	32.601
374.63	34.386
374.99	32.057
375.35	33.078
375.71	34.056
376.07	33.427
376.42	32.925
376.78	34.161
377.14	32.972
377.50	33.732
377.86	34.672
378.22	34.014
378.58	35.256
378.94	35.287
379.30	34.435
379.66	36.426
380.02	36.235
380.38	35.545
380.74	37.642
381.09	36.687
381.45	37.125
381.81	37.569
382.17	37.690
382.53	38.226
382.89	38.669
383.25	39.452
383.61	39.085
383.97	39.365
384.32	39.712
384.68	39.567
385.04	39.216
385.40	39.888
385.76	40.755
386.12	41.656
386.48	41.252
386.83	41.661
387.19	41.331
387.55	42.597
387.91	41.626
388.27	42.552
388.62	43.424
388.98	43.217
389.34	43.098
389.70	43.940
390.06	42.605
390.42	43.459
390.77	43.165
391.13	43.317
391.49	43.984
391.85	45.419
392.20	43.942
392.56	45.073
392.92	44.568
393.28	45.401
393.64	44.324
393.99	46.583
394.35	46.300
394.71	47.063
395.07	44.689
395.42	45.355
395.78	48.013
396.14	45.397
396.50	46.988
396.85	46.941
397.21	47.494
397.57	47.210
397.92	45.896
398.28	48.678
398.64	46.145
399.00	47.856
399.35	46.501
399.71	47.272
400.07	47.703
400.42	46.144
400.78	47.826
401.14	46.945
401.49	47.528
401.85	47.349
402.21	47.952
402.57	46.938
402.92	46.926
403.28	46.867
403.63	48.235
403.99	47.704
404.35	49.219
404.70	47.679
405.06	47.356
405.42	46.551
405.77	46.601
406.13	47.846
406.49	46.536
406.84	47.983
407.20	48.585
407.55	47.650
407.91	48.930
408.27	47.610
408.62	48.308
408.98	48.737
409.34	48.389
409.69	47.416
410.05	47.106
410.40	47.407
410.76	49.035
411.11	48.375
411.47	48.389
411.83	47.207
412.18	49.228
412.54	46.442
412.89	46.983
413.25	48.857
413.60	47.578
413.96	45.951
414.31	48.232
414.67	46.953
415.03	47.736
415.38	46.475
415.74	47.818
416.09	48.857
416.45	48.278
416.80	48.315
417.16	49.378
417.51	49.833
417.87	48.240
418.22	49.028
418.58	49.900
418.93	48.715
419.29	46.543
419.64	48.412
420.00	50.252
420.35	47.881
420.71	48.906
421.06	49.478
421.42	50.000
421.77	50.058
422.12	48.354
422.48	47.970
422.83	48.666
423.19	49.718
423.54	49.442
423.90	48.822
424.25	49.770
424.61	49.572
424.96	49.419
425.31	50.433
425.67	49.648
426.02	50.942
426.38	51.472
426.73	50.787
427.09	50.506
427.44	50.000
427.79	49.617
428.15	50.607
428.50	50.999
428.85	50.123
429.21	50.481
429.56	51.536
429.92	50.437
430.27	50.276
430.62	50.340
430.98	51.274
431.33	50.473
431.68	49.555
432.04	50.643
432.39	50.770
432.74	49.729
433.10	52.011
433.45	50.358
433.80	51.422
434.16	50.970
434.51	50.914
434.86	51.568
435.22	51.318
435.57	50.780
435.92	53.713
436.28	50.805
436.63	51.112
436.98	50.174
437.34	50.817
437.69	52.177
438.04	51.738
438.39	51.313
438.75	52.884
439.10	50.877
439.45	53.013
439.81	51.009
440.16	51.069
440.51	51.881
440.86	54.622
441.22	51.527
441.57	52.870
441.92	52.623
442.27	52.550
442.63	52.516
442.98	53.188
443.33	51.419
443.68	52.785
444.03	52.757
444.39	51.599
444.74	54.181
445.09	53.062
445.44	53.390
445.79	53.842
446.15	52.423
446.50	52.246
446.85	52.604
447.20	53.076
447.55	53.125
447.91	52.623
448.26	52.533
448.61	53.656
448.96	53.815
449.31	52.543
449.66	51.394
450.02	53.451
450.37	53.408
450.72	53.322
451.07	53.165
451.42	52.185
451.77	51.718
452.12	51.077
452.47	52.543
452.83	52.768
453.18	52.245
453.53	52.086
453.88	53.309
454.23	52.674
454.58	53.275
454.93	52.706
455.28	51.429
455.63	52.759
455.98	53.698
456.34	52.937
456.69	52.795
457.04	53.308
457.39	52.673
457.74	53.386
458.09	51.736
458.44	51.960
458.79	51.989
459.14	52.746
459.49	52.597
459.84	52.679
460.19	51.942
460.54	52.628
460.89	53.295
461.24	53.665
461.59	52.553
461.94	51.384
462.29	53.197
462.64	52.226
462.99	52.877
463.34	51.808
463.69	51.995
464.04	51.998
464.39	52.274
464.74	51.411
465.09	52.090
465.44	52.972
465.79	51.361
466.14	52.908
466.49	51.294
466.84	52.052
467.19	52.315
467.54	52.363
467.89	50.663
468.24	52.372
468.59	51.683
468.94	52.127
469.29	51.803
469.64	51.948
469.99	52.838
470.34	52.560
470.68	52.722
471.03	52.583
471.38	51.712
471.73	53.922
472.08	52.103
472.43	52.953
472.78	51.542
473.13	53.265
473.48	51.596
473.83	52.491
474.17	53.303
474.52	51.372
474.87	52.242
475.22	51.739
475.57	51.496
475.92	51.015
476.27	51.513
476.61	52.199
476.96	50.864
477.31	51.433
477.66	51.236
478.01	52.611
478.36	50.218
478.70	52.094
479.05	52.253
479.40	52.729
479.75	50.991
480.10	50.077
480.45	51.400
480.79	52.266
481.14	52.510
481.49	50.148
481.84	52.317
482.19	50.982
482.53	51.990
482.88	51.217
483.23	50.912
483.58	50.377
483.92	51.113
484.27	49.772
484.62	51.591
484.97	50.829
485.31	50.325
485.66	50.296
486.01	49.774
486.36	49.641
486.70	49.712
487.05	50.190
487.40	50.155
487.75	50.197
488.09	50.062
488.44	49.759
488.79	50.019
489.13	50.921
489.48	50.235
489.83	50.897
490.17	50.337
490.52	50.485
490.87	50.764
491.22	51.576
491.56	50.427
491.91	50.478
492.26	51.726
492.60	51.104
492.95	52.533
493.30	50.904
493.64	52.456
493.99	51.353
494.34	51.068
494.68	51.333
495.03	50.365
495.37	51.325
495.72	51.237
496.07	50.927
496.41	51.038
496.76	50.069
497.11	50.629
497.45	50.024
497.80	51.615
498.14	50.621
498.49	51.447
498.84	50.599
499.18	50.803
499.53	50.546
499.87	50.243
500.22	51.780
500.56	51.034
500.91	50.602
501.26	50.816
501.60	50.861
501.95	50.995
502.29	50.557
502.64	50.869
502.98	51.505
503.33	49.856
503.67	50.795
504.02	50.587
504.36	50.520
504.71	49.798
505.06	50.377
505.40	50.355
505.75	51.546
506.09	50.887
506.44	50.770
506.78	51.429
507.13	50.569
507.47	50.183
507.82	50.801
508.16	51.558
508.51	50.839
508.85	51.282
509.19	51.038
509.54	51.689
509.88	50.216
510.23	50.511
510.57	50.935
510.92	50.373
511.26	51.828
511.61	51.595
511.95	51.288
512.30	51.220
512.64	51.475
512.98	50.590
513.33	51.091
513.67	51.563
514.02	52.517
514.36	51.600
514.70	52.506
515.05	53.525
515.39	52.656
515.74	53.413
516.08	51.883
516.42	52.945
516.77	52.428
517.11	52.819
517.46	51.526
517.80	52.384
518.14	53.031
518.49	51.502
518.83	51.762
519.17	51.668
519.52	50.977
519.86	51.921
520.20	51.823
520.55	52.408
520.89	53.011
521.23	51.742
521.58	52.934
521.92	52.051
522.26	52.115
522.61	52.013
522.95	54.106
523.29	51.779
523.64	52.160
523.98	52.430
524.32	51.997
524.66	52.433
525.01	53.506
525.35	53.143
525.69	53.266
526.04	51.257
526.38	52.529
526.72	51.929
527.06	51.492
527.41	52.111
527.75	51.810
528.09	52.625
528.43	53.140
528.78	51.353
529.12	52.387
529.46	52.372
529.80	52.122
530.15	52.937
530.49	53.131
530.83	51.436
531.17	52.586
531.51	53.420
531.86	51.258
532.20	51.635
532.54	52.417
532.88	53.457
533.22	51.008
533.57	52.621
533.91	51.501
534.25	52.930
534.59	53.432
534.93	52.486
535.27	51.332
535.62	51.977
535.96	52.446
536.30	52.375
536.64	53.067
536.98	52.265
537.32	53.058
537.66	52.665
538.01	52.867
538.35	51.664
538.69	51.997
539.03	53.042
539.37	52.153
539.71	52.624
540.05	51.867
540.39	53.047
540.73	52.650
541.07	52.210
541.42	51.949
541.76	53.131
542.10	52.650
542.44	53.162
542.78	51.136
543.12	52.885
543.46	52.017
543.80	51.770
544.14	50.267
544.48	51.832
544.82	51.743
545.16	51.776
545.50	52.270
545.84	52.904
546.18	51.915
546.52	52.704
546.86	52.336
547.20	52.647
547.54	52.226
547.88	52.310
548.22	50.822
548.56	50.858
548.90	53.235
549.24	52.342
549.58	52.539
549.92	51.823
550.26	51.722
550.60	51.822
550.94	52.128
551.28	52.396
551.62	53.923
551.96	52.707
552.30	52.705
552.64	51.481
552.98	53.024
553.32	51.854
553.66	50.943
554.00	53.650
554.34	54.653
554.68	51.475
555.02	52.455
555.36	54.001
555.69	52.747
556.03	52.534
556.37	52.811
556.71	54.152
557.05	51.529
557.39	51.524
557.73	52.849
558.07	54.827
558.41	52.297
558.75	52.143
559.08	52.719
559.42	54.841
559.76	53.643
560.10	52.829
560.44	52.420
560.78	53.497
561.12	51.834
561.45	53.549
561.79	52.451
562.13	53.513
562.47	51.727
562.81	52.738
563.15	51.622
563.48	52.122
563.82	54.564
564.16	51.532
564.50	50.743
564.84	52.008
565.17	52.918
565.51	53.893
565.85	53.772
566.19	52.056
566.52	52.949
566.86	53.213
567.20	52.428
567.54	53.467
567.88	53.896
568.21	53.507
568.55	52.826
568.89	52.823
569.23	52.672
569.56	51.926
569.90	51.726
570.24	50.763
570.57	52.073
570.91	51.934
571.25	51.036
571.59	50.638
571.92	49.156
572.26	50.362
572.60	50.233
572.93	50.549
573.27	49.373
573.61	50.626
573.95	50.191
574.28	49.576
574.62	50.191
574.96	49.788
575.29	49.344
575.63	49.132
575.97	49.824
576.30	49.873
576.64	49.907
576.98	50.759
577.31	50.258
577.65	51.078
577.98	50.444
578.32	50.073
578.66	48.893
578.99	49.672
579.33	49.563
579.67	49.811
580.00	49.696
580.34	49.851
580.67	49.654
581.01	50.024
581.35	49.612
581.68	50.502
582.02	49.716
582.35	50.065
582.69	49.708
583.02	50.438
583.36	50.177
583.70	50.675
584.03	51.070
584.37	52.005
584.70	50.467
585.04	49.741
585.37	49.853
585.71	49.420
586.04	50.328
586.38	50.413
586.72	50.789
587.05	51.155
587.39	50.964
587.72	51.613
588.06	50.291
588.39	51.923
588.73	51.282
589.06	51.761
589.40	50.467
589.73	52.282
590.07	52.039
590.40	52.554
590.73	52.059
591.07	51.866
591.40	51.380
591.74	52.624
592.07	51.994
592.41	53.931
592.74	52.091
593.08	50.157
593.41	51.960
593.75	50.736
594.08	51.356
594.41	51.601
594.75	51.832
595.08	51.267
595.42	51.233
595.75	51.483
596.09	52.776
596.42	52.542
596.75	53.197
597.09	52.073
597.42	53.523
597.75	53.733
598.09	50.294
598.42	52.076
598.76	52.338
599.09	52.083
599.42	51.459
599.76	51.618
600.09	51.697
600.42	51.744
600.76	51.226
601.09	52.443
601.42	51.430
601.76	51.608
602.09	51.815
602.42	52.696
602.76	52.759
603.09	52.616
603.42	54.055
603.76	52.621
604.09	52.005
604.42	52.750
604.76	53.627
605.09	52.788
605.42	52.280
605.75	52.058
606.09	52.951
606.42	52.252
606.75	52.251
607.09	52.264
607.42	51.706
607.75	51.332
608.08	51.258
608.42	51.942
608.75	54.361
609.08	54.160
609.41	53.655
609.75	54.083
610.08	54.019
610.41	52.464
610.74	53.827
611.07	54.780
611.41	53.970
611.74	53.465
612.07	53.426
612.40	54.048
612.73	54.915
613.07	53.262
613.40	53.392
613.73	54.337
614.06	53.033
614.39	54.258
614.72	53.389
615.06	53.073
615.39	52.293
615.72	52.368
616.05	53.184
616.38	52.991
616.71	53.272
617.05	54.725
617.38	54.620
617.71	55.094
618.04	54.794
618.37	55.422
618.70	55.908
619.03	56.389
619.36	55.789
619.69	57.619
620.03	55.953
620.36	55.365
620.69	54.176
621.02	55.122
621.35	57.012
621.68	56.633
622.01	56.417
622.34	56.504
622.67	56.309
623.00	54.747
623.33	55.869
623.66	56.096
623.99	54.539
624.32	56.426
624.65	53.609
624.99	55.982
625.32	55.118
625.65	55.931
625.98	57.293
626.31	56.359
626.64	57.192
626.97	56.632
627.30	57.881
627.63	58.579
627.96	58.311
628.29	57.909
628.62	57.915
628.95	58.016
629.28	59.073
629.61	57.727
629.94	59.238
630.26	58.794
630.59	59.938
630.92	58.667
631.25	58.051
631.58	57.930
631.91	58.443
632.24	59.518
632.57	60.114
632.90	60.142
633.23	58.000
633.56	61.839
633.89	59.309
634.22	59.383
634.55	59.212
634.88	60.153
635.20	57.949
635.53	60.267
635.86	59.038
636.19	61.320
636.52	61.862
636.85	58.065
637.18	58.742
637.51	57.610
637.83	58.344
638.16	62.347
638.49	58.311
638.82	59.079
639.15	59.837
639.48	60.798
639.81	60.669
640.13	61.183
640.46	59.913
640.79	60.677
641.12	60.118
641.45	63.363
641.77	60.889
642.10	60.032
642.43	60.611
642.76	64.686
643.09	62.520
643.41	60.680
643.74	60.626
644.07	61.084
644.40	57.939
644.73	60.420
645.05	58.221
645.38	60.670
645.71	62.234
646.04	63.196
646.36	60.816
646.69	61.871
647.02	65.028
647.35	62.127
647.67	63.803
648.00	64.739
648.33	61.092
648.66	61.525
648.98	57.119
649.31	62.975
649.64	58.556
649.96	60.130
650.29	62.521
650.62	62.735
650.94	63.333
651.27	63.128
651.60	61.261
651.92	63.287
652.25	61.812
652.58	59.833
652.90	63.979
653.23	59.328
653.56	61.083
653.88	59.966
654.21	59.194
654.54	60.102
654.86	61.800
655.19	55.702
655.52	57.740
655.84	53.087
656.17	59.082
656.49	79.690
656.82	82.734
657.15	63.210
657.47	47.057
657.80	34.995
658.13	34.907
658.45	53.471
658.78	53.414
659.10	52.301
659.43	52.369
659.75	54.761
660.08	55.655
660.41	58.836
660.73	61.602
661.06	61.872
661.38	60.470
661.71	61.807
662.03	65.236
662.36	64.396
662.68	64.823
663.01	62.882
663.33	63.341
663.66	62.791
663.98	64.186
664.31	59.488
664.63	64.286
664.96	61.087
665.28	63.355
665.61	59.307
665.93	62.609
666.26	64.425
666.58	59.060
666.91	66.118
667.23	62.264
667.56	65.166
667.88	65.228
668.21	61.337
668.53	65.248
668.86	60.613
669.18	60.142
669.50	60.775
669.83	61.163
670.15	63.636
670.48	64.115
670.80	61.751
671.13	60.403
671.45	57.534
671.77	65.665
672.10	59.604
672.42	61.610
672.75	60.924
673.07	60.465
673.39	61.101
673.72	59.369
674.04	63.125
674.37	62.924
674.69	62.099
675.01	63.556
675.34	64.189
675.66	65.046
675.98	62.749
676.31	61.697
676.63	61.045
676.95	59.773
677.28	64.706
677.60	61.205
677.92	61.927
678.25	60.832
678.57	64.069
678.89	59.664
679.22	64.430
679.54	58.635
679.86	59.642
680.18	59.612
680.51	57.576
680.83	60.239
681.15	62.000
681.48	62.705
681.80	61.364
682.12	61.492
682.44	62.343
682.77	62.693
683.09	62.471
683.41	59.318
683.73	59.908
684.06	61.062
684.38	58.280
684.70	63.399
685.02	59.336
685.34	61.660
685.67	59.850
685.99	57.866
686.31	61.593
686.63	59.369
686.96	57.795
687.28	57.172
687.60	59.506
687.92	61.616
688.24	59.073
688.56	62.227
688.89	60.268
689.21	61.778
689.53	58.933
689.85	60.233
690.17	60.491
690.49	61.466
690.82	61.893
691.14	62.143
691.46	62.383
691.78	63.063
692.10	59.570
692.42	58.874
692.74	57.265
693.06	60.135
693.39	57.240
693.71	60.181
694.03	59.584
694.35	61.916
694.67	58.333
694.99	57.441
695.31	62.663
695.63	61.000
695.95	56.061
696.27	62.953
696.59	63.611
696.91	59.944
697.23	58.612
697.56	59.653
697.88	60.215
698.20	58.998
698.52	58.824
698.84	57.177
699.16	60.000
699.48	60.652
699.80	61.538
700.12	60.916
700.44	63.305
700.76	61.919
701.08	58.485
701.40	58.133
701.72	63.889
702.04	66.997
702.36	68.562
702.68	62.763
703.00	62.424
703.32	58.944
703.64	58.475
703.96	57.391
704.28	62.883
704.60	63.810
704.91	63.091
705.23	60.133
705.55	66.784
705.87	67.509
706.19	63.333
706.51	60.481
706.83	59.807
707.15	59.502
707.47	61.625
707.79	57.292
708.11	58.500
708.43	57.750
708.74	60.207
709.06	61.127
709.38	63.303
709.70	60.947
710.02	62.102
710.34	59.752
710.66	58.333
710.98	58.940
711.29	62.623
711.61	64.068
711.93	58.632
712.25	64.948
712.57	62.637
712.89	60.075
713.20	64.014
713.52	62.718
713.84	59.727
714.16	62.887
714.48	59.355
714.80	63.141
715.11	62.614
715.43	59.875
715.75	62.333
716.07	55.150
716.39	57.383
716.70	59.041
717.02	58.779
717.34	68.016
717.66	68.142
717.97	59.130
718.29	63.180
718.61	63.386
718.93	60.853
719.24	60.076
719.56	65.462
719.88	62.543
720.20	61.742
720.51	59.004
720.83	59.846
721.15	62.605
721.46	64.113
721.78	60.474
722.10	57.993
722.42	60.996
722.73	61.224
723.05	69.796
723.37	64.831
723.68	66.667
724.00	58.974
724.32	61.778
724.63	54.545
724.95	64.629
725.27	61.290
725.58	64.831
725.90	55.159
726.22	60.232
726.53	57.288
726.85	60.300
727.16	64.151
727.48	57.490
727.80	56.680
728.11	61.017
728.43	53.333
728.74	59.677
729.06	60.400
729.38	62.782
729.69	61.753
730.01	59.231
730.32	59.328
730.64	59.364
730.96	62.642
731.27	58.667
731.59	58.983
731.90	58.280
732.22	55.521
732.53	57.475
732.85	59.929
733.16	57.576
733.48	54.317
733.80	59.783
734.11	54.237
734.43	60.137
734.74	56.667
735.06	60.586
735.37	54.985
735.69	59.259
736.00	59.582
736.32	56.711
736.63	54.930
736.95	58.362
737.26	58.007
737.58	53.356
737.89	60.073
738.21	58.647
738.52	58.436
738.83	58.515
739.15	57.205
739.46	65.748
739.78	53.114
740.09	55.556
740.41	57.971
740.72	55.906
741.04	59.919
741.35	60.851
741.66	67.773
741.98	61.224
742.29	58.416
742.61	63.874
742.92	52.607
743.23	56.019
743.55	62.896
743.86	56.459
744.18	57.895
744.49	63.298
744.80	60.870
745.12	65.241
745.43	59.512
745.74	64.062
746.06	60.488
746.37	61.780
746.68	60.190
747.00	63.298
747.31	59.701
747.62	56.796
747.94	59.809
748.25	61.881
748.56	66.120
748.88	59.162
749.19	62.766
749.50	64.039
749.82	60.377
750.13	55.046
750.44	60.902
750.75	60.821
751.07	63.139
751.38	55.556
751.69	58.039
752.01	56.589
752.32	56.175
752.63	60.870
752.94	59.052
753.26	60.251
753.57	58.824
753.88	58.407
754.19	57.917
754.51	55.372
754.82	55.466
755.13	59.167
755.44	60.081
755.75	61.719
756.07	59.144
756.38	53.962
756.69	57.471
757.00	55.333
757.31	55.556
757.63	51.220
757.94	54.167
758.25	53.151
758.56	53.457
758.87	51.841
759.18	52.025
759.50	52.727
759.81	55.853
760.12	53.226
760.43	56.364
760.74	58.333
761.05	52.000
761.36	53.125
761.67	58.788
761.99	57.483
762.30	52.364
762.61	53.755
762.92	55.204
763.23	60.811
763.54	56.542
763.85	57.627
764.16	54.772
764.47	51.613
764.78	52.015
765.10	53.872
765.41	55.836
765.72	56.508
766.03	54.511
766.34	52.190
766.65	54.980
766.96	56.566
767.27	56.915
767.58	52.874
767.89	57.447
768.20	55.682
768.51	53.297
768.82	57.143
769.13	52.995
769.44	51.502
769.75	52.511
770.06	53.017
770.37	55.288
770.68	58.376
770.99	54.751
771.30	58.333
771.61	58.824
771.92	51.293
772.23	52.217
772.54	54.839
772.85	57.407
773.16	54.494
773.47	66.667
773.78	58.170
774.09	56.287
774.39	52.667
774.70	53.503
775.01	62.069
775.32	60.000
775.63	48.760
775.94	46.565
776.25	51.181
776.56	55.833
776.87	56.731
777.18	52.137
777.48	56.034
777.79	53.043
778.10	56.190
778.41	49.550
778.72	57.937
779.03	54.135
779.34	49.645
779.65	54.110
779.95	48.630
780.26	59.310
780.57	53.659
780.88	47.244
781.19	60.345
781.50	55.814
781.80	49.704
782.11	47.799
782.42	60.000
782.73	50.360
783.04	51.111
783.34	44.444
783.65	42.735
783.96	63.115
784.27	51.034
784.57	52.846
784.88	57.031
785.19	69.000
785.50	61.000
785.81	59.483
786.11	54.310
786.42	60.194
786.73	53.636
787.04	55.102
787.34	56.250
787.65	61.905
787.96	38.938
788.26	59.091
788.57	43.590
788.88	53.906
789.19	51.587
789.49	66.087
789.80	43.878
790.11	65.657
790.41	53.636
790.72	65.217
791.03	48.864
791.33	62.500
791.64	62.500
791.95	53.488
792.25	51.064
792.56	62.921
792.87	61.644
793.17	55.072
793.48	60.000
793.79	58.750
794.09	72.500
794.40	56.604
794.70	53.398
795.01	43.902
795.32	45.299
795.62	51.429
795.93	54.902
796.23	63.208
796.54	51.042
796.85	54.412
797.15	61.972
797.46	61.111
797.76	56.061
798.07	43.023
798.37	47.368
798.68	60.606
798.99	48.148
799.29	57.143
799.60	57.971
799.90	54.667
800.21	70.492
800.51	55.385
800.82	54.237
801.12	68.116
801.43	67.213
801.73	69.841
802.04	58.000
802.34	49.254
802.65	51.923
802.95	50.000
803.26	36.538
803.56	72.549
803.87	52.174
804.17	50.667
804.48	58.730
804.78	59.259
805.09	45.652
805.39	46.667
805.70	74.074
806.00	26.316
806.30	56.338
806.61	58.571
806.91	41.667
807.22	56.579
807.52	56.000
807.83	58.182
808.13	48.611
808.43	45.588
808.74	32.836
809.04	54.237
809.35	69.231
809.65	50.000
809.95	59.459
810.26	59.091
810.56	49.315
810.86	61.905
811.17	50.000
811.47	53.061
811.77	13.158
812.08	68.182
812.38	26.415
812.69	40.000
812.99	51.515
813.29	63.158
813.59	42.857
813.90	47.727
814.20	61.538
814.50	50.000
814.81	54.717
815.11	27.660
815.41	49.153
815.72	64.286
816.02	58.824
816.32	52.083
816.62	43.902
816.93	56.757
817.23	42.857
817.53	56.250
817.84	56.522
818.14	67.308
818.44	36.842
818.74	56.522
819.04	27.500
819.35	40.541
819.65	41.176
819.95	47.222
820.25	61.905
820.56	65.000
820.86	31.034
821.16	50.000
821.46	51.064
821.76	60.000
822.07	30.233
822.37	21.622
822.67	59.375
822.97	57.143
823.27	28.571
823.57	4.000
823.88	7.407
824.18	57.143
824.48	50.000
824.78	54.839
825.08	30.435
825.38	27.273
825.69	66.667
825.99	36.842
826.29	27.778
826.59	46.667
826.89	14.286
827.19	36.957
827.49	47.500
827.79	20.000
828.09	46.429
828.39	54.545
828.70	70.270
829.00	35.714
829.30	23.810
829.60	43.333
829.90	103.125
830.20	31.579
830.50	18.519
830.80	43.478
831.10	104.545
831.40	87.879
831.70	45.161
832.00	85.714
832.30	28.571
832.60	58.333
832.90	44.828
833.20	-20.000
833.50	57.576
833.80	37.037
834.10	50.000
834.40	40.625
834.70	122.222
835.00	84.211
835.30	111.538
835.60	73.333
835.90	38.710
836.20	63.636
836.50	64.286
836.80	19.231
837.10	35.714
837.40	-66.667
837.70	59.091
838.00	-18.182
838.30	78.261
838.60	30.769
838.90	95.455
839.19	64.286
839.49	56.667
839.79	53.846
840.09	16.667
840.39	3.571
840.69	17.857
840.99	26.923
841.29	26.316
841.59	20.000
841.88	90.909
842.18	70.000
842.48	93.750
842.78	73.333
843.08	55.556
843.38	70.000
843.68	39.130
843.97	40.000
844.27	0.000
844.57	65.000
844.87	44.444
845.17	-9.524
845.47	73.333
845.76	0.000
846.06	111.765
846.36	80.000
846.66	35.714
846.96	40.000
847.25	-75.000
847.55	121.429
847.85	87.500
848.15	27.273
848.44	133.333
848.74	80.000
849.04	40.741
849.34	63.636
849.63	133.333
849.93	-20.000
850.23	-5.556
850.53	50.000
850.82	61.538
851.12	88.889
851.42	86.667
851.71	-15.385
852.01	21.429
852.31	75.000
852.61	90.909
852.90	25.000
853.20	73.684
853.50	66.667
853.79	43.478
854.09	70.833
854.39	5.263
854.68	20.833
854.98	45.161
855.28	80.769
855.57	20.000
855.87	100.000
856.17	59.259
856.46	42.857
856.76	40.000
857.05	155.556
857.35	40.000
857.65	100.000
857.94	38.462
858.24	44.828
858.53	16.667
858.83	40.741
859.13	45.455
859.42	26.087
859.72	75.000
860.01	-33.333
860.31	24.000
860.60	4.762
860.90	0.000
861.20	6.667
861.49	150.000
861.79	40.000
862.08	25.000
862.38	140.000
862.67	120.000
862.97	16.667
863.26	-16.667
863.56	55.556
863.85	-466.667
864.15	72.222
864.44	10.000
864.74	107.143
865.03	175.000
865.33	-180.000
865.62	133.333
865.92	33.333
866.21	-16.667
866.51	31.250
866.80	45.455
867.10	100.000
867.39	166.667
867.69	0.000
867.98	30.769
868.27	-300.000
868.57	0.000
868.86	61.111
869.16	30.769
869.45	113.333
869.75	-100.000
870.04	0.000
870.33	-14.286
870.63	52.381
870.92	133.333
871.22	-60.000
871.51	-300.000
871.80	111.111
872.10	366.667
>>>>>End Processed Spectral Data<<<<<
