SpectraSuite Data File
++++++++++++++++++++++++++++++++++++
Date: Fri May 15 17:14:11 PDT 2015
User: schluterlab
Dark Spectrum Present: Yes
Reference Spectrum Present: Yes
Number of Sampled Component Spectra: 1
Spectrometers: USB2E3373
Integration Time (usec): 3000 (USB2E3373)
Spectra Averaged: 3 (USB2E3373)
Boxcar Smoothing: 0 (USB2E3373)
Correct for Electrical Dark: No (USB2E3373)
Strobe/Lamp Enabled: No (USB2E3373)
Correct for Detector Non-linearity: No (USB2E3373)
Correct for Stray Light: No (USB2E3373)
Number of Pixels in Processed Spectrum: 2048
>>>>>Begin Processed Spectral Data<<<<<
178.53	0.000
178.91	0.000
179.29	125.000
179.67	200.000
180.04	-42.857
180.42	250.000
180.80	-100.000
181.18	100.000
181.56	650.000
181.94	500.000
182.31	-400.000
182.69	40.000
183.07	33.333
183.45	160.000
183.83	83.333
184.20	127.273
184.58	11.111
184.96	-275.000
185.34	-266.667
185.72	100.000
186.09	23.077
186.47	-600.000
186.85	-150.000
187.23	122.222
187.61	-1000.000
187.98	-66.667
188.36	0.000
188.74	0.000
189.12	88.235
189.49	27.778
189.87	0.000
190.25	50.000
190.63	400.000
191.00	100.000
191.38	57.895
191.76	850.000
192.14	150.000
192.51	350.000
192.89	-66.667
193.27	-57.143
193.65	16.667
194.02	27.273
194.40	120.000
194.78	-50.000
195.15	83.333
195.53	-12.500
195.91	375.000
196.29	175.000
196.66	61.538
197.04	100.000
197.42	155.556
197.79	-133.333
198.17	-23.077
198.55	900.000
198.92	-100.000
199.30	-400.000
199.68	0.000
200.05	-133.333
200.43	0.000
200.81	166.667
201.18	0.000
201.56	300.000
201.94	50.000
202.31	-366.667
202.69	-40.000
203.07	-50.000
203.44	1000.000
203.82	0.000
204.19	50.000
204.57	-300.000
204.95	-25.000
205.32	50.000
205.70	185.714
206.08	150.000
206.45	166.667
206.83	142.857
207.20	0.000
207.58	500.000
207.96	-66.667
208.33	-30.000
208.71	25.000
209.08	-183.333
209.46	-500.000
209.84	-100.000
210.21	-1000.000
210.59	157.143
210.96	16.667
211.34	250.000
211.71	66.667
212.09	28.571
212.46	-500.000
212.84	0.000
213.22	110.000
213.59	-150.000
213.97	100.000
214.34	118.182
214.72	-83.333
215.09	225.000
215.47	30.769
215.84	0.000
216.22	-233.333
216.59	25.000
216.97	900.000
217.34	150.000
217.72	-60.000
218.09	112.500
218.47	25.000
218.84	-200.000
219.22	-11.111
219.59	-80.000
219.97	33.333
220.34	50.000
220.72	114.286
221.09	150.000
221.47	200.000
221.84	200.000
222.22	0.000
222.59	54.545
222.97	75.000
223.34	233.333
223.72	7.143
224.09	47.619
224.46	32.143
224.84	400.000
225.21	30.000
225.59	26.667
225.96	-350.000
226.34	75.000
226.71	-42.857
227.08	133.333
227.46	25.000
227.83	-150.000
228.21	111.111
228.58	90.909
228.95	62.500
229.33	-20.000
229.70	56.250
230.08	-100.000
230.45	42.857
230.82	0.000
231.20	53.333
231.57	35.714
231.95	71.429
232.32	40.000
232.69	0.000
233.07	200.000
233.44	80.000
233.81	40.000
234.19	0.000
234.56	58.824
234.93	-50.000
235.31	400.000
235.68	-60.000
236.05	-46.154
236.43	5.000
236.80	29.412
237.17	31.250
237.55	15.000
237.92	25.926
238.29	30.556
238.67	40.000
239.04	11.765
239.41	2.439
239.79	26.667
240.16	46.341
240.53	28.947
240.91	8.696
241.28	17.460
241.65	42.857
242.02	38.356
242.40	6.667
242.77	28.814
243.14	22.727
243.51	17.500
243.89	35.632
244.26	22.989
244.63	7.143
245.00	17.526
245.38	24.742
245.75	12.360
246.12	21.552
246.49	23.967
246.87	16.346
247.24	16.807
247.61	22.807
247.98	16.260
248.36	21.875
248.73	19.079
249.10	22.078
249.47	18.987
249.84	29.412
250.22	21.765
250.59	19.608
250.96	24.883
251.33	20.930
251.70	20.588
252.08	21.827
252.45	17.822
252.82	17.085
253.19	20.737
253.56	18.224
253.94	24.324
254.31	26.087
254.68	24.123
255.05	21.654
255.42	24.017
255.79	18.533
256.16	21.401
256.54	17.537
256.91	17.871
257.28	20.074
257.65	18.727
258.02	17.730
258.39	24.242
258.76	19.780
259.14	21.927
259.51	22.977
259.88	19.244
260.25	21.242
260.62	22.917
260.99	21.356
261.36	19.521
261.73	20.253
262.10	22.796
262.47	16.871
262.85	18.495
263.22	21.231
263.59	23.676
263.96	22.050
264.33	22.424
264.70	20.536
265.07	22.917
265.44	20.963
265.81	20.904
266.18	19.126
266.55	22.365
266.92	21.244
267.29	20.888
267.66	19.182
268.03	22.513
268.40	18.538
268.77	24.332
269.14	19.424
269.51	19.280
269.88	21.197
270.25	22.959
270.62	19.512
270.99	16.624
271.36	19.315
271.73	21.596
272.10	19.708
272.47	21.040
272.84	19.554
273.21	22.970
273.58	20.482
273.95	20.366
274.32	18.938
274.69	16.968
275.06	19.643
275.43	21.088
275.80	18.322
276.17	21.379
276.54	20.343
276.91	18.202
277.28	17.904
277.65	18.595
278.02	19.362
278.39	19.912
278.76	19.078
279.13	18.880
279.50	20.378
279.87	20.734
280.23	16.774
280.60	19.688
280.97	20.606
281.34	20.385
281.71	20.739
282.08	18.200
282.45	16.634
282.82	16.988
283.19	18.956
283.56	20.617
283.92	17.647
284.29	17.115
284.66	19.767
285.03	16.896
285.40	20.605
285.77	17.223
286.14	19.856
286.51	22.140
286.87	17.550
287.24	18.785
287.61	17.637
287.98	18.772
288.35	19.411
288.72	18.389
289.08	18.403
289.45	17.223
289.82	18.007
290.19	15.870
290.56	14.580
290.93	18.350
291.29	14.638
291.66	16.693
292.03	14.992
292.40	15.806
292.77	15.949
293.13	15.422
293.50	15.023
293.87	15.267
294.24	15.301
294.60	15.797
294.97	16.815
295.34	15.031
295.71	15.052
296.08	17.040
296.44	12.945
296.81	14.861
297.18	14.783
297.55	15.854
297.91	14.521
298.28	13.852
298.65	13.976
299.02	13.073
299.38	11.628
299.75	14.897
300.12	12.958
300.48	11.462
300.85	14.956
301.22	14.286
301.59	13.421
301.95	16.203
302.32	14.397
302.69	14.055
303.05	12.748
303.42	13.325
303.79	13.551
304.15	12.664
304.52	12.604
304.89	11.696
305.25	13.317
305.62	11.902
305.99	11.111
306.35	11.792
306.72	11.924
307.09	12.885
307.45	13.318
307.82	12.037
308.19	12.544
308.55	12.105
308.92	14.052
309.29	13.296
309.65	12.164
310.02	12.981
310.38	12.623
310.75	14.098
311.12	13.132
311.48	12.407
311.85	13.298
312.22	12.975
312.58	11.890
312.95	12.166
313.31	12.836
313.68	12.461
314.05	14.490
314.41	14.124
314.78	12.887
315.14	13.669
315.51	14.286
315.87	13.525
316.24	14.965
316.61	14.764
316.97	14.484
317.34	14.258
317.70	14.149
318.07	13.750
318.43	15.686
318.80	15.152
319.16	16.602
319.53	16.809
319.89	15.945
320.26	16.599
320.62	18.054
320.99	16.910
321.35	18.191
321.72	19.107
322.08	18.832
322.45	19.797
322.81	18.861
323.18	18.744
323.54	19.691
323.91	20.935
324.27	21.094
324.64	21.723
325.00	21.350
325.37	23.691
325.73	23.209
326.10	24.342
326.46	24.395
326.83	25.722
327.19	25.022
327.56	25.543
327.92	27.025
328.29	26.161
328.65	27.264
329.01	27.114
329.38	27.834
329.74	28.517
330.11	27.340
330.47	28.942
330.84	29.808
331.20	31.559
331.56	29.074
331.93	30.137
332.29	31.347
332.66	30.679
333.02	32.156
333.38	30.431
333.75	31.044
334.11	29.812
334.48	32.185
334.84	32.967
335.20	32.022
335.57	31.278
335.93	32.611
336.29	32.228
336.66	33.061
337.02	33.271
337.38	31.944
337.75	31.727
338.11	33.454
338.47	33.668
338.84	34.011
339.20	33.181
339.56	33.578
339.93	33.751
340.29	33.486
340.65	34.319
341.02	33.245
341.38	33.274
341.74	33.392
342.11	33.189
342.47	33.897
342.83	34.429
343.20	33.798
343.56	34.957
343.92	34.810
344.28	34.842
344.65	34.542
345.01	34.659
345.37	33.894
345.73	35.397
346.10	35.375
346.46	35.828
346.82	35.270
347.19	36.575
347.55	35.756
347.91	34.628
348.27	34.519
348.63	36.286
349.00	36.505
349.36	35.245
349.72	35.904
350.08	34.836
350.45	34.796
350.81	36.628
351.17	36.156
351.53	37.551
351.89	35.343
352.26	35.600
352.62	35.887
352.98	35.181
353.34	35.668
353.70	36.246
354.07	36.935
354.43	36.589
354.79	37.572
355.15	37.381
355.51	37.104
355.87	37.945
356.24	37.357
356.60	37.429
356.96	38.175
357.32	36.901
357.68	38.546
358.04	39.742
358.40	38.344
358.77	39.394
359.13	37.790
359.49	38.521
359.85	39.002
360.21	38.836
360.57	38.026
360.93	39.637
361.29	37.613
361.66	40.596
362.02	40.000
362.38	40.289
362.74	41.332
363.10	41.384
363.46	41.067
363.82	39.745
364.18	40.221
364.54	39.779
364.90	41.075
365.26	40.539
365.62	42.628
365.98	41.716
366.35	42.316
366.71	41.537
367.07	42.380
367.43	41.409
367.79	41.201
368.15	42.785
368.51	42.607
368.87	43.360
369.23	43.249
369.59	43.950
369.95	44.135
370.31	44.292
370.67	43.582
371.03	42.868
371.39	43.472
371.75	45.201
372.11	44.864
372.47	44.970
372.83	45.919
373.19	44.223
373.55	44.260
373.91	45.140
374.27	45.996
374.63	46.662
374.99	46.312
375.35	46.657
375.71	48.531
376.07	46.629
376.42	47.415
376.78	47.852
377.14	46.649
377.50	47.875
377.86	47.055
378.22	48.181
378.58	46.987
378.94	48.771
379.30	47.723
379.66	50.157
380.02	48.559
380.38	48.691
380.74	49.132
381.09	48.589
381.45	49.969
381.81	49.599
382.17	49.429
382.53	50.156
382.89	51.789
383.25	51.027
383.61	50.488
383.97	51.048
384.32	50.532
384.68	50.464
385.04	50.123
385.40	50.591
385.76	53.082
386.12	53.105
386.48	52.746
386.83	52.251
387.19	52.869
387.55	52.070
387.91	52.139
388.27	51.160
388.62	52.926
388.98	52.241
389.34	52.904
389.70	51.833
390.06	51.668
390.42	52.461
390.77	53.695
391.13	52.522
391.49	52.587
391.85	53.021
392.20	53.547
392.56	53.592
392.92	52.965
393.28	52.830
393.64	53.814
393.99	54.734
394.35	53.257
394.71	54.598
395.07	52.671
395.42	52.884
395.78	53.550
396.14	53.216
396.50	55.041
396.85	54.668
397.21	53.321
397.57	53.668
397.92	53.325
398.28	54.310
398.64	52.711
399.00	54.063
399.35	51.693
399.71	53.245
400.07	54.172
400.42	52.448
400.78	54.256
401.14	52.571
401.49	53.663
401.85	54.113
402.21	53.916
402.57	54.188
402.92	52.509
403.28	53.571
403.63	54.414
403.99	54.719
404.35	53.904
404.70	51.310
405.06	52.585
405.42	53.449
405.77	52.992
406.13	53.143
406.49	52.220
406.84	53.606
407.20	53.341
407.55	52.222
407.91	51.872
408.27	52.199
408.62	53.108
408.98	52.619
409.34	53.470
409.69	52.842
410.05	52.217
410.40	52.346
410.76	53.136
411.11	52.688
411.47	53.123
411.83	51.412
412.18	53.797
412.54	52.310
412.89	52.094
413.25	52.286
413.60	51.925
413.96	51.902
414.31	51.402
414.67	51.956
415.03	51.065
415.38	51.958
415.74	52.638
416.09	52.711
416.45	52.397
416.80	51.091
417.16	53.936
417.51	52.765
417.87	51.825
418.22	53.562
418.58	54.114
418.93	53.480
419.29	51.665
419.64	53.078
420.00	54.534
420.35	52.896
420.71	52.855
421.06	53.468
421.42	53.185
421.77	53.642
422.12	53.292
422.48	53.979
422.83	53.828
423.19	54.515
423.54	53.028
423.90	53.828
424.25	54.363
424.61	55.263
424.96	54.181
425.31	55.228
425.67	54.343
426.02	55.183
426.38	55.229
426.73	54.843
427.09	56.582
427.44	55.353
427.79	55.451
428.15	55.218
428.50	55.784
428.85	56.143
429.21	55.008
429.56	57.412
429.92	55.265
430.27	54.586
430.62	54.260
430.98	54.406
431.33	54.784
431.68	55.573
432.04	55.953
432.39	55.048
432.74	55.021
433.10	56.264
433.45	56.332
433.80	56.413
434.16	55.235
434.51	56.828
434.86	56.039
435.22	55.805
435.57	58.827
435.92	57.485
436.28	56.291
436.63	57.159
436.98	57.242
437.34	57.653
437.69	57.364
438.04	57.208
438.39	56.995
438.75	57.438
439.10	56.706
439.45	57.212
439.81	56.942
440.16	57.957
440.51	57.433
440.86	59.456
441.22	56.448
441.57	57.340
441.92	58.237
442.27	57.594
442.63	58.351
442.98	57.725
443.33	57.095
443.68	57.082
444.03	58.371
444.39	56.665
444.74	58.584
445.09	59.020
445.44	57.607
445.79	58.690
446.15	58.866
446.50	57.571
446.85	58.395
447.20	57.456
447.55	58.092
447.91	58.094
448.26	57.997
448.61	59.125
448.96	59.094
449.31	58.613
449.66	59.872
450.02	58.072
450.37	59.277
450.72	58.247
451.07	58.608
451.42	57.553
451.77	57.866
452.12	56.998
452.47	58.339
452.83	57.479
453.18	57.242
453.53	58.597
453.88	58.227
454.23	57.222
454.58	58.501
454.93	59.472
455.28	57.841
455.63	58.834
455.98	57.306
456.34	58.301
456.69	58.704
457.04	57.782
457.39	59.174
457.74	58.646
458.09	57.210
458.44	58.865
458.79	57.983
459.14	57.666
459.49	57.254
459.84	58.432
460.19	57.039
460.54	57.946
460.89	58.295
461.24	57.391
461.59	56.770
461.94	56.730
462.29	58.444
462.64	57.874
462.99	58.362
463.34	57.997
463.69	57.786
464.04	56.961
464.39	57.611
464.74	57.362
465.09	58.141
465.44	57.242
465.79	56.066
466.14	57.640
466.49	56.699
466.84	56.692
467.19	57.259
467.54	57.407
467.89	56.854
468.24	55.718
468.59	57.206
468.94	56.000
469.29	56.197
469.64	56.596
469.99	58.234
470.34	55.495
470.68	57.644
471.03	57.962
471.38	56.562
471.73	58.543
472.08	56.309
472.43	57.987
472.78	55.380
473.13	57.143
473.48	56.417
473.83	55.604
474.17	55.635
474.52	56.350
474.87	55.758
475.22	55.705
475.57	55.618
475.92	56.994
476.27	56.170
476.61	56.134
476.96	54.601
477.31	55.976
477.66	55.281
478.01	55.755
478.36	55.338
478.70	55.411
479.05	55.824
479.40	54.902
479.75	54.797
480.10	54.685
480.45	55.000
480.79	54.834
481.14	55.891
481.49	54.138
481.84	54.392
482.19	53.555
482.53	53.669
482.88	52.649
483.23	53.599
483.58	52.972
483.92	53.340
484.27	52.552
484.62	52.622
484.97	51.824
485.31	50.939
485.66	50.806
486.01	50.501
486.36	49.508
486.70	49.640
487.05	49.966
487.40	50.465
487.75	50.620
488.09	50.216
488.44	50.447
488.79	50.131
489.13	51.322
489.48	51.304
489.83	51.211
490.17	51.685
490.52	51.871
490.87	50.532
491.22	51.576
491.56	50.712
491.91	50.287
492.26	51.094
492.60	50.768
492.95	52.041
493.30	50.806
493.64	50.933
493.99	50.435
494.34	49.951
494.68	50.476
495.03	49.440
495.37	50.343
495.72	50.177
496.07	50.390
496.41	49.811
496.76	49.562
497.11	49.185
497.45	49.690
497.80	49.647
498.14	48.932
498.49	50.584
498.84	50.000
499.18	48.946
499.53	48.810
499.87	47.811
500.22	49.209
500.56	48.815
500.91	49.498
501.26	48.047
501.60	48.746
501.95	48.180
502.29	48.281
502.64	48.263
502.98	48.643
503.33	47.839
503.67	47.373
504.02	49.511
504.36	47.204
504.71	47.727
505.06	47.157
505.40	47.056
505.75	47.938
506.09	47.035
506.44	47.690
506.78	48.010
507.13	46.898
507.47	46.632
507.82	47.062
508.16	47.385
508.51	48.164
508.85	46.259
509.19	46.621
509.54	47.239
509.88	45.092
510.23	46.423
510.57	46.499
510.92	45.522
511.26	45.608
511.61	47.525
511.95	44.822
512.30	46.064
512.64	45.465
512.98	45.873
513.33	45.159
513.67	45.026
514.02	46.682
514.36	46.229
514.70	46.970
515.05	45.946
515.39	45.927
515.74	46.647
516.08	46.145
516.42	46.054
516.77	45.699
517.11	45.757
517.46	46.738
517.80	45.650
518.14	44.887
518.49	44.411
518.83	45.869
519.17	44.694
519.52	44.642
519.86	44.478
520.20	44.532
520.55	44.403
520.89	44.542
521.23	45.155
521.58	45.110
521.92	44.615
522.26	44.112
522.61	45.065
522.95	45.364
523.29	44.854
523.64	44.917
523.98	45.301
524.32	44.459
524.66	45.647
525.01	44.870
525.35	43.940
525.69	44.175
526.04	45.106
526.38	44.942
526.72	42.446
527.06	42.542
527.41	43.668
527.75	43.633
528.09	42.326
528.43	44.767
528.78	43.498
529.12	44.387
529.46	42.690
529.80	41.735
530.15	44.158
530.49	43.704
530.83	43.502
531.17	42.445
531.51	43.434
531.86	41.604
532.20	42.171
532.54	42.342
532.88	43.053
533.22	43.145
533.57	42.595
533.91	42.037
534.25	43.490
534.59	41.501
534.93	41.284
535.27	40.990
535.62	41.283
535.96	41.031
536.30	41.887
536.64	41.902
536.98	41.951
537.32	42.959
537.66	42.006
538.01	41.538
538.35	40.014
538.69	41.278
539.03	40.055
539.37	41.588
539.71	40.423
540.05	39.511
540.39	40.928
540.73	41.283
541.07	41.022
541.42	40.457
541.76	41.019
542.10	40.193
542.44	39.819
542.78	39.023
543.12	40.591
543.46	40.056
543.80	40.458
544.14	38.251
544.48	39.307
544.82	39.440
545.16	40.164
545.50	39.386
545.84	40.085
546.18	40.284
546.52	39.293
546.86	39.612
547.20	39.771
547.54	37.951
547.88	38.995
548.22	38.790
548.56	39.644
548.90	38.679
549.24	37.741
549.58	38.999
549.92	38.313
550.26	39.707
550.60	40.074
550.94	41.299
551.28	40.263
551.62	39.231
551.96	39.474
552.30	38.596
552.64	37.165
552.98	38.256
553.32	37.803
553.66	37.808
554.00	39.124
554.34	40.177
554.68	38.938
555.02	39.063
555.36	38.369
555.69	38.022
556.03	37.830
556.37	37.224
556.71	38.556
557.05	38.404
557.39	37.472
557.73	37.781
558.07	38.914
558.41	38.361
558.75	39.049
559.08	40.110
559.42	38.254
559.76	38.671
560.10	37.997
560.44	37.007
560.78	38.322
561.12	38.011
561.45	38.299
561.79	37.675
562.13	38.538
562.47	36.906
562.81	38.689
563.15	37.447
563.48	38.543
563.82	38.229
564.16	37.326
564.50	36.284
564.84	37.416
565.17	36.955
565.51	38.046
565.85	37.860
566.19	36.870
566.52	36.930
566.86	37.339
567.20	36.364
567.54	36.192
567.88	36.790
568.21	36.199
568.55	36.250
568.89	36.858
569.23	35.484
569.56	35.464
569.90	35.404
570.24	34.388
570.57	35.164
570.91	35.169
571.25	34.364
571.59	33.572
571.92	33.274
572.26	33.575
572.60	33.364
572.93	33.668
573.27	33.511
573.61	33.562
573.95	33.124
574.28	32.627
574.62	32.418
574.96	32.386
575.29	32.837
575.63	32.133
575.97	32.123
576.30	33.090
576.64	32.106
576.98	32.690
577.31	33.202
577.65	32.798
577.98	32.840
578.32	32.784
578.66	32.044
578.99	31.984
579.33	31.376
579.67	32.147
580.00	32.481
580.34	32.040
580.67	31.924
581.01	32.397
581.35	32.214
581.68	31.864
582.02	31.932
582.35	31.513
582.69	31.749
583.02	31.446
583.36	32.387
583.70	32.996
584.03	33.028
584.37	32.806
584.70	31.841
585.04	31.425
585.37	32.383
585.71	31.819
586.04	31.694
586.38	32.062
586.72	32.769
587.05	33.073
587.39	32.429
587.72	32.969
588.06	32.355
588.39	32.270
588.73	33.089
589.06	33.170
589.40	32.872
589.73	32.530
590.07	33.082
590.40	33.940
590.73	33.361
591.07	32.570
591.40	32.458
591.74	33.394
592.07	34.045
592.41	33.746
592.74	32.696
593.08	31.645
593.41	32.059
593.75	31.665
594.08	31.926
594.41	32.278
594.75	32.519
595.08	32.728
595.42	32.499
595.75	33.346
596.09	33.151
596.42	32.947
596.75	32.726
597.09	32.620
597.42	33.650
597.75	33.211
598.09	32.684
598.42	32.175
598.76	32.390
599.09	31.971
599.42	31.565
599.76	32.205
600.09	31.523
600.42	31.577
600.76	32.058
601.09	32.252
601.42	32.237
601.76	32.394
602.09	32.550
602.42	32.603
602.76	30.603
603.09	32.890
603.42	33.445
603.76	31.895
604.09	32.361
604.42	32.614
604.76	32.710
605.09	31.947
605.42	32.867
605.75	32.137
606.09	32.229
606.42	31.568
606.75	31.342
607.09	32.220
607.42	31.015
607.75	32.060
608.08	31.851
608.42	31.293
608.75	31.952
609.08	32.287
609.41	32.893
609.75	32.409
610.08	33.200
610.41	31.787
610.74	32.716
611.07	31.680
611.41	32.226
611.74	33.102
612.07	32.013
612.40	31.893
612.73	32.994
613.07	32.115
613.40	33.370
613.73	31.561
614.06	32.387
614.39	32.431
614.72	31.989
615.06	32.235
615.39	31.605
615.72	32.024
616.05	31.732
616.38	31.225
616.71	32.538
617.05	32.242
617.38	32.181
617.71	33.145
618.04	33.016
618.37	33.607
618.70	33.729
619.03	34.375
619.36	33.213
619.69	33.965
620.03	33.893
620.36	34.049
620.69	33.119
621.02	33.028
621.35	35.602
621.68	34.524
622.01	35.333
622.34	34.477
622.67	33.833
623.00	32.312
623.33	32.470
623.66	32.461
623.99	31.997
624.32	33.916
624.65	32.406
624.99	33.785
625.32	31.918
625.65	34.564
625.98	33.683
626.31	33.167
626.64	34.835
626.97	35.864
627.30	34.238
627.63	34.315
627.96	33.603
628.29	34.875
628.62	34.710
628.95	34.369
629.28	34.677
629.61	35.294
629.94	36.070
630.26	34.486
630.59	37.461
630.92	34.667
631.25	34.564
631.58	35.022
631.91	34.430
632.24	35.894
632.57	35.455
632.90	35.824
633.23	36.000
633.56	36.524
633.89	35.758
634.22	35.556
634.55	34.689
634.88	36.015
635.20	33.077
635.53	36.267
635.86	35.111
636.19	36.611
636.52	34.439
636.85	35.360
637.18	34.717
637.51	34.843
637.83	35.611
638.16	39.700
638.49	35.831
638.82	36.974
639.15	34.600
639.48	37.414
639.81	37.796
640.13	35.498
640.46	35.423
640.79	35.788
641.12	33.087
641.45	36.787
641.77	36.148
642.10	38.389
642.43	39.228
642.76	37.294
643.09	37.480
643.41	36.731
643.74	35.914
644.07	38.752
644.40	39.020
644.73	36.953
645.05	36.577
645.38	38.095
645.71	34.574
646.04	39.138
646.36	37.589
646.69	39.388
647.02	38.185
647.35	38.619
647.67	36.563
648.00	39.739
648.33	38.567
648.66	35.763
648.98	35.511
649.31	33.719
649.64	33.595
649.96	36.467
650.29	35.945
650.62	35.726
650.94	34.815
651.27	35.382
651.60	37.297
651.92	38.287
652.25	34.991
652.58	35.000
652.90	37.221
653.23	35.798
653.56	33.164
653.88	35.223
654.21	33.450
654.54	33.956
654.86	36.672
655.19	35.088
655.52	31.889
655.84	26.713
656.17	30.333
656.49	41.141
656.82	42.836
657.15	32.564
657.47	24.257
657.80	18.175
658.13	17.976
658.45	27.551
658.78	28.170
659.10	27.581
659.43	28.608
659.75	29.255
660.08	30.621
660.41	31.461
660.73	34.530
661.06	36.049
661.38	36.204
661.71	34.292
662.03	36.266
662.36	36.264
662.68	35.398
663.01	37.336
663.33	36.195
663.66	34.884
663.98	35.349
664.31	36.034
664.63	32.719
664.96	33.696
665.28	33.775
665.61	34.416
665.93	38.043
666.26	36.659
666.58	33.781
666.91	38.588
667.23	38.208
667.56	37.441
667.88	35.971
668.21	39.141
668.53	36.407
668.86	38.208
669.18	33.962
669.50	36.077
669.83	36.047
670.15	40.559
670.48	35.885
670.80	34.332
671.13	33.781
671.45	35.160
671.77	37.983
672.10	34.455
672.42	33.708
672.75	35.169
673.07	34.526
673.39	34.862
673.72	32.347
674.04	33.542
674.37	34.322
674.69	34.047
675.01	31.111
675.34	31.757
675.66	36.574
675.98	37.029
676.31	35.321
676.63	36.342
676.95	36.364
677.28	35.059
677.60	35.663
677.92	35.550
678.25	36.105
678.57	34.632
678.89	33.193
679.22	34.676
679.54	33.333
679.86	32.008
680.18	35.146
680.51	32.576
680.83	31.412
681.15	34.600
681.48	35.861
681.80	33.058
682.12	33.871
682.44	33.054
682.77	33.554
683.09	34.325
683.41	34.545
683.73	37.558
684.06	34.292
684.38	32.473
684.70	35.512
685.02	30.498
685.34	31.621
685.67	32.083
685.99	33.454
686.31	29.558
686.63	34.323
686.96	28.897
687.28	29.495
687.60	32.890
687.92	36.970
688.24	32.258
688.56	30.568
688.89	29.911
689.21	37.111
689.53	31.787
689.85	31.628
690.17	33.036
690.49	34.043
690.82	33.495
691.14	31.905
691.46	34.579
691.78	34.459
692.10	35.484
692.42	32.035
692.74	33.547
693.06	32.207
693.39	27.828
693.71	31.900
694.03	28.868
694.35	34.112
694.67	35.101
694.99	30.809
695.31	35.770
695.63	37.250
695.95	33.081
696.27	32.124
696.59	35.556
696.91	33.613
697.23	31.105
697.56	32.178
697.88	33.118
698.20	32.574
698.52	33.882
698.84	30.383
699.16	29.250
699.48	32.080
699.80	27.792
700.12	33.962
700.44	35.294
700.76	31.395
701.08	29.697
701.40	31.325
701.72	41.049
702.04	34.323
702.36	32.776
702.68	35.135
703.00	32.121
703.32	32.845
703.64	29.944
703.96	32.754
704.28	35.276
704.60	34.921
704.91	28.707
705.23	32.226
705.55	38.516
705.87	36.101
706.19	28.519
706.51	32.646
706.83	35.691
707.15	29.907
707.47	32.213
707.79	30.990
708.11	32.500
708.43	33.250
708.74	32.558
709.06	33.803
709.38	36.086
709.70	30.178
710.02	33.121
710.34	32.817
710.66	30.449
710.98	29.801
711.29	34.426
711.61	33.559
711.93	35.831
712.25	36.770
712.57	31.502
712.89	30.597
713.20	36.678
713.52	27.875
713.84	35.495
714.16	31.271
714.48	30.968
714.80	32.051
715.11	31.307
715.43	30.094
715.75	32.000
716.07	30.233
716.39	29.195
716.70	35.055
717.02	31.298
717.34	31.984
717.66	34.513
717.97	30.435
718.29	35.983
718.61	37.795
718.93	30.620
719.24	34.981
719.56	30.522
719.88	36.426
720.20	30.303
720.51	30.268
720.83	31.660
721.15	37.395
721.46	31.452
721.78	33.992
722.10	31.227
722.42	28.631
722.73	30.612
723.05	40.000
723.37	32.203
723.68	34.234
724.00	38.034
724.32	30.222
724.63	35.909
724.95	34.061
725.27	37.327
725.58	31.780
725.90	30.159
726.22	32.046
726.53	32.881
726.85	33.708
727.16	36.226
727.48	27.530
727.80	30.364
728.11	33.051
728.43	27.451
728.74	27.419
729.06	34.000
729.38	36.842
729.69	27.092
730.01	28.077
730.32	34.328
730.64	30.035
730.96	32.075
731.27	31.000
731.59	26.780
731.90	28.981
732.22	33.754
732.53	32.226
732.85	30.142
733.16	35.017
733.48	25.899
733.80	29.710
734.11	28.136
734.43	28.179
734.74	27.879
735.06	26.710
735.37	30.514
735.69	29.630
736.00	25.436
736.32	27.852
736.63	28.873
736.95	27.645
737.26	27.758
737.58	26.510
737.89	27.473
738.21	30.075
738.52	31.276
738.83	31.441
739.15	29.694
739.46	30.709
739.78	26.007
740.09	27.451
740.41	29.710
740.72	28.346
741.04	29.150
741.35	27.660
741.66	26.540
741.98	32.653
742.29	32.673
742.61	30.366
742.92	25.592
743.23	31.019
743.55	30.317
743.86	32.536
744.18	33.493
744.49	31.915
744.80	30.435
745.12	35.294
745.43	31.220
745.74	34.896
746.06	32.683
746.37	33.508
746.68	33.649
747.00	33.511
747.31	29.851
747.62	28.155
747.94	31.579
748.25	26.733
748.56	28.962
748.88	29.319
749.19	32.979
749.50	33.990
749.82	31.132
750.13	24.771
750.44	29.323
750.75	30.224
751.07	35.401
751.38	34.483
751.69	26.667
752.01	33.721
752.32	26.295
752.63	27.668
752.94	29.310
753.26	36.820
753.57	24.434
753.88	26.549
754.19	22.917
754.51	27.686
754.82	25.911
755.13	34.167
755.44	32.258
755.75	29.297
756.07	26.848
756.38	27.170
756.69	26.054
757.00	24.000
757.31	26.797
757.63	29.268
757.94	24.167
758.25	24.110
758.56	26.596
758.87	22.380
759.18	24.611
759.50	26.545
759.81	29.766
760.12	24.516
760.43	24.242
760.74	26.543
761.05	25.538
761.36	26.420
761.67	29.697
761.99	27.891
762.30	30.182
762.61	25.692
762.92	26.697
763.23	29.730
763.54	28.037
763.85	28.814
764.16	29.046
764.47	28.226
764.78	24.542
765.10	24.579
765.41	26.814
765.72	28.254
766.03	21.053
766.34	27.737
766.65	27.888
766.96	30.303
767.27	31.383
767.58	29.310
767.89	29.078
768.20	28.977
768.51	26.923
768.82	27.586
769.13	24.424
769.44	27.468
769.75	27.397
770.06	27.586
770.37	25.962
770.68	24.365
770.99	22.624
771.30	30.882
771.61	23.077
771.92	31.034
772.23	23.645
772.54	25.806
772.85	31.481
773.16	27.528
773.47	31.373
773.78	30.719
774.09	23.353
774.39	28.000
774.70	33.121
775.01	35.862
775.32	25.714
775.63	26.446
775.94	33.588
776.25	25.984
776.56	24.167
776.87	31.731
777.18	24.786
777.48	31.897
777.79	18.261
778.10	27.619
778.41	20.721
778.72	23.016
779.03	30.075
779.34	26.241
779.65	28.767
779.95	23.288
780.26	24.138
780.57	30.081
780.88	18.898
781.19	24.138
781.50	27.132
781.80	28.402
782.11	21.384
782.42	31.538
782.73	31.655
783.04	25.185
783.34	25.694
783.65	17.094
783.96	22.131
784.27	31.034
784.57	26.829
784.88	26.563
785.19	30.000
785.50	35.000
785.81	25.000
786.11	29.310
786.42	24.272
786.73	33.636
787.04	18.367
787.34	23.214
787.65	25.714
787.96	16.814
788.26	27.273
788.57	18.803
788.88	27.344
789.19	20.635
789.49	29.565
789.80	23.469
790.11	32.323
790.41	24.545
790.72	36.957
791.03	28.409
791.33	33.750
791.64	25.000
791.95	12.791
792.25	28.723
792.56	33.708
792.87	27.397
793.17	26.087
793.48	17.333
793.79	31.250
794.09	33.750
794.40	13.208
794.70	27.184
795.01	21.138
795.32	31.624
795.62	31.429
795.93	27.451
796.23	39.623
796.54	21.875
796.85	33.824
797.15	26.761
797.46	48.611
797.76	43.939
798.07	25.581
798.37	14.474
798.68	33.333
798.99	22.222
799.29	28.571
799.60	24.638
799.90	18.667
800.21	40.984
800.51	30.769
800.82	28.814
801.12	31.884
801.43	29.508
801.73	31.746
802.04	20.000
802.34	32.836
802.65	25.000
802.95	19.643
803.26	40.385
803.56	29.412
803.87	4.348
804.17	34.667
804.48	47.619
804.78	18.519
805.09	32.609
805.39	11.111
805.70	25.926
806.00	10.526
806.30	28.169
806.61	27.143
806.91	19.444
807.22	30.263
807.52	38.667
807.83	18.182
808.13	31.944
808.43	35.294
808.74	25.373
809.04	13.559
809.35	30.769
809.65	26.563
809.95	10.811
810.26	20.455
810.56	21.918
810.86	19.048
811.17	32.000
811.47	40.816
811.77	-2.632
812.08	29.545
812.38	37.736
812.69	32.500
812.99	27.273
813.29	44.737
813.59	-5.714
813.90	9.091
814.20	23.077
814.50	28.846
814.81	37.736
815.11	23.404
815.41	47.458
815.72	47.619
816.02	33.333
816.32	20.833
816.62	29.268
816.93	10.811
817.23	42.857
817.53	20.833
817.84	4.348
818.14	26.923
818.44	-2.632
818.74	41.304
819.04	22.500
819.35	29.730
819.65	11.765
819.95	11.111
820.25	35.714
820.56	32.500
820.86	3.448
821.16	42.500
821.46	34.043
821.76	35.000
822.07	20.930
822.37	35.135
822.67	28.125
822.97	19.048
823.27	28.571
823.57	-16.000
823.88	33.333
824.18	14.286
824.48	50.000
824.78	38.710
825.08	4.348
825.38	30.303
825.69	16.667
825.99	23.684
826.29	5.556
826.59	6.667
826.89	9.524
827.19	39.130
827.49	22.500
827.79	57.143
828.09	42.857
828.39	30.303
828.70	37.838
829.00	14.286
829.30	28.571
829.60	16.667
829.90	34.375
830.20	5.263
830.50	18.519
830.80	34.783
831.10	27.273
831.40	24.242
831.70	25.806
832.00	9.524
832.30	23.810
832.60	-33.333
832.90	37.931
833.20	45.000
833.50	30.303
833.80	37.037
834.10	30.769
834.40	31.250
834.70	-22.222
835.00	-10.526
835.30	42.308
835.60	120.000
835.90	32.258
836.20	54.545
836.50	32.143
836.80	19.231
837.10	10.714
837.40	-66.667
837.70	54.545
838.00	90.909
838.30	47.826
838.60	38.462
838.90	63.636
839.19	10.714
839.49	23.333
839.79	7.692
840.09	-83.333
840.39	96.429
840.69	25.000
840.99	3.846
841.29	15.789
841.59	-10.000
841.88	118.182
842.18	0.000
842.48	43.750
842.78	66.667
843.08	29.630
843.38	-90.000
843.68	73.913
843.97	86.667
844.27	46.667
844.57	50.000
844.87	5.556
845.17	33.333
845.47	73.333
845.76	4.762
846.06	100.000
846.36	60.000
846.66	-14.286
846.96	80.000
847.25	37.500
847.55	21.429
847.85	-12.500
848.15	-4.545
848.44	-133.333
848.74	40.000
849.04	40.741
849.34	-45.455
849.63	16.667
849.93	-60.000
850.23	55.556
850.53	40.000
850.82	84.615
851.12	-22.222
851.42	113.333
851.71	7.692
852.01	35.714
852.31	-200.000
852.61	-18.182
852.90	10.000
853.20	57.895
853.50	33.333
853.79	30.435
854.09	104.167
854.39	10.526
854.68	29.167
854.98	19.355
855.28	46.154
855.57	40.000
855.87	16.667
856.17	11.111
856.46	28.571
856.76	-40.000
857.05	133.333
857.35	48.000
857.65	22.222
857.94	38.462
858.24	41.379
858.53	55.556
858.83	44.444
859.13	50.000
859.42	0.000
859.72	225.000
860.01	-533.333
860.31	-8.000
860.60	28.571
860.90	-66.667
861.20	0.000
861.49	0.000
861.79	113.333
862.08	45.000
862.38	73.333
862.67	-80.000
862.97	150.000
863.26	8.333
863.56	55.556
863.85	-366.667
864.15	16.667
864.44	40.000
864.74	71.429
865.03	-50.000
865.33	20.000
865.62	116.667
865.92	50.000
866.21	16.667
866.51	37.500
866.80	-9.091
867.10	-400.000
867.39	33.333
867.69	0.000
867.98	146.154
868.27	66.667
868.57	73.333
868.86	83.333
869.16	-38.462
869.45	40.000
869.75	0.000
870.04	0.000
870.33	-71.429
870.63	19.048
870.92	366.667
871.22	-240.000
871.51	200.000
871.80	111.111
872.10	-0.000
>>>>>End Processed Spectral Data<<<<<
