SpectraSuite Data File
++++++++++++++++++++++++++++++++++++
Date: Fri May 15 17:18:29 PDT 2015
User: schluterlab
Dark Spectrum Present: Yes
Reference Spectrum Present: Yes
Number of Sampled Component Spectra: 1
Spectrometers: USB2E3373
Integration Time (usec): 3000 (USB2E3373)
Spectra Averaged: 3 (USB2E3373)
Boxcar Smoothing: 0 (USB2E3373)
Correct for Electrical Dark: No (USB2E3373)
Strobe/Lamp Enabled: No (USB2E3373)
Correct for Detector Non-linearity: No (USB2E3373)
Correct for Stray Light: No (USB2E3373)
Number of Pixels in Processed Spectrum: 2048
>>>>>Begin Processed Spectral Data<<<<<
178.53	0.000
178.91	0.000
179.29	225.000
179.67	150.000
180.04	57.143
180.42	300.000
180.80	200.000
181.18	-66.667
181.56	100.000
181.94	400.000
182.31	-100.000
182.69	180.000
183.07	33.333
183.45	20.000
183.83	-50.000
184.20	90.909
184.58	88.889
184.96	-175.000
185.34	-233.333
185.72	-150.000
186.09	46.154
186.47	-400.000
186.85	133.333
187.23	77.778
187.61	-200.000
187.98	100.000
188.36	133.333
188.74	200.000
189.12	35.294
189.49	72.222
189.87	0.000
190.25	100.000
190.63	600.000
191.00	500.000
191.38	47.368
191.76	750.000
192.14	-75.000
192.51	150.000
192.89	22.222
193.27	-14.286
193.65	-0.000
194.02	72.727
194.40	90.000
194.78	25.000
195.15	50.000
195.53	-25.000
195.91	100.000
196.29	125.000
196.66	15.385
197.04	71.429
197.42	200.000
197.79	-266.667
198.17	-46.154
198.55	500.000
198.92	-200.000
199.30	-1000.000
199.68	200.000
200.05	-333.333
200.43	0.000
200.81	100.000
201.18	0.000
201.56	-100.000
201.94	250.000
202.31	-66.667
202.69	0.000
203.07	75.000
203.44	200.000
203.82	0.000
204.19	42.857
204.57	0.000
204.95	112.500
205.32	40.000
205.70	157.143
206.08	150.000
206.45	155.556
206.83	78.571
207.20	42.857
207.58	300.000
207.96	-33.333
208.33	-30.000
208.71	25.000
209.08	0.000
209.46	-300.000
209.84	-120.000
210.21	0.000
210.59	128.571
210.96	-16.667
211.34	100.000
211.71	80.000
212.09	28.571
212.46	-300.000
212.84	0.000
213.22	90.000
213.59	450.000
213.97	115.385
214.34	145.455
214.72	83.333
215.09	-25.000
215.47	-15.385
215.84	9.091
216.22	-100.000
216.59	75.000
216.97	600.000
217.34	25.000
217.72	20.000
218.09	62.500
218.47	-75.000
218.84	500.000
219.22	-33.333
219.59	140.000
219.97	-66.667
220.34	-125.000
220.72	85.714
221.09	-100.000
221.47	0.000
221.84	-550.000
222.22	-250.000
222.59	100.000
222.97	100.000
223.34	66.667
223.72	35.714
224.09	-9.524
224.46	25.000
224.84	100.000
225.21	60.000
225.59	53.333
225.96	400.000
226.34	325.000
226.71	85.714
227.08	-83.333
227.46	50.000
227.83	250.000
228.21	55.556
228.58	36.364
228.95	125.000
229.33	10.000
229.70	25.000
230.08	125.000
230.45	71.429
230.82	214.286
231.20	33.333
231.57	100.000
231.95	85.714
232.32	-20.000
232.69	92.857
233.07	100.000
233.44	0.000
233.81	-20.000
234.19	-22.222
234.56	64.706
234.93	300.000
235.31	125.000
235.68	-240.000
236.05	-46.154
236.43	-20.000
236.80	35.294
237.17	46.875
237.55	-25.000
237.92	22.222
238.29	22.222
238.67	26.667
239.04	32.353
239.41	0.000
239.79	0.000
240.16	17.073
240.53	13.158
240.91	28.261
241.28	23.810
241.65	26.786
242.02	31.507
242.40	18.333
242.77	-10.169
243.14	3.030
243.51	3.750
243.89	16.092
244.26	10.345
244.63	5.952
245.00	10.309
245.38	11.340
245.75	3.371
246.12	10.345
246.49	14.050
246.87	9.615
247.24	17.647
247.61	7.895
247.98	10.569
248.36	5.000
248.73	11.184
249.10	5.844
249.47	3.165
249.84	2.614
250.22	12.353
250.59	2.614
250.96	10.798
251.33	4.070
251.70	10.588
252.08	10.660
252.45	2.970
252.82	10.050
253.19	11.982
253.56	2.336
253.94	7.658
254.31	10.000
254.68	10.088
255.05	5.512
255.42	5.240
255.79	6.564
256.16	8.949
256.54	6.716
256.91	7.985
257.28	7.807
257.65	7.865
258.02	5.319
258.39	10.101
258.76	5.495
259.14	7.309
259.51	7.443
259.88	5.155
260.25	7.516
260.62	6.250
260.99	3.390
261.36	3.082
261.73	8.228
262.10	5.775
262.47	4.601
262.85	5.329
263.22	4.923
263.59	5.296
263.96	3.106
264.33	3.939
264.70	5.952
265.07	5.060
265.44	6.516
265.81	3.390
266.18	5.191
266.55	10.797
266.92	6.736
267.29	4.700
267.66	8.184
268.03	4.974
268.40	4.178
268.77	8.556
269.14	6.235
269.51	5.141
269.88	5.736
270.25	7.398
270.62	5.610
270.99	5.371
271.36	6.846
271.73	7.277
272.10	5.839
272.47	6.856
272.84	3.713
273.21	8.353
273.58	7.711
273.95	4.577
274.32	6.005
274.69	3.394
275.06	10.268
275.43	3.855
275.80	6.843
276.17	3.448
276.54	7.709
276.91	5.921
277.28	3.930
277.65	9.298
278.02	2.766
278.39	5.252
278.76	6.080
279.13	3.734
279.50	7.143
279.87	7.559
280.23	6.237
280.60	8.967
280.97	5.051
281.34	5.577
281.71	7.392
282.08	5.317
282.45	4.892
282.82	4.826
283.19	3.868
283.56	5.780
283.92	4.554
284.29	3.462
284.66	5.233
285.03	5.501
285.40	4.726
285.77	4.042
286.14	4.332
286.51	7.565
286.87	4.388
287.24	5.157
287.61	4.233
287.98	6.842
288.35	3.293
288.72	5.604
289.08	5.903
289.45	4.745
289.82	5.070
290.19	7.338
290.56	5.146
290.93	3.367
291.29	4.160
291.66	5.197
292.03	4.306
292.40	3.710
292.77	4.147
293.13	3.084
293.50	3.794
293.87	4.580
294.24	4.637
294.60	5.067
294.97	6.845
295.34	3.221
295.71	4.173
296.08	3.139
296.44	3.841
296.81	5.833
297.18	6.232
297.55	7.317
297.91	5.342
298.28	5.541
298.65	3.935
299.02	2.561
299.38	1.094
299.75	1.793
300.12	3.534
300.48	4.480
300.85	5.703
301.22	3.766
301.59	3.684
301.95	5.063
302.32	5.318
302.69	2.488
303.05	5.322
303.42	3.238
303.79	4.322
304.15	5.854
304.52	2.378
304.89	2.807
305.25	3.632
305.62	3.734
305.99	3.392
306.35	3.353
306.72	2.812
307.09	3.535
307.45	4.822
307.82	4.630
308.19	3.833
308.55	4.798
308.92	5.991
309.29	3.352
309.65	2.583
310.02	3.520
310.38	3.183
310.75	3.716
311.12	3.337
311.48	4.030
311.85	5.236
312.22	2.426
312.58	3.715
312.95	3.522
313.31	3.106
313.68	3.665
314.05	3.878
314.41	2.990
314.78	2.680
315.14	4.317
315.51	4.762
315.87	3.279
316.24	5.561
316.61	5.118
316.97	4.067
317.34	4.102
317.70	3.346
318.07	3.654
318.43	5.000
318.80	3.977
319.16	3.223
319.53	4.938
319.89	3.740
320.26	4.352
320.62	5.517
320.99	3.758
321.35	3.392
321.72	4.984
322.08	3.827
322.45	4.365
322.81	4.813
323.18	2.061
323.54	3.958
323.91	3.797
324.27	3.711
324.64	4.401
325.00	4.471
325.37	4.224
325.73	3.626
326.10	4.450
326.46	5.291
326.83	4.112
327.19	4.272
327.56	3.997
327.92	5.458
328.29	4.375
328.65	4.057
329.01	4.228
329.38	5.253
329.74	3.966
330.11	5.283
330.47	3.803
330.84	3.654
331.20	4.848
331.56	3.611
331.93	5.297
332.29	5.225
332.66	4.434
333.02	3.996
333.38	3.758
333.75	3.663
334.11	4.297
334.48	3.898
334.84	3.388
335.20	3.934
335.57	4.170
335.93	4.065
336.29	4.788
336.66	4.360
337.02	3.532
337.38	3.796
337.75	5.455
338.11	4.328
338.47	3.923
338.84	5.268
339.20	5.027
339.56	4.771
339.93	5.551
340.29	4.587
340.65	4.749
341.02	4.255
341.38	4.159
341.74	3.622
342.11	4.159
342.47	4.181
342.83	4.152
343.20	3.920
343.56	4.174
343.92	4.694
344.28	4.782
344.65	4.145
345.01	3.803
345.37	4.626
345.73	4.770
346.10	4.918
346.46	4.373
346.82	3.928
347.19	3.907
347.55	4.762
347.91	4.207
348.27	5.821
348.63	5.196
349.00	3.199
349.36	3.990
349.72	5.141
350.08	4.180
350.45	4.948
350.81	3.405
351.17	4.642
351.53	4.245
351.89	4.542
352.26	3.520
352.62	4.435
352.98	4.257
353.34	4.831
353.70	4.531
354.07	4.113
354.43	4.243
354.79	3.220
355.15	4.841
355.51	5.459
355.87	4.935
356.24	3.670
356.60	3.800
356.96	4.127
357.32	5.032
357.68	3.909
358.04	3.796
358.40	4.100
358.77	5.104
359.13	3.923
359.49	4.160
359.85	4.212
360.21	3.748
360.57	4.055
360.93	5.522
361.29	3.474
361.66	4.310
362.02	3.788
362.38	3.960
362.74	4.239
363.10	4.590
363.46	4.374
363.82	4.959
364.18	5.018
364.54	3.529
364.90	4.301
365.26	3.785
365.62	5.328
365.98	4.619
366.35	4.807
366.71	3.843
367.07	4.790
367.43	4.170
367.79	4.735
368.15	5.025
368.51	4.224
368.87	4.164
369.23	3.899
369.59	3.499
369.95	4.839
370.31	4.263
370.67	3.955
371.03	4.780
371.39	3.063
371.75	3.956
372.11	5.064
372.47	4.068
372.83	5.039
373.19	4.922
373.55	4.260
373.91	4.752
374.27	4.819
374.63	4.235
374.99	4.468
375.35	3.760
375.71	4.965
376.07	4.494
376.42	4.626
376.78	4.564
377.14	4.401
377.50	4.382
377.86	4.752
378.22	4.531
378.58	3.846
378.94	5.104
379.30	4.429
379.66	5.392
380.02	3.556
380.38	4.443
380.74	4.788
381.09	4.969
381.45	4.465
381.81	4.750
382.17	4.505
382.53	4.247
382.89	4.959
383.25	5.165
383.61	5.610
383.97	4.444
384.32	5.253
384.68	5.139
385.04	4.350
385.40	4.605
385.76	5.597
386.12	5.110
386.48	5.364
386.83	4.692
387.19	5.189
387.55	5.960
387.91	5.440
388.27	5.128
388.62	5.475
388.98	5.157
389.34	6.371
389.70	5.904
390.06	5.979
390.42	5.570
390.77	4.709
391.13	5.044
391.49	5.175
391.85	5.718
392.20	5.650
392.56	5.785
392.92	5.989
393.28	5.660
393.64	5.526
393.99	6.708
394.35	5.440
394.71	5.811
395.07	6.223
395.42	5.404
395.78	6.254
396.14	6.116
396.50	5.580
396.85	5.860
397.21	6.140
397.57	6.082
397.92	6.771
398.28	6.437
398.64	6.205
399.00	5.982
399.35	5.756
399.71	6.203
400.07	6.046
400.42	5.814
400.78	7.410
401.14	6.776
401.49	6.790
401.85	6.338
402.21	7.108
402.57	6.375
402.92	6.650
403.28	6.454
403.63	6.747
403.99	6.122
404.35	7.121
404.70	6.905
405.06	6.874
405.42	6.961
405.77	6.334
406.13	6.461
406.49	6.572
406.84	6.418
407.20	7.345
407.55	6.053
407.91	7.152
408.27	5.927
408.62	7.631
408.98	6.716
409.34	7.311
409.69	6.912
410.05	6.466
410.40	7.346
410.76	6.936
411.11	6.937
411.47	7.298
411.83	6.780
412.18	6.950
412.54	6.242
412.89	6.650
413.25	7.341
413.60	7.826
413.96	7.546
414.31	7.134
414.67	6.607
415.03	6.591
415.38	7.441
415.74	8.599
416.09	9.144
416.45	7.360
416.80	6.808
417.16	6.837
417.51	7.328
417.87	6.584
418.22	7.254
418.58	6.957
418.93	7.649
419.29	6.786
419.64	7.259
420.00	8.186
420.35	7.164
420.71	8.323
421.06	7.551
421.42	7.392
421.77	7.168
422.12	6.981
422.48	7.417
422.83	7.773
423.19	7.675
423.54	7.407
423.90	7.597
424.25	7.348
424.61	8.262
424.96	7.491
425.31	8.030
425.67	7.864
426.02	8.363
426.38	7.702
426.73	8.172
427.09	8.481
427.44	9.176
427.79	8.191
428.15	9.102
428.50	7.632
428.85	7.371
429.21	7.697
429.56	8.302
429.92	8.320
430.27	8.622
430.62	7.475
430.98	8.068
431.33	8.097
431.68	7.535
432.04	8.440
432.39	8.157
432.74	7.697
433.10	9.195
433.45	8.542
433.80	8.648
434.16	8.089
434.51	8.548
434.86	8.653
435.22	7.964
435.57	9.233
435.92	8.024
436.28	8.408
436.63	8.500
436.98	8.227
437.34	8.348
437.69	8.587
438.04	8.661
438.39	8.064
438.75	7.832
439.10	8.885
439.45	8.643
439.81	8.746
440.16	7.898
440.51	10.030
440.86	9.547
441.22	8.767
441.57	8.444
441.92	9.286
442.27	8.647
442.63	9.422
442.98	9.592
443.33	9.460
443.68	8.753
444.03	9.538
444.39	8.313
444.74	9.699
445.09	9.410
445.44	9.573
445.79	10.160
446.15	9.416
446.50	9.207
446.85	10.096
447.20	9.281
447.55	9.989
447.91	10.152
448.26	9.277
448.61	9.845
448.96	8.893
449.31	9.133
449.66	9.582
450.02	9.298
450.37	9.721
450.72	9.393
451.07	10.190
451.42	9.114
451.77	9.464
452.12	9.151
452.47	9.337
452.83	8.893
453.18	9.614
453.53	10.051
453.88	9.411
454.23	9.465
454.58	9.446
454.93	9.858
455.28	8.889
455.63	9.981
455.98	10.042
456.34	10.473
456.69	9.593
457.04	10.712
457.39	9.113
457.74	9.915
458.09	9.535
458.44	9.772
458.79	10.252
459.14	10.069
459.49	10.627
459.84	9.814
460.19	8.859
460.54	9.719
460.89	9.773
461.24	10.497
461.59	11.045
461.94	9.371
462.29	10.856
462.64	11.096
462.99	10.630
463.34	10.362
463.69	10.360
464.04	10.593
464.39	10.309
464.74	10.491
465.09	10.168
465.44	10.040
465.79	9.467
466.14	10.775
466.49	9.948
466.84	10.113
467.19	10.325
467.54	10.856
467.89	10.044
468.24	10.401
468.59	10.857
468.94	10.032
469.29	11.738
469.64	11.073
469.99	10.091
470.34	9.625
470.68	11.409
471.03	10.262
471.38	9.629
471.73	10.504
472.08	10.651
472.43	10.000
472.78	9.321
473.13	10.476
473.48	11.336
473.83	10.025
474.17	10.687
474.52	10.338
474.87	10.606
475.22	9.579
475.57	11.067
475.92	10.806
476.27	11.350
476.61	10.995
476.96	10.262
477.31	10.871
477.66	10.787
478.01	10.612
478.36	10.784
478.70	11.256
479.05	11.374
479.40	11.023
479.75	10.845
480.10	10.701
480.45	10.650
480.79	11.531
481.14	11.168
481.49	10.000
481.84	10.183
482.19	10.103
482.53	10.839
482.88	10.358
483.23	10.988
483.58	10.613
483.92	10.552
484.27	10.802
484.62	10.623
484.97	10.406
485.31	10.621
485.66	10.263
486.01	10.509
486.36	10.232
486.70	10.198
487.05	10.096
487.40	10.315
487.75	10.535
488.09	10.414
488.44	10.798
488.79	10.609
489.13	11.098
489.48	11.116
489.83	11.076
490.17	10.382
490.52	10.716
490.87	10.504
491.22	11.079
491.56	11.148
491.91	10.660
492.26	10.695
492.60	10.701
492.95	11.904
493.30	10.503
493.64	11.100
493.99	11.208
494.34	10.291
494.68	10.905
495.03	10.316
495.37	10.844
495.72	10.651
496.07	11.220
496.41	10.660
496.76	11.331
497.11	10.806
497.45	11.647
497.80	10.898
498.14	11.128
498.49	10.970
498.84	11.327
499.18	11.596
499.53	11.111
499.87	10.506
500.22	11.227
500.56	11.296
500.91	11.295
501.26	10.875
501.60	11.067
501.95	10.917
502.29	11.380
502.64	11.535
502.98	11.692
503.33	10.855
503.67	11.325
504.02	11.632
504.36	11.232
504.71	10.859
505.06	11.072
505.40	11.523
505.75	11.546
506.09	11.201
506.44	12.064
506.78	11.122
507.13	11.944
507.47	10.705
507.82	11.325
508.16	11.516
508.51	11.175
508.85	11.983
509.19	10.591
509.54	11.689
509.88	10.841
510.23	11.781
510.57	11.652
510.92	10.981
511.26	11.238
511.61	11.606
511.95	11.507
512.30	11.253
512.64	11.909
512.98	11.398
513.33	12.591
513.67	11.654
514.02	12.414
514.36	11.714
514.70	12.646
515.05	12.397
515.39	11.688
515.74	13.413
516.08	11.596
516.42	13.310
516.77	12.054
517.11	12.404
517.46	12.627
517.80	11.442
518.14	12.615
518.49	11.599
518.83	12.758
519.17	11.825
519.52	12.197
519.86	12.005
520.20	12.758
520.55	11.695
520.89	13.300
521.23	12.223
521.58	13.312
521.92	12.692
522.26	12.362
522.61	12.662
522.95	12.980
523.29	12.834
523.64	13.659
523.98	12.249
524.32	12.049
524.66	13.380
525.01	13.247
525.35	12.703
525.69	12.391
526.04	12.434
526.38	13.554
526.72	12.688
527.06	12.387
527.41	12.863
527.75	12.534
528.09	12.425
528.43	14.112
528.78	12.343
529.12	12.968
529.46	12.541
529.80	12.730
530.15	13.465
530.49	13.603
530.83	12.175
531.17	12.156
531.51	13.133
531.86	12.508
532.20	12.317
532.54	12.662
532.88	13.484
533.22	13.239
533.57	12.910
533.91	12.663
534.25	13.672
534.59	12.765
534.93	11.643
535.27	12.690
535.62	12.378
535.96	12.981
536.30	13.984
536.64	13.439
536.98	12.753
537.32	14.083
537.66	13.815
538.01	12.797
538.35	12.344
538.69	13.515
539.03	12.372
539.37	13.257
539.71	13.156
540.05	12.016
540.39	13.227
540.73	13.389
541.07	12.569
541.42	14.852
541.76	13.076
542.10	12.595
542.44	13.412
542.78	11.700
543.12	12.706
543.46	12.796
543.80	12.977
544.14	12.016
544.48	12.858
544.82	12.714
545.16	12.842
545.50	13.284
545.84	12.677
546.18	12.979
546.52	12.617
546.86	12.509
547.20	13.376
547.54	13.004
547.88	13.111
548.22	12.426
548.56	12.665
548.90	14.084
549.24	12.328
549.58	13.117
549.92	13.009
550.26	13.260
550.60	13.532
550.94	13.518
551.28	12.983
551.62	13.308
551.96	12.932
552.30	12.865
552.64	12.341
552.98	13.221
553.32	13.124
553.66	12.482
554.00	13.577
554.34	13.737
554.68	13.717
555.02	13.393
555.36	12.939
555.69	12.454
556.03	12.491
556.37	13.167
556.71	13.718
557.05	13.274
557.39	12.639
557.73	13.718
558.07	14.178
558.41	13.859
558.75	13.094
559.08	13.554
559.42	13.492
559.76	12.170
560.10	12.768
560.44	13.179
560.78	12.937
561.12	12.412
561.45	13.141
561.79	13.585
562.13	13.130
562.47	12.518
562.81	13.040
563.15	12.835
563.48	12.871
563.82	13.315
564.16	12.535
564.50	13.041
564.84	13.253
565.17	12.810
565.51	12.363
565.85	12.551
566.19	12.666
566.52	13.606
566.86	14.139
567.20	12.702
567.54	12.652
567.88	13.181
568.21	13.122
568.55	12.500
568.89	12.782
569.23	12.518
569.56	11.909
569.90	12.505
570.24	12.356
570.57	12.218
570.91	12.130
571.25	11.641
571.59	12.177
571.92	11.674
572.26	11.957
572.60	11.876
572.93	11.798
573.27	11.599
573.61	12.053
573.95	11.660
574.28	11.149
574.62	11.238
574.96	11.394
575.29	11.358
575.63	11.091
575.97	10.843
576.30	11.189
576.64	11.126
576.98	11.480
577.31	11.502
577.65	11.697
577.98	11.560
578.32	11.554
578.66	11.025
578.99	11.277
579.33	11.292
579.67	11.052
580.00	11.418
580.34	11.343
580.67	11.449
581.01	11.263
581.35	11.370
581.68	11.415
582.02	11.562
582.35	11.421
582.69	11.375
583.02	11.472
583.36	11.285
583.70	11.786
584.03	11.176
584.37	11.632
584.70	11.648
585.04	10.984
585.37	11.671
585.71	11.725
586.04	11.523
586.38	11.576
586.72	11.879
587.05	11.785
587.39	11.909
587.72	12.028
588.06	11.680
588.39	12.276
588.73	12.057
589.06	12.100
589.40	12.098
589.73	12.121
590.07	12.651
590.40	12.113
590.73	12.891
591.07	12.044
591.40	12.734
591.74	12.036
592.07	12.755
592.41	13.030
592.74	12.226
593.08	11.561
593.41	11.960
593.75	11.907
594.08	12.015
594.41	12.118
594.75	12.023
595.08	12.410
595.42	12.330
595.75	11.829
596.09	12.314
596.42	12.154
596.75	12.877
597.09	11.754
597.42	12.918
597.75	12.597
598.09	12.404
598.42	12.094
598.76	12.484
599.09	12.300
599.42	12.088
599.76	12.265
600.09	12.557
600.42	12.358
600.76	11.850
601.09	12.137
601.42	11.986
601.76	12.465
602.09	12.129
602.42	13.142
602.76	12.139
603.09	12.666
603.42	12.876
603.76	11.734
604.09	11.260
604.42	12.394
604.76	13.084
605.09	12.020
605.42	11.919
605.75	11.646
606.09	12.229
606.42	11.593
606.75	11.775
607.09	12.659
607.42	12.184
607.75	12.433
608.08	11.590
608.42	11.923
608.75	12.723
609.08	12.207
609.41	12.487
609.75	11.794
610.08	12.931
610.41	11.836
610.74	11.994
611.07	11.938
611.41	12.351
611.74	12.740
612.07	11.777
612.40	12.254
612.73	13.164
613.07	12.317
613.40	12.801
613.73	11.136
614.06	12.910
614.39	11.506
614.72	11.597
615.06	12.291
615.39	11.736
615.72	12.487
616.05	12.179
616.38	11.225
616.71	12.416
617.05	12.600
617.38	12.885
617.71	12.390
618.04	12.889
618.37	13.304
618.70	12.541
619.03	13.611
619.36	11.433
619.69	11.979
620.03	13.952
620.36	13.877
620.69	11.991
621.02	12.768
621.35	14.025
621.68	12.925
622.01	13.167
622.34	13.009
622.67	13.328
623.00	13.093
623.33	12.576
623.66	11.892
623.99	12.859
624.32	13.080
624.65	11.955
624.99	13.544
625.32	12.434
625.65	13.433
625.98	13.135
626.31	11.970
626.64	14.125
626.97	13.962
627.30	13.748
627.63	13.345
627.96	13.657
628.29	13.136
628.62	14.553
628.95	13.928
629.28	12.500
629.61	13.360
629.94	13.783
630.26	13.340
630.59	13.528
630.92	13.436
631.25	12.000
631.58	12.225
631.91	11.623
632.24	13.417
632.57	14.773
632.90	12.456
633.23	14.941
633.56	13.476
633.89	12.947
634.22	13.086
634.55	13.723
634.88	13.282
635.20	13.077
635.53	15.200
635.86	15.735
636.19	13.972
636.52	13.648
636.85	12.655
637.18	13.459
637.51	13.333
637.83	14.455
638.16	15.143
638.49	11.717
638.82	14.868
639.15	14.383
639.48	12.930
639.81	13.947
640.13	13.276
640.46	14.723
640.79	12.666
641.12	13.737
641.45	13.213
641.77	14.370
642.10	15.324
642.43	13.344
642.76	14.191
643.09	15.670
643.41	15.534
643.74	13.344
644.07	14.286
644.40	15.034
644.73	14.361
645.05	14.262
645.38	15.697
645.71	14.894
646.04	13.465
646.36	13.830
646.69	14.928
647.02	15.879
647.35	16.604
647.67	14.625
648.00	13.993
648.33	14.676
648.66	14.407
648.98	10.720
649.31	12.397
649.64	13.972
649.96	12.318
650.29	16.525
650.62	15.043
650.94	12.037
651.27	14.898
651.60	15.676
651.92	13.811
652.25	11.901
652.58	14.167
652.90	13.722
653.23	15.462
653.56	11.506
653.88	14.777
654.21	11.559
654.54	13.243
654.86	15.110
655.19	13.012
655.52	12.539
655.84	10.254
656.17	10.960
656.49	14.939
656.82	15.945
657.15	12.150
657.47	9.045
657.80	6.800
658.13	6.791
658.45	10.463
658.78	10.520
659.10	10.606
659.43	10.380
659.75	11.149
660.08	10.621
660.41	12.360
660.73	14.088
661.06	14.385
661.38	13.307
661.71	14.168
662.03	15.021
662.36	14.725
662.68	14.159
663.01	15.284
663.33	14.617
663.66	11.395
663.98	11.860
664.31	14.712
664.63	12.903
664.96	11.087
665.28	12.583
665.61	14.719
665.93	11.522
666.26	15.184
666.58	10.962
666.91	14.588
667.23	14.387
667.56	13.981
667.88	14.868
668.21	13.365
668.53	15.366
668.86	16.745
669.18	12.500
669.50	13.801
669.83	13.488
670.15	14.452
670.48	11.962
670.80	14.055
671.13	12.081
671.45	12.329
671.77	12.876
672.10	13.663
672.42	14.607
672.75	12.789
673.07	14.311
673.39	13.028
673.72	13.018
674.04	9.792
674.37	16.102
674.69	13.490
675.01	12.444
675.34	13.739
675.66	14.815
675.98	12.417
676.31	13.532
676.63	10.214
676.95	13.636
677.28	13.882
677.60	15.181
677.92	14.679
678.25	12.254
678.57	11.255
678.89	12.815
679.22	13.647
679.54	12.048
679.86	10.934
680.18	14.175
680.51	12.689
680.83	9.940
681.15	12.800
681.48	13.525
681.80	13.843
682.12	13.508
682.44	11.506
682.77	13.687
683.09	10.755
683.41	12.727
683.73	15.207
684.06	14.159
684.38	10.753
684.70	13.072
685.02	10.788
685.34	10.277
685.67	11.820
685.99	15.552
686.31	13.097
686.63	12.245
686.96	12.357
687.28	10.909
687.60	11.977
687.92	13.333
688.24	13.508
688.56	12.445
688.89	10.714
689.21	16.222
689.53	9.745
689.85	11.860
690.17	13.839
690.49	14.657
690.82	13.835
691.14	10.952
691.46	13.084
691.78	9.685
692.10	15.269
692.42	11.472
692.74	10.470
693.06	13.288
693.39	7.919
693.71	10.407
694.03	12.009
694.35	12.150
694.67	11.111
694.99	12.272
695.31	13.838
695.63	14.750
695.95	12.626
696.27	12.176
696.59	15.833
696.91	12.045
697.23	8.483
697.56	14.109
697.88	13.118
698.20	12.984
698.52	14.824
698.84	10.526
699.16	11.500
699.48	12.030
699.80	12.407
700.12	12.129
700.44	15.126
700.76	9.593
701.08	9.394
701.40	10.843
701.72	16.358
702.04	12.871
702.36	13.712
702.68	9.309
703.00	11.818
703.32	11.730
703.64	8.475
703.96	13.913
704.28	14.110
704.60	15.238
704.91	10.410
705.23	10.299
705.55	16.961
705.87	14.079
706.19	12.963
706.51	17.182
706.83	15.434
707.15	9.034
707.47	10.644
707.79	12.240
708.11	14.000
708.43	12.250
708.74	13.953
709.06	14.085
709.38	11.315
709.70	13.609
710.02	9.554
710.34	14.241
710.66	10.897
710.98	12.583
711.29	14.426
711.61	13.898
711.93	14.332
712.25	17.526
712.57	16.117
712.89	10.448
713.20	12.803
713.52	13.240
713.84	13.993
714.16	14.089
714.48	14.839
714.80	12.821
715.11	11.854
715.43	10.345
715.75	11.000
716.07	10.631
716.39	12.081
716.70	10.701
717.02	11.069
717.34	15.789
717.66	10.619
717.97	14.348
718.29	10.460
718.61	14.173
718.93	14.729
719.24	12.167
719.56	11.647
719.88	15.120
720.20	7.955
720.51	12.261
720.83	15.444
721.15	13.445
721.46	8.468
721.78	9.881
722.10	14.126
722.42	7.884
722.73	17.143
723.05	15.510
723.37	15.254
723.68	13.964
724.00	8.120
724.32	12.444
724.63	9.091
724.95	12.227
725.27	11.521
725.58	13.559
725.90	12.698
726.22	14.286
726.53	14.915
726.85	11.610
727.16	14.340
727.48	9.717
727.80	11.336
728.11	11.017
728.43	15.686
728.74	8.065
729.06	12.800
729.38	17.293
729.69	8.367
730.01	8.846
730.32	13.060
730.64	14.134
730.96	10.943
731.27	14.000
731.59	11.525
731.90	11.146
732.22	15.142
732.53	13.289
732.85	12.057
733.16	18.182
733.48	8.993
733.80	11.594
734.11	11.864
734.43	9.966
734.74	9.697
735.06	9.446
735.37	10.876
735.69	16.835
736.00	7.666
736.32	12.752
736.63	12.324
736.95	10.239
737.26	12.100
737.58	15.101
737.89	10.623
738.21	13.910
738.52	9.465
738.83	16.157
739.15	7.424
739.46	12.598
739.78	11.355
740.09	16.013
740.41	7.971
740.72	9.843
741.04	10.526
741.35	12.340
741.66	9.479
741.98	13.776
742.29	12.376
742.61	14.660
742.92	7.109
743.23	7.407
743.55	14.932
743.86	10.526
744.18	13.397
744.49	9.043
744.80	6.522
745.12	14.439
745.43	7.317
745.74	14.583
746.06	13.171
746.37	13.613
746.68	17.062
747.00	10.106
747.31	20.896
747.62	11.650
747.94	13.397
748.25	4.455
748.56	8.197
748.88	10.995
749.19	18.085
749.50	13.300
749.82	6.132
750.13	5.505
750.44	18.045
750.75	11.567
751.07	13.504
751.38	13.027
751.69	10.588
752.01	12.016
752.32	9.163
752.63	12.253
752.94	12.069
753.26	16.736
753.57	15.837
753.88	8.407
754.19	8.750
754.51	6.198
754.82	11.741
755.13	18.333
755.44	11.290
755.75	16.016
756.07	13.230
756.38	7.925
756.69	9.579
757.00	12.333
757.31	9.150
757.63	8.841
757.94	11.667
758.25	5.205
758.56	7.713
758.87	11.048
759.18	10.592
759.50	7.636
759.81	10.033
760.12	15.806
760.43	10.909
760.74	11.728
761.05	13.538
761.36	8.523
761.67	13.636
761.99	12.925
762.30	9.818
762.61	13.043
762.92	9.050
763.23	12.613
763.54	8.879
763.85	16.102
764.16	9.544
764.47	6.452
764.78	9.524
765.10	15.152
765.41	7.886
765.72	11.746
766.03	10.526
766.34	12.774
766.65	11.554
766.96	11.616
767.27	12.234
767.58	9.195
767.89	9.220
768.20	8.523
768.51	12.088
768.82	12.315
769.13	6.452
769.44	11.588
769.75	9.589
770.06	16.810
770.37	7.212
770.68	9.137
770.99	11.765
771.30	11.275
771.61	7.692
771.92	12.500
772.23	11.330
772.54	13.978
772.85	11.728
773.16	15.730
773.47	18.301
773.78	10.458
774.09	10.778
774.39	7.333
774.70	12.102
775.01	15.172
775.32	11.429
775.63	10.744
775.94	14.504
776.25	18.898
776.56	5.833
776.87	16.346
777.18	9.402
777.48	6.034
777.79	7.826
778.10	7.619
778.41	1.802
778.72	17.460
779.03	17.293
779.34	17.730
779.65	17.123
779.95	5.479
780.26	15.172
780.57	11.382
780.88	12.598
781.19	10.345
781.50	9.302
781.80	8.284
782.11	5.031
782.42	13.077
782.73	8.633
783.04	8.889
783.34	9.722
783.65	-1.709
783.96	7.377
784.27	15.172
784.57	9.756
784.88	15.625
785.19	19.000
785.50	27.000
785.81	16.379
786.11	5.172
786.42	3.883
786.73	12.727
787.04	13.265
787.34	13.393
787.65	15.238
787.96	14.159
788.26	7.273
788.57	17.094
788.88	21.094
789.19	15.079
789.49	11.304
789.80	1.020
790.11	14.141
790.41	7.273
790.72	22.826
791.03	12.500
791.33	18.750
791.64	22.500
791.95	15.116
792.25	14.894
792.56	28.090
792.87	19.178
793.17	14.493
793.48	-1.333
793.79	10.000
794.09	7.500
794.40	7.547
794.70	3.883
795.01	4.065
795.32	13.675
795.62	10.476
795.93	10.784
796.23	17.925
796.54	18.750
796.85	7.353
797.15	23.944
797.46	15.278
797.76	15.152
798.07	12.791
798.37	10.526
798.68	6.061
798.99	9.877
799.29	22.857
799.60	-8.696
799.90	26.667
800.21	8.197
800.51	18.462
800.82	18.644
801.12	34.783
801.43	21.311
801.73	25.397
802.04	14.000
802.34	4.478
802.65	13.462
802.95	-7.143
803.26	23.077
803.56	15.686
803.87	2.174
804.17	18.667
804.48	30.159
804.78	11.111
805.09	26.087
805.39	17.778
805.70	14.815
806.00	5.263
806.30	18.310
806.61	15.714
806.91	0.000
807.22	14.474
807.52	13.333
807.83	0.000
808.13	13.889
808.43	29.412
808.74	1.493
809.04	8.475
809.35	7.692
809.65	18.750
809.95	-18.919
810.26	-9.091
810.56	13.699
810.86	4.762
811.17	14.000
811.47	32.653
811.77	-5.263
812.08	11.364
812.38	37.736
812.69	0.000
812.99	18.182
813.29	26.316
813.59	-25.714
813.90	18.182
814.20	20.513
814.50	-9.615
814.81	18.868
815.11	-4.255
815.41	20.339
815.72	38.095
816.02	25.490
816.32	4.167
816.62	-2.439
816.93	37.838
817.23	5.714
817.53	22.917
817.84	10.870
818.14	32.692
818.44	-15.789
818.74	36.957
819.04	-7.500
819.35	24.324
819.65	8.824
819.95	27.778
820.25	35.714
820.56	42.500
820.86	3.448
821.16	55.000
821.46	12.766
821.76	0.000
822.07	27.907
822.37	-8.108
822.67	12.500
822.97	14.286
823.27	21.429
823.57	4.000
823.88	-11.111
824.18	28.571
824.48	23.529
824.78	25.806
825.08	-4.348
825.38	57.576
825.69	-16.667
825.99	39.474
826.29	0.000
826.59	13.333
826.89	-19.048
827.19	15.217
827.49	30.000
827.79	22.857
828.09	14.286
828.39	30.303
828.70	32.432
829.00	17.857
829.30	19.048
829.60	0.000
829.90	53.125
830.20	-5.263
830.50	11.111
830.80	30.435
831.10	-40.909
831.40	48.485
831.70	25.806
832.00	28.571
832.30	-19.048
832.60	-16.667
832.90	34.483
833.20	30.000
833.50	6.061
833.80	-3.704
834.10	50.000
834.40	28.125
834.70	44.444
835.00	-5.263
835.30	30.769
835.60	46.667
835.90	29.032
836.20	9.091
836.50	64.286
836.80	3.846
837.10	0.000
837.40	-233.333
837.70	40.909
838.00	-63.636
838.30	21.739
838.60	0.000
838.90	31.818
839.19	17.857
839.49	33.333
839.79	30.769
840.09	-91.667
840.39	53.571
840.69	35.714
840.99	-15.385
841.29	31.579
841.59	-60.000
841.88	9.091
842.18	-20.000
842.48	62.500
842.78	0.000
843.08	7.407
843.38	-130.000
843.68	34.783
843.97	33.333
844.27	-26.667
844.57	25.000
844.87	83.333
845.17	23.810
845.47	6.667
845.76	-4.762
846.06	17.647
846.36	30.000
846.66	-35.714
846.96	-6.667
847.25	-62.500
847.55	-42.857
847.85	-12.500
848.15	0.000
848.44	-333.333
848.74	55.000
849.04	48.148
849.34	36.364
849.63	83.333
849.93	-40.000
850.23	11.111
850.53	20.000
850.82	30.769
851.12	33.333
851.42	73.333
851.71	23.077
852.01	28.571
852.31	25.000
852.61	54.545
852.90	-5.000
853.20	-15.789
853.50	-41.667
853.79	47.826
854.09	33.333
854.39	15.789
854.68	-12.500
854.98	3.226
855.28	26.923
855.57	10.000
855.87	33.333
856.17	18.519
856.46	78.571
856.76	-13.333
857.05	100.000
857.35	32.000
857.65	22.222
857.94	46.154
858.24	93.103
858.53	72.222
858.83	33.333
859.13	81.818
859.42	78.261
859.72	275.000
860.01	-400.000
860.31	28.000
860.60	23.810
860.90	-200.000
861.20	26.667
861.49	-300.000
861.79	13.333
862.08	25.000
862.38	93.333
862.67	0.000
862.97	66.667
863.26	58.333
863.56	83.333
863.85	-366.667
864.15	44.444
864.44	-30.000
864.74	28.571
865.03	225.000
865.33	-60.000
865.62	33.333
865.92	50.000
866.21	-116.667
866.51	37.500
866.80	54.545
867.10	250.000
867.39	133.333
867.69	0.000
867.98	53.846
868.27	33.333
868.57	60.000
868.86	27.778
869.16	-61.538
869.45	113.333
869.75	-300.000
870.04	0.000
870.33	-57.143
870.63	42.857
870.92	-0.000
871.22	-60.000
871.51	500.000
871.80	166.667
872.10	33.333
>>>>>End Processed Spectral Data<<<<<
