SpectraSuite Data File
++++++++++++++++++++++++++++++++++++
Date: Fri May 15 17:07:25 PDT 2015
User: schluterlab
Dark Spectrum Present: Yes
Reference Spectrum Present: Yes
Number of Sampled Component Spectra: 1
Spectrometers: USB2E3373
Integration Time (usec): 3000 (USB2E3373)
Spectra Averaged: 3 (USB2E3373)
Boxcar Smoothing: 0 (USB2E3373)
Correct for Electrical Dark: No (USB2E3373)
Strobe/Lamp Enabled: No (USB2E3373)
Correct for Detector Non-linearity: No (USB2E3373)
Correct for Stray Light: No (USB2E3373)
Number of Pixels in Processed Spectrum: 2048
>>>>>Begin Processed Spectral Data<<<<<
178.53	0.000
178.91	0.000
179.29	112.500
179.67	300.000
180.04	-257.143
180.42	275.000
180.80	1100.000
181.18	-266.667
181.56	-50.000
181.94	650.000
182.31	-800.000
182.69	160.000
183.07	400.000
183.45	80.000
183.83	-66.667
184.20	100.000
184.58	-55.556
184.96	-200.000
185.34	-133.333
185.72	400.000
186.09	23.077
186.47	1000.000
186.85	-33.333
187.23	55.556
187.61	-1200.000
187.98	233.333
188.36	77.778
188.74	166.667
189.12	64.706
189.49	33.333
189.87	0.000
190.25	192.857
190.63	900.000
191.00	133.333
191.38	73.684
191.76	350.000
192.14	-200.000
192.51	450.000
192.89	22.222
193.27	157.143
193.65	33.333
194.02	-63.636
194.40	80.000
194.78	62.500
195.15	75.000
195.53	-12.500
195.91	100.000
196.29	-175.000
196.66	30.769
197.04	57.143
197.42	100.000
197.79	-100.000
198.17	15.385
198.55	400.000
198.92	0.000
199.30	300.000
199.68	-20.000
200.05	-66.667
200.43	0.000
200.81	333.333
201.18	133.333
201.56	-300.000
201.94	650.000
202.31	-166.667
202.69	140.000
203.07	-25.000
203.44	1200.000
203.82	0.000
204.19	64.286
204.57	-266.667
204.95	-62.500
205.32	30.000
205.70	128.571
206.08	125.000
206.45	222.222
206.83	78.571
207.20	-28.571
207.58	-700.000
207.96	0.000
208.33	-100.000
208.71	225.000
209.08	-66.667
209.46	-100.000
209.84	-40.000
210.21	400.000
210.59	142.857
210.96	33.333
211.34	100.000
211.71	153.333
212.09	14.286
212.46	100.000
212.84	0.000
213.22	160.000
213.59	-100.000
213.97	130.769
214.34	127.273
214.72	83.333
215.09	75.000
215.47	46.154
215.84	-18.182
216.22	366.667
216.59	87.500
216.97	700.000
217.34	200.000
217.72	0.000
218.09	75.000
218.47	-50.000
218.84	900.000
219.22	22.222
219.59	140.000
219.97	33.333
220.34	-0.000
220.72	200.000
221.09	225.000
221.47	50.000
221.84	-850.000
222.22	-450.000
222.59	90.909
222.97	100.000
223.34	166.667
223.72	42.857
224.09	38.095
224.46	57.143
224.84	166.667
225.21	40.000
225.59	106.667
225.96	400.000
226.34	-100.000
226.71	0.000
227.08	116.667
227.46	62.500
227.83	-100.000
228.21	88.889
228.58	45.455
228.95	100.000
229.33	90.000
229.70	6.250
230.08	0.000
230.45	57.143
230.82	142.857
231.20	60.000
231.57	114.286
231.95	200.000
232.32	70.000
232.69	114.286
233.07	333.333
233.44	-100.000
233.81	50.000
234.19	22.222
234.56	47.059
234.93	-150.000
235.31	300.000
235.68	120.000
236.05	107.692
236.43	0.000
236.80	88.235
237.17	28.125
237.55	65.000
237.92	29.630
238.29	61.111
238.67	50.000
239.04	50.000
239.41	2.439
239.79	43.333
240.16	43.902
240.53	28.947
240.91	39.130
241.28	33.333
241.65	28.571
242.02	28.767
242.40	41.667
242.77	32.203
243.14	18.182
243.51	28.750
243.89	37.931
244.26	39.080
244.63	30.952
245.00	24.742
245.38	37.113
245.75	17.978
246.12	21.552
246.49	22.314
246.87	27.885
247.24	15.126
247.61	13.158
247.98	27.642
248.36	25.000
248.73	25.000
249.10	22.078
249.47	22.152
249.84	19.608
250.22	22.941
250.59	26.797
250.96	25.352
251.33	19.186
251.70	29.412
252.08	22.843
252.45	22.277
252.82	22.613
253.19	23.041
253.56	20.093
253.94	28.378
254.31	26.522
254.68	23.246
255.05	21.260
255.42	23.144
255.79	24.710
256.16	26.459
256.54	19.030
256.91	23.574
257.28	24.535
257.65	24.345
258.02	19.858
258.39	23.232
258.76	22.344
259.14	25.581
259.51	21.683
259.88	22.337
260.25	22.876
260.62	28.125
260.99	21.695
261.36	22.260
261.73	22.468
262.10	23.404
262.47	21.472
262.85	21.944
263.22	22.462
263.59	24.611
263.96	20.807
264.33	21.212
264.70	19.345
265.07	24.107
265.44	25.212
265.81	20.904
266.18	21.858
266.55	23.650
266.92	21.244
267.29	21.671
267.66	20.460
268.03	21.728
268.40	21.149
268.77	22.193
269.14	22.062
269.51	22.108
269.88	20.200
270.25	21.429
270.62	20.976
270.99	20.205
271.36	21.027
271.73	23.239
272.10	21.168
272.47	20.567
272.84	22.277
273.21	22.274
273.58	21.205
273.95	20.824
274.32	19.400
274.69	21.946
275.06	22.545
275.43	19.955
275.80	20.530
276.17	19.540
276.54	20.771
276.91	21.930
277.28	20.961
277.65	21.281
278.02	20.426
278.39	20.131
278.76	21.384
279.13	18.257
279.50	21.639
279.87	19.654
280.23	20.000
280.60	21.442
280.97	20.202
281.34	20.000
281.71	22.177
282.08	20.245
282.45	20.939
282.82	20.849
283.19	19.149
283.56	19.075
283.92	19.734
284.29	19.231
284.66	21.512
285.03	18.468
285.40	16.824
285.77	17.575
286.14	18.773
286.51	20.849
286.87	19.013
287.24	19.705
287.61	16.226
287.98	21.053
288.35	17.678
288.72	18.564
289.08	18.576
289.45	18.805
289.82	18.531
290.19	19.283
290.56	18.353
290.93	17.172
291.29	17.103
291.66	17.795
292.03	16.427
292.40	17.581
292.77	17.065
293.13	15.584
293.50	16.388
293.87	14.656
294.24	15.611
294.60	16.393
294.97	14.286
295.34	15.491
295.71	18.927
296.08	15.695
296.44	14.509
296.81	15.417
297.18	16.377
297.55	17.480
297.91	16.301
298.28	15.699
298.65	15.604
299.02	14.151
299.38	12.859
299.75	14.345
300.12	14.791
300.48	13.834
300.85	14.068
301.22	13.896
301.59	13.947
301.95	14.810
302.32	14.656
302.69	13.433
303.05	12.995
303.42	14.944
303.79	14.836
304.15	14.815
304.52	11.177
304.89	12.749
305.25	13.801
305.62	14.236
305.99	13.216
306.35	13.873
306.72	12.711
307.09	13.455
307.45	14.237
307.82	13.542
308.19	13.589
308.55	12.214
308.92	13.725
309.29	13.184
309.65	12.271
310.02	12.761
310.38	14.050
310.75	13.770
311.12	13.563
311.48	12.937
311.85	13.298
312.22	12.869
312.58	12.845
312.95	12.700
313.31	12.319
313.68	11.937
314.05	12.551
314.41	12.990
314.78	13.608
315.14	13.464
315.51	14.803
315.87	14.344
316.24	14.762
316.61	14.075
316.97	12.599
317.34	13.477
317.70	13.576
318.07	12.596
318.43	13.529
318.80	13.163
319.16	14.941
319.53	14.910
319.89	13.386
320.26	13.968
320.62	14.243
320.99	14.301
321.35	13.772
321.72	15.265
322.08	14.602
322.45	15.127
322.81	15.029
323.18	15.505
323.54	14.189
323.91	14.216
324.27	15.430
324.64	15.637
325.00	16.880
325.37	16.713
325.73	15.684
326.10	17.348
326.46	15.874
326.83	16.448
327.19	16.652
327.56	16.768
327.92	16.989
328.29	17.054
328.65	17.075
329.01	17.923
329.38	17.972
329.74	17.469
330.11	17.609
330.47	17.904
330.84	17.500
331.20	19.962
331.56	18.426
331.93	18.904
332.29	18.332
332.66	17.738
333.02	17.379
333.38	18.882
333.75	18.590
334.11	18.174
334.48	19.583
334.84	18.223
335.20	18.664
335.57	18.676
335.93	18.067
336.29	19.705
336.66	18.983
337.02	18.030
337.38	18.333
337.75	19.182
338.11	18.846
338.47	19.617
338.84	19.963
339.20	19.196
339.56	18.349
339.93	18.979
340.29	19.174
340.65	19.624
341.02	19.415
341.38	18.850
341.74	18.286
342.11	17.851
342.47	17.794
342.83	18.339
343.20	18.380
343.56	18.609
343.92	19.398
344.28	18.617
344.65	18.739
345.01	17.978
345.37	19.596
345.73	19.247
346.10	18.723
346.46	19.176
346.82	18.331
347.19	18.371
347.55	19.298
347.91	19.337
348.27	18.917
348.63	19.847
349.00	19.114
349.36	19.202
349.72	20.149
350.08	19.180
350.45	18.516
350.81	18.272
351.17	17.427
351.53	19.673
351.89	18.580
352.26	19.280
352.62	19.355
352.98	18.474
353.34	19.807
353.70	19.984
354.07	18.790
354.43	19.616
354.79	18.580
355.15	19.921
355.51	20.570
355.87	19.660
356.24	19.005
356.60	19.402
356.96	20.159
357.32	18.930
357.68	18.686
358.04	18.901
358.40	19.534
358.77	20.574
359.13	19.776
359.49	18.182
359.85	20.359
360.21	19.697
360.57	18.592
360.93	20.272
361.29	18.958
361.66	19.906
362.02	20.076
362.38	20.868
362.74	18.925
363.10	20.692
363.46	19.792
363.82	20.661
364.18	20.664
364.54	19.779
364.90	20.072
365.26	19.651
365.62	21.606
365.98	20.381
366.35	21.122
366.71	20.843
367.07	20.972
367.43	20.561
367.79	20.212
368.15	21.034
368.51	20.612
368.87	20.388
369.23	20.217
369.59	20.627
369.95	21.114
370.31	21.387
370.67	21.343
371.03	20.239
371.39	20.715
371.75	21.245
372.11	21.327
372.47	21.524
372.83	22.072
373.19	22.111
373.55	21.733
373.91	21.886
374.27	21.616
374.63	22.182
374.99	21.064
375.35	21.309
375.71	22.378
376.07	21.278
376.42	22.109
376.78	22.886
377.14	22.207
377.50	22.643
377.86	22.825
378.22	22.080
378.58	21.923
378.94	22.558
379.30	22.396
379.66	23.135
380.02	22.379
380.38	22.337
380.74	22.681
381.09	22.638
381.45	22.813
381.81	23.134
382.17	24.429
382.53	23.610
382.89	22.850
383.25	23.647
383.61	24.329
383.97	24.127
384.32	23.077
384.68	23.715
385.04	23.713
385.40	23.398
385.76	25.597
386.12	24.644
386.48	25.032
386.83	24.287
387.19	24.908
387.55	25.471
387.91	24.756
388.27	24.054
388.62	23.914
388.98	25.783
389.34	24.859
389.70	25.357
390.06	24.355
390.42	24.547
390.77	24.853
391.13	25.347
391.49	25.162
391.85	25.081
392.20	25.047
392.56	25.747
392.92	25.543
393.28	25.649
393.64	25.105
393.99	25.831
394.35	25.553
394.71	25.798
395.07	25.770
395.42	24.651
395.78	25.668
396.14	26.608
396.50	26.760
396.85	26.465
397.21	26.128
397.57	25.580
397.92	26.423
398.28	26.034
398.64	25.602
399.00	26.354
399.35	24.887
399.71	25.962
400.07	26.058
400.42	25.765
400.78	26.087
401.14	26.558
401.49	25.849
401.85	26.447
402.21	26.566
402.57	27.000
402.92	25.847
403.28	26.880
403.63	25.158
403.99	26.148
404.35	27.420
404.70	25.655
405.06	26.439
405.42	27.098
405.77	26.264
406.13	25.902
406.49	26.525
406.84	27.139
407.20	26.731
407.55	26.401
407.91	25.735
408.27	25.366
408.62	27.077
408.98	26.925
409.34	26.766
409.69	26.227
410.05	26.724
410.40	26.914
410.76	26.719
411.11	27.812
411.47	28.337
411.83	26.303
412.18	27.220
412.54	26.280
412.89	26.170
413.25	26.594
413.60	27.019
413.96	26.196
414.31	27.439
414.67	26.427
415.03	25.832
415.38	26.893
415.74	27.622
416.09	28.152
416.45	25.996
416.80	26.702
417.16	26.934
417.51	26.915
417.87	27.510
418.22	27.915
418.58	27.224
418.93	28.401
419.29	26.825
419.64	27.155
420.00	27.330
420.35	26.567
420.71	28.372
421.06	27.502
421.42	28.546
421.77	27.746
422.12	27.072
422.48	27.450
422.83	27.088
423.19	27.991
423.54	26.514
423.90	26.914
424.25	26.866
424.61	28.335
424.96	27.003
425.31	27.730
425.67	27.641
426.02	28.269
426.38	28.929
426.73	27.724
427.09	29.241
427.44	28.000
427.79	27.637
428.15	28.762
428.50	27.983
428.85	27.887
429.21	27.900
429.56	28.410
429.92	28.300
430.27	28.221
430.62	27.339
430.98	28.715
431.33	28.601
431.68	28.205
432.04	28.508
432.39	27.439
432.74	27.841
433.10	28.908
433.45	28.554
433.80	28.497
434.16	28.144
434.51	28.548
434.86	28.630
435.22	28.996
435.57	29.320
435.92	29.341
436.28	28.801
436.63	29.150
436.98	28.621
437.34	28.252
437.69	28.265
438.04	28.832
438.39	28.589
438.75	29.812
439.10	28.976
439.45	28.728
439.81	29.113
440.16	30.107
440.51	30.090
440.86	30.514
441.22	29.072
441.57	29.470
441.92	29.591
442.27	29.324
442.63	29.443
442.98	28.604
443.33	28.881
443.68	29.178
444.03	30.104
444.39	29.956
444.74	30.100
445.09	29.176
445.44	30.028
445.79	29.654
446.15	28.855
446.50	28.674
446.85	29.915
447.20	28.728
447.55	30.859
447.91	29.667
448.26	30.108
448.61	29.419
448.96	29.604
449.31	29.769
449.66	29.268
450.02	30.234
450.37	30.409
450.72	29.954
451.07	30.000
451.42	30.150
451.77	29.476
452.12	29.246
452.47	28.783
452.83	29.623
453.18	29.791
453.53	29.140
453.88	29.690
454.23	29.932
454.58	30.668
454.93	30.606
455.28	28.063
455.63	30.068
455.98	29.946
456.34	29.438
456.69	30.368
457.04	30.120
457.39	29.708
457.74	30.411
458.09	30.371
458.44	29.783
458.79	29.356
459.14	30.549
459.49	30.209
459.84	30.118
460.19	29.612
460.54	30.440
460.89	30.114
461.24	30.124
461.59	30.285
461.94	29.686
462.29	31.303
462.64	30.498
462.99	30.535
463.34	30.111
463.69	29.923
464.04	30.448
464.39	30.443
464.74	29.325
465.09	30.256
465.44	30.583
465.79	28.912
466.14	29.989
466.49	29.845
466.84	30.399
467.19	30.788
467.54	30.396
467.89	30.449
468.24	29.927
468.59	31.048
468.94	29.905
469.29	31.738
469.64	31.374
469.99	31.184
470.34	29.693
470.68	32.140
471.03	31.564
471.38	31.241
471.73	31.232
472.08	31.750
472.43	30.403
472.78	31.254
473.13	30.952
473.48	31.596
473.83	30.386
474.17	31.218
474.52	30.632
474.87	30.727
475.22	30.628
475.57	30.152
475.92	31.103
476.27	30.326
476.61	31.944
476.96	30.619
477.31	31.098
477.66	31.180
478.01	30.095
478.36	30.283
478.70	32.137
479.05	30.769
479.40	30.419
479.75	30.292
480.10	30.876
480.45	30.700
480.79	31.722
481.14	31.916
481.49	30.049
481.84	30.792
482.19	30.589
482.53	31.223
482.88	31.122
483.23	31.046
483.58	30.802
483.92	30.300
484.27	31.404
484.62	30.704
484.97	30.846
485.31	30.672
485.66	29.876
486.01	29.228
486.36	28.860
486.70	29.081
487.05	29.774
487.40	29.654
487.75	30.169
488.09	30.624
488.44	30.536
488.79	31.005
489.13	31.771
489.48	31.381
489.83	31.345
490.17	30.921
490.52	30.716
490.87	30.541
491.22	31.471
491.56	30.882
491.91	30.832
492.26	31.697
492.60	32.534
492.95	32.366
493.30	31.607
493.64	31.631
493.99	31.546
494.34	31.748
494.68	31.524
495.03	31.046
495.37	31.256
495.72	31.651
496.07	32.585
496.41	32.217
496.76	31.506
497.11	31.439
497.45	32.506
497.80	32.543
498.14	32.091
498.49	32.250
498.84	31.836
499.18	32.781
499.53	31.597
499.87	31.031
500.22	31.454
500.56	32.829
500.91	32.681
501.26	31.043
501.60	31.235
501.95	31.829
502.29	32.591
502.64	32.432
502.98	33.152
503.33	31.652
503.67	31.759
504.02	32.356
504.36	32.707
504.71	33.283
505.06	32.159
505.40	31.827
505.75	33.557
506.09	32.742
506.44	32.752
506.78	33.163
507.13	33.144
507.47	32.742
507.82	32.105
508.16	32.911
508.51	33.158
508.85	34.066
509.19	33.156
509.54	33.298
509.88	33.010
510.23	33.835
510.57	34.153
510.92	33.102
511.26	32.733
511.61	34.103
511.95	33.753
512.30	34.202
512.64	33.278
512.98	33.801
513.33	34.135
513.67	33.940
514.02	34.611
514.36	34.686
514.70	35.956
515.05	35.664
515.39	34.238
515.74	35.689
516.08	34.848
516.42	35.925
516.77	35.108
517.11	35.371
517.46	35.787
517.80	35.518
518.14	36.436
518.49	35.937
518.83	34.508
519.17	35.415
519.52	35.406
519.86	35.654
520.20	35.055
520.55	35.460
520.89	36.951
521.23	36.415
521.58	35.836
521.92	36.923
522.26	37.280
522.61	36.558
522.95	37.152
523.29	35.959
523.64	36.912
523.98	36.941
524.32	35.503
524.66	37.068
525.01	37.143
525.35	36.682
525.69	36.094
526.04	37.169
526.38	38.132
526.72	36.429
527.06	36.770
527.41	36.280
527.75	36.461
528.09	35.880
528.43	37.610
528.78	37.360
529.12	36.903
529.46	36.062
529.80	37.619
530.15	38.086
530.49	38.519
530.83	36.662
531.17	38.348
531.51	37.620
531.86	38.477
532.20	38.622
532.54	37.236
532.88	38.604
533.22	38.105
533.57	37.615
533.91	37.272
534.25	38.086
534.59	35.856
534.93	37.508
535.27	36.675
535.62	36.811
535.96	38.356
536.30	38.061
536.64	38.181
536.98	37.422
537.32	39.331
537.66	38.990
538.01	38.462
538.35	39.459
538.69	38.549
539.03	38.141
539.37	37.550
539.71	37.832
540.05	37.882
540.39	38.643
540.73	38.494
541.07	38.467
541.42	37.634
541.76	38.954
542.10	38.403
542.44	38.360
542.78	37.509
543.12	37.088
543.46	37.900
543.80	38.931
544.14	37.316
544.48	37.841
544.82	38.483
545.16	38.388
545.50	38.251
545.84	39.660
546.18	38.582
546.52	38.645
546.86	38.821
547.20	39.199
547.54	37.102
547.88	38.791
548.22	37.673
548.56	37.335
548.90	38.477
549.24	38.430
549.58	38.717
549.92	38.313
550.26	38.022
550.60	39.331
550.94	39.283
551.28	38.485
551.62	40.154
551.96	40.000
552.30	38.743
552.64	38.928
552.98	38.115
553.32	39.372
553.66	38.389
554.00	39.708
554.34	38.183
554.68	37.389
555.02	40.179
555.36	39.566
555.69	38.535
556.03	37.973
556.37	38.505
556.71	39.134
557.05	38.926
557.39	39.405
557.73	39.505
558.07	39.819
558.41	39.433
558.75	40.296
559.08	39.716
559.42	38.968
559.76	41.233
560.10	40.673
560.44	39.687
560.78	39.510
561.12	39.986
561.45	39.494
561.79	40.126
562.13	40.241
562.47	38.273
562.81	39.265
563.15	39.704
563.48	40.170
563.82	40.220
564.16	40.320
564.50	38.919
564.84	38.554
565.17	39.772
565.51	40.574
565.85	40.741
566.19	39.655
566.52	39.879
566.86	39.075
567.20	39.290
567.54	40.207
567.88	40.305
568.21	39.819
568.55	38.370
568.89	38.398
569.23	38.613
569.56	37.172
569.90	38.165
570.24	36.844
570.57	37.709
570.91	37.365
571.25	36.929
571.59	35.628
571.92	35.615
572.26	35.839
572.60	35.876
572.93	36.272
573.27	36.113
573.61	36.456
573.95	35.500
574.28	35.911
574.62	35.189
574.96	35.727
575.29	35.083
575.63	34.750
575.97	35.863
576.30	35.479
576.64	35.046
576.98	36.139
577.31	36.078
577.65	35.734
577.98	35.609
578.32	35.308
578.66	35.268
578.99	35.307
579.33	35.823
579.67	35.024
580.00	36.000
580.34	35.597
580.67	35.707
581.01	36.047
581.35	35.465
581.68	35.013
582.02	35.107
582.35	35.116
582.69	35.411
583.02	35.762
583.36	36.314
583.70	37.253
584.03	37.726
584.37	36.900
584.70	36.841
585.04	36.140
585.37	35.749
585.71	36.361
586.04	36.309
586.38	36.650
586.72	37.073
587.05	37.204
587.39	36.399
587.72	37.233
588.06	36.839
588.39	36.941
588.73	37.363
589.06	37.965
589.40	37.781
589.73	38.773
590.07	38.746
590.40	37.848
590.73	39.168
591.07	38.422
591.40	37.979
591.74	38.959
592.07	39.100
592.41	38.339
592.74	37.873
593.08	36.605
593.41	37.298
593.75	37.095
594.08	36.492
594.41	37.482
594.75	37.481
595.08	37.457
595.42	37.799
595.75	38.002
596.09	38.780
596.42	37.950
596.75	38.988
597.09	39.089
597.42	37.263
597.75	38.708
598.09	37.981
598.42	38.809
598.76	37.538
599.09	38.421
599.42	37.590
599.76	37.547
600.09	37.594
600.42	37.718
600.76	37.667
601.09	38.015
601.42	37.446
601.76	38.031
602.09	38.243
602.42	39.343
602.76	39.049
603.09	38.746
603.42	40.259
603.76	38.508
604.09	38.477
604.42	38.621
604.76	39.653
605.09	38.711
605.42	38.600
605.75	38.616
606.09	38.811
606.42	37.406
606.75	38.355
607.09	39.429
607.42	38.946
607.75	38.144
608.08	38.544
608.42	38.511
608.75	39.904
609.08	39.611
609.41	40.000
609.75	39.163
610.08	39.591
610.41	38.792
610.74	40.078
611.07	40.775
611.41	39.751
611.74	41.045
612.07	40.310
612.40	39.934
612.73	40.565
613.07	40.045
613.40	41.958
613.73	41.298
614.06	39.232
614.39	40.440
614.72	40.224
615.06	40.559
615.39	40.066
615.72	39.397
616.05	40.615
616.38	38.803
616.71	40.856
617.05	41.692
617.38	41.420
617.71	40.881
618.04	41.905
618.37	42.245
618.70	42.706
619.03	42.917
619.36	42.330
619.69	42.002
620.03	43.170
620.36	42.489
620.69	42.470
621.02	42.202
621.35	45.643
621.68	43.622
622.01	44.667
622.34	43.017
622.67	42.035
623.00	42.343
623.33	42.149
623.66	41.212
623.99	42.209
624.32	42.433
624.65	40.677
624.99	43.040
625.32	41.926
625.65	44.540
625.98	43.191
626.31	42.560
626.64	44.281
626.97	44.066
627.30	43.958
627.63	43.847
627.96	44.834
628.29	45.051
628.62	44.838
628.95	45.190
629.28	44.960
629.61	44.167
629.94	46.530
630.26	45.553
630.59	46.514
630.92	47.282
631.25	42.974
631.58	46.696
631.91	45.724
632.24	46.789
632.57	47.386
632.90	47.212
633.23	48.588
633.56	48.615
633.89	46.239
634.22	48.765
634.55	47.014
634.88	46.743
635.20	46.667
635.53	47.867
635.86	48.244
636.19	48.642
636.52	47.832
636.85	46.526
637.18	46.792
637.51	46.667
637.83	46.912
638.16	50.341
638.49	47.411
638.82	47.500
639.15	47.897
639.48	47.868
639.81	46.165
640.13	49.495
640.46	48.397
640.79	49.043
641.12	47.563
641.45	46.246
641.77	49.333
642.10	50.553
642.43	49.035
642.76	49.505
643.09	50.081
643.41	48.058
643.74	49.588
644.07	51.724
644.40	50.507
644.73	52.014
645.05	49.161
645.38	51.146
645.71	52.128
646.04	52.783
646.36	51.596
646.69	51.619
647.02	51.796
647.35	50.933
647.67	49.177
648.00	53.545
648.33	49.488
648.66	50.000
648.98	48.576
649.31	49.752
649.64	48.980
649.96	50.405
650.29	51.448
650.62	49.915
650.94	52.778
651.27	53.073
651.60	51.532
651.92	52.448
652.25	53.108
652.58	47.833
652.90	51.458
653.23	48.739
653.56	49.577
653.88	52.405
654.21	47.461
654.54	47.708
654.86	50.764
655.19	47.515
655.52	44.040
655.84	37.059
656.17	41.310
656.49	55.977
656.82	58.714
657.15	45.727
657.47	35.031
657.80	26.091
658.13	25.708
658.45	41.416
658.78	41.291
659.10	41.077
659.43	43.725
659.75	44.450
660.08	45.103
660.41	48.621
660.73	50.414
661.06	49.567
661.38	48.924
661.71	51.540
662.03	53.648
662.36	51.429
662.68	51.327
663.01	53.057
663.33	54.756
663.66	55.349
663.98	52.093
664.31	50.107
664.63	50.461
664.96	47.826
665.28	50.331
665.61	49.351
665.93	52.826
666.26	53.145
666.58	55.257
666.91	51.765
667.23	58.726
667.56	55.213
667.88	57.314
668.21	52.029
668.53	56.974
668.86	55.189
669.18	52.123
669.50	52.785
669.83	53.488
670.15	53.613
670.48	54.067
670.80	53.456
671.13	53.244
671.45	49.772
671.77	53.433
672.10	51.089
672.42	49.813
672.75	50.266
673.07	52.236
673.39	51.560
673.72	47.929
674.04	53.333
674.37	54.449
674.69	50.535
675.01	52.667
675.34	51.351
675.66	55.556
675.98	52.106
676.31	52.523
676.63	51.306
676.95	50.227
677.28	54.824
677.60	56.386
677.92	49.771
678.25	51.860
678.57	53.030
678.89	51.471
679.22	51.230
679.54	49.598
679.86	49.105
680.18	52.427
680.51	47.538
680.83	45.924
681.15	51.200
681.48	52.869
681.80	52.273
682.12	48.387
682.44	50.000
682.77	55.188
683.09	51.716
683.41	50.682
683.73	55.530
684.06	50.885
684.38	49.247
684.70	51.198
685.02	49.793
685.34	47.826
685.67	49.531
685.99	49.367
686.31	48.850
686.63	50.835
686.96	45.627
687.28	48.081
687.60	49.810
687.92	52.929
688.24	50.403
688.56	53.930
688.89	50.446
689.21	51.333
689.53	51.508
689.85	51.163
690.17	51.786
690.49	52.482
690.82	54.854
691.14	49.524
691.46	49.065
691.78	52.703
692.10	51.183
692.42	49.351
692.74	51.068
693.06	49.550
693.39	50.452
693.71	50.905
694.03	48.499
694.35	51.402
694.67	54.040
694.99	50.914
695.31	53.786
695.63	51.750
695.95	54.040
696.27	51.036
696.59	55.000
696.91	52.381
697.23	49.357
697.56	53.465
697.88	51.183
698.20	52.620
698.52	49.647
698.84	50.718
699.16	50.750
699.48	51.128
699.80	50.372
700.12	50.943
700.44	49.860
700.76	54.942
701.08	53.030
701.40	53.916
701.72	58.951
702.04	56.436
702.36	59.532
702.68	52.252
703.00	50.606
703.32	52.786
703.64	48.870
703.96	52.174
704.28	53.374
704.60	55.556
704.91	51.420
705.23	55.482
705.55	59.364
705.87	59.928
706.19	52.963
706.51	51.546
706.83	57.235
707.15	51.713
707.47	52.101
707.79	50.000
708.11	54.000
708.43	52.250
708.74	50.646
709.06	55.775
709.38	60.550
709.70	54.142
710.02	51.274
710.34	55.108
710.66	50.641
710.98	51.656
711.29	56.066
711.61	52.881
711.93	56.352
712.25	63.918
712.57	56.410
712.89	53.358
713.20	52.595
713.52	53.659
713.84	53.242
714.16	54.296
714.48	54.194
714.80	54.487
715.11	51.064
715.43	49.216
715.75	51.667
716.07	55.814
716.39	52.685
716.70	48.339
717.02	55.725
717.34	55.466
717.66	65.044
717.97	60.435
718.29	57.741
718.61	52.362
718.93	54.651
719.24	54.373
719.56	60.241
719.88	50.172
720.20	54.924
720.51	57.471
720.83	54.440
721.15	63.025
721.46	51.210
721.78	57.312
722.10	53.160
722.42	51.452
722.73	49.388
723.05	55.918
723.37	60.169
723.68	60.360
724.00	55.983
724.32	55.556
724.63	54.091
724.95	56.332
725.27	57.143
725.58	54.237
725.90	50.000
726.22	50.965
726.53	53.559
726.85	53.933
727.16	58.113
727.48	53.441
727.80	56.680
728.11	50.847
728.43	48.627
728.74	52.419
729.06	53.600
729.38	57.143
729.69	54.980
730.01	47.692
730.32	52.612
730.64	50.883
730.96	58.113
731.27	49.000
731.59	52.203
731.90	50.000
732.22	49.211
732.53	59.136
732.85	53.546
733.16	55.219
733.48	50.360
733.80	52.536
734.11	52.203
734.43	53.265
734.74	50.303
735.06	49.511
735.37	53.172
735.69	55.219
736.00	49.477
736.32	53.356
736.63	51.056
736.95	52.901
737.26	47.331
737.58	48.322
737.89	50.549
738.21	55.639
738.52	56.379
738.83	52.838
739.15	51.092
739.46	55.906
739.78	53.114
740.09	49.020
740.41	49.638
740.72	55.512
741.04	53.036
741.35	53.191
741.66	55.450
741.98	48.980
742.29	55.446
742.61	56.545
742.92	43.602
743.23	50.926
743.55	54.299
743.86	54.067
744.18	52.632
744.49	53.723
744.80	49.457
745.12	62.032
745.43	50.244
745.74	65.104
746.06	59.512
746.37	53.403
746.68	56.398
747.00	52.660
747.31	58.209
747.62	51.456
747.94	62.679
748.25	58.911
748.56	60.109
748.88	63.351
749.19	54.787
749.50	51.232
749.82	52.830
750.13	53.670
750.44	56.015
750.75	51.866
751.07	56.569
751.38	49.808
751.69	49.412
752.01	54.264
752.32	53.785
752.63	50.593
752.94	53.879
753.26	56.485
753.57	57.919
753.88	57.522
754.19	59.583
754.51	52.066
754.82	48.583
755.13	55.833
755.44	49.597
755.75	51.953
756.07	49.805
756.38	53.585
756.69	55.939
757.00	48.333
757.31	51.634
757.63	48.476
757.94	47.778
758.25	47.671
758.56	45.745
758.87	50.708
759.18	54.206
759.50	53.455
759.81	54.849
760.12	50.645
760.43	48.182
760.74	50.309
761.05	53.231
761.36	47.727
761.67	49.091
761.99	51.361
762.30	48.364
762.61	52.964
762.92	48.869
763.23	54.955
763.54	53.738
763.85	58.475
764.16	51.037
764.47	48.387
764.78	54.579
765.10	53.535
765.41	48.265
765.72	53.968
766.03	49.624
766.34	48.905
766.65	58.964
766.96	59.091
767.27	63.298
767.58	54.023
767.89	60.284
768.20	53.977
768.51	53.297
768.82	55.172
769.13	43.779
769.44	46.781
769.75	50.228
770.06	49.138
770.37	53.365
770.68	56.853
770.99	54.751
771.30	60.294
771.61	52.941
771.92	52.586
772.23	56.158
772.54	57.527
772.85	56.790
773.16	48.315
773.47	62.092
773.78	64.706
774.09	50.299
774.39	59.333
774.70	59.873
775.01	60.000
775.32	55.714
775.63	52.893
775.94	66.412
776.25	59.843
776.56	56.667
776.87	62.500
777.18	52.137
777.48	49.138
777.79	55.652
778.10	53.333
778.41	58.559
778.72	57.143
779.03	57.895
779.34	62.411
779.65	58.219
779.95	52.740
780.26	61.379
780.57	51.220
780.88	54.331
781.19	51.724
781.50	51.163
781.80	46.154
782.11	44.025
782.42	66.923
782.73	51.799
783.04	54.074
783.34	51.389
783.65	45.299
783.96	56.557
784.27	54.483
784.57	60.163
784.88	50.000
785.19	69.000
785.50	69.000
785.81	58.621
786.11	58.621
786.42	55.340
786.73	63.636
787.04	50.000
787.34	51.786
787.65	59.048
787.96	52.212
788.26	63.636
788.57	57.265
788.88	53.906
789.19	46.825
789.49	60.870
789.80	55.102
790.11	57.576
790.41	50.909
790.72	59.783
791.03	57.955
791.33	65.000
791.64	61.250
791.95	65.116
792.25	58.511
792.56	61.798
792.87	56.164
793.17	56.522
793.48	66.667
793.79	68.750
794.09	55.000
794.40	43.396
794.70	56.311
795.01	52.846
795.32	57.265
795.62	60.952
795.93	59.804
796.23	50.943
796.54	58.333
796.85	75.000
797.15	60.563
797.46	72.222
797.76	71.212
798.07	60.465
798.37	61.842
798.68	51.515
798.99	48.148
799.29	70.000
799.60	59.420
799.90	72.000
800.21	68.852
800.51	63.077
800.82	67.797
801.12	68.116
801.43	68.852
801.73	77.778
802.04	78.000
802.34	58.209
802.65	71.154
802.95	44.643
803.26	50.000
803.56	68.627
803.87	58.696
804.17	72.000
804.48	69.841
804.78	57.407
805.09	80.435
805.39	55.556
805.70	72.222
806.00	59.649
806.30	59.155
806.61	57.143
806.91	44.444
807.22	76.316
807.52	53.333
807.83	54.545
808.13	73.611
808.43	55.882
808.74	58.209
809.04	54.237
809.35	67.308
809.65	54.688
809.95	27.027
810.26	65.909
810.56	46.575
810.86	78.571
811.17	64.000
811.47	42.857
811.77	47.368
812.08	61.364
812.38	49.057
812.69	60.000
812.99	69.697
813.29	81.579
813.59	25.714
813.90	56.818
814.20	56.410
814.50	61.538
814.81	66.038
815.11	63.830
815.41	83.051
815.72	73.810
816.02	64.706
816.32	79.167
816.62	65.854
816.93	45.946
817.23	85.714
817.53	60.417
817.84	65.217
818.14	53.846
818.44	55.263
818.74	56.522
819.04	30.000
819.35	64.865
819.65	85.294
819.95	50.000
820.25	69.048
820.56	72.500
820.86	62.069
821.16	92.500
821.46	57.447
821.76	67.500
822.07	55.814
822.37	5.405
822.67	53.125
822.97	61.905
823.27	71.429
823.57	36.000
823.88	55.556
824.18	89.286
824.48	35.294
824.78	74.194
825.08	82.609
825.38	75.758
825.69	41.667
825.99	65.789
826.29	75.000
826.59	120.000
826.89	0.000
827.19	34.783
827.49	70.000
827.79	88.571
828.09	96.429
828.39	81.818
828.70	86.486
829.00	42.857
829.30	71.429
829.60	73.333
829.90	43.750
830.20	71.053
830.50	66.667
830.80	34.783
831.10	72.727
831.40	100.000
831.70	70.968
832.00	104.762
832.30	61.905
832.60	116.667
832.90	58.621
833.20	75.000
833.50	54.545
833.80	44.444
834.10	30.769
834.40	68.750
834.70	88.889
835.00	73.684
835.30	111.538
835.60	160.000
835.90	70.968
836.20	100.000
836.50	96.429
836.80	50.000
837.10	67.857
837.40	266.667
837.70	81.818
838.00	36.364
838.30	104.348
838.60	61.538
838.90	86.364
839.19	39.286
839.49	80.000
839.79	130.769
840.09	25.000
840.39	82.143
840.69	39.286
840.99	50.000
841.29	52.632
841.59	-10.000
841.88	63.636
842.18	140.000
842.48	81.250
842.78	66.667
843.08	22.222
843.38	60.000
843.68	56.522
843.97	86.667
844.27	66.667
844.57	100.000
844.87	133.333
845.17	61.905
845.47	93.333
845.76	61.905
846.06	117.647
846.36	-10.000
846.66	100.000
846.96	153.333
847.25	87.500
847.55	142.857
847.85	62.500
848.15	68.182
848.44	300.000
848.74	40.000
849.04	55.556
849.34	172.727
849.63	133.333
849.93	0.000
850.23	72.222
850.53	190.000
850.82	115.385
851.12	111.111
851.42	126.667
851.71	46.154
852.01	71.429
852.31	200.000
852.61	63.636
852.90	40.000
853.20	110.526
853.50	91.667
853.79	69.565
854.09	70.833
854.39	52.632
854.68	37.500
854.98	61.290
855.28	96.154
855.57	85.000
855.87	88.889
856.17	66.667
856.46	100.000
856.76	133.333
857.05	155.556
857.35	68.000
857.65	38.889
857.94	46.154
858.24	72.414
858.53	72.222
858.83	62.963
859.13	40.909
859.42	34.783
859.72	225.000
860.01	-100.000
860.31	36.000
860.60	61.905
860.90	133.333
861.20	60.000
861.49	-400.000
861.79	106.667
862.08	80.000
862.38	106.667
862.67	60.000
862.97	-16.667
863.26	41.667
863.56	66.667
863.85	0.000
864.15	122.222
864.44	50.000
864.74	78.571
865.03	-0.000
865.33	240.000
865.62	450.000
865.92	-75.000
866.21	16.667
866.51	118.750
866.80	127.273
867.10	200.000
867.39	100.000
867.69	0.000
867.98	138.462
868.27	233.333
868.57	53.333
868.86	94.444
869.16	38.462
869.45	146.667
869.75	400.000
870.04	0.000
870.33	185.714
870.63	52.381
870.92	-233.333
871.22	100.000
871.51	600.000
871.80	211.111
872.10	33.333
>>>>>End Processed Spectral Data<<<<<
