SpectraSuite Data File
++++++++++++++++++++++++++++++++++++
Date: Fri May 15 17:33:22 PDT 2015
User: schluterlab
Dark Spectrum Present: Yes
Reference Spectrum Present: Yes
Number of Sampled Component Spectra: 1
Spectrometers: USB2E3373
Integration Time (usec): 3000 (USB2E3373)
Spectra Averaged: 3 (USB2E3373)
Boxcar Smoothing: 0 (USB2E3373)
Correct for Electrical Dark: No (USB2E3373)
Strobe/Lamp Enabled: No (USB2E3373)
Correct for Detector Non-linearity: No (USB2E3373)
Correct for Stray Light: No (USB2E3373)
Number of Pixels in Processed Spectrum: 2048
>>>>>Begin Processed Spectral Data<<<<<
178.53	0.000
178.91	0.000
179.29	187.500
179.67	150.000
180.04	-0.000
180.42	175.000
180.80	200.000
181.18	-133.333
181.56	50.000
181.94	200.000
182.31	-300.000
182.69	60.000
183.07	100.000
183.45	-40.000
183.83	-16.667
184.20	-9.091
184.58	44.444
184.96	-225.000
185.34	-200.000
185.72	200.000
186.09	-15.385
186.47	-700.000
186.85	100.000
187.23	77.778
187.61	-200.000
187.98	300.000
188.36	66.667
188.74	0.000
189.12	17.647
189.49	61.111
189.87	0.000
190.25	171.429
190.63	350.000
191.00	33.333
191.38	63.158
191.76	350.000
192.14	100.000
192.51	450.000
192.89	0.000
193.27	-100.000
193.65	-50.000
194.02	81.818
194.40	-30.000
194.78	100.000
195.15	66.667
195.53	-62.500
195.91	-25.000
196.29	100.000
196.66	-7.692
197.04	-14.286
197.42	22.222
197.79	-500.000
198.17	-53.846
198.55	500.000
198.92	100.000
199.30	-400.000
199.68	0.000
200.05	133.333
200.43	0.000
200.81	0.000
201.18	-100.000
201.56	1000.000
201.94	50.000
202.31	-66.667
202.69	-260.000
203.07	75.000
203.44	800.000
203.82	0.000
204.19	150.000
204.57	-100.000
204.95	37.500
205.32	70.000
205.70	142.857
206.08	25.000
206.45	122.222
206.83	57.143
207.20	-28.571
207.58	-600.000
207.96	-133.333
208.33	-40.000
208.71	-175.000
209.08	-16.667
209.46	300.000
209.84	180.000
210.21	0.000
210.59	228.571
210.96	83.333
211.34	-50.000
211.71	86.667
212.09	-57.143
212.46	-900.000
212.84	0.000
213.22	100.000
213.59	-100.000
213.97	38.462
214.34	118.182
214.72	0.000
215.09	400.000
215.47	53.846
215.84	0.000
216.22	-133.333
216.59	87.500
216.97	200.000
217.34	175.000
217.72	-140.000
218.09	150.000
218.47	-62.500
218.84	-600.000
219.22	100.000
219.59	-60.000
219.97	66.667
220.34	50.000
220.72	42.857
221.09	-25.000
221.47	0.000
221.84	100.000
222.22	-250.000
222.59	18.182
222.97	33.333
223.34	-166.667
223.72	35.714
224.09	47.619
224.46	53.571
224.84	500.000
225.21	40.000
225.59	60.000
225.96	-300.000
226.34	175.000
226.71	114.286
227.08	33.333
227.46	125.000
227.83	-200.000
228.21	-22.222
228.58	72.727
228.95	62.500
229.33	20.000
229.70	81.250
230.08	-62.500
230.45	42.857
230.82	57.143
231.20	-20.000
231.57	121.429
231.95	128.571
232.32	0.000
232.69	57.143
233.07	100.000
233.44	-40.000
233.81	-40.000
234.19	33.333
234.56	-17.647
234.93	400.000
235.31	-50.000
235.68	-80.000
236.05	-7.692
236.43	-30.000
236.80	29.412
237.17	25.000
237.55	10.000
237.92	11.111
238.29	11.111
238.67	20.000
239.04	-23.529
239.41	-29.268
239.79	-3.333
240.16	19.512
240.53	-26.316
240.91	21.739
241.28	6.349
241.65	23.214
242.02	30.137
242.40	13.333
242.77	-6.780
243.14	1.515
243.51	10.000
243.89	12.644
244.26	2.299
244.63	-7.143
245.00	1.031
245.38	5.155
245.75	-2.247
246.12	2.586
246.49	5.785
246.87	0.000
247.24	-4.202
247.61	-3.509
247.98	7.317
248.36	5.625
248.73	7.895
249.10	9.091
249.47	-3.797
249.84	5.229
250.22	0.000
250.59	6.536
250.96	10.798
251.33	2.326
251.70	7.059
252.08	4.061
252.45	5.446
252.82	1.005
253.19	6.912
253.56	-2.804
253.94	7.658
254.31	6.957
254.68	8.333
255.05	3.543
255.42	6.550
255.79	5.019
256.16	4.280
256.54	5.597
256.91	2.662
257.28	1.487
257.65	3.745
258.02	1.418
258.39	2.694
258.76	8.059
259.14	5.648
259.51	3.883
259.88	2.062
260.25	5.556
260.62	5.903
260.99	0.000
261.36	-0.342
261.73	4.114
262.10	4.863
262.47	0.613
262.85	3.448
263.22	6.154
263.59	7.477
263.96	3.727
264.33	5.455
264.70	4.167
265.07	0.298
265.44	6.516
265.81	5.085
266.18	4.372
266.55	4.627
266.92	5.440
267.29	7.311
267.66	5.371
268.03	3.927
268.40	2.611
268.77	4.545
269.14	5.995
269.51	4.884
269.88	3.741
270.25	6.888
270.62	2.683
270.99	1.279
271.36	3.178
271.73	2.113
272.10	3.650
272.47	4.728
272.84	3.218
273.21	4.408
273.58	4.819
273.95	5.034
274.32	1.617
274.69	2.036
275.06	4.241
275.43	3.175
275.80	6.181
276.17	1.379
276.54	3.212
276.91	4.605
277.28	3.493
277.65	4.339
278.02	3.617
278.39	1.532
278.76	2.516
279.13	1.660
279.50	4.412
279.87	3.672
280.23	1.935
280.60	6.043
280.97	4.242
281.34	2.885
281.71	3.491
282.08	0.818
282.45	4.110
282.82	1.351
283.19	3.675
283.56	5.010
283.92	2.087
284.29	3.077
284.66	2.326
285.03	1.179
285.40	4.159
285.77	3.515
286.14	4.693
286.51	4.244
286.87	3.291
287.24	5.341
287.61	1.764
287.98	4.561
288.35	2.946
288.72	4.553
289.08	2.083
289.45	4.745
289.82	2.972
290.19	2.730
290.56	-0.172
290.93	2.020
291.29	3.236
291.66	3.780
292.03	1.116
292.40	2.419
292.77	3.828
293.13	0.325
293.50	-0.303
293.87	2.901
294.24	3.091
294.60	4.173
294.97	3.720
295.34	1.380
295.71	2.385
296.08	3.587
296.44	2.845
296.81	1.389
297.18	2.609
297.55	4.472
297.91	2.740
298.28	3.826
298.65	2.035
299.02	2.022
299.38	0.684
299.75	2.483
300.12	3.796
300.48	1.449
300.85	2.408
301.22	0.909
301.59	2.368
301.95	3.165
302.32	2.464
302.69	2.488
303.05	1.980
303.42	3.611
303.79	4.089
304.15	2.748
304.52	1.902
304.89	1.988
305.25	1.211
305.62	1.634
305.99	1.988
306.35	1.734
306.72	1.012
307.09	2.281
307.45	2.526
307.82	1.736
308.19	2.904
308.55	2.944
308.92	3.486
309.29	1.117
309.65	3.014
310.02	3.850
310.38	3.513
310.75	3.388
311.12	3.445
311.48	2.651
311.85	1.675
312.22	2.426
312.58	3.185
312.95	3.522
313.31	2.588
313.68	3.246
314.05	2.041
314.41	2.784
314.78	3.402
315.14	4.625
315.51	4.141
315.87	4.406
316.24	5.460
316.61	4.232
316.97	5.754
317.34	4.590
317.70	6.023
318.07	5.769
318.43	5.882
318.80	5.966
319.16	6.836
319.53	7.597
319.89	8.071
320.26	8.806
320.62	8.726
320.99	7.516
321.35	9.661
321.72	9.553
322.08	9.869
322.45	10.558
322.81	10.216
323.18	10.697
323.54	12.452
323.91	12.561
324.27	13.770
324.64	14.888
325.00	16.423
325.37	15.611
325.73	14.869
326.10	17.984
326.46	18.027
326.83	19.248
327.19	20.227
327.56	20.591
327.92	21.831
328.29	21.339
328.65	23.302
329.01	23.989
329.38	23.410
329.74	24.268
330.11	25.023
330.47	25.046
330.84	25.673
331.20	29.183
331.56	27.963
331.93	30.411
332.29	29.514
332.66	29.955
333.02	30.762
333.38	30.431
333.75	31.777
334.11	32.677
334.48	32.094
334.84	32.418
335.20	33.577
335.57	33.364
335.93	35.230
336.29	35.175
336.66	33.424
337.02	35.130
337.38	34.630
337.75	35.455
338.11	35.708
338.47	35.675
338.84	36.229
339.20	35.558
339.56	36.330
339.93	37.332
340.29	37.523
340.65	37.634
341.02	36.791
341.38	36.549
341.74	37.456
342.11	36.222
342.47	38.078
342.83	38.581
343.20	37.108
343.56	38.261
343.92	38.707
344.28	38.429
344.65	37.219
345.01	37.338
345.37	37.595
345.73	37.238
346.10	38.395
346.46	38.688
346.82	36.907
347.19	37.074
347.55	38.179
347.91	38.916
348.27	38.157
348.63	39.182
349.00	37.326
349.36	38.653
349.72	39.635
350.08	39.180
350.45	38.707
350.81	38.953
351.17	39.251
351.53	40.000
351.89	37.820
352.26	38.640
352.62	39.274
352.98	38.876
353.34	38.889
353.70	39.644
354.07	38.468
354.43	38.511
354.79	39.224
355.15	39.365
355.51	39.003
355.87	40.210
356.24	38.744
356.60	39.774
356.96	40.635
357.32	39.377
357.68	39.719
358.04	40.145
358.40	40.836
358.77	42.265
359.13	41.233
359.49	38.906
359.85	41.030
360.21	40.989
360.57	40.321
360.93	39.939
361.29	40.030
361.66	41.144
362.02	41.591
362.38	41.356
362.74	41.862
363.10	42.363
363.46	40.845
363.82	41.998
364.18	41.550
364.54	41.176
364.90	41.505
365.26	41.485
365.62	43.066
365.98	42.375
366.35	43.263
366.71	43.311
367.07	42.235
367.43	42.487
367.79	42.403
368.15	42.785
368.51	43.263
368.87	42.426
369.23	42.888
369.59	43.586
369.95	43.182
370.31	44.509
370.67	43.433
371.03	42.121
371.39	43.618
371.75	43.956
372.11	43.295
372.47	44.749
372.83	44.500
373.19	43.795
373.55	42.960
373.91	44.420
374.27	45.216
374.63	43.790
374.99	45.745
375.35	43.733
375.71	46.014
376.07	45.576
376.42	45.986
376.78	47.248
377.14	45.836
377.50	46.082
377.86	45.984
378.22	46.203
378.58	46.346
378.94	46.251
379.30	46.039
379.66	48.715
380.02	46.536
380.38	47.231
380.74	46.499
381.09	47.975
381.45	46.667
381.81	48.180
382.17	47.145
382.53	48.407
382.89	48.462
383.25	48.227
383.61	48.232
383.97	48.000
384.32	47.717
384.68	48.235
385.04	47.917
385.40	47.729
385.76	51.258
386.12	49.677
386.48	48.531
386.83	50.412
387.19	49.328
387.55	49.624
387.91	49.939
388.27	50.549
388.62	50.598
388.98	48.926
389.34	49.157
389.70	50.590
390.06	48.962
390.42	50.453
390.77	50.360
391.13	49.937
391.49	50.453
391.85	49.708
392.20	50.345
392.56	49.968
392.92	50.440
393.28	50.118
393.64	49.970
393.99	51.599
394.35	50.411
394.71	50.830
395.07	49.717
395.42	49.787
395.78	50.293
396.14	50.252
396.50	50.856
396.85	50.741
397.21	50.063
397.57	50.846
397.92	50.749
398.28	51.552
398.64	50.120
399.00	50.677
399.35	49.887
399.71	49.397
400.07	51.330
400.42	49.878
400.78	50.827
401.14	50.333
401.49	51.102
401.85	50.213
402.21	50.000
402.57	50.688
402.92	48.808
403.28	50.376
403.63	50.189
403.99	51.849
404.35	51.843
404.70	48.869
405.06	50.470
405.42	49.845
405.77	49.797
406.13	49.884
406.49	50.385
406.84	50.489
407.20	50.151
407.55	49.775
407.91	50.267
408.27	49.968
408.62	49.477
408.98	50.216
409.34	50.372
409.69	49.742
410.05	50.123
410.40	49.259
410.76	50.241
411.11	50.312
411.47	49.967
411.83	49.780
412.18	51.158
412.54	49.313
412.89	50.431
413.25	49.519
413.60	49.689
413.96	49.141
414.31	49.878
414.67	50.289
415.03	49.601
415.38	49.217
415.74	50.619
416.09	50.816
416.45	51.317
416.80	49.108
417.16	50.967
417.51	50.167
417.87	49.609
418.22	50.583
418.58	49.967
418.93	51.160
419.29	49.936
419.64	50.097
420.00	51.259
420.35	50.328
420.71	51.094
421.06	51.565
421.42	51.202
421.77	52.081
422.12	51.192
422.48	51.110
422.83	51.740
423.19	51.129
423.54	51.146
423.90	51.237
424.25	52.928
424.61	53.427
424.96	51.858
425.31	53.437
425.67	52.465
426.02	53.121
426.38	53.225
426.73	53.632
427.09	54.051
427.44	54.176
427.79	53.153
428.15	53.095
428.50	53.543
428.85	51.781
429.21	53.254
429.56	55.526
429.92	53.518
430.27	51.830
430.62	54.469
430.98	54.671
431.33	53.417
431.68	53.637
432.04	53.270
432.39	53.851
432.74	53.037
433.10	54.655
433.45	55.137
433.80	55.252
434.16	55.845
434.51	54.355
434.86	55.168
435.22	55.356
435.57	55.521
435.92	56.048
436.28	54.741
436.63	55.562
436.98	55.620
437.34	54.386
437.69	56.828
438.04	55.897
438.39	53.818
438.75	56.952
439.10	56.763
439.45	56.847
439.81	57.615
440.16	57.660
440.51	56.299
440.86	57.885
441.22	55.995
441.57	57.340
441.92	58.499
442.27	58.703
442.63	58.458
442.98	58.128
443.33	56.761
443.68	57.878
444.03	57.625
444.39	57.649
444.74	58.863
445.09	57.517
445.44	58.348
445.79	60.340
446.15	58.921
446.50	57.793
446.85	59.511
447.20	57.873
447.55	57.980
447.91	57.924
448.26	59.078
448.61	58.377
448.96	59.438
449.31	59.133
449.66	59.001
450.02	58.642
450.37	59.692
450.72	58.477
451.07	60.127
451.42	59.488
451.77	59.011
452.12	58.672
452.47	59.305
452.83	58.952
453.18	59.393
453.53	58.344
453.88	59.927
454.23	58.881
454.58	59.761
454.93	60.052
455.28	58.540
455.63	60.818
455.98	58.870
456.34	58.812
456.69	60.928
457.04	60.744
457.39	60.024
457.74	60.218
458.09	59.211
458.44	60.503
458.79	59.496
459.14	59.840
459.49	61.015
459.84	59.786
460.19	60.133
460.54	61.553
460.89	60.227
461.24	61.118
461.59	61.045
461.94	58.616
462.29	61.761
462.64	60.000
462.99	59.445
463.34	58.554
463.69	59.395
464.04	59.564
464.39	60.764
464.74	61.656
465.09	61.011
465.44	61.512
465.79	58.900
466.14	59.749
466.49	60.782
466.84	61.570
467.19	60.200
467.54	61.239
467.89	61.655
468.24	60.341
468.59	61.460
468.94	61.079
469.29	61.180
469.64	61.039
469.99	62.018
470.34	61.229
470.68	62.714
471.03	60.580
471.38	61.412
471.73	62.045
472.08	60.719
472.43	62.483
472.78	61.960
473.13	61.565
473.48	62.476
473.83	60.336
474.17	62.047
474.52	62.093
474.87	60.970
475.22	61.501
475.57	63.298
475.92	62.479
476.27	61.991
476.61	62.731
476.96	60.848
477.31	60.898
477.66	61.011
478.01	61.819
478.36	61.656
478.70	63.132
479.05	63.022
479.40	63.328
479.75	62.826
480.10	62.468
480.45	62.850
480.79	64.048
481.14	63.012
481.49	61.921
481.84	63.224
482.19	61.927
482.53	63.165
482.88	62.482
483.23	61.132
483.58	61.368
483.92	60.794
484.27	60.893
484.62	62.662
484.97	61.194
485.31	62.753
485.66	64.750
486.01	66.274
486.36	65.732
486.70	64.288
487.05	64.061
487.40	63.159
487.75	62.507
488.09	61.094
488.44	61.279
488.79	60.889
489.13	61.819
489.48	61.479
489.83	62.287
490.17	61.303
490.52	61.709
490.87	60.805
491.22	63.563
491.56	62.761
491.91	62.189
492.26	62.470
492.60	61.516
492.95	64.043
493.30	61.847
493.64	63.310
493.99	62.995
494.34	62.718
494.68	64.143
495.03	62.871
495.37	63.395
495.72	62.191
496.07	63.951
496.41	63.962
496.76	62.322
497.11	62.692
497.45	63.389
497.80	63.068
498.14	62.245
498.49	62.824
498.84	62.725
499.18	64.106
499.53	62.897
499.87	62.500
500.22	64.540
500.56	64.599
500.91	64.006
501.26	63.618
501.60	63.945
501.95	63.998
502.29	63.099
502.64	64.044
502.98	64.085
503.33	63.497
503.67	63.325
504.02	63.001
504.36	63.137
504.71	62.576
505.06	62.909
505.40	62.843
505.75	63.918
506.09	62.848
506.44	64.476
506.78	64.439
507.13	63.547
507.47	63.133
507.82	64.049
508.16	64.184
508.51	65.005
508.85	63.736
509.19	63.544
509.54	63.539
509.88	64.132
510.23	63.098
510.57	63.870
510.92	63.486
511.26	64.703
511.61	64.466
511.95	63.562
512.30	64.523
512.64	64.051
512.98	64.458
513.33	63.626
513.67	65.037
514.02	64.817
514.36	65.257
514.70	64.918
515.05	65.276
515.39	64.109
515.74	65.689
516.08	65.631
516.42	65.548
516.77	65.886
517.11	64.392
517.46	65.470
517.80	64.243
518.14	64.850
518.49	64.002
518.83	65.310
519.17	64.099
519.52	63.529
519.86	63.745
520.20	64.763
520.55	63.665
520.89	63.739
521.23	64.471
521.58	64.353
521.92	64.359
522.26	64.216
522.61	64.610
522.95	66.093
523.29	65.121
523.64	63.850
523.98	64.420
524.32	65.142
524.66	64.853
525.01	65.000
525.35	65.133
525.69	65.185
526.04	64.153
526.38	64.656
526.72	64.356
527.06	64.721
527.41	64.710
527.75	64.812
528.09	63.787
528.43	66.442
528.78	65.479
529.12	64.000
529.46	65.887
529.80	65.674
530.15	66.007
530.49	66.936
530.83	65.869
531.17	63.398
531.51	64.637
531.86	64.582
532.20	64.927
532.54	65.623
532.88	65.777
533.22	66.734
533.57	65.007
533.91	66.449
534.25	66.667
534.59	65.876
534.93	66.583
535.27	65.102
535.62	66.235
535.96	65.166
536.30	66.359
536.64	66.368
536.98	65.296
537.32	66.927
537.66	66.620
538.01	66.573
538.35	66.713
538.69	64.248
539.03	65.550
539.37	66.824
539.71	65.985
540.05	65.037
540.39	67.659
540.73	66.039
541.07	66.575
541.42	67.339
541.76	65.382
542.10	65.726
542.44	67.408
542.78	66.139
543.12	65.247
543.46	67.663
543.80	67.314
544.14	65.421
544.48	65.756
544.82	67.738
545.16	67.555
545.50	66.355
545.84	67.351
546.18	66.879
546.52	66.186
546.86	66.715
547.20	68.169
547.54	66.502
547.88	66.712
548.22	66.075
548.56	67.282
548.90	68.396
549.24	65.289
549.58	67.207
549.92	66.119
550.26	66.667
550.60	67.658
550.94	67.065
551.28	68.470
551.62	68.769
551.96	67.368
552.30	67.909
552.64	66.573
552.98	66.667
553.32	65.977
553.66	66.691
554.00	68.905
554.34	67.947
554.68	67.109
555.02	66.890
555.36	67.464
555.69	66.960
556.03	66.881
556.37	66.477
556.71	68.375
557.05	67.562
557.39	66.022
557.73	67.916
558.07	66.893
558.41	65.850
558.75	67.342
559.08	67.770
559.42	67.698
559.76	67.574
560.10	67.966
560.44	68.727
560.78	67.902
561.12	68.477
561.45	70.485
561.79	69.118
562.13	68.843
562.47	69.712
562.81	68.300
563.15	67.630
563.48	67.327
563.82	69.183
564.16	69.220
564.50	68.041
564.84	69.478
565.17	68.478
565.51	70.014
565.85	69.273
566.19	69.761
566.52	69.571
566.86	68.895
567.20	68.867
567.54	70.012
567.88	71.588
568.21	71.833
568.55	70.870
568.89	71.766
569.23	72.894
569.56	72.154
569.90	72.960
570.24	72.237
570.57	73.564
570.91	73.405
571.25	72.147
571.59	72.065
571.92	70.074
572.26	72.192
572.60	71.535
572.93	70.254
573.27	70.784
573.61	72.106
573.95	72.092
574.28	71.690
574.62	71.574
574.96	71.728
575.29	71.757
575.63	69.552
575.97	71.266
576.30	71.296
576.64	70.649
576.98	72.021
577.31	72.426
577.65	72.752
577.98	73.774
578.32	72.075
578.66	71.825
578.99	70.894
579.33	70.897
579.67	69.745
580.00	71.367
580.34	72.114
580.67	70.054
581.01	72.959
581.35	72.739
581.68	73.253
582.02	72.711
582.35	72.869
582.69	73.354
583.02	72.271
583.36	72.203
583.70	71.651
584.03	72.783
584.37	73.038
584.70	72.005
585.04	71.321
585.37	71.671
585.71	72.772
586.04	72.642
586.38	72.553
586.72	72.453
587.05	73.137
587.39	73.777
587.72	73.866
588.06	73.706
588.39	72.686
588.73	72.955
589.06	72.896
589.40	72.347
589.73	72.399
590.07	72.017
590.40	72.910
590.73	72.570
591.07	71.501
591.40	71.995
591.74	73.167
592.07	73.609
592.41	73.631
592.74	73.158
593.08	73.105
593.41	73.773
593.75	73.176
594.08	72.297
594.41	72.889
594.75	72.710
595.08	72.493
595.42	73.831
595.75	73.601
596.09	71.697
596.42	73.253
596.75	72.735
597.09	72.027
597.42	71.861
597.75	73.339
598.09	71.616
598.42	71.209
598.76	73.616
599.09	72.997
599.42	72.527
599.76	73.439
600.09	73.077
600.42	72.403
600.76	72.697
601.09	73.206
601.42	71.680
601.76	72.727
602.09	71.617
602.42	73.757
602.76	73.472
603.09	73.588
603.42	74.875
603.76	74.113
604.09	73.633
604.42	73.266
604.76	72.586
605.09	72.395
605.42	71.422
605.75	72.242
606.09	72.611
606.42	72.352
606.75	72.251
607.09	72.396
607.42	73.372
607.75	72.469
608.08	71.833
608.42	69.529
608.75	73.687
609.08	72.945
609.41	72.589
609.75	72.631
610.08	73.390
610.41	72.464
610.74	72.891
611.07	73.437
611.41	72.911
611.74	73.721
612.07	72.163
612.40	72.265
612.73	72.712
613.07	72.103
613.40	73.140
613.73	72.356
614.06	72.176
614.39	71.968
614.72	72.045
615.06	72.458
615.39	71.397
615.72	72.121
616.05	71.620
616.38	69.288
616.71	71.070
617.05	73.008
617.38	70.459
617.71	72.201
618.04	72.381
618.37	73.392
618.70	72.145
619.03	71.944
619.36	70.333
619.69	71.873
620.03	73.484
620.36	72.175
620.69	71.877
621.02	68.807
621.35	72.116
621.68	72.364
622.01	72.083
622.34	70.710
622.67	72.555
623.00	71.057
623.33	71.418
623.66	72.251
623.99	71.029
624.32	71.255
624.65	71.579
624.99	72.987
625.32	70.053
625.65	74.627
625.98	71.313
626.31	69.077
626.64	70.537
626.97	70.506
627.30	71.541
627.63	70.277
627.96	72.507
628.29	71.508
628.62	70.600
628.95	69.238
629.28	73.891
629.61	71.685
629.94	69.501
630.26	69.862
630.59	72.320
630.92	70.564
631.25	68.615
631.58	71.145
631.91	68.969
632.24	70.413
632.57	72.045
632.90	69.870
633.23	68.824
633.56	70.781
633.89	71.640
634.22	71.111
634.55	70.648
634.88	68.455
635.20	68.974
635.53	70.400
635.86	68.791
636.19	71.281
636.52	69.898
636.85	69.355
637.18	71.950
637.51	68.302
637.83	70.171
638.16	71.623
638.49	68.256
638.82	68.158
639.15	69.607
639.48	72.077
639.81	69.317
640.13	70.418
640.46	69.971
640.79	69.072
641.12	68.390
641.45	70.420
641.77	69.037
642.10	71.564
642.43	66.559
642.76	69.142
643.09	68.659
643.41	67.476
643.74	67.051
644.07	70.936
644.40	68.919
644.73	69.352
645.05	66.946
645.38	71.252
645.71	67.376
646.04	72.172
646.36	68.440
646.69	66.727
647.02	68.053
647.35	68.097
647.67	67.276
648.00	69.216
648.33	68.259
648.66	69.661
648.98	70.854
649.31	70.248
649.64	70.958
649.96	68.071
650.29	69.165
650.62	71.111
650.94	70.370
651.27	68.529
651.60	68.829
651.92	66.958
652.25	66.607
652.58	67.667
652.90	71.184
653.23	68.908
653.56	67.005
653.88	69.244
654.21	66.900
654.54	69.610
654.86	71.138
655.19	67.690
655.52	78.638
655.84	80.308
656.17	88.214
656.49	100.000
656.82	100.000
657.15	100.000
657.47	79.959
657.80	47.427
658.13	46.155
658.45	70.101
658.78	67.185
659.10	65.095
659.43	64.087
659.75	63.789
660.08	64.483
660.41	63.432
660.73	64.503
661.06	67.418
661.38	66.145
661.71	61.807
662.03	70.601
662.36	65.275
662.68	65.487
663.01	67.686
663.33	67.749
663.66	67.209
663.98	68.837
664.31	64.819
664.63	67.742
664.96	64.565
665.28	63.355
665.61	66.450
665.93	69.348
666.26	67.679
666.58	63.982
666.91	68.235
667.23	68.868
667.56	64.692
667.88	66.906
668.21	66.348
668.53	68.558
668.86	66.038
669.18	64.151
669.50	66.344
669.83	63.953
670.15	65.501
670.48	67.943
670.80	66.590
671.13	61.745
671.45	63.470
671.77	70.601
672.10	68.911
672.42	67.416
672.75	65.897
673.07	68.694
673.39	67.339
673.72	63.116
674.04	63.542
674.37	63.347
674.69	65.310
675.01	67.111
675.34	65.541
675.66	69.676
675.98	66.297
676.31	69.037
676.63	67.458
676.95	65.227
677.28	66.588
677.60	70.843
677.92	65.138
678.25	67.396
678.57	66.450
678.89	68.908
679.22	69.128
679.54	65.462
679.86	66.004
680.18	67.379
680.51	68.182
680.83	64.016
681.15	68.200
681.48	66.598
681.80	67.355
682.12	66.734
682.44	67.364
682.77	70.419
683.09	67.963
683.41	63.864
683.73	65.438
684.06	65.265
684.38	64.086
684.70	68.845
685.02	65.768
685.34	64.427
685.67	64.728
685.99	66.727
686.31	68.142
686.63	65.492
686.96	63.878
687.28	66.667
687.60	63.688
687.92	69.091
688.24	65.927
688.56	66.812
688.89	64.509
689.21	64.444
689.53	64.037
689.85	66.047
690.17	64.955
690.49	67.139
690.82	66.262
691.14	62.619
691.46	66.355
691.78	66.667
692.10	64.946
692.42	64.069
692.74	64.103
693.06	66.216
693.39	65.611
693.71	64.027
694.03	66.051
694.35	64.486
694.67	64.141
694.99	58.747
695.31	63.969
695.63	63.000
695.95	63.889
696.27	63.731
696.59	65.278
696.91	62.745
697.23	65.039
697.56	66.337
697.88	65.161
698.20	69.476
698.52	66.824
698.84	60.766
699.16	63.000
699.48	63.910
699.80	61.290
700.12	63.612
700.44	66.667
700.76	60.465
701.08	63.333
701.40	61.446
701.72	67.284
702.04	66.337
702.36	63.880
702.68	62.462
703.00	69.091
703.32	61.877
703.64	60.734
703.96	57.391
704.28	63.497
704.60	64.762
704.91	58.991
705.23	61.794
705.55	65.724
705.87	64.260
706.19	65.556
706.51	62.887
706.83	62.379
707.15	62.928
707.47	62.745
707.79	65.365
708.11	67.000
708.43	62.750
708.74	63.307
709.06	65.634
709.38	62.080
709.70	59.172
710.02	66.242
710.34	62.848
710.66	63.782
710.98	65.894
711.29	66.885
711.61	66.102
711.93	61.238
712.25	67.010
712.57	56.777
712.89	63.433
713.20	61.938
713.52	57.491
713.84	62.799
714.16	63.574
714.48	65.806
714.80	67.308
715.11	62.918
715.43	58.934
715.75	65.000
716.07	63.787
716.39	62.081
716.70	63.100
717.02	59.160
717.34	60.324
717.66	67.257
717.97	60.000
718.29	66.109
718.61	58.268
718.93	64.729
719.24	63.118
719.56	69.880
719.88	60.481
720.20	63.636
720.51	58.621
720.83	56.757
721.15	68.908
721.46	61.694
721.78	60.079
722.10	54.647
722.42	60.996
722.73	59.184
723.05	65.714
723.37	66.949
723.68	61.261
724.00	61.538
724.32	59.111
724.63	67.273
724.95	60.699
725.27	68.664
725.58	65.254
725.90	61.905
726.22	63.320
726.53	61.356
726.85	64.045
727.16	67.925
727.48	61.134
727.80	62.348
728.11	60.169
728.43	57.255
728.74	59.677
729.06	62.400
729.38	69.925
729.69	62.151
730.01	58.846
730.32	66.045
730.64	62.544
730.96	64.151
731.27	60.667
731.59	60.339
731.90	62.102
732.22	63.407
732.53	64.784
732.85	62.057
733.16	61.616
733.48	62.590
733.80	65.217
734.11	62.034
734.43	62.543
734.74	62.121
735.06	65.798
735.37	63.444
735.69	61.953
736.00	64.808
736.32	60.738
736.63	63.380
736.95	65.529
737.26	62.633
737.58	60.738
737.89	60.806
738.21	61.278
738.52	65.021
738.83	64.629
739.15	60.262
739.46	62.205
739.78	58.242
740.09	60.131
740.41	63.043
740.72	61.417
741.04	59.109
741.35	59.149
741.66	62.085
741.98	64.286
742.29	61.881
742.61	63.351
742.92	55.924
743.23	53.704
743.55	68.326
743.86	61.244
744.18	59.330
744.49	57.979
744.80	59.239
745.12	72.727
745.43	56.098
745.74	66.146
746.06	61.951
746.37	63.874
746.68	63.507
747.00	62.234
747.31	56.219
747.62	56.311
747.94	57.416
748.25	58.911
748.56	62.295
748.88	53.403
749.19	67.553
749.50	63.054
749.82	55.660
750.13	63.303
750.44	65.789
750.75	64.552
751.07	64.599
751.38	64.368
751.69	56.863
752.01	60.465
752.32	62.151
752.63	63.241
752.94	62.069
753.26	68.619
753.57	56.561
753.88	59.735
754.19	62.500
754.51	65.702
754.82	59.919
755.13	63.333
755.44	60.484
755.75	62.500
756.07	63.813
756.38	61.132
756.69	60.536
757.00	57.667
757.31	59.477
757.63	57.927
757.94	58.889
758.25	60.548
758.56	56.915
758.87	58.074
759.18	56.075
759.50	60.000
759.81	58.863
760.12	59.355
760.43	60.606
760.74	62.346
761.05	60.923
761.36	59.091
761.67	61.818
761.99	61.224
762.30	56.727
762.61	58.103
762.92	65.611
763.23	56.757
763.54	55.607
763.85	63.983
764.16	59.336
764.47	58.468
764.78	58.242
765.10	64.310
765.41	59.937
765.72	55.238
766.03	55.263
766.34	58.029
766.65	57.769
766.96	60.606
767.27	59.043
767.58	59.770
767.89	60.993
768.20	52.273
768.51	55.495
768.82	52.217
769.13	62.212
769.44	56.652
769.75	59.817
770.06	60.345
770.37	62.019
770.68	58.883
770.99	53.846
771.30	66.667
771.61	59.276
771.92	63.362
772.23	64.532
772.54	62.903
772.85	57.407
773.16	60.674
773.47	68.627
773.78	62.745
774.09	51.497
774.39	60.000
774.70	57.325
775.01	57.241
775.32	53.571
775.63	60.331
775.94	56.489
776.25	55.118
776.56	67.500
776.87	60.577
777.18	66.667
777.48	52.586
777.79	49.565
778.10	47.619
778.41	52.252
778.72	60.317
779.03	57.143
779.34	60.993
779.65	54.795
779.95	50.000
780.26	62.759
780.57	45.528
780.88	43.307
781.19	51.724
781.50	62.791
781.80	49.704
782.11	55.346
782.42	60.000
782.73	48.201
783.04	51.111
783.34	49.306
783.65	49.573
783.96	59.016
784.27	60.690
784.57	56.098
784.88	50.781
785.19	63.000
785.50	63.000
785.81	55.172
786.11	50.000
786.42	52.427
786.73	50.000
787.04	57.143
787.34	44.643
787.65	59.048
787.96	47.788
788.26	67.273
788.57	57.265
788.88	60.156
789.19	50.000
789.49	60.870
789.80	63.265
790.11	61.616
790.41	54.545
790.72	69.565
791.03	50.000
791.33	66.250
791.64	52.500
791.95	60.465
792.25	60.638
792.56	52.809
792.87	50.685
793.17	46.377
793.48	42.667
793.79	50.000
794.09	72.500
794.40	53.774
794.70	52.427
795.01	46.341
795.32	45.299
795.62	63.810
795.93	60.784
796.23	50.943
796.54	44.792
796.85	55.882
797.15	43.662
797.46	44.444
797.76	65.152
798.07	48.837
798.37	50.000
798.68	50.000
798.99	45.679
799.29	74.286
799.60	42.029
799.90	57.333
800.21	72.131
800.51	33.846
800.82	64.407
801.12	42.029
801.43	63.934
801.73	68.254
802.04	68.000
802.34	35.821
802.65	57.692
802.95	44.643
803.26	42.308
803.56	60.784
803.87	56.522
804.17	46.667
804.48	61.905
804.78	51.852
805.09	54.348
805.39	48.889
805.70	64.815
806.00	14.035
806.30	57.746
806.61	57.143
806.91	44.444
807.22	51.316
807.52	74.667
807.83	58.182
808.13	56.944
808.43	55.882
808.74	46.269
809.04	32.203
809.35	21.154
809.65	40.625
809.95	35.135
810.26	40.909
810.56	30.137
810.86	50.000
811.17	80.000
811.47	59.184
811.77	65.789
812.08	56.818
812.38	45.283
812.69	35.000
812.99	21.212
813.29	42.105
813.59	37.143
813.90	22.727
814.20	35.897
814.50	71.154
814.81	69.811
815.11	40.426
815.41	55.932
815.72	57.143
816.02	64.706
816.32	52.083
816.62	78.049
816.93	48.649
817.23	42.857
817.53	56.250
817.84	41.304
818.14	44.231
818.44	26.316
818.74	28.261
819.04	25.000
819.35	62.162
819.65	50.000
819.95	27.778
820.25	28.571
820.56	80.000
820.86	37.931
821.16	65.000
821.46	55.319
821.76	62.500
822.07	44.186
822.37	0.000
822.67	46.875
822.97	38.095
823.27	42.857
823.57	32.000
823.88	-3.704
824.18	10.714
824.48	41.176
824.78	19.355
825.08	73.913
825.38	45.455
825.69	20.833
825.99	26.316
826.29	69.444
826.59	53.333
826.89	4.762
827.19	60.870
827.49	60.000
827.79	48.571
828.09	96.429
828.39	42.424
828.70	75.676
829.00	50.000
829.30	66.667
829.60	36.667
829.90	43.750
830.20	42.105
830.50	55.556
830.80	-4.348
831.10	9.091
831.40	30.303
831.70	51.613
832.00	66.667
832.30	9.524
832.60	100.000
832.90	37.931
833.20	45.000
833.50	33.333
833.80	44.444
834.10	50.000
834.40	50.000
834.70	11.111
835.00	0.000
835.30	103.846
835.60	80.000
835.90	74.194
836.20	100.000
836.50	46.429
836.80	23.077
837.10	28.571
837.40	400.000
837.70	27.273
838.00	36.364
838.30	8.696
838.60	84.615
838.90	86.364
839.19	21.429
839.49	43.333
839.79	61.538
840.09	16.667
840.39	78.571
840.69	42.857
840.99	30.769
841.29	-10.526
841.59	40.000
841.88	154.545
842.18	120.000
842.48	18.750
842.78	46.667
843.08	48.148
843.38	-60.000
843.68	73.913
843.97	73.333
844.27	-26.667
844.57	80.000
844.87	55.556
845.17	-9.524
845.47	26.667
845.76	0.000
846.06	35.294
846.36	-10.000
846.66	21.429
846.96	20.000
847.25	-37.500
847.55	128.571
847.85	50.000
848.15	-4.545
848.44	-100.000
848.74	60.000
849.04	33.333
849.34	109.091
849.63	133.333
849.93	-120.000
850.23	66.667
850.53	130.000
850.82	-15.385
851.12	44.444
851.42	126.667
851.71	-11.538
852.01	50.000
852.31	50.000
852.61	27.273
852.90	40.000
853.20	-15.789
853.50	41.667
853.79	30.435
854.09	83.333
854.39	36.842
854.68	16.667
854.98	70.968
855.28	69.231
855.57	45.000
855.87	66.667
856.17	74.074
856.46	64.286
856.76	46.667
857.05	77.778
857.35	52.000
857.65	94.444
857.94	0.000
858.24	96.552
858.53	44.444
858.83	66.667
859.13	31.818
859.42	52.174
859.72	0.000
860.01	-266.667
860.31	36.000
860.60	61.905
860.90	0.000
861.20	46.667
861.49	-500.000
861.79	73.333
862.08	35.000
862.38	180.000
862.67	-100.000
862.97	-33.333
863.26	50.000
863.56	77.778
863.85	0.000
864.15	66.667
864.44	0.000
864.74	121.429
865.03	-100.000
865.33	0.000
865.62	83.333
865.92	83.333
866.21	-116.667
866.51	81.250
866.80	-63.636
867.10	0.000
867.39	83.333
867.69	0.000
867.98	69.231
868.27	-200.000
868.57	40.000
868.86	50.000
869.16	-15.385
869.45	86.667
869.75	-600.000
870.04	0.000
870.33	-14.286
870.63	76.190
870.92	300.000
871.22	40.000
871.51	0.000
871.80	155.556
872.10	366.667
>>>>>End Processed Spectral Data<<<<<
