SpectraSuite Data File
++++++++++++++++++++++++++++++++++++
Date: Fri May 15 20:13:19 PDT 2015
User: schluterlab
Dark Spectrum Present: Yes
Reference Spectrum Present: Yes
Number of Sampled Component Spectra: 1
Spectrometers: USB2E3373
Integration Time (usec): 3000 (USB2E3373)
Spectra Averaged: 3 (USB2E3373)
Boxcar Smoothing: 0 (USB2E3373)
Correct for Electrical Dark: No (USB2E3373)
Strobe/Lamp Enabled: No (USB2E3373)
Correct for Detector Non-linearity: No (USB2E3373)
Correct for Stray Light: No (USB2E3373)
Number of Pixels in Processed Spectrum: 2048
>>>>>Begin Processed Spectral Data<<<<<
178.53	0.000
178.91	0.000
179.29	212.500
179.67	-550.000
180.04	-0.000
180.42	-25.000
180.80	-300.000
181.18	66.667
181.56	450.000
181.94	50.000
182.31	100.000
182.69	-80.000
183.07	-33.333
183.45	-100.000
183.83	-50.000
184.20	-72.727
184.58	133.333
184.96	-100.000
185.34	33.333
185.72	0.000
186.09	7.692
186.47	0.000
186.85	-50.000
187.23	-44.444
187.61	-200.000
187.98	133.333
188.36	-11.111
188.74	33.333
189.12	-5.882
189.49	16.667
189.87	0.000
190.25	64.286
190.63	750.000
191.00	33.333
191.38	52.632
191.76	450.000
192.14	-0.000
192.51	650.000
192.89	0.000
193.27	-57.143
193.65	-50.000
194.02	136.364
194.40	100.000
194.78	-62.500
195.15	66.667
195.53	87.500
195.91	25.000
196.29	-150.000
196.66	15.385
197.04	100.000
197.42	0.000
197.79	-266.667
198.17	-46.154
198.55	1000.000
198.92	0.000
199.30	100.000
199.68	240.000
200.05	66.667
200.43	0.000
200.81	-100.000
201.18	200.000
201.56	400.000
201.94	-650.000
202.31	-133.333
202.69	-80.000
203.07	200.000
203.44	400.000
203.82	0.000
204.19	64.286
204.57	100.000
204.95	37.500
205.32	50.000
205.70	-28.571
206.08	175.000
206.45	166.667
206.83	92.857
207.20	42.857
207.58	100.000
207.96	-33.333
208.33	10.000
208.71	175.000
209.08	-66.667
209.46	-500.000
209.84	120.000
210.21	300.000
210.59	242.857
210.96	-33.333
211.34	-100.000
211.71	40.000
212.09	-42.857
212.46	-200.000
212.84	0.000
213.22	70.000
213.59	200.000
213.97	30.769
214.34	54.545
214.72	66.667
215.09	300.000
215.47	-23.077
215.84	-45.455
216.22	133.333
216.59	25.000
216.97	200.000
217.34	325.000
217.72	-80.000
218.09	-25.000
218.47	112.500
218.84	-400.000
219.22	-33.333
219.59	-80.000
219.97	66.667
220.34	175.000
220.72	0.000
221.09	-25.000
221.47	250.000
221.84	-150.000
222.22	-600.000
222.59	90.909
222.97	25.000
223.34	-333.333
223.72	14.286
224.09	33.333
224.46	32.143
224.84	333.333
225.21	0.000
225.59	13.333
225.96	-350.000
226.34	200.000
226.71	85.714
227.08	150.000
227.46	112.500
227.83	-450.000
228.21	111.111
228.58	72.727
228.95	112.500
229.33	90.000
229.70	43.750
230.08	-62.500
230.45	-57.143
230.82	100.000
231.20	13.333
231.57	107.143
231.95	200.000
232.32	-20.000
232.69	50.000
233.07	333.333
233.44	100.000
233.81	10.000
234.19	55.556
234.56	47.059
234.93	-900.000
235.31	225.000
235.68	-60.000
236.05	53.846
236.43	35.000
236.80	82.353
237.17	46.875
237.55	30.000
237.92	44.444
238.29	52.778
238.67	73.333
239.04	38.235
239.41	7.317
239.79	40.000
240.16	41.463
240.53	44.737
240.91	21.739
241.28	52.381
241.65	51.786
242.02	49.315
242.40	38.333
242.77	59.322
243.14	51.515
243.51	37.500
243.89	57.471
244.26	48.276
244.63	47.619
245.00	54.639
245.38	49.485
245.75	53.933
246.12	43.103
246.49	52.893
246.87	59.615
247.24	42.017
247.61	44.737
247.98	51.220
248.36	42.500
248.73	44.079
249.10	50.000
249.47	53.797
249.84	51.634
250.22	47.647
250.59	57.516
250.96	48.357
251.33	51.744
251.70	51.176
252.08	50.254
252.45	49.010
252.82	48.744
253.19	49.309
253.56	51.402
253.94	51.802
254.31	55.652
254.68	56.140
255.05	48.425
255.42	54.585
255.79	55.598
256.16	48.249
256.54	51.493
256.91	47.148
257.28	50.186
257.65	49.064
258.02	47.518
258.39	47.811
258.76	56.410
259.14	50.166
259.51	52.104
259.88	51.203
260.25	48.039
260.62	54.861
260.99	50.508
261.36	47.603
261.73	48.734
262.10	49.544
262.47	49.080
262.85	50.470
263.22	49.231
263.59	51.090
263.96	55.590
264.33	50.909
264.70	52.679
265.07	50.893
265.44	53.258
265.81	53.672
266.18	49.727
266.55	52.185
266.92	46.632
267.29	50.914
267.66	49.361
268.03	47.906
268.40	49.608
268.77	54.813
269.14	50.839
269.51	51.671
269.88	46.633
270.25	50.510
270.62	47.073
270.99	47.315
271.36	48.166
271.73	50.704
272.10	50.365
272.47	47.281
272.84	50.248
273.21	47.564
273.58	50.120
273.95	48.055
274.32	48.037
274.69	43.213
275.06	47.768
275.43	49.887
275.80	49.227
276.17	48.276
276.54	45.182
276.91	47.807
277.28	48.472
277.65	46.901
278.02	47.447
278.39	46.608
278.76	46.331
279.13	43.568
279.50	49.370
279.87	48.164
280.23	49.032
280.60	46.394
280.97	47.071
281.34	44.231
281.71	47.433
282.08	43.967
282.45	46.771
282.82	45.367
283.19	46.228
283.56	49.326
283.92	48.008
284.29	47.115
284.66	45.349
285.03	44.794
285.40	44.802
285.77	45.518
286.14	46.029
286.51	44.834
286.87	42.230
287.24	46.593
287.61	43.563
287.98	45.088
288.35	44.541
288.72	45.534
289.08	42.708
289.45	42.882
289.82	44.231
290.19	40.444
290.56	42.367
290.93	42.424
291.29	40.216
291.66	37.638
292.03	39.713
292.40	38.387
292.77	38.915
293.13	37.500
293.50	37.936
293.87	39.847
294.24	36.940
294.60	37.407
294.97	36.012
295.34	37.423
295.71	36.066
296.08	37.668
296.44	33.997
296.81	35.417
297.18	35.797
297.55	36.450
297.91	36.027
298.28	35.884
298.65	33.379
299.02	34.501
299.38	33.105
299.75	34.207
300.12	35.079
300.48	34.651
300.85	33.333
301.22	33.506
301.59	33.947
301.95	32.405
302.32	36.316
302.69	31.841
303.05	33.787
303.42	32.752
303.79	32.710
304.15	33.453
304.52	31.510
304.89	31.462
305.25	31.598
305.62	29.988
305.99	31.813
306.35	31.098
306.72	30.596
307.09	32.041
307.45	32.836
307.82	31.597
308.19	34.030
308.55	29.989
308.92	34.423
309.29	31.397
309.65	30.893
310.02	31.573
310.38	32.053
310.75	30.929
311.12	32.508
311.48	29.692
311.85	30.576
312.22	31.435
312.58	31.741
312.95	29.669
313.31	30.538
313.68	30.471
314.05	31.633
314.41	32.474
314.78	30.722
315.14	31.655
315.51	32.609
315.87	31.762
316.24	32.053
316.61	32.087
316.97	31.448
317.34	31.934
317.70	30.784
318.07	30.962
318.43	33.529
318.80	31.155
319.16	33.594
319.53	31.814
319.89	32.185
320.26	32.692
320.62	33.701
320.99	32.672
321.35	34.430
321.72	33.749
322.08	35.549
322.45	35.228
322.81	36.444
323.18	36.605
323.54	36.583
323.91	37.780
324.27	37.695
324.64	37.172
325.00	37.774
325.37	38.843
325.73	38.894
326.10	38.692
326.46	41.076
326.83	41.820
327.19	42.895
327.56	42.832
327.92	44.102
328.29	44.375
328.65	47.170
329.01	46.048
329.38	45.806
329.74	47.686
330.11	48.007
330.47	47.959
330.84	48.365
331.20	51.046
331.56	49.352
331.93	51.142
332.29	50.962
332.66	51.312
333.02	51.580
333.38	50.596
333.75	52.381
334.11	51.388
334.48	51.859
334.84	53.114
335.20	52.973
335.57	52.947
335.93	54.923
336.29	54.420
336.66	54.950
337.02	53.903
337.38	52.315
337.75	54.455
338.11	53.291
338.47	55.931
338.84	56.007
339.20	54.479
339.56	54.404
339.93	53.178
340.29	55.963
340.65	55.018
341.02	54.965
341.38	55.664
341.74	54.240
342.11	53.293
342.47	56.317
342.83	56.401
343.20	55.749
343.56	57.217
343.92	57.750
344.28	56.704
344.65	55.268
345.01	55.056
345.37	54.163
345.73	55.983
346.10	56.342
346.46	55.845
346.82	55.319
347.19	54.780
347.55	57.811
347.91	55.421
348.27	54.325
348.63	56.899
349.00	55.947
349.36	57.107
349.72	56.799
350.08	56.311
350.45	55.307
350.81	57.475
351.17	56.433
351.53	55.837
351.89	54.170
352.26	55.360
352.62	56.210
352.98	56.546
353.34	55.878
353.70	56.230
354.07	56.210
354.43	56.365
354.79	56.152
355.15	57.778
355.51	57.516
355.87	57.362
356.24	55.710
356.60	56.831
356.96	57.381
357.32	57.428
357.68	56.059
358.04	56.785
358.40	56.350
358.77	57.177
359.13	58.207
359.49	56.086
359.85	57.098
360.21	58.373
360.57	56.618
360.93	57.035
361.29	56.571
361.66	59.796
362.02	59.621
362.38	58.264
362.74	59.576
363.10	59.744
363.46	58.043
363.82	58.603
364.18	58.303
364.54	56.103
364.90	58.208
365.26	59.461
365.62	60.584
365.98	58.798
366.35	59.942
366.71	59.350
367.07	59.724
367.43	59.166
367.79	58.304
368.15	57.645
368.51	58.849
368.87	60.014
369.23	59.278
369.59	59.184
369.95	61.290
370.31	59.682
370.67	59.925
371.03	60.792
371.39	60.102
371.75	60.879
372.11	60.485
372.47	61.317
372.83	61.533
373.19	60.271
373.55	59.783
373.91	61.483
374.27	61.588
374.63	60.804
374.99	60.709
375.35	60.655
375.71	62.517
376.07	62.921
376.42	62.177
376.78	63.087
377.14	60.596
377.50	62.683
377.86	63.722
378.22	62.923
378.58	63.462
378.94	64.020
379.30	61.073
379.66	64.765
380.02	63.090
380.38	64.029
380.74	62.537
381.09	63.436
381.45	62.752
381.81	63.726
382.17	64.404
382.53	63.960
382.89	65.474
383.25	65.899
383.61	65.976
383.97	65.333
384.32	65.791
384.68	65.201
385.04	65.380
385.40	65.588
385.76	66.792
386.12	66.494
386.48	66.858
386.83	66.709
387.19	65.995
387.55	67.817
387.91	66.565
388.27	67.521
388.62	68.408
388.98	66.974
389.34	66.771
389.70	68.117
390.06	67.212
390.42	67.228
390.77	67.560
391.13	66.646
391.49	69.276
391.85	67.836
392.20	67.859
392.56	68.531
392.92	67.880
393.28	68.219
393.64	67.087
393.99	69.342
394.35	69.133
394.71	69.221
395.07	67.253
395.42	68.002
395.78	69.121
396.14	67.907
396.50	68.167
396.85	70.058
397.21	68.421
397.57	68.652
397.92	68.244
398.28	69.770
398.64	69.036
399.00	68.397
399.35	67.269
399.71	66.743
400.07	69.166
400.42	66.891
400.78	69.014
401.14	68.421
401.49	67.540
401.85	69.104
402.21	68.373
402.57	68.438
402.92	68.005
403.28	69.799
403.63	69.798
403.99	67.666
404.35	69.332
404.70	66.964
405.06	68.566
405.42	68.925
405.77	68.972
406.13	67.753
406.49	68.324
406.84	68.704
407.20	69.115
407.55	67.933
407.91	68.650
408.27	69.152
408.62	68.000
408.98	67.714
409.34	68.154
409.69	67.829
410.05	66.626
410.40	68.025
410.76	68.094
411.11	68.375
411.47	67.456
411.83	67.420
412.18	69.048
412.54	66.479
412.89	66.626
413.25	68.171
413.60	67.205
413.96	68.098
414.31	66.280
414.67	67.479
415.03	67.044
415.38	66.123
415.74	68.469
416.09	67.538
416.45	67.387
416.80	67.217
417.16	68.025
417.51	68.021
417.87	67.275
418.22	67.746
418.58	69.030
418.93	68.715
419.29	66.325
419.64	68.697
420.00	68.451
420.35	68.060
420.71	69.259
421.06	68.263
421.42	68.690
421.77	68.728
422.12	68.218
422.48	67.894
422.83	67.169
423.19	68.623
423.54	69.606
423.90	66.961
424.25	69.403
424.61	69.278
424.96	68.409
425.31	70.191
425.67	69.425
426.02	69.494
426.38	69.380
426.73	69.249
427.09	70.316
427.44	68.471
427.79	68.533
428.15	69.357
428.50	68.443
428.85	68.243
429.21	69.044
429.56	70.135
429.92	68.156
430.27	67.769
430.62	69.786
430.98	68.949
431.33	68.244
431.68	67.661
432.04	68.698
432.39	67.770
432.74	69.152
433.10	69.828
433.45	68.937
433.80	67.673
434.16	68.532
434.51	69.086
434.86	69.338
435.22	69.658
435.57	70.056
435.92	70.539
436.28	68.694
436.63	68.397
436.98	67.092
437.34	69.449
437.69	69.350
438.04	69.801
438.39	67.624
438.75	71.038
439.10	69.270
439.45	69.385
439.81	68.196
440.16	70.606
440.51	69.254
440.86	71.662
441.22	69.174
441.57	70.309
441.92	70.042
442.27	70.011
442.63	70.289
442.98	69.730
443.33	69.282
443.68	69.072
444.03	69.548
444.39	70.143
444.74	70.011
445.09	71.437
445.44	69.858
445.79	71.119
446.15	68.007
446.50	69.163
446.85	69.288
447.20	69.291
447.55	69.085
447.91	69.205
448.26	69.209
448.61	69.545
448.96	70.797
449.31	68.728
449.66	69.164
450.02	69.709
450.37	69.472
450.72	68.270
451.07	68.671
451.42	69.039
451.77	68.535
452.12	68.600
452.47	68.963
452.83	68.728
453.18	68.944
453.53	69.659
453.88	69.702
454.23	68.838
454.58	69.710
454.93	68.943
455.28	67.048
455.63	68.196
455.98	68.731
456.34	69.029
456.69	69.695
457.04	70.258
457.39	69.198
457.74	68.198
458.09	66.274
458.44	66.823
458.79	68.291
459.14	67.906
459.49	68.179
459.84	68.528
460.19	68.932
460.54	68.399
460.89	69.659
461.24	68.509
461.59	68.587
461.94	68.365
462.29	69.602
462.64	70.100
462.99	68.450
463.34	67.455
463.69	68.082
464.04	66.465
464.39	68.284
464.74	66.135
465.09	68.122
465.44	67.917
465.79	66.383
466.14	66.933
466.49	69.178
466.84	67.103
467.19	67.272
467.54	66.731
467.89	66.898
468.24	66.241
468.59	67.111
468.94	67.746
469.29	67.148
469.64	67.806
469.99	67.274
470.34	66.962
470.68	68.829
471.03	67.304
471.38	67.047
471.73	67.087
472.08	65.536
472.43	67.584
472.78	65.456
473.13	66.259
473.48	65.603
473.83	64.072
474.17	68.394
474.52	65.284
474.87	65.515
475.22	66.504
475.57	65.951
475.92	65.771
476.27	66.705
476.61	66.551
476.96	64.696
477.31	66.036
477.66	66.966
478.01	65.357
478.36	64.924
478.70	66.612
479.05	66.099
479.40	65.819
479.75	65.328
480.10	65.233
480.45	64.850
480.79	66.566
481.14	67.008
481.49	65.123
481.84	66.988
482.19	64.406
482.53	66.667
482.88	63.580
483.23	64.875
483.58	65.283
483.92	65.537
484.27	64.813
484.62	64.500
484.97	63.847
485.31	65.029
485.66	65.099
486.01	66.215
486.36	66.133
486.70	67.441
487.05	66.406
487.40	65.745
487.75	65.944
488.09	65.235
488.44	65.131
488.79	65.110
489.13	64.744
489.48	64.900
489.83	64.395
490.17	64.225
490.52	63.649
490.87	63.813
491.22	64.470
491.56	64.801
491.91	62.954
492.26	64.657
492.60	63.052
492.95	65.371
493.30	63.996
493.64	64.735
493.99	65.072
494.34	64.320
494.68	64.000
495.03	62.287
495.37	64.132
495.72	64.563
496.07	64.146
496.41	62.406
496.76	63.105
497.11	63.111
497.45	63.580
497.80	64.632
498.14	63.487
498.49	63.179
498.84	63.224
499.18	63.002
499.53	63.690
499.87	62.646
500.22	62.859
500.56	63.691
500.91	63.655
501.26	62.679
501.60	63.404
501.95	62.785
502.29	63.874
502.64	62.934
502.98	63.592
503.33	62.056
503.67	63.084
504.02	63.636
504.36	62.890
504.71	62.778
505.06	61.349
505.40	62.437
505.75	62.732
506.09	62.696
506.44	63.758
506.78	63.163
507.13	63.650
507.47	61.984
507.82	62.447
508.16	62.282
508.51	61.700
508.85	63.265
509.19	61.203
509.54	61.287
509.88	61.489
510.23	62.023
510.57	62.747
510.92	59.968
511.26	61.920
511.61	61.551
511.95	63.014
512.30	61.253
512.64	62.660
512.98	62.156
513.33	60.269
513.67	61.626
514.02	63.730
514.36	62.743
514.70	62.937
515.05	62.397
515.39	62.279
515.74	63.174
516.08	61.805
516.42	60.306
516.77	62.317
517.11	62.433
517.46	62.059
517.80	60.608
518.14	62.523
518.49	60.877
518.83	62.394
519.17	60.643
519.52	60.154
519.86	61.224
520.20	62.151
520.55	61.476
520.89	61.292
521.23	61.115
521.58	61.514
521.92	61.859
522.26	61.679
522.61	61.948
522.95	62.980
523.29	60.292
523.64	61.118
523.98	61.439
524.32	61.598
524.66	61.140
525.01	62.338
525.35	61.892
525.69	61.481
526.04	61.177
526.38	61.543
526.72	60.039
527.06	59.987
527.41	60.422
527.75	61.260
528.09	61.395
528.43	62.998
528.78	60.198
529.12	61.355
529.46	61.663
529.80	61.875
530.15	61.980
530.49	60.741
530.83	62.449
531.17	60.578
531.51	61.696
531.86	61.795
532.20	61.378
532.54	60.449
532.88	60.370
533.22	62.298
533.57	60.813
533.91	60.640
534.25	62.826
534.59	61.514
534.93	60.038
535.27	59.898
535.62	60.661
535.96	61.905
536.30	61.478
536.64	61.199
536.98	60.976
537.32	62.233
537.66	62.623
538.01	61.189
538.35	60.610
538.69	60.786
539.03	59.809
539.37	62.450
539.71	60.259
540.05	60.760
540.39	62.119
540.73	60.600
541.07	61.050
541.42	60.417
541.76	61.734
542.10	60.014
542.44	60.320
542.78	60.771
543.12	60.165
543.46	60.779
543.80	61.485
544.14	59.146
544.48	61.292
544.82	60.971
545.16	62.158
545.50	59.479
545.84	61.190
546.18	61.489
546.52	60.923
546.86	59.310
547.20	61.230
547.54	59.859
547.88	59.918
548.22	60.947
548.56	60.686
548.90	61.860
549.24	59.504
549.58	60.508
549.92	58.756
550.26	61.026
550.60	61.264
550.94	61.165
551.28	60.046
551.62	61.231
551.96	60.977
552.30	62.281
552.64	59.309
552.98	59.916
553.32	60.414
553.66	60.232
554.00	62.482
554.34	61.078
554.68	59.587
555.02	61.458
555.36	60.434
555.69	60.147
556.03	61.242
556.37	59.786
556.71	61.011
557.05	61.223
557.39	59.480
557.73	60.945
558.07	60.407
558.41	60.567
558.75	61.263
559.08	60.441
559.42	59.762
559.76	61.329
560.10	60.245
560.44	60.536
560.78	60.140
561.12	61.848
561.45	61.349
561.79	61.134
562.13	61.604
562.47	61.079
562.81	60.735
563.15	62.271
563.48	61.810
563.82	61.633
564.16	62.256
564.50	61.554
564.84	60.776
565.17	61.301
565.51	63.115
565.85	63.717
566.19	60.875
566.52	61.997
566.86	61.440
567.20	61.955
567.54	63.321
567.88	63.445
568.21	63.179
568.55	62.391
568.89	63.039
569.23	63.120
569.56	62.828
569.90	64.758
570.24	62.374
570.57	64.545
570.91	64.831
571.25	63.104
571.59	63.282
571.92	62.637
572.26	63.043
572.60	63.039
572.93	62.912
573.27	62.821
573.61	63.455
573.95	64.391
574.28	63.427
574.62	63.005
574.96	63.077
575.29	62.746
575.63	62.218
575.97	62.212
576.30	62.750
576.64	62.252
576.98	63.681
577.31	64.144
577.65	63.647
577.98	63.546
578.32	64.192
578.66	63.228
578.99	62.939
579.33	62.778
579.67	62.352
580.00	63.443
580.34	63.035
580.67	62.141
581.01	64.145
581.35	63.049
581.68	63.413
582.02	63.424
582.35	63.974
582.69	64.024
583.02	63.747
583.36	63.970
583.70	64.849
584.03	64.554
584.37	64.766
584.70	63.626
585.04	62.280
585.37	63.686
585.71	63.565
586.04	63.717
586.38	64.150
586.72	63.989
587.05	64.298
587.39	64.412
587.72	64.926
588.06	63.880
588.39	63.657
588.73	64.072
589.06	64.318
589.40	63.947
589.73	63.892
590.07	64.162
590.40	63.042
590.73	65.157
591.07	64.461
591.40	63.535
591.74	63.032
592.07	63.544
592.41	63.604
592.74	64.158
593.08	63.081
593.41	64.053
593.75	63.232
594.08	63.096
594.41	64.156
594.75	63.817
595.08	63.261
595.42	64.041
595.75	63.913
596.09	63.487
596.42	64.324
596.75	64.520
597.09	63.280
597.42	62.195
597.75	63.033
598.09	63.287
598.42	62.861
598.76	62.934
599.09	63.021
599.42	61.917
599.76	63.920
600.09	62.632
600.42	62.889
600.76	63.224
601.09	63.779
601.42	62.515
601.76	63.517
602.09	62.706
602.42	63.690
602.76	62.309
603.09	64.203
603.42	64.925
603.76	63.508
604.09	63.183
604.42	63.409
604.76	63.952
605.09	64.077
605.42	62.212
605.75	63.047
606.09	63.609
606.42	63.053
606.75	63.203
607.09	62.549
607.42	63.004
607.75	63.144
608.08	60.602
608.42	61.809
608.75	63.759
609.08	63.328
609.41	63.553
609.75	62.450
610.08	64.004
610.41	62.367
610.74	64.018
611.07	64.755
611.41	63.674
611.74	64.712
612.07	62.473
612.40	63.020
612.73	65.085
613.07	64.286
613.40	62.363
613.73	62.059
614.06	62.660
614.39	63.847
614.72	63.473
615.06	63.240
615.39	61.627
615.72	62.217
616.05	62.458
616.38	62.336
616.71	61.957
617.05	63.249
617.38	62.979
617.71	64.214
618.04	65.333
618.37	63.430
618.70	64.356
619.03	64.444
619.36	62.518
619.69	64.746
620.03	64.938
620.36	63.448
620.69	64.168
621.02	63.226
621.35	62.324
621.68	65.221
622.01	64.250
622.34	62.809
622.67	62.776
623.00	62.557
623.33	62.729
623.66	62.079
623.99	63.616
624.32	62.357
624.65	62.556
624.99	64.108
625.32	62.775
625.65	65.200
625.98	64.303
626.31	61.513
626.64	64.385
626.97	63.962
627.30	63.835
627.63	62.738
627.96	63.612
628.29	61.795
628.62	62.439
628.95	62.525
629.28	64.012
629.61	64.008
629.94	63.539
630.26	61.462
630.59	64.828
630.92	63.282
631.25	61.026
631.58	63.546
631.91	62.610
632.24	62.615
632.57	65.341
632.90	64.294
633.23	61.294
633.56	64.610
633.89	64.365
634.22	64.198
634.55	63.532
634.88	61.941
635.20	61.795
635.53	63.600
635.86	63.069
636.19	62.743
636.52	62.500
636.85	63.772
637.18	62.390
637.51	62.390
637.83	61.629
638.16	66.849
638.49	59.537
638.82	64.342
639.15	63.908
639.48	63.824
639.81	64.017
640.13	64.358
640.46	63.848
640.79	62.297
641.12	63.811
641.45	63.213
641.77	61.630
642.10	66.351
642.43	63.505
642.76	63.366
643.09	62.843
643.41	61.327
643.74	60.626
644.07	63.711
644.40	65.034
644.73	63.222
645.05	60.906
645.38	62.081
645.71	63.475
646.04	67.684
646.36	65.426
646.69	62.410
647.02	64.083
647.35	63.246
647.67	62.706
648.00	61.940
648.33	60.922
648.66	61.695
648.98	61.642
649.31	62.810
649.64	63.893
649.96	61.102
650.29	65.588
650.62	62.393
650.94	64.074
651.27	61.825
651.60	61.982
651.92	61.538
652.25	65.897
652.58	61.167
652.90	66.895
653.23	64.034
653.56	62.606
653.88	63.746
654.21	62.872
654.54	62.818
654.86	63.158
655.19	62.135
655.52	68.034
655.84	66.174
656.17	72.894
656.49	97.536
656.82	99.983
657.15	79.339
657.47	58.760
657.80	43.797
658.13	43.272
658.45	67.277
658.78	66.442
659.10	65.404
659.43	64.485
659.75	64.628
660.08	61.655
660.41	62.002
660.73	61.326
661.06	61.872
661.38	62.035
661.71	58.727
662.03	64.807
662.36	64.176
662.68	60.398
663.01	66.157
663.33	64.965
663.66	64.651
663.98	60.698
664.31	62.900
664.63	62.442
664.96	60.217
665.28	60.044
665.61	62.121
665.93	63.913
666.26	64.208
666.58	62.416
666.91	60.941
667.23	62.028
667.56	61.611
667.88	64.988
668.21	64.678
668.53	63.121
668.86	64.623
669.18	61.085
669.50	59.806
669.83	60.698
670.15	62.704
670.48	65.550
670.80	62.903
671.13	59.508
671.45	60.731
671.77	61.588
672.10	61.188
672.42	63.296
672.75	63.943
673.07	63.506
673.39	61.101
673.72	59.369
674.04	63.958
674.37	62.500
674.69	61.670
675.01	63.333
675.34	61.486
675.66	65.741
675.98	62.306
676.31	64.220
676.63	60.570
676.95	56.136
677.28	63.529
677.60	64.337
677.92	61.009
678.25	63.676
678.57	63.636
678.89	64.286
679.22	67.114
679.54	62.048
679.86	59.245
680.18	63.301
680.51	62.311
680.83	63.419
681.15	65.200
681.48	64.549
681.80	64.050
682.12	61.290
682.44	59.414
682.77	63.355
683.09	64.073
683.41	58.182
683.73	62.212
684.06	61.283
684.38	59.570
684.70	65.142
685.02	62.241
685.34	62.055
685.67	63.039
685.99	62.749
686.31	62.124
686.63	64.378
686.96	59.316
687.28	62.020
687.60	60.076
687.92	64.444
688.24	62.903
688.56	68.122
688.89	60.937
689.21	61.556
689.53	63.341
689.85	62.326
690.17	60.268
690.49	61.229
690.82	60.922
691.14	60.952
691.46	61.682
691.78	66.892
692.10	62.366
692.42	60.173
692.74	61.752
693.06	61.036
693.39	59.050
693.71	65.385
694.03	60.508
694.35	64.486
694.67	64.141
694.99	60.052
695.31	63.185
695.63	63.000
695.95	62.121
696.27	60.363
696.59	66.111
696.91	62.745
697.23	60.154
697.56	62.871
697.88	61.720
698.20	63.326
698.52	62.118
698.84	60.048
699.16	62.500
699.48	64.662
699.80	61.042
700.12	63.881
700.44	59.104
700.76	61.919
701.08	62.121
701.40	62.952
701.72	65.741
702.04	67.657
702.36	66.555
702.68	63.964
703.00	67.273
703.32	59.531
703.64	59.040
703.96	61.159
704.28	61.656
704.60	62.857
704.91	59.621
705.23	60.133
705.55	69.611
705.87	64.621
706.19	64.074
706.51	60.137
706.83	64.630
707.15	61.994
707.47	63.866
707.79	60.677
708.11	62.000
708.43	61.250
708.74	60.207
709.06	62.535
709.38	66.055
709.70	58.876
710.02	62.102
710.34	62.848
710.66	56.090
710.98	62.583
711.29	64.590
711.61	65.085
711.93	61.564
712.25	65.292
712.57	63.736
712.89	62.313
713.20	61.592
713.52	59.233
713.84	58.362
714.16	61.856
714.48	60.645
714.80	60.897
715.11	59.271
715.43	57.680
715.75	60.333
716.07	62.126
716.39	59.396
716.70	61.993
717.02	61.832
717.34	63.968
717.66	65.487
717.97	63.478
718.29	61.925
718.61	63.780
718.93	65.116
719.24	60.456
719.56	65.462
719.88	58.076
720.20	59.470
720.51	62.069
720.83	63.320
721.15	70.168
721.46	64.516
721.78	57.312
722.10	59.480
722.42	58.921
722.73	59.592
723.05	66.939
723.37	65.254
723.68	64.865
724.00	60.684
724.32	68.000
724.63	65.455
724.95	61.135
725.27	65.899
725.58	60.593
725.90	57.937
726.22	65.251
726.53	58.644
726.85	65.543
727.16	66.038
727.48	59.109
727.80	65.992
728.11	64.407
728.43	61.569
728.74	57.258
729.06	59.200
729.38	62.406
729.69	58.167
730.01	59.615
730.32	63.806
730.64	60.071
730.96	67.170
731.27	59.333
731.59	63.051
731.90	58.599
732.22	62.776
732.53	64.120
732.85	60.284
733.16	62.626
733.48	60.791
733.80	60.507
734.11	55.932
734.43	65.292
734.74	61.818
735.06	60.261
735.37	59.517
735.69	65.657
736.00	62.021
736.32	59.732
736.63	59.859
736.95	62.457
737.26	61.210
737.58	57.383
737.89	63.370
738.21	62.030
738.52	63.374
738.83	62.882
739.15	62.882
739.46	60.236
739.78	61.172
740.09	57.843
740.41	62.319
740.72	60.630
741.04	57.895
741.35	56.170
741.66	57.346
741.98	65.816
742.29	63.861
742.61	65.969
742.92	59.716
743.23	54.630
743.55	59.729
743.86	59.330
744.18	57.895
744.49	60.638
744.80	66.304
745.12	68.449
745.43	58.537
745.74	67.188
746.06	62.439
746.37	65.969
746.68	55.924
747.00	61.170
747.31	65.174
747.62	57.282
747.94	59.330
748.25	66.337
748.56	71.038
748.88	56.545
749.19	65.957
749.50	60.591
749.82	58.019
750.13	63.761
750.44	59.023
750.75	63.806
751.07	63.504
751.38	60.920
751.69	60.000
752.01	60.853
752.32	52.988
752.63	62.451
752.94	62.069
753.26	66.109
753.57	59.729
753.88	61.062
754.19	60.417
754.51	62.397
754.82	63.968
755.13	66.250
755.44	62.097
755.75	60.156
756.07	61.479
756.38	60.755
756.69	59.770
757.00	60.333
757.31	61.765
757.63	56.402
757.94	60.000
758.25	57.808
758.56	55.319
758.87	58.924
759.18	57.009
759.50	62.909
759.81	58.194
760.12	64.516
760.43	58.485
760.74	58.333
761.05	60.000
761.36	58.807
761.67	60.909
761.99	59.864
762.30	53.818
762.61	61.265
762.92	61.538
763.23	58.108
763.54	56.075
763.85	63.983
764.16	57.676
764.47	55.242
764.78	57.143
765.10	58.586
765.41	58.675
765.72	61.270
766.03	59.774
766.34	60.584
766.65	58.566
766.96	63.636
767.27	59.043
767.58	52.299
767.89	60.993
768.20	54.545
768.51	54.945
768.82	58.621
769.13	58.986
769.44	55.365
769.75	55.251
770.06	53.879
770.37	58.173
770.68	57.868
770.99	57.014
771.30	59.804
771.61	60.181
771.92	58.190
772.23	62.069
772.54	59.140
772.85	62.963
773.16	54.494
773.47	73.203
773.78	67.320
774.09	59.880
774.39	52.667
774.70	57.325
775.01	66.897
775.32	63.571
775.63	52.893
775.94	51.145
776.25	62.205
776.56	50.833
776.87	53.846
777.18	58.120
777.48	53.448
777.79	58.261
778.10	54.286
778.41	59.459
778.72	60.317
779.03	54.887
779.34	54.610
779.65	65.753
779.95	61.644
780.26	55.172
780.57	57.724
780.88	50.394
781.19	50.862
781.50	67.442
781.80	54.438
782.11	51.572
782.42	65.385
782.73	56.835
783.04	63.704
783.34	50.694
783.65	58.120
783.96	66.393
784.27	58.621
784.57	52.033
784.88	55.469
785.19	65.000
785.50	67.000
785.81	61.207
786.11	58.621
786.42	58.252
786.73	60.909
787.04	62.245
787.34	58.929
787.65	50.476
787.96	54.867
788.26	60.000
788.57	58.974
788.88	63.281
789.19	57.143
789.49	58.261
789.80	56.122
790.11	61.616
790.41	51.818
790.72	65.217
791.03	45.455
791.33	57.500
791.64	58.750
791.95	52.326
792.25	67.021
792.56	55.056
792.87	45.205
793.17	49.275
793.48	60.000
793.79	40.000
794.09	58.750
794.40	56.604
794.70	64.078
795.01	56.098
795.32	62.393
795.62	47.619
795.93	46.078
796.23	58.491
796.54	62.500
796.85	76.471
797.15	59.155
797.46	43.056
797.76	50.000
798.07	48.837
798.37	35.526
798.68	50.000
798.99	39.506
799.29	62.857
799.60	49.275
799.90	61.333
800.21	68.852
800.51	61.538
800.82	54.237
801.12	47.826
801.43	50.820
801.73	58.730
802.04	40.000
802.34	38.806
802.65	92.308
802.95	39.286
803.26	50.000
803.56	50.980
803.87	36.957
804.17	53.333
804.48	60.317
804.78	35.185
805.09	52.174
805.39	71.111
805.70	46.296
806.00	33.333
806.30	49.296
806.61	60.000
806.91	50.000
807.22	67.105
807.52	81.333
807.83	45.455
808.13	56.944
808.43	50.000
808.74	55.224
809.04	59.322
809.35	82.692
809.65	48.438
809.95	40.541
810.26	31.818
810.56	39.726
810.86	78.571
811.17	42.000
811.47	75.510
811.77	63.158
812.08	47.727
812.38	39.623
812.69	42.500
812.99	42.424
813.29	55.263
813.59	37.143
813.90	50.000
814.20	58.974
814.50	51.923
814.81	52.830
815.11	53.191
815.41	81.356
815.72	61.905
816.02	56.863
816.32	47.917
816.62	65.854
816.93	29.730
817.23	28.571
817.53	52.083
817.84	34.783
818.14	44.231
818.44	31.579
818.74	45.652
819.04	0.000
819.35	37.838
819.65	70.588
819.95	58.333
820.25	52.381
820.56	57.500
820.86	0.000
821.16	65.000
821.46	74.468
821.76	60.000
822.07	46.512
822.37	21.622
822.67	43.750
822.97	23.810
823.27	25.000
823.57	60.000
823.88	55.556
824.18	85.714
824.48	61.765
824.78	54.839
825.08	43.478
825.38	63.636
825.69	8.333
825.99	39.474
826.29	33.333
826.59	133.333
826.89	19.048
827.19	63.043
827.49	32.500
827.79	65.714
828.09	82.143
828.39	93.939
828.70	67.568
829.00	39.286
829.30	57.143
829.60	76.667
829.90	50.000
830.20	21.053
830.50	48.148
830.80	91.304
831.10	50.000
831.40	60.606
831.70	54.839
832.00	61.905
832.30	-9.524
832.60	16.667
832.90	58.621
833.20	0.000
833.50	39.394
833.80	88.889
834.10	34.615
834.40	40.625
834.70	66.667
835.00	94.737
835.30	92.308
835.60	80.000
835.90	35.484
836.20	72.727
836.50	64.286
836.80	3.846
837.10	42.857
837.40	100.000
837.70	90.909
838.00	63.636
838.30	34.783
838.60	138.462
838.90	22.727
839.19	46.429
839.49	20.000
839.79	30.769
840.09	-33.333
840.39	57.143
840.69	0.000
840.99	50.000
841.29	-42.105
841.59	-40.000
841.88	81.818
842.18	120.000
842.48	62.500
842.78	86.667
843.08	18.519
843.38	-90.000
843.68	43.478
843.97	100.000
844.27	13.333
844.57	20.000
844.87	22.222
845.17	28.571
845.47	40.000
845.76	-42.857
846.06	11.765
846.36	60.000
846.66	85.714
846.96	60.000
847.25	-12.500
847.55	121.429
847.85	62.500
848.15	-13.636
848.44	-66.667
848.74	50.000
849.04	51.852
849.34	27.273
849.63	116.667
849.93	40.000
850.23	-27.778
850.53	130.000
850.82	30.769
851.12	-22.222
851.42	0.000
851.71	38.462
852.01	114.286
852.31	150.000
852.61	27.273
852.90	0.000
853.20	42.105
853.50	8.333
853.79	73.913
854.09	45.833
854.39	73.684
854.68	50.000
854.98	35.484
855.28	73.077
855.57	30.000
855.87	100.000
856.17	77.778
856.46	28.571
856.76	-20.000
857.05	122.222
857.35	48.000
857.65	55.556
857.94	46.154
858.24	65.517
858.53	50.000
858.83	81.481
859.13	40.909
859.42	39.130
859.72	250.000
860.01	33.333
860.31	20.000
860.60	28.571
860.90	-166.667
861.20	-20.000
861.49	-150.000
861.79	33.333
862.08	-10.000
862.38	93.333
862.67	40.000
862.97	166.667
863.26	50.000
863.56	66.667
863.85	-200.000
864.15	50.000
864.44	20.000
864.74	78.571
865.03	-75.000
865.33	20.000
865.62	100.000
865.92	8.333
866.21	-16.667
866.51	68.750
866.80	-18.182
867.10	0.000
867.39	100.000
867.69	0.000
867.98	15.385
868.27	-33.333
868.57	46.667
868.86	50.000
869.16	15.385
869.45	46.667
869.75	-200.000
870.04	0.000
870.33	-85.714
870.63	61.905
870.92	133.333
871.22	-60.000
871.51	-600.000
871.80	155.556
872.10	200.000
>>>>>End Processed Spectral Data<<<<<
