SpectraSuite Data File
++++++++++++++++++++++++++++++++++++
Date: Fri May 15 17:33:09 PDT 2015
User: schluterlab
Dark Spectrum Present: Yes
Reference Spectrum Present: Yes
Number of Sampled Component Spectra: 1
Spectrometers: USB2E3373
Integration Time (usec): 3000 (USB2E3373)
Spectra Averaged: 3 (USB2E3373)
Boxcar Smoothing: 0 (USB2E3373)
Correct for Electrical Dark: No (USB2E3373)
Strobe/Lamp Enabled: No (USB2E3373)
Correct for Detector Non-linearity: No (USB2E3373)
Correct for Stray Light: No (USB2E3373)
Number of Pixels in Processed Spectrum: 2048
>>>>>Begin Processed Spectral Data<<<<<
178.53	0.000
178.91	0.000
179.29	75.000
179.67	-100.000
180.04	-114.286
180.42	50.000
180.80	200.000
181.18	-100.000
181.56	-100.000
181.94	200.000
182.31	-900.000
182.69	60.000
183.07	-266.667
183.45	-100.000
183.83	-16.667
184.20	54.545
184.58	122.222
184.96	-150.000
185.34	-166.667
185.72	-100.000
186.09	76.923
186.47	-500.000
186.85	66.667
187.23	100.000
187.61	400.000
187.98	33.333
188.36	66.667
188.74	-100.000
189.12	17.647
189.49	61.111
189.87	0.000
190.25	50.000
190.63	400.000
191.00	-66.667
191.38	84.211
191.76	50.000
192.14	-150.000
192.51	350.000
192.89	-33.333
193.27	0.000
193.65	66.667
194.02	45.455
194.40	-60.000
194.78	62.500
195.15	-16.667
195.53	100.000
195.91	150.000
196.29	-125.000
196.66	38.462
197.04	57.143
197.42	11.111
197.79	-200.000
198.17	-84.615
198.55	1400.000
198.92	-66.667
199.30	200.000
199.68	-60.000
200.05	-66.667
200.43	0.000
200.81	200.000
201.18	-33.333
201.56	500.000
201.94	-400.000
202.31	-166.667
202.69	-160.000
203.07	150.000
203.44	1700.000
203.82	0.000
204.19	42.857
204.57	-300.000
204.95	62.500
205.32	80.000
205.70	0.000
206.08	25.000
206.45	222.222
206.83	92.857
207.20	57.143
207.58	-400.000
207.96	0.000
208.33	-50.000
208.71	0.000
209.08	50.000
209.46	-800.000
209.84	-80.000
210.21	-700.000
210.59	200.000
210.96	16.667
211.34	75.000
211.71	-6.667
212.09	57.143
212.46	-500.000
212.84	0.000
213.22	110.000
213.59	450.000
213.97	38.462
214.34	0.000
214.72	83.333
215.09	150.000
215.47	0.000
215.84	-18.182
216.22	-233.333
216.59	-125.000
216.97	250.000
217.34	125.000
217.72	-40.000
218.09	25.000
218.47	162.500
218.84	400.000
219.22	22.222
219.59	-20.000
219.97	100.000
220.34	-25.000
220.72	157.143
221.09	175.000
221.47	400.000
221.84	-300.000
222.22	-750.000
222.59	90.909
222.97	108.333
223.34	-100.000
223.72	14.286
224.09	33.333
224.46	14.286
224.84	333.333
225.21	-10.000
225.59	33.333
225.96	0.000
226.34	275.000
226.71	-128.571
227.08	-116.667
227.46	25.000
227.83	0.000
228.21	22.222
228.58	136.364
228.95	-12.500
229.33	60.000
229.70	18.750
230.08	-25.000
230.45	-142.857
230.82	71.429
231.20	-20.000
231.57	7.143
231.95	-28.571
232.32	-60.000
232.69	100.000
233.07	100.000
233.44	80.000
233.81	-60.000
234.19	22.222
234.56	0.000
234.93	50.000
235.31	-25.000
235.68	-300.000
236.05	15.385
236.43	-75.000
236.80	-11.765
237.17	21.875
237.55	10.000
237.92	-18.519
238.29	0.000
238.67	46.667
239.04	29.412
239.41	-12.195
239.79	20.000
240.16	0.000
240.53	-10.526
240.91	-10.870
241.28	7.937
241.65	28.571
242.02	16.438
242.40	16.667
242.77	10.169
243.14	4.545
243.51	-3.750
243.89	18.391
244.26	5.747
244.63	8.333
245.00	8.247
245.38	15.464
245.75	4.494
246.12	12.069
246.49	14.050
246.87	7.692
247.24	8.403
247.61	7.018
247.98	12.195
248.36	6.875
248.73	4.605
249.10	5.195
249.47	16.456
249.84	6.536
250.22	12.941
250.59	3.922
250.96	15.962
251.33	9.884
251.70	7.059
252.08	3.553
252.45	11.386
252.82	11.558
253.19	11.521
253.56	6.075
253.94	13.063
254.31	10.000
254.68	7.456
255.05	8.661
255.42	8.734
255.79	13.127
256.16	11.673
256.54	11.194
256.91	7.605
257.28	8.178
257.65	7.116
258.02	10.284
258.39	10.774
258.76	9.890
259.14	11.960
259.51	13.269
259.88	9.966
260.25	7.190
260.62	10.069
260.99	5.763
261.36	10.274
261.73	5.063
262.10	8.207
262.47	8.896
262.85	5.956
263.22	10.462
263.59	8.723
263.96	10.248
264.33	11.818
264.70	10.417
265.07	8.631
265.44	8.782
265.81	7.627
266.18	7.104
266.55	11.825
266.92	9.067
267.29	11.488
267.66	10.230
268.03	9.162
268.40	7.833
268.77	9.893
269.14	8.153
269.51	10.283
269.88	8.728
270.25	9.184
270.62	6.098
270.99	8.184
271.36	9.046
271.73	8.920
272.10	9.732
272.47	9.929
272.84	8.416
273.21	9.513
273.58	10.602
273.95	10.297
274.32	9.007
274.69	9.502
275.06	10.714
275.43	10.884
275.80	10.596
276.17	9.655
276.54	7.709
276.91	9.649
277.28	6.987
277.65	10.124
278.02	7.872
278.39	7.659
278.76	9.434
279.13	6.639
279.50	9.454
279.87	10.151
280.23	7.527
280.60	8.967
280.97	8.687
281.34	8.654
281.71	8.624
282.08	5.930
282.45	7.241
282.82	9.266
283.19	8.704
283.56	10.212
283.92	8.539
284.29	8.846
284.66	8.527
285.03	12.181
285.40	8.885
285.77	6.678
286.14	7.942
286.51	9.041
286.87	10.238
287.24	9.208
287.61	7.937
287.98	8.421
288.35	6.759
288.72	11.909
289.08	7.118
289.45	9.315
289.82	9.091
290.19	7.509
290.56	5.660
290.93	8.249
291.29	7.550
291.66	9.449
292.03	7.974
292.40	8.065
292.77	8.612
293.13	5.682
293.50	5.615
293.87	7.939
294.24	8.037
294.60	7.303
294.97	7.292
295.34	6.442
295.71	6.706
296.08	5.979
296.44	4.836
296.81	6.528
297.18	8.551
297.55	9.485
297.91	7.671
298.28	7.124
298.65	7.598
299.02	8.221
299.38	4.925
299.75	5.931
300.12	6.021
300.48	6.851
300.85	6.337
301.22	6.494
301.59	5.526
301.95	7.468
302.32	6.744
302.69	6.343
303.05	6.064
303.42	6.849
303.79	6.893
304.15	7.527
304.52	6.064
304.89	6.199
305.25	6.659
305.62	5.834
305.99	6.550
306.35	6.936
306.72	5.174
307.09	6.727
307.45	7.348
307.82	5.671
308.19	5.807
308.55	5.780
308.92	6.972
309.29	5.810
309.65	6.243
310.02	6.051
310.38	6.147
310.75	6.448
311.12	5.597
311.48	5.302
311.85	6.597
312.22	6.857
312.58	6.476
312.95	5.656
313.31	7.143
313.68	4.503
314.05	6.224
314.41	6.186
314.78	5.670
315.14	6.578
315.51	7.557
315.87	5.328
316.24	7.381
316.61	7.283
316.97	5.952
317.34	5.469
317.70	6.214
318.07	7.308
318.43	7.549
318.80	5.966
319.16	6.641
319.53	7.217
319.89	6.496
320.26	7.794
320.62	6.018
320.99	4.697
321.35	6.475
321.72	7.061
322.08	6.647
322.45	6.701
322.81	6.778
323.18	6.281
323.54	6.274
323.91	6.329
324.27	7.715
324.64	7.491
325.00	7.938
325.37	8.081
325.73	7.525
326.10	8.538
326.46	8.161
326.83	8.836
327.19	8.370
327.56	8.341
327.92	9.243
328.29	7.857
328.65	8.679
329.01	8.915
329.38	9.217
329.74	9.821
330.11	9.082
330.47	9.833
330.84	9.423
331.20	12.072
331.56	10.463
331.93	11.050
332.29	11.641
332.66	11.403
333.02	11.059
333.38	11.091
333.75	12.179
334.11	11.549
334.48	13.146
334.84	11.264
335.20	12.717
335.57	12.693
335.93	14.002
336.29	12.431
336.66	12.352
337.02	12.454
337.38	12.500
337.75	12.909
338.11	14.337
338.47	14.234
338.84	13.309
339.20	12.980
339.56	14.404
339.93	15.130
340.29	13.853
340.65	15.233
341.02	13.830
341.38	13.097
341.74	13.693
342.11	13.778
342.47	14.591
342.83	15.657
343.20	14.373
343.56	14.783
343.92	14.792
344.28	14.859
344.65	15.112
345.01	14.607
345.37	14.634
345.73	15.816
346.10	15.186
346.46	14.634
346.82	15.303
347.19	15.212
347.55	15.622
347.91	16.100
348.27	15.926
348.63	16.865
349.00	14.766
349.36	15.628
349.72	16.584
350.08	16.721
350.45	16.042
350.81	15.781
351.17	14.577
351.53	15.592
351.89	15.690
352.26	16.080
352.62	16.935
352.98	14.378
353.34	16.184
353.70	17.071
354.07	17.097
354.43	16.173
354.79	16.350
355.15	17.381
355.51	16.377
355.87	16.748
356.24	15.987
356.60	15.036
356.96	17.619
357.32	16.773
357.68	16.185
358.04	16.882
358.40	16.720
358.77	16.587
359.13	16.733
359.49	16.256
359.85	16.225
360.21	16.587
360.57	16.603
360.93	17.247
361.29	16.465
361.66	17.947
362.02	18.485
362.38	17.593
362.74	17.638
363.10	17.532
363.46	18.384
363.82	18.332
364.18	17.343
364.54	17.794
364.90	18.208
365.26	18.049
365.62	18.905
365.98	17.815
366.35	18.937
366.71	18.773
367.07	19.376
367.43	18.404
367.79	19.364
368.15	19.239
368.51	19.592
368.87	17.875
369.23	18.700
369.59	19.534
369.95	18.768
370.31	19.003
370.67	19.104
371.03	19.343
371.39	18.891
371.75	19.194
372.11	19.686
372.47	20.192
372.83	21.150
373.19	20.970
373.55	20.217
373.91	20.086
374.27	20.411
374.63	20.890
374.99	21.348
375.35	19.638
375.71	21.049
376.07	20.365
376.42	20.544
376.78	21.409
377.14	21.598
377.50	21.182
377.86	20.817
378.22	21.634
378.58	22.244
378.94	20.983
379.30	21.772
379.66	21.881
380.02	22.502
380.38	21.302
380.74	21.604
381.09	22.270
381.45	21.468
381.81	21.777
382.17	22.779
382.53	22.236
382.89	22.599
383.25	23.584
383.61	22.500
383.97	22.730
384.32	22.764
384.68	22.786
385.04	23.162
385.40	23.584
385.76	23.899
386.12	23.933
386.48	24.266
386.83	22.701
387.19	23.810
387.55	24.718
387.91	23.778
388.27	23.871
388.62	24.229
388.98	23.941
389.34	23.735
389.70	25.606
390.06	23.537
390.42	24.352
390.77	24.133
391.13	24.338
391.49	25.226
391.85	24.951
392.20	24.796
392.56	24.539
392.92	25.073
393.28	24.292
393.64	24.324
393.99	25.893
394.35	23.846
394.71	25.734
395.07	24.324
395.42	24.044
395.78	23.974
396.14	24.401
396.50	25.555
396.85	23.696
397.21	25.063
397.57	25.141
397.92	24.805
398.28	25.345
398.64	24.217
399.00	24.605
399.35	23.758
399.71	24.928
400.07	24.728
400.42	25.031
400.78	24.679
401.14	24.682
401.49	24.836
401.85	24.314
402.21	25.602
402.57	25.562
402.92	23.588
403.28	25.063
403.63	24.716
403.99	24.617
404.35	25.297
404.70	24.048
405.06	23.796
405.42	24.736
405.77	23.765
406.13	24.389
406.49	23.683
406.84	24.083
407.20	24.503
407.55	23.632
407.91	23.864
408.27	23.901
408.62	24.677
408.98	23.845
409.34	24.473
409.69	23.643
410.05	23.399
410.40	24.321
410.76	24.487
411.11	24.000
411.47	24.260
411.83	24.168
412.18	23.938
412.54	24.095
412.89	23.153
413.25	24.368
413.60	24.037
413.96	24.908
414.31	24.085
414.67	23.926
415.03	24.168
415.38	24.347
415.74	24.886
416.09	25.604
416.45	24.781
416.80	24.851
417.16	24.655
417.51	25.983
417.87	24.381
418.22	24.870
418.58	25.552
418.93	25.768
419.29	24.712
419.64	25.988
420.00	27.582
420.35	25.612
420.71	26.124
421.06	26.028
421.42	26.382
421.77	26.474
422.12	26.107
422.48	25.717
422.83	26.392
423.19	27.370
423.54	25.926
423.90	26.737
424.25	26.808
424.61	26.989
424.96	26.945
425.31	28.076
425.67	27.465
426.02	28.269
426.38	27.990
426.73	28.511
427.09	29.241
427.44	28.529
427.79	28.167
428.15	28.459
428.50	28.892
428.85	28.010
429.21	29.145
429.56	29.488
429.92	28.916
430.27	27.820
430.62	28.698
430.98	28.981
431.33	29.075
431.68	28.938
432.04	29.625
432.39	29.207
432.74	29.345
433.10	30.747
433.45	30.406
433.80	30.354
434.16	30.139
434.51	30.108
434.86	30.894
435.22	32.025
435.57	30.381
435.92	31.617
436.28	30.710
436.63	31.318
436.98	31.692
437.34	31.518
437.69	31.902
438.04	31.453
438.39	31.582
438.75	33.333
439.10	33.050
439.45	32.806
439.81	32.599
440.16	33.195
440.51	32.896
440.86	34.924
441.22	32.296
441.57	33.664
441.92	33.841
442.27	33.869
442.63	33.779
442.98	33.774
443.33	33.333
443.68	33.103
444.03	34.029
444.39	33.694
444.74	35.173
445.09	34.744
445.44	34.245
445.79	35.121
446.15	34.251
446.50	34.498
446.85	34.910
447.20	34.619
447.55	35.770
447.91	34.518
448.26	35.970
448.61	35.003
448.96	35.341
449.31	35.723
449.66	35.308
450.02	34.969
450.37	36.515
450.72	35.510
451.07	37.278
451.42	35.081
451.77	36.287
452.12	34.868
452.47	35.287
452.83	36.101
453.18	36.243
453.53	36.979
453.88	36.430
454.23	36.755
454.58	37.783
454.93	36.662
455.28	36.000
455.63	36.764
455.98	36.801
456.34	37.676
456.69	36.658
457.04	38.059
457.39	36.877
457.74	36.699
458.09	36.610
458.44	36.981
458.79	36.527
459.14	37.471
459.49	37.970
459.84	37.563
460.19	36.954
460.54	37.775
460.89	37.614
461.24	37.764
461.59	37.352
461.94	36.604
462.29	37.756
462.64	38.605
462.99	36.899
463.34	37.065
463.69	36.873
464.04	37.288
464.39	37.841
464.74	37.362
465.09	38.303
465.44	37.853
465.79	37.585
466.14	38.198
466.49	37.378
466.84	38.311
467.19	38.486
467.54	37.739
467.89	37.081
468.24	37.835
468.59	38.730
468.94	38.095
469.29	38.623
469.64	38.209
469.99	40.364
470.34	38.157
470.68	39.597
471.03	39.774
471.38	39.729
471.73	39.146
472.08	39.349
472.43	38.859
472.78	38.108
473.13	39.728
473.48	39.283
473.83	39.601
474.17	39.637
474.52	39.119
474.87	39.939
475.22	38.926
475.57	39.356
475.92	39.440
476.27	40.221
476.61	39.120
476.96	38.316
477.31	40.725
477.66	39.101
478.01	39.753
478.36	38.943
478.70	39.913
479.05	40.440
479.40	39.534
479.75	39.051
480.10	38.966
480.45	39.450
480.79	40.433
481.14	41.035
481.49	39.163
481.84	39.431
482.19	39.804
482.53	40.432
482.88	39.189
483.23	39.683
483.58	39.198
483.92	40.271
484.27	39.471
484.62	39.265
484.97	39.303
485.31	39.632
485.66	37.775
486.01	38.244
486.36	37.907
486.70	38.414
487.05	38.329
487.40	37.927
487.75	38.930
488.09	38.443
488.44	39.133
488.79	40.120
489.13	40.345
489.48	39.932
489.83	39.507
490.17	39.910
490.52	40.092
490.87	40.213
491.22	40.640
491.56	40.228
491.91	40.392
492.26	41.760
492.60	40.211
492.95	41.859
493.30	39.814
493.64	41.847
493.99	41.014
494.34	40.728
494.68	41.143
495.03	40.243
495.37	41.168
495.72	41.343
496.07	40.585
496.41	40.991
496.76	41.087
497.11	40.661
497.45	41.337
497.80	41.372
498.14	41.182
498.49	40.884
498.84	41.417
499.18	42.319
499.53	41.915
499.87	40.516
500.22	41.147
500.56	42.158
500.91	41.365
501.26	41.819
501.60	41.515
501.95	40.902
502.29	41.985
502.64	41.651
502.98	42.526
503.33	41.210
503.67	42.169
504.02	42.082
504.36	41.514
504.71	41.768
505.06	41.520
505.40	42.335
505.75	43.041
506.09	41.054
506.44	43.326
506.78	43.010
507.13	41.986
507.47	42.768
507.82	42.361
508.16	42.261
508.51	43.494
508.85	42.177
509.19	43.002
509.54	42.681
509.88	42.557
510.23	42.550
510.57	43.132
510.92	43.070
511.26	43.372
511.61	44.059
511.95	43.726
512.30	42.239
512.64	43.072
512.98	42.729
513.33	43.816
513.67	43.377
514.02	44.622
514.36	44.514
514.70	45.163
515.05	44.771
515.39	44.392
515.74	45.210
516.08	44.411
516.42	45.230
516.77	44.295
517.11	44.629
517.46	45.422
517.80	44.458
518.14	45.438
518.49	43.089
518.83	45.747
519.17	44.209
519.52	43.872
519.86	45.138
520.20	45.018
520.55	45.028
520.89	46.550
521.23	45.725
521.58	46.309
521.92	45.897
522.26	46.129
522.61	47.597
522.95	47.417
523.29	45.934
523.64	45.044
523.98	46.662
524.32	46.005
524.66	46.479
525.01	46.494
525.35	46.662
525.69	45.051
526.04	45.569
526.38	47.665
526.72	46.174
527.06	45.655
527.41	45.976
527.75	46.649
528.09	46.379
528.43	47.198
528.78	46.667
529.12	47.871
529.46	46.264
529.80	46.675
530.15	47.525
530.49	47.003
530.83	48.222
531.17	47.213
531.51	47.538
531.86	46.975
532.20	47.390
532.54	48.604
532.88	47.775
533.22	46.438
533.57	46.723
533.91	46.540
534.25	47.917
534.59	45.606
534.93	46.004
535.27	45.114
535.62	46.338
535.96	48.858
536.30	47.823
536.64	47.002
536.98	47.038
537.32	48.293
537.66	48.387
538.01	48.042
538.35	46.463
538.69	47.670
539.03	47.779
539.37	46.231
539.71	47.376
540.05	46.368
540.39	47.853
540.73	47.420
541.07	47.376
541.42	46.976
541.76	48.933
542.10	48.245
542.44	47.741
542.78	45.354
543.12	49.245
543.46	48.470
543.80	49.618
544.14	46.395
544.48	47.968
544.82	48.667
545.16	48.839
545.50	46.462
545.84	49.575
546.18	48.156
546.52	48.738
546.86	49.029
547.20	49.142
547.54	46.926
547.88	47.486
548.22	46.877
548.56	47.691
548.90	48.046
549.24	48.140
549.58	48.025
549.92	47.677
550.26	47.766
550.60	49.591
550.94	48.394
551.28	48.532
551.62	49.385
551.96	49.173
552.30	48.465
552.64	48.166
552.98	47.890
553.32	48.217
553.66	49.202
554.00	49.562
554.34	49.261
554.68	47.788
555.02	50.149
555.36	48.467
555.69	48.864
556.03	48.822
556.37	48.683
556.71	48.953
557.05	50.261
557.39	49.517
557.73	50.225
558.07	50.905
558.41	50.153
558.75	51.286
559.08	50.906
559.42	50.873
559.76	50.120
560.10	49.006
560.44	50.112
560.78	49.860
561.12	49.506
561.45	49.895
561.79	49.160
562.13	51.100
562.47	49.568
562.81	50.072
563.15	50.000
563.48	50.778
563.82	49.760
564.16	50.696
564.50	50.541
564.84	49.665
565.17	49.027
565.51	51.434
565.85	50.412
566.19	50.133
566.52	50.737
566.86	51.542
567.20	50.311
567.54	49.939
567.88	50.322
568.21	50.226
568.55	49.891
568.89	50.205
569.23	49.976
569.56	48.380
569.90	49.574
570.24	47.451
570.57	48.545
570.91	47.543
571.25	47.123
571.59	46.247
571.92	46.044
572.26	46.467
572.60	47.008
572.93	46.533
573.27	46.050
573.61	46.390
573.95	46.068
574.28	46.637
574.62	46.148
574.96	45.625
575.29	45.785
575.63	44.856
575.97	45.758
576.30	46.134
576.64	45.987
576.98	47.053
577.31	46.228
577.65	45.803
577.98	46.767
578.32	46.194
578.66	45.798
578.99	45.414
579.33	45.841
579.67	45.445
580.00	46.051
580.34	46.045
580.67	46.167
581.01	46.950
581.35	45.801
581.68	46.546
582.02	45.990
582.35	46.332
582.69	46.182
583.02	46.699
583.36	46.581
583.70	46.781
584.03	48.596
584.37	47.995
584.70	47.225
585.04	47.098
585.37	46.830
585.71	46.951
586.04	47.201
586.38	47.186
586.72	48.121
587.05	48.382
587.39	47.694
587.72	48.032
588.06	47.910
588.39	47.764
588.73	48.382
589.06	49.282
589.40	48.877
589.73	49.471
590.07	49.358
590.40	49.226
590.73	50.824
591.07	50.212
591.40	50.178
591.74	49.638
592.07	50.742
592.41	50.133
592.74	49.303
593.08	48.131
593.41	48.764
593.75	48.871
594.08	47.923
594.41	48.908
594.75	50.115
595.08	49.527
595.42	50.276
595.75	50.958
596.09	50.704
596.42	50.434
596.75	50.977
597.09	50.615
597.42	50.542
597.75	51.764
598.09	50.249
598.42	50.316
598.76	49.635
599.09	49.760
599.42	49.072
599.76	49.699
600.09	49.774
600.42	49.128
600.76	48.848
601.09	49.122
601.42	50.529
601.76	49.464
602.09	50.578
602.42	50.758
602.76	50.552
603.09	50.457
603.42	51.923
603.76	50.645
604.09	50.790
604.42	50.296
604.76	51.046
605.09	51.463
605.42	50.339
605.75	50.350
606.09	50.064
606.42	49.917
606.75	49.221
607.09	51.253
607.42	50.111
607.75	50.533
608.08	50.764
608.42	50.480
608.75	51.133
609.08	51.669
609.41	51.726
609.75	51.815
610.08	51.623
610.41	51.401
610.74	51.731
611.07	53.075
611.41	52.984
611.74	53.518
612.07	52.463
612.40	52.516
612.73	53.164
613.07	53.150
613.40	52.626
613.73	52.658
614.06	52.365
614.39	53.130
614.72	51.933
615.06	52.402
615.39	51.692
615.72	51.615
616.05	52.402
616.38	51.624
616.71	53.028
617.05	53.922
617.38	53.174
617.71	53.962
618.04	54.222
618.37	54.414
618.70	55.842
619.03	56.319
619.36	54.848
619.69	56.482
620.03	56.172
620.36	54.864
620.69	54.818
621.02	54.893
621.35	56.349
621.68	57.313
622.01	57.583
622.34	56.903
622.67	55.126
623.00	56.202
623.33	56.860
623.66	55.348
623.99	54.539
624.32	54.829
624.65	54.887
624.99	55.831
625.32	55.724
625.65	56.559
625.98	57.293
626.31	55.943
626.64	57.886
626.97	56.806
627.30	59.982
627.63	57.626
627.96	57.053
628.29	56.614
628.62	57.424
628.95	58.216
629.28	60.383
629.61	59.621
629.94	59.140
630.26	59.684
630.59	58.585
630.92	58.872
631.25	56.718
631.58	60.242
631.91	60.088
632.24	61.124
632.57	61.477
632.90	61.447
633.23	60.471
633.56	62.469
633.89	62.022
634.22	63.951
634.55	61.881
634.88	61.303
635.20	60.769
635.53	64.800
635.86	61.118
636.19	61.449
636.52	61.990
636.85	62.407
637.18	60.881
637.51	60.881
637.83	59.921
638.16	65.484
638.49	61.308
638.82	63.026
639.15	63.501
639.48	61.210
639.81	62.343
640.13	65.368
640.46	64.723
640.79	61.856
641.12	62.186
641.45	62.613
641.77	64.444
642.10	64.297
642.43	65.273
642.76	61.716
643.09	65.428
643.41	63.269
643.74	62.438
644.07	65.189
644.40	63.682
644.73	66.550
645.05	62.919
645.38	66.843
645.71	66.135
646.04	67.325
646.36	67.730
646.69	66.547
647.02	65.784
647.35	65.672
647.67	61.609
648.00	67.910
648.33	62.969
648.66	66.102
648.98	65.494
649.31	63.636
649.64	63.893
649.96	61.264
650.29	63.714
650.62	64.957
650.94	66.667
651.27	67.412
651.60	63.063
651.92	65.559
652.25	63.588
652.58	63.833
652.90	66.724
653.23	64.034
653.56	63.452
653.88	66.323
654.21	62.872
654.54	65.025
654.86	66.553
655.19	63.743
655.52	59.365
655.84	51.932
656.17	57.515
656.49	77.268
656.82	80.196
657.15	61.046
657.47	45.882
657.80	34.577
658.13	34.115
658.45	52.218
658.78	53.089
659.10	52.497
659.43	53.743
659.75	55.895
660.08	55.310
660.41	59.448
660.73	60.912
661.06	62.218
661.38	64.775
661.71	63.655
662.03	69.099
662.36	67.253
662.68	67.257
663.01	69.651
663.33	68.213
663.66	63.721
663.98	66.512
664.31	67.804
664.63	65.899
664.96	61.304
665.28	66.004
665.61	67.316
665.93	64.130
666.26	68.330
666.58	67.114
666.91	70.353
667.23	69.575
667.56	68.246
667.88	64.269
668.21	69.928
668.53	69.031
668.86	68.632
669.18	66.981
669.50	67.070
669.83	65.116
670.15	65.734
670.48	69.139
670.80	69.124
671.13	62.640
671.45	62.100
671.77	66.953
672.10	65.545
672.42	64.232
672.75	63.766
673.07	64.222
673.39	64.404
673.72	59.566
674.04	65.417
674.37	68.432
674.69	65.525
675.01	65.778
675.34	66.667
675.66	70.139
675.98	63.415
676.31	65.826
676.63	68.409
676.95	66.818
677.28	67.765
677.60	67.470
677.92	66.743
678.25	68.271
678.57	64.502
678.89	67.437
679.22	67.562
679.54	63.454
679.86	65.010
680.18	66.602
680.51	64.773
680.83	62.227
681.15	63.800
681.48	67.008
681.80	67.149
682.12	62.097
682.44	63.389
682.77	66.004
683.09	65.217
683.41	62.273
683.73	64.286
684.06	64.823
684.38	60.860
684.70	67.974
685.02	61.618
685.34	63.636
685.67	63.227
685.99	64.738
686.31	62.124
686.63	64.007
686.96	62.167
687.28	59.394
687.60	62.928
687.92	66.667
688.24	64.113
688.56	63.974
688.89	62.054
689.21	64.000
689.53	64.501
689.85	65.814
690.17	65.179
690.49	65.721
690.82	68.689
691.14	65.476
691.46	68.458
691.78	64.414
692.10	64.086
692.42	65.368
692.74	63.889
693.06	61.036
693.39	63.122
693.71	62.896
694.03	64.434
694.35	67.757
694.67	65.657
694.99	66.580
695.31	66.057
695.63	65.250
695.95	57.576
696.27	63.731
696.59	66.389
696.91	67.227
697.23	65.039
697.56	66.337
697.88	63.011
698.20	65.148
698.52	63.765
698.84	62.919
699.16	66.000
699.48	66.165
699.80	62.779
700.12	69.003
700.44	68.347
700.76	63.372
701.08	66.667
701.40	66.265
701.72	71.296
702.04	74.587
702.36	78.261
702.68	68.168
703.00	69.697
703.32	66.276
703.64	63.842
703.96	64.928
704.28	64.724
704.60	67.619
704.91	65.300
705.23	69.435
705.55	73.145
705.87	72.924
706.19	72.963
706.51	65.292
706.83	67.846
707.15	65.732
707.47	66.667
707.79	62.240
708.11	64.750
708.43	66.000
708.74	63.307
709.06	64.225
709.38	65.749
709.70	66.272
710.02	62.420
710.34	66.563
710.66	61.859
710.98	66.887
711.29	68.525
711.61	68.475
711.93	65.798
712.25	70.447
712.57	65.201
712.89	67.537
713.20	69.204
713.52	65.157
713.84	64.164
714.16	68.385
714.48	66.452
714.80	68.590
715.11	64.134
715.43	62.382
715.75	68.667
716.07	62.791
716.39	67.450
716.70	63.469
717.02	66.794
717.34	69.231
717.66	77.876
717.97	65.652
718.29	69.874
718.61	62.992
718.93	62.791
719.24	65.399
719.56	72.691
719.88	63.230
720.20	69.318
720.51	63.985
720.83	68.340
721.15	73.529
721.46	68.548
721.78	61.265
722.10	58.736
722.42	66.805
722.73	66.939
723.05	65.306
723.37	69.068
723.68	70.721
724.00	66.239
724.32	62.222
724.63	66.818
724.95	69.432
725.27	72.811
725.58	68.644
725.90	64.683
726.22	68.340
726.53	65.085
726.85	66.292
727.16	64.151
727.48	69.636
727.80	66.802
728.11	67.797
728.43	67.059
728.74	62.500
729.06	68.400
729.38	66.541
729.69	60.558
730.01	66.538
730.32	64.179
730.64	67.138
730.96	72.075
731.27	61.000
731.59	59.661
731.90	64.968
732.22	59.621
732.53	63.787
732.85	64.184
733.16	65.657
733.48	60.791
733.80	64.855
734.11	65.424
734.43	65.636
734.74	65.455
735.06	61.889
735.37	63.746
735.69	67.340
736.00	65.854
736.32	60.403
736.63	66.549
736.95	63.823
737.26	65.480
737.58	61.409
737.89	64.469
738.21	69.549
738.52	67.901
738.83	67.686
739.15	61.572
739.46	68.504
739.78	60.073
740.09	57.190
740.41	65.942
740.72	67.323
741.04	70.040
741.35	63.404
741.66	59.716
741.98	71.429
742.29	65.347
742.61	71.204
742.92	62.085
743.23	65.278
743.55	66.063
743.86	66.029
744.18	64.115
744.49	68.617
744.80	63.587
745.12	79.679
745.43	66.341
745.74	73.438
746.06	65.366
746.37	72.775
746.68	70.616
747.00	67.553
747.31	72.139
747.62	65.534
747.94	70.813
748.25	71.287
748.56	73.224
748.88	74.869
749.19	69.149
749.50	66.995
749.82	61.792
750.13	64.679
750.44	65.414
750.75	69.030
751.07	66.423
751.38	63.985
751.69	59.608
752.01	64.341
752.32	70.120
752.63	62.055
752.94	71.121
753.26	69.456
753.57	61.538
753.88	62.389
754.19	65.417
754.51	61.983
754.82	65.587
755.13	65.417
755.44	64.516
755.75	63.281
756.07	64.591
756.38	66.038
756.69	69.349
757.00	62.333
757.31	62.418
757.63	58.841
757.94	58.889
758.25	60.548
758.56	56.649
758.87	54.958
759.18	54.206
759.50	61.455
759.81	59.532
760.12	63.548
760.43	63.030
760.74	65.741
761.05	64.000
761.36	57.670
761.67	59.091
761.99	65.306
762.30	55.273
762.61	61.265
762.92	63.348
763.23	63.514
763.54	64.486
763.85	63.136
764.16	57.676
764.47	60.484
764.78	56.044
765.10	60.269
765.41	56.467
765.72	59.048
766.03	58.271
766.34	63.869
766.65	62.151
766.96	65.657
767.27	65.426
767.58	61.494
767.89	59.574
768.20	62.500
768.51	55.495
768.82	59.606
769.13	53.917
769.44	57.940
769.75	59.817
770.06	55.172
770.37	63.942
770.68	67.513
770.99	58.371
771.30	66.667
771.61	65.158
771.92	63.793
772.23	66.010
772.54	67.204
772.85	64.198
773.16	64.607
773.47	71.895
773.78	70.588
774.09	56.886
774.39	61.333
774.70	64.331
775.01	78.621
775.32	51.429
775.63	63.636
775.94	66.412
776.25	62.205
776.56	61.667
776.87	72.115
777.18	53.846
777.48	62.931
777.79	67.826
778.10	66.667
778.41	63.964
778.72	66.667
779.03	60.902
779.34	64.539
779.65	63.014
779.95	60.959
780.26	64.828
780.57	65.041
780.88	58.268
781.19	66.379
781.50	64.341
781.80	59.172
782.11	57.862
782.42	81.538
782.73	60.432
783.04	62.963
783.34	62.500
783.65	50.427
783.96	64.754
784.27	70.345
784.57	62.602
784.88	64.062
785.19	71.000
785.50	74.000
785.81	59.483
786.11	59.483
786.42	72.816
786.73	68.182
787.04	66.327
787.34	57.143
787.65	63.810
787.96	59.292
788.26	75.455
788.57	64.957
788.88	64.844
789.19	61.905
789.49	61.739
789.80	61.224
790.11	68.687
790.41	49.091
790.72	71.739
791.03	52.273
791.33	77.500
791.64	58.750
791.95	62.791
792.25	68.085
792.56	68.539
792.87	65.753
793.17	59.420
793.48	50.667
793.79	62.500
794.09	75.000
794.40	66.038
794.70	72.816
795.01	55.285
795.32	53.846
795.62	60.000
795.93	71.569
796.23	61.321
796.54	48.958
796.85	79.412
797.15	70.423
797.46	65.278
797.76	80.303
798.07	65.116
798.37	53.947
798.68	63.636
798.99	55.556
799.29	81.429
799.60	65.217
799.90	64.000
800.21	70.492
800.51	64.615
800.82	54.237
801.12	68.116
801.43	63.934
801.73	61.905
802.04	80.000
802.34	41.791
802.65	67.308
802.95	64.286
803.26	67.308
803.56	70.588
803.87	56.522
804.17	60.000
804.48	63.492
804.78	70.370
805.09	58.696
805.39	66.667
805.70	70.370
806.00	31.579
806.30	63.380
806.61	62.857
806.91	48.611
807.22	72.368
807.52	65.333
807.83	89.091
808.13	61.111
808.43	75.000
808.74	62.687
809.04	57.627
809.35	69.231
809.65	68.750
809.95	62.162
810.26	54.545
810.56	50.685
810.86	59.524
811.17	74.000
811.47	65.306
811.77	57.895
812.08	50.000
812.38	56.604
812.69	65.000
812.99	36.364
813.29	89.474
813.59	42.857
813.90	54.545
814.20	66.667
814.50	61.538
814.81	62.264
815.11	55.319
815.41	66.102
815.72	61.905
816.02	54.902
816.32	45.833
816.62	70.732
816.93	70.270
817.23	62.857
817.53	58.333
817.84	56.522
818.14	59.615
818.44	63.158
818.74	71.739
819.04	37.500
819.35	48.649
819.65	52.941
819.95	38.889
820.25	54.762
820.56	65.000
820.86	37.931
821.16	87.500
821.46	57.447
821.76	72.500
822.07	58.140
822.37	2.703
822.67	62.500
822.97	64.286
823.27	67.857
823.57	80.000
823.88	55.556
824.18	64.286
824.48	50.000
824.78	64.516
825.08	69.565
825.38	51.515
825.69	33.333
825.99	36.842
826.29	66.667
826.59	113.333
826.89	9.524
827.19	60.870
827.49	50.000
827.79	65.714
828.09	85.714
828.39	69.697
828.70	56.757
829.00	42.857
829.30	38.095
829.60	90.000
829.90	50.000
830.20	31.579
830.50	77.778
830.80	39.130
831.10	81.818
831.40	75.758
831.70	87.097
832.00	95.238
832.30	42.857
832.60	75.000
832.90	44.828
833.20	70.000
833.50	78.788
833.80	40.741
834.10	73.077
834.40	50.000
834.70	22.222
835.00	73.684
835.30	76.923
835.60	200.000
835.90	67.742
836.20	109.091
836.50	85.714
836.80	0.000
837.10	67.857
837.40	366.667
837.70	90.909
838.00	100.000
838.30	60.870
838.60	76.923
838.90	45.455
839.19	57.143
839.49	66.667
839.79	-15.385
840.09	66.667
840.39	75.000
840.69	107.143
840.99	61.538
841.29	10.526
841.59	-10.000
841.88	136.364
842.18	140.000
842.48	75.000
842.78	73.333
843.08	44.444
843.38	-70.000
843.68	73.913
843.97	93.333
844.27	20.000
844.57	60.000
844.87	72.222
845.17	76.190
845.47	73.333
845.76	19.048
846.06	47.059
846.36	140.000
846.66	71.429
846.96	66.667
847.25	-100.000
847.55	57.143
847.85	25.000
848.15	-9.091
848.44	-566.667
848.74	75.000
849.04	51.852
849.34	72.727
849.63	-33.333
849.93	-80.000
850.23	72.222
850.53	150.000
850.82	92.308
851.12	33.333
851.42	40.000
851.71	50.000
852.01	28.571
852.31	150.000
852.61	27.273
852.90	50.000
853.20	78.947
853.50	66.667
853.79	43.478
854.09	62.500
854.39	78.947
854.68	50.000
854.98	58.065
855.28	88.462
855.57	35.000
855.87	105.556
856.17	111.111
856.46	92.857
856.76	80.000
857.05	177.778
857.35	120.000
857.65	38.889
857.94	38.462
858.24	51.724
858.53	83.333
858.83	37.037
859.13	95.455
859.42	56.522
859.72	325.000
860.01	-200.000
860.31	88.000
860.60	19.048
860.90	-133.333
861.20	20.000
861.49	-400.000
861.79	13.333
862.08	60.000
862.38	120.000
862.67	-60.000
862.97	0.000
863.26	116.667
863.56	100.000
863.85	-133.333
864.15	66.667
864.44	40.000
864.74	114.286
865.03	275.000
865.33	-60.000
865.62	-33.333
865.92	25.000
866.21	-100.000
866.51	75.000
866.80	-27.273
867.10	-500.000
867.39	83.333
867.69	0.000
867.98	30.769
868.27	33.333
868.57	6.667
868.86	66.667
869.16	46.154
869.45	120.000
869.75	500.000
870.04	0.000
870.33	85.714
870.63	90.476
870.92	100.000
871.22	0.000
871.51	-300.000
871.80	166.667
872.10	200.000
>>>>>End Processed Spectral Data<<<<<
