SpectraSuite Data File
++++++++++++++++++++++++++++++++++++
Date: Fri May 15 20:05:55 PDT 2015
User: schluterlab
Dark Spectrum Present: Yes
Reference Spectrum Present: Yes
Number of Sampled Component Spectra: 1
Spectrometers: USB2E3373
Integration Time (usec): 3000 (USB2E3373)
Spectra Averaged: 3 (USB2E3373)
Boxcar Smoothing: 0 (USB2E3373)
Correct for Electrical Dark: No (USB2E3373)
Strobe/Lamp Enabled: No (USB2E3373)
Correct for Detector Non-linearity: No (USB2E3373)
Correct for Stray Light: No (USB2E3373)
Number of Pixels in Processed Spectrum: 2048
>>>>>Begin Processed Spectral Data<<<<<
178.53	0.000
178.91	0.000
179.29	50.000
179.67	-150.000
180.04	57.143
180.42	150.000
180.80	700.000
181.18	-100.000
181.56	-200.000
181.94	-150.000
182.31	-200.000
182.69	-60.000
183.07	-66.667
183.45	-80.000
183.83	100.000
184.20	54.545
184.58	44.444
184.96	75.000
185.34	66.667
185.72	-300.000
186.09	69.231
186.47	-700.000
186.85	66.667
187.23	100.000
187.61	700.000
187.98	-233.333
188.36	-33.333
188.74	-166.667
189.12	29.412
189.49	44.444
189.87	0.000
190.25	28.571
190.63	-100.000
191.00	133.333
191.38	47.368
191.76	500.000
192.14	-25.000
192.51	-50.000
192.89	-55.556
193.27	-85.714
193.65	50.000
194.02	109.091
194.40	60.000
194.78	-162.500
195.15	8.333
195.53	-62.500
195.91	250.000
196.29	-25.000
196.66	53.846
197.04	85.714
197.42	66.667
197.79	-266.667
198.17	-100.000
198.55	1200.000
198.92	-233.333
199.30	300.000
199.68	-120.000
200.05	-200.000
200.43	0.000
200.81	0.000
201.18	66.667
201.56	1500.000
201.94	-300.000
202.31	133.333
202.69	-20.000
203.07	75.000
203.44	200.000
203.82	0.000
204.19	21.429
204.57	-333.333
204.95	100.000
205.32	30.000
205.70	28.571
206.08	-125.000
206.45	133.333
206.83	92.857
207.20	-71.429
207.58	1000.000
207.96	-100.000
208.33	-100.000
208.71	-125.000
209.08	-66.667
209.46	-200.000
209.84	-160.000
210.21	-1300.000
210.59	128.571
210.96	-83.333
211.34	-25.000
211.71	126.667
212.09	-114.286
212.46	-600.000
212.84	0.000
213.22	80.000
213.59	750.000
213.97	46.154
214.34	18.182
214.72	-116.667
215.09	200.000
215.47	30.769
215.84	-9.091
216.22	-166.667
216.59	-37.500
216.97	50.000
217.34	-175.000
217.72	-120.000
218.09	62.500
218.47	100.000
218.84	-300.000
219.22	-11.111
219.59	0.000
219.97	233.333
220.34	275.000
220.72	85.714
221.09	25.000
221.47	-350.000
221.84	-350.000
222.22	-550.000
222.59	-27.273
222.97	41.667
223.34	-400.000
223.72	-28.571
224.09	-33.333
224.46	35.714
224.84	233.333
225.21	40.000
225.59	20.000
225.96	-100.000
226.34	375.000
226.71	-14.286
227.08	0.000
227.46	12.500
227.83	-650.000
228.21	11.111
228.58	-36.364
228.95	62.500
229.33	170.000
229.70	25.000
230.08	0.000
230.45	-128.571
230.82	-28.571
231.20	13.333
231.57	50.000
231.95	-71.429
232.32	-140.000
232.69	71.429
233.07	-100.000
233.44	-60.000
233.81	50.000
234.19	-77.778
234.56	17.647
234.93	250.000
235.31	25.000
235.68	-240.000
236.05	-38.462
236.43	45.000
236.80	64.706
237.17	28.125
237.55	0.000
237.92	-11.111
238.29	36.111
238.67	30.000
239.04	0.000
239.41	14.634
239.79	3.333
240.16	43.902
240.53	18.421
240.91	19.565
241.28	14.286
241.65	8.929
242.02	30.137
242.40	15.000
242.77	10.169
243.14	19.697
243.51	17.500
243.89	25.287
244.26	13.793
244.63	16.667
245.00	12.371
245.38	14.433
245.75	12.360
246.12	12.931
246.49	20.661
246.87	22.115
247.24	11.765
247.61	20.175
247.98	13.821
248.36	14.375
248.73	19.079
249.10	16.234
249.47	18.354
249.84	24.837
250.22	24.118
250.59	28.758
250.96	24.413
251.33	16.860
251.70	21.765
252.08	23.858
252.45	18.317
252.82	19.598
253.19	21.659
253.56	24.299
253.94	23.423
254.31	24.348
254.68	25.000
255.05	19.291
255.42	25.764
255.79	25.097
256.16	17.121
256.54	24.627
256.91	26.236
257.28	18.959
257.65	20.225
258.02	18.440
258.39	24.242
258.76	26.007
259.14	24.252
259.51	19.417
259.88	18.900
260.25	18.954
260.62	23.611
260.99	21.695
261.36	19.521
261.73	21.519
262.10	21.884
262.47	19.325
262.85	20.376
263.22	23.692
263.59	20.561
263.96	26.708
264.33	22.424
264.70	22.321
265.07	19.048
265.44	21.530
265.81	22.034
266.18	19.126
266.55	22.108
266.92	21.244
267.29	23.499
267.66	21.228
268.03	19.895
268.40	19.060
268.77	21.925
269.14	22.062
269.51	20.823
269.88	22.943
270.25	22.704
270.62	21.707
270.99	18.926
271.36	19.560
271.73	19.953
272.10	18.248
272.47	21.749
272.84	23.267
273.21	21.346
273.58	21.687
273.95	20.824
274.32	21.016
274.69	17.647
275.06	22.545
275.43	21.088
275.80	19.868
276.17	19.540
276.54	18.415
276.91	21.053
277.28	20.087
277.65	19.008
278.02	19.787
278.39	21.007
278.76	21.803
279.13	16.805
279.50	21.849
279.87	21.814
280.23	20.430
280.60	22.417
280.97	20.000
281.34	20.192
281.71	21.150
282.08	20.450
282.45	18.591
282.82	18.147
283.19	18.569
283.56	21.965
283.92	19.545
284.29	18.846
284.66	20.349
285.03	17.682
285.40	19.471
285.77	19.508
286.14	20.397
286.51	20.295
286.87	19.013
287.24	18.969
287.61	17.813
287.98	20.351
288.35	18.718
288.72	20.140
289.08	17.708
289.45	19.332
289.82	18.007
290.19	18.259
290.56	17.839
290.93	18.013
291.29	15.871
291.66	16.693
292.03	17.384
292.40	18.710
292.77	17.225
293.13	15.584
293.50	17.299
293.87	16.336
294.24	17.465
294.60	17.586
294.97	16.369
295.34	16.564
295.71	16.244
296.08	15.546
296.44	13.371
296.81	16.944
297.18	16.377
297.55	16.125
297.91	14.932
298.28	16.887
298.65	14.654
299.02	15.499
299.38	14.501
299.75	14.483
300.12	14.267
300.48	15.810
300.85	14.195
301.22	14.935
301.59	15.526
301.95	16.329
302.32	15.824
302.69	14.925
303.05	14.356
303.42	16.687
303.79	14.953
304.15	14.337
304.52	13.912
304.89	15.205
305.25	13.438
305.62	14.469
305.99	13.801
306.35	14.220
306.72	13.948
307.09	14.709
307.45	15.614
307.82	12.153
308.19	16.492
308.55	13.850
308.92	15.904
309.29	14.413
309.65	14.209
310.02	14.961
310.38	14.270
310.75	14.973
311.12	15.178
311.48	14.104
311.85	15.079
312.22	15.928
312.58	15.817
312.95	14.941
313.31	14.596
313.68	14.869
314.05	15.816
314.41	15.670
314.78	15.155
315.14	16.136
315.51	16.253
315.87	15.471
316.24	18.200
316.61	16.634
316.97	16.766
317.34	15.918
317.70	17.113
318.07	16.538
318.43	17.745
318.80	16.098
319.16	18.262
319.53	18.139
319.89	17.028
320.26	17.206
320.62	19.559
320.99	17.745
321.35	18.911
321.72	18.484
322.08	19.134
322.45	19.898
322.81	18.664
323.18	18.744
323.54	20.367
323.91	20.253
324.27	20.605
324.64	20.599
325.00	21.533
325.37	23.140
325.73	21.215
326.10	22.071
326.46	23.318
326.83	23.097
327.19	22.493
327.56	23.023
327.92	23.151
328.29	23.125
328.65	23.774
329.01	25.000
329.38	23.963
329.74	24.835
330.11	24.838
330.47	23.191
330.84	23.654
331.20	27.186
331.56	25.463
331.93	25.388
332.29	26.948
332.66	24.706
333.02	26.115
333.38	26.581
333.75	27.473
334.11	24.888
334.48	27.380
334.84	26.832
335.20	27.081
335.57	25.113
335.93	26.468
336.29	26.980
336.66	25.250
337.02	27.602
337.38	26.296
337.75	25.545
338.11	26.510
338.47	25.821
338.84	25.508
339.20	26.234
339.56	26.055
339.93	27.037
340.29	27.064
340.65	26.344
341.02	26.152
341.38	26.018
341.74	25.530
342.11	25.563
342.47	27.580
342.83	27.422
343.20	26.655
343.56	25.304
343.92	25.775
344.28	26.558
344.65	24.957
345.01	25.929
345.37	26.829
345.73	27.113
346.10	26.575
346.46	24.558
346.82	26.596
347.19	24.771
347.55	25.982
347.91	26.456
348.27	24.252
348.63	26.405
349.00	25.759
349.36	26.517
349.72	26.866
350.08	26.639
350.45	26.257
350.81	26.163
351.17	25.651
351.53	27.020
351.89	26.259
352.26	26.160
352.62	27.419
352.98	27.390
353.34	26.973
353.70	27.023
354.07	26.855
354.43	25.941
354.79	26.094
355.15	26.984
355.51	27.532
355.87	26.375
356.24	25.775
356.60	26.273
356.96	28.413
357.32	27.236
357.68	26.583
358.04	26.575
358.40	26.768
358.77	27.193
359.13	27.382
359.49	25.501
359.85	26.365
360.21	26.715
360.57	26.626
360.93	27.458
361.29	26.888
361.66	26.567
362.02	27.652
362.38	27.647
362.74	26.874
363.10	28.292
363.46	27.576
363.82	27.949
364.18	27.897
364.54	28.162
364.90	27.742
365.26	27.802
365.62	29.197
365.98	27.639
366.35	29.570
366.71	28.529
367.07	27.576
367.43	27.103
367.79	28.057
368.15	28.069
368.51	28.551
368.87	27.566
369.23	26.931
369.59	29.519
369.95	30.132
370.31	28.757
370.67	29.030
371.03	28.977
371.39	28.738
371.75	29.670
372.11	28.245
372.47	29.808
372.83	28.673
373.19	29.672
373.55	30.108
373.91	30.454
374.27	31.254
374.63	29.792
374.99	30.284
375.35	30.501
375.71	31.049
376.07	31.461
376.42	31.293
376.78	30.872
377.14	30.806
377.50	31.740
377.86	32.062
378.22	32.036
378.58	32.436
378.94	31.317
379.30	32.439
379.66	33.730
380.02	33.047
380.38	32.380
380.74	32.914
381.09	33.988
381.45	33.333
381.81	33.560
382.17	34.201
382.53	33.229
382.89	35.217
383.25	34.972
383.61	35.366
383.97	34.540
384.32	33.709
384.68	35.232
385.04	35.355
385.40	34.412
385.76	37.484
386.12	36.352
386.48	37.101
386.83	36.335
387.19	36.325
387.55	36.324
387.91	36.675
388.27	36.264
388.62	37.319
388.98	36.587
389.34	37.539
389.70	38.160
390.06	36.123
390.42	37.435
390.77	38.260
391.13	36.885
391.49	39.069
391.85	37.752
392.20	39.109
392.56	37.826
392.92	39.049
393.28	39.210
393.64	37.838
393.99	40.564
394.35	39.975
394.71	40.102
395.07	38.781
395.42	38.859
395.78	39.414
396.14	39.029
396.50	39.759
396.85	40.245
397.21	38.910
397.57	39.561
397.92	39.545
398.28	40.000
398.64	39.036
399.00	40.293
399.35	39.052
399.71	39.345
400.07	41.173
400.42	39.535
400.78	39.314
401.14	39.746
401.49	40.500
401.85	39.366
402.21	38.494
402.57	40.938
402.92	39.586
403.28	40.414
403.63	39.912
403.99	39.668
404.35	40.100
404.70	38.452
405.06	39.130
405.42	39.155
405.77	39.686
406.13	40.047
406.49	39.550
406.84	40.587
407.20	40.638
407.55	39.150
407.91	39.706
408.27	39.834
408.62	40.246
408.98	39.125
409.34	40.830
409.69	39.406
410.05	39.470
410.40	40.000
410.76	39.505
411.11	39.562
411.47	40.434
411.83	39.046
412.18	39.704
412.54	39.700
412.89	40.209
413.25	40.012
413.60	40.559
413.96	39.264
414.31	40.122
414.67	38.294
415.03	39.814
415.38	39.164
415.74	40.326
416.09	40.431
416.45	40.311
416.80	41.507
417.16	41.782
417.51	41.306
417.87	39.700
418.22	41.580
418.58	41.405
418.93	41.567
419.29	39.373
419.64	41.866
420.00	41.877
420.35	40.299
420.71	42.041
421.06	40.884
421.42	41.587
421.77	41.098
422.12	41.373
422.48	41.852
422.83	41.473
423.19	41.140
423.54	42.622
423.90	41.402
424.25	43.054
424.61	44.002
424.96	43.380
425.31	42.461
425.67	43.369
426.02	43.993
426.38	44.646
426.73	45.036
427.09	45.000
427.44	44.765
427.79	44.903
428.15	43.811
428.50	43.792
428.85	44.042
429.21	44.935
429.56	43.720
429.92	44.376
430.27	44.812
430.62	44.224
430.98	44.108
431.33	45.426
431.68	45.107
432.04	44.885
432.39	44.153
432.74	45.159
433.10	46.379
433.45	45.400
433.80	44.689
434.16	45.208
434.51	46.667
434.86	45.761
435.22	45.934
435.57	47.473
435.92	47.006
436.28	46.452
436.63	46.435
436.98	45.423
437.34	47.187
437.69	48.002
438.04	47.009
438.39	47.221
438.75	48.695
439.10	47.199
439.45	48.691
439.81	47.462
440.16	49.228
440.51	47.582
440.86	49.184
441.22	47.398
441.57	47.627
441.92	48.583
442.27	49.113
442.63	47.805
442.98	48.880
443.33	47.858
443.68	49.125
444.03	48.038
444.39	48.697
444.74	50.557
445.09	49.053
445.44	49.003
445.79	50.077
446.15	47.412
446.50	48.364
446.85	48.778
447.20	48.644
447.55	48.828
447.91	48.280
448.26	49.687
448.61	50.662
448.96	50.143
449.31	50.867
449.66	49.652
450.02	49.116
450.37	50.919
450.72	48.683
451.07	50.316
451.42	49.625
451.77	49.668
452.12	49.522
452.47	48.873
452.83	49.293
453.18	49.905
453.53	50.442
453.88	51.123
454.23	50.768
454.58	50.126
454.93	50.193
455.28	47.619
455.63	50.961
455.98	50.150
456.34	49.489
456.69	50.445
457.04	51.103
457.39	50.608
457.74	50.242
458.09	49.382
458.44	49.737
458.79	49.524
459.14	49.428
459.49	50.567
459.84	49.521
460.19	50.485
460.54	51.100
460.89	50.966
461.24	50.807
461.59	50.713
461.94	50.252
462.29	51.025
462.64	50.498
462.99	50.575
463.34	50.974
463.69	49.936
464.04	51.695
464.39	52.092
464.74	50.429
465.09	51.716
465.44	51.068
465.79	48.753
466.14	51.026
466.49	49.741
466.84	51.398
467.19	49.812
467.54	50.064
467.89	50.411
468.24	50.608
468.59	51.746
468.94	50.984
469.29	50.885
469.64	50.513
469.99	51.437
470.34	51.604
470.68	53.020
471.03	51.097
471.38	52.924
471.73	51.541
472.08	50.746
472.43	53.020
472.78	51.199
473.13	50.544
473.48	51.661
473.83	50.996
474.17	52.396
474.52	50.862
474.87	52.000
475.22	50.946
475.57	51.270
475.92	51.454
476.27	51.397
476.61	52.488
476.96	50.530
477.31	51.595
477.66	51.742
478.01	52.779
478.36	51.144
478.70	52.311
479.05	53.297
479.40	51.616
479.75	51.199
480.10	51.254
480.45	51.650
480.79	52.467
481.14	51.742
481.49	50.788
481.84	52.751
482.19	50.748
482.53	51.703
482.88	50.406
483.23	51.104
483.58	50.708
483.92	50.823
484.27	50.638
484.62	50.874
484.97	49.959
485.31	49.855
485.66	49.033
486.01	49.971
486.36	49.841
486.70	50.108
487.05	50.704
487.40	50.388
487.75	50.620
488.09	50.247
488.44	49.828
488.79	51.102
489.13	51.923
489.48	51.347
489.83	51.704
490.17	51.236
490.52	51.085
490.87	50.162
491.22	52.340
491.56	51.423
491.91	50.335
492.26	51.240
492.60	51.104
492.95	52.140
493.30	50.904
493.64	51.866
493.99	50.483
494.34	50.291
494.68	50.952
495.03	50.365
495.37	51.030
495.72	52.095
496.07	51.902
496.41	52.217
496.76	51.313
497.11	51.467
497.45	51.742
497.80	52.119
498.14	51.018
498.49	51.295
498.84	51.796
499.18	51.958
499.53	51.637
499.87	51.070
500.22	52.127
500.56	51.891
500.91	51.456
501.26	51.656
501.60	52.041
501.95	52.305
502.29	51.622
502.64	50.724
502.98	51.209
503.33	51.105
503.67	51.084
504.02	51.466
504.36	52.053
504.71	50.960
505.06	50.478
505.40	51.980
505.75	51.237
506.09	50.684
506.44	52.413
506.78	52.092
507.13	52.017
507.47	50.653
507.82	51.603
508.16	51.558
508.51	52.046
508.85	50.759
509.19	51.570
509.54	51.743
509.88	51.834
510.23	52.340
510.57	52.753
510.92	50.746
511.26	51.609
511.61	52.255
511.95	53.260
512.30	51.497
512.64	52.087
512.98	52.442
513.33	52.658
513.67	52.530
514.02	53.261
514.36	52.457
514.70	52.622
515.05	53.173
515.39	51.476
515.74	53.413
516.08	53.616
516.42	53.769
516.77	53.423
517.11	52.641
517.46	53.561
517.80	52.920
518.14	52.664
518.49	52.043
518.83	53.888
519.17	52.638
519.52	52.872
519.86	52.521
520.20	53.767
520.55	53.909
520.89	53.827
521.23	52.945
521.58	53.754
521.92	53.077
522.26	53.741
522.61	54.156
522.95	55.695
523.29	54.638
523.64	53.748
523.98	54.569
524.32	53.802
524.66	54.225
525.01	54.221
525.35	54.634
525.69	54.949
526.04	54.563
526.38	55.188
526.72	53.107
527.06	54.150
527.41	54.222
527.75	53.820
528.09	54.419
528.43	55.436
528.78	54.059
529.12	53.677
529.46	53.541
529.80	53.452
530.15	54.125
530.49	54.141
530.83	55.404
531.17	52.989
531.51	54.788
531.86	53.841
532.20	54.071
532.54	53.642
532.88	54.552
533.22	55.242
533.57	53.080
533.91	55.287
534.25	54.883
534.59	54.394
534.93	53.178
535.27	53.680
535.62	54.893
535.96	53.164
536.30	54.881
536.64	55.065
536.98	53.449
537.32	55.192
537.66	55.049
538.01	55.804
538.35	54.924
538.69	53.462
539.03	53.452
539.37	54.307
539.71	53.374
540.05	54.515
540.39	54.294
540.73	55.160
541.07	54.558
541.42	54.772
541.76	55.334
542.10	54.301
542.44	54.621
542.78	53.269
543.12	54.052
543.46	54.868
543.80	54.129
544.14	52.403
544.48	52.831
544.82	54.204
545.16	55.396
545.50	53.805
545.84	54.603
546.18	54.965
546.52	55.011
546.86	54.781
547.20	55.007
547.54	54.276
547.88	54.348
548.22	52.663
548.56	53.166
548.90	55.323
549.24	53.168
549.58	54.654
549.92	52.252
550.26	54.066
550.60	55.390
550.94	55.041
551.28	55.023
551.62	54.846
551.96	54.511
552.30	54.751
552.64	53.949
552.98	55.345
553.32	53.780
553.66	55.152
554.00	54.526
554.34	55.539
554.68	53.466
555.02	56.101
555.36	55.123
555.69	54.505
556.03	53.605
556.37	54.448
556.71	54.152
557.05	55.183
557.39	54.201
557.73	54.873
558.07	55.807
558.41	55.972
558.75	55.651
559.08	54.610
559.42	55.238
559.76	55.404
560.10	53.823
560.44	54.803
560.78	54.755
561.12	54.937
561.45	55.727
561.79	53.992
562.13	55.287
562.47	55.180
562.81	54.467
563.15	55.642
563.48	55.304
563.82	55.113
564.16	54.735
564.50	54.257
564.84	54.083
565.17	54.930
565.51	55.738
565.85	55.761
566.19	55.040
566.52	54.357
566.86	55.206
567.20	53.736
567.54	55.596
567.88	55.185
568.21	55.486
568.55	54.239
568.89	53.901
569.23	53.491
569.56	53.809
569.90	54.283
570.24	53.256
570.57	53.564
570.91	53.364
571.25	52.384
571.59	53.659
571.92	51.348
572.26	51.812
572.60	52.217
572.93	51.961
573.27	52.069
573.61	52.953
573.95	51.912
574.28	52.013
574.62	51.157
574.96	51.708
575.29	51.136
575.63	50.505
575.97	51.532
576.30	51.223
576.64	52.079
576.98	52.124
577.31	52.667
577.65	52.248
577.98	51.817
578.32	52.179
578.66	51.300
578.99	51.802
579.33	51.012
579.67	51.022
580.00	51.468
580.34	51.766
580.67	51.508
581.01	52.402
581.35	51.464
581.68	51.742
582.02	51.367
582.35	52.238
582.69	52.376
583.02	52.297
583.36	52.330
583.70	52.856
584.03	53.016
584.37	52.710
584.70	52.170
585.04	51.606
585.37	51.597
585.71	52.037
586.04	52.673
586.38	52.041
586.72	52.712
587.05	53.264
587.39	53.117
587.72	53.144
588.06	53.058
588.39	53.518
588.73	52.991
589.06	54.273
589.40	52.748
589.73	54.911
590.07	54.230
590.40	55.031
590.73	55.560
591.07	54.453
591.40	54.274
591.74	55.566
592.07	55.195
592.41	55.300
592.74	53.644
593.08	52.882
593.41	53.311
593.75	53.320
594.08	52.798
594.41	54.294
594.75	54.160
595.08	54.257
595.42	54.877
595.75	55.201
596.09	55.473
596.42	55.147
596.75	54.130
597.09	54.852
597.42	54.472
597.75	54.650
598.09	53.825
598.42	54.197
598.76	53.368
599.09	53.486
599.42	53.657
599.76	53.461
600.09	54.638
600.42	54.132
600.76	53.789
601.09	54.122
601.42	53.231
601.76	54.823
602.09	54.208
602.42	55.476
602.76	55.093
603.09	54.277
603.42	55.686
603.76	54.032
604.09	54.597
604.42	55.626
604.76	55.229
605.09	54.845
605.42	53.409
605.75	55.079
606.09	54.352
606.42	53.753
606.75	54.719
607.09	54.681
607.42	54.320
607.75	54.485
608.08	53.594
608.42	54.683
608.75	56.000
609.08	55.556
609.41	55.584
609.75	54.335
610.08	54.868
610.41	54.155
610.74	54.656
611.07	55.142
611.41	55.319
611.74	57.196
612.07	55.139
612.40	56.236
612.73	56.328
613.07	56.130
613.40	55.799
613.73	56.016
614.06	55.760
614.39	56.966
614.72	55.238
615.06	55.251
615.39	53.821
615.72	54.629
616.05	54.637
616.38	53.903
616.71	56.208
617.05	56.825
617.38	56.317
617.71	57.233
618.04	56.127
618.37	56.431
618.70	56.106
619.03	57.222
619.36	55.789
619.69	57.771
620.03	58.364
620.36	57.153
620.69	57.673
621.02	57.263
621.35	58.008
621.68	59.354
622.01	58.583
622.34	58.659
622.67	57.177
623.00	56.049
623.33	56.936
623.66	57.218
623.99	56.127
624.32	57.262
624.65	57.068
624.99	58.390
625.32	57.468
625.65	56.716
625.98	57.937
626.31	57.107
626.64	58.579
626.97	57.592
627.30	58.669
627.63	57.539
627.96	59.119
628.29	58.464
628.62	57.522
628.95	58.317
629.28	60.685
629.61	60.120
629.94	59.042
630.26	56.522
630.59	60.250
630.92	57.231
631.25	58.051
631.58	60.022
631.91	59.101
632.24	57.798
632.57	59.432
632.90	60.380
633.23	57.882
633.56	60.327
633.89	58.570
634.22	60.617
634.55	59.466
634.88	61.814
635.20	60.000
635.53	61.467
635.86	59.298
636.19	60.155
636.52	60.077
636.85	58.065
637.18	57.736
637.51	59.748
637.83	60.184
638.16	63.029
638.49	60.218
638.82	60.263
639.15	60.244
639.48	64.374
639.81	60.251
640.13	60.750
640.46	61.808
640.79	59.794
641.12	61.300
641.45	62.012
641.77	60.889
642.10	63.665
642.43	60.450
642.76	61.386
643.09	62.036
643.41	58.091
643.74	61.285
644.07	62.069
644.40	63.176
644.73	61.296
645.05	60.906
645.38	65.432
645.71	63.830
646.04	63.555
646.36	61.879
646.69	65.647
647.02	62.004
647.35	62.313
647.67	60.695
648.00	64.739
648.33	62.457
648.66	64.576
648.98	61.809
649.31	63.802
649.64	60.440
649.96	60.778
650.29	62.010
650.62	61.709
650.94	62.407
651.27	62.756
651.60	61.802
651.92	58.916
652.25	62.877
652.58	62.167
652.90	63.808
653.23	60.336
653.56	56.176
653.88	60.309
654.21	58.319
654.54	56.876
654.86	62.649
655.19	60.088
655.52	59.520
655.84	54.211
656.17	59.542
656.49	80.338
656.82	83.279
657.15	64.463
657.47	48.446
657.80	36.077
658.13	35.530
658.45	55.222
658.78	54.854
659.10	54.293
659.43	54.937
659.75	57.227
660.08	58.069
660.41	58.631
660.73	58.840
661.06	62.565
661.38	60.470
661.71	58.316
662.03	62.446
662.36	62.637
662.68	65.265
663.01	65.939
663.33	59.165
663.66	64.186
663.98	65.116
664.31	63.326
664.63	60.138
664.96	59.130
665.28	59.603
665.61	62.121
665.93	61.304
666.26	65.510
666.58	61.074
666.91	62.118
667.23	65.802
667.56	61.611
667.88	63.070
668.21	63.484
668.53	64.775
668.86	62.500
669.18	61.321
669.50	61.743
669.83	61.860
670.15	63.636
670.48	63.397
670.80	61.751
671.13	59.508
671.45	56.393
671.77	63.519
672.10	58.614
672.42	58.427
672.75	61.101
673.07	61.360
673.39	59.083
673.72	58.777
674.04	58.333
674.37	63.559
674.69	59.529
675.01	61.333
675.34	61.261
675.66	61.806
675.98	60.089
676.31	61.009
676.63	62.708
676.95	61.591
677.28	61.647
677.60	66.024
677.92	59.633
678.25	62.144
678.57	61.688
678.89	61.134
679.22	62.192
679.54	58.434
679.86	57.058
680.18	60.388
680.51	58.902
680.83	57.455
681.15	59.000
681.48	62.295
681.80	59.298
682.12	60.484
682.44	60.251
682.77	59.382
683.09	59.725
683.41	59.091
683.73	60.599
684.06	58.628
684.38	59.140
684.70	65.577
685.02	60.996
685.34	58.696
685.67	63.039
685.99	57.866
686.31	57.522
686.63	58.442
686.96	56.084
687.28	58.384
687.60	57.414
687.92	63.232
688.24	60.081
688.56	61.572
688.89	62.723
689.21	60.444
689.53	60.325
689.85	56.744
690.17	59.598
690.49	60.284
690.82	63.107
691.14	60.238
691.46	61.682
691.78	60.135
692.10	59.570
692.42	58.874
692.74	58.974
693.06	61.937
693.39	59.050
693.71	58.824
694.03	58.891
694.35	59.813
694.67	64.141
694.99	60.313
695.31	62.402
695.63	58.750
695.95	57.323
696.27	59.067
696.59	60.556
696.91	61.625
697.23	57.841
697.56	62.129
697.88	58.495
698.20	59.453
698.52	60.471
698.84	55.742
699.16	59.500
699.48	63.659
699.80	58.809
700.12	60.108
700.44	61.625
700.76	56.686
701.08	61.515
701.40	61.747
701.72	66.975
702.04	68.977
702.36	65.217
702.68	62.763
703.00	63.636
703.32	59.824
703.64	57.910
703.96	57.391
704.28	57.055
704.60	65.714
704.91	58.044
705.23	64.784
705.55	63.251
705.87	60.650
706.19	66.667
706.51	61.168
706.83	57.878
707.15	58.255
707.47	57.983
707.79	53.125
708.11	55.500
708.43	57.250
708.74	57.881
709.06	63.099
709.38	61.774
709.70	64.497
710.02	62.102
710.34	60.062
710.66	58.654
710.98	62.252
711.29	60.000
711.61	60.339
711.93	60.261
712.25	63.918
712.57	62.271
712.89	62.687
713.20	61.592
713.52	57.143
713.84	60.068
714.16	63.918
714.48	59.032
714.80	61.538
715.11	60.182
715.43	56.113
715.75	59.000
716.07	61.130
716.39	58.389
716.70	55.720
717.02	64.504
717.34	63.563
717.66	64.602
717.97	60.870
718.29	60.251
718.61	58.268
718.93	61.240
719.24	61.977
719.56	62.249
719.88	60.825
720.20	57.576
720.51	62.835
720.83	59.073
721.15	56.723
721.46	61.694
721.78	56.522
722.10	57.249
722.42	61.826
722.73	60.816
723.05	67.755
723.37	66.525
723.68	67.117
724.00	58.120
724.32	64.444
724.63	60.000
724.95	61.135
725.27	63.594
725.58	63.136
725.90	57.143
726.22	64.093
726.53	52.203
726.85	61.049
727.16	65.283
727.48	56.680
727.80	64.777
728.11	62.712
728.43	58.431
728.74	58.468
729.06	62.000
729.38	61.278
729.69	60.159
730.01	56.538
730.32	58.209
730.64	59.364
730.96	62.264
731.27	59.000
731.59	54.576
731.90	55.732
732.22	59.937
732.53	60.797
732.85	62.766
733.16	60.943
733.48	54.317
733.80	57.609
734.11	58.644
734.43	60.825
734.74	56.970
735.06	58.306
735.37	60.121
735.69	58.249
736.00	56.098
736.32	57.383
736.63	57.394
736.95	58.703
737.26	59.786
737.58	52.349
737.89	60.440
738.21	59.774
738.52	59.671
738.83	56.769
739.15	57.642
739.46	61.024
739.78	57.875
740.09	54.248
740.41	57.246
740.72	61.811
741.04	61.134
741.35	50.638
741.66	52.133
741.98	56.122
742.29	56.436
742.61	63.351
742.92	49.763
743.23	55.556
743.55	57.919
743.86	59.809
744.18	52.153
744.49	62.234
744.80	58.696
745.12	66.310
745.43	54.634
745.74	59.375
746.06	62.927
746.37	69.110
746.68	58.768
747.00	59.574
747.31	65.174
747.62	55.340
747.94	62.679
748.25	62.376
748.56	61.202
748.88	60.209
749.19	62.766
749.50	54.680
749.82	54.717
750.13	58.257
750.44	60.150
750.75	61.567
751.07	55.474
751.38	57.471
751.69	60.000
752.01	60.078
752.32	58.167
752.63	59.289
752.94	61.207
753.26	61.506
753.57	58.371
753.88	57.522
754.19	57.917
754.51	55.372
754.82	59.109
755.13	63.750
755.44	59.677
755.75	58.984
756.07	59.922
756.38	56.226
756.69	57.854
757.00	56.667
757.31	52.614
757.63	53.659
757.94	51.667
758.25	54.521
758.56	55.585
758.87	53.541
759.18	52.960
759.50	54.909
759.81	54.181
760.12	59.677
760.43	54.242
760.74	54.938
761.05	58.769
761.36	54.545
761.67	56.970
761.99	60.884
762.30	54.545
762.61	53.755
762.92	57.014
763.23	60.811
763.54	55.607
763.85	51.271
764.16	54.357
764.47	56.855
764.78	53.480
765.10	53.535
765.41	54.259
765.72	58.413
766.03	50.752
766.34	54.745
766.65	56.574
766.96	64.646
767.27	60.106
767.58	50.000
767.89	54.610
768.20	56.250
768.51	57.143
768.82	49.754
769.13	56.682
769.44	57.940
769.75	54.338
770.06	53.448
770.37	55.769
770.68	60.406
770.99	51.584
771.30	64.216
771.61	52.941
771.92	56.034
772.23	58.128
772.54	55.376
772.85	63.580
773.16	57.303
773.47	65.359
773.78	60.784
774.09	49.102
774.39	53.333
774.70	55.414
775.01	57.241
775.32	59.286
775.63	58.678
775.94	53.435
776.25	61.417
776.56	55.833
776.87	50.000
777.18	53.846
777.48	44.828
777.79	66.087
778.10	50.476
778.41	58.559
778.72	55.556
779.03	48.872
779.34	58.865
779.65	59.589
779.95	50.685
780.26	57.931
780.57	52.846
780.88	60.630
781.19	56.897
781.50	66.667
781.80	44.970
782.11	52.201
782.42	61.538
782.73	54.676
783.04	54.074
783.34	45.833
783.65	52.137
783.96	58.197
784.27	57.931
784.57	56.911
784.88	56.250
785.19	62.000
785.50	63.000
785.81	61.207
786.11	56.034
786.42	63.107
786.73	52.727
787.04	59.184
787.34	49.107
787.65	53.333
787.96	55.752
788.26	60.909
788.57	61.538
788.88	51.563
789.19	51.587
789.49	59.130
789.80	54.082
790.11	53.535
790.41	52.727
790.72	61.957
791.03	62.500
791.33	61.250
791.64	51.250
791.95	48.837
792.25	54.255
792.56	46.067
792.87	52.055
793.17	49.275
793.48	42.667
793.79	38.750
794.09	63.750
794.40	48.113
794.70	51.456
795.01	51.220
795.32	46.154
795.62	61.905
795.93	55.882
796.23	50.000
796.54	58.333
796.85	50.000
797.15	49.296
797.46	61.111
797.76	66.667
798.07	38.372
798.37	52.632
798.68	53.030
798.99	54.321
799.29	54.286
799.60	57.971
799.90	58.667
800.21	96.721
800.51	47.692
800.82	59.322
801.12	53.623
801.43	47.541
801.73	69.841
802.04	52.000
802.34	47.761
802.65	44.231
802.95	35.714
803.26	46.154
803.56	74.510
803.87	36.957
804.17	40.000
804.48	49.206
804.78	51.852
805.09	56.522
805.39	60.000
805.70	50.000
806.00	57.895
806.30	52.113
806.61	51.429
806.91	44.444
807.22	60.526
807.52	52.000
807.83	50.909
808.13	58.333
808.43	64.706
808.74	56.716
809.04	59.322
809.35	63.462
809.65	65.625
809.95	21.622
810.26	43.182
810.56	36.986
810.86	92.857
811.17	58.000
811.47	51.020
811.77	52.632
812.08	56.818
812.38	47.170
812.69	52.500
812.99	45.455
813.29	57.895
813.59	45.714
813.90	54.545
814.20	43.590
814.50	51.923
814.81	60.377
815.11	38.298
815.41	42.373
815.72	40.476
816.02	50.980
816.32	43.750
816.62	48.780
816.93	54.054
817.23	40.000
817.53	79.167
817.84	36.957
818.14	40.385
818.44	18.421
818.74	50.000
819.04	12.500
819.35	37.838
819.65	38.235
819.95	41.667
820.25	35.714
820.56	55.000
820.86	10.345
821.16	65.000
821.46	53.191
821.76	70.000
822.07	46.512
822.37	32.432
822.67	6.250
822.97	52.381
823.27	57.143
823.57	48.000
823.88	22.222
824.18	42.857
824.48	29.412
824.78	48.387
825.08	34.783
825.38	30.303
825.69	-8.333
825.99	31.579
826.29	25.000
826.59	86.667
826.89	-14.286
827.19	39.130
827.49	40.000
827.79	71.429
828.09	39.286
828.39	75.758
828.70	62.162
829.00	35.714
829.30	28.571
829.60	30.000
829.90	65.625
830.20	13.158
830.50	33.333
830.80	39.130
831.10	45.455
831.40	42.424
831.70	38.710
832.00	61.905
832.30	14.286
832.60	58.333
832.90	51.724
833.20	60.000
833.50	30.303
833.80	48.148
834.10	65.385
834.40	65.625
834.70	11.111
835.00	36.842
835.30	69.231
835.60	73.333
835.90	64.516
836.20	68.182
836.50	21.429
836.80	23.077
837.10	60.714
837.40	133.333
837.70	68.182
838.00	36.364
838.30	17.391
838.60	23.077
838.90	77.273
839.19	53.571
839.49	50.000
839.79	-38.462
840.09	-33.333
840.39	53.571
840.69	25.000
840.99	0.000
841.29	36.842
841.59	30.000
841.88	72.727
842.18	60.000
842.48	56.250
842.78	53.333
843.08	25.926
843.38	-40.000
843.68	21.739
843.97	-13.333
844.27	60.000
844.57	50.000
844.87	-16.667
845.17	19.048
845.47	33.333
845.76	19.048
846.06	76.471
846.36	10.000
846.66	7.143
846.96	6.667
847.25	-100.000
847.55	35.714
847.85	-50.000
848.15	13.636
848.44	-433.333
848.74	15.000
849.04	37.037
849.34	0.000
849.63	-66.667
849.93	-120.000
850.23	-33.333
850.53	100.000
850.82	15.385
851.12	100.000
851.42	20.000
851.71	23.077
852.01	7.143
852.31	25.000
852.61	-45.455
852.90	50.000
853.20	-10.526
853.50	8.333
853.79	30.435
854.09	91.667
854.39	-10.526
854.68	58.333
854.98	48.387
855.28	53.846
855.57	65.000
855.87	44.444
856.17	48.148
856.46	50.000
856.76	26.667
857.05	188.889
857.35	52.000
857.65	38.889
857.94	76.923
858.24	41.379
858.53	55.556
858.83	74.074
859.13	50.000
859.42	34.783
859.72	150.000
860.01	66.667
860.31	64.000
860.60	33.333
860.90	-100.000
861.20	-20.000
861.49	-500.000
861.79	26.667
862.08	40.000
862.38	100.000
862.67	-100.000
862.97	0.000
863.26	8.333
863.56	38.889
863.85	-166.667
864.15	77.778
864.44	-110.000
864.74	50.000
865.03	150.000
865.33	-80.000
865.62	16.667
865.92	25.000
866.21	-166.667
866.51	75.000
866.80	-63.636
867.10	0.000
867.39	66.667
867.69	0.000
867.98	53.846
868.27	0.000
868.57	73.333
868.86	72.222
869.16	38.462
869.45	66.667
869.75	200.000
870.04	0.000
870.33	-71.429
870.63	47.619
870.92	433.333
871.22	-80.000
871.51	-500.000
871.80	77.778
872.10	300.000
>>>>>End Processed Spectral Data<<<<<
