SpectraSuite Data File
++++++++++++++++++++++++++++++++++++
Date: Fri May 15 17:23:49 PDT 2015
User: schluterlab
Dark Spectrum Present: Yes
Reference Spectrum Present: Yes
Number of Sampled Component Spectra: 1
Spectrometers: USB2E3373
Integration Time (usec): 3000 (USB2E3373)
Spectra Averaged: 3 (USB2E3373)
Boxcar Smoothing: 0 (USB2E3373)
Correct for Electrical Dark: No (USB2E3373)
Strobe/Lamp Enabled: No (USB2E3373)
Correct for Detector Non-linearity: No (USB2E3373)
Correct for Stray Light: No (USB2E3373)
Number of Pixels in Processed Spectrum: 2048
>>>>>Begin Processed Spectral Data<<<<<
178.53	0.000
178.91	0.000
179.29	62.500
179.67	-300.000
180.04	-0.000
180.42	25.000
180.80	-500.000
181.18	-333.333
181.56	-150.000
181.94	400.000
182.31	-300.000
182.69	-100.000
183.07	33.333
183.45	-140.000
183.83	83.333
184.20	81.818
184.58	77.778
184.96	-75.000
185.34	-133.333
185.72	-400.000
186.09	61.538
186.47	-300.000
186.85	-50.000
187.23	88.889
187.61	-400.000
187.98	-266.667
188.36	33.333
188.74	-100.000
189.12	47.059
189.49	38.889
189.87	0.000
190.25	35.714
190.63	-150.000
191.00	300.000
191.38	0.000
191.76	350.000
192.14	-100.000
192.51	500.000
192.89	55.556
193.27	0.000
193.65	-0.000
194.02	118.182
194.40	90.000
194.78	-50.000
195.15	100.000
195.53	-50.000
195.91	150.000
196.29	75.000
196.66	84.615
197.04	85.714
197.42	11.111
197.79	-266.667
198.17	-46.154
198.55	700.000
198.92	-133.333
199.30	300.000
199.68	140.000
200.05	66.667
200.43	0.000
200.81	466.667
201.18	100.000
201.56	1700.000
201.94	200.000
202.31	-0.000
202.69	-180.000
203.07	75.000
203.44	600.000
203.82	0.000
204.19	85.714
204.57	33.333
204.95	75.000
205.32	70.000
205.70	42.857
206.08	25.000
206.45	244.444
206.83	78.571
207.20	-128.571
207.58	-600.000
207.96	-133.333
208.33	0.000
208.71	-75.000
209.08	-216.667
209.46	900.000
209.84	240.000
210.21	-300.000
210.59	14.286
210.96	0.000
211.34	0.000
211.71	86.667
212.09	-14.286
212.46	-800.000
212.84	0.000
213.22	100.000
213.59	200.000
213.97	69.231
214.34	127.273
214.72	16.667
215.09	50.000
215.47	15.385
215.84	100.000
216.22	166.667
216.59	-25.000
216.97	350.000
217.34	125.000
217.72	-120.000
218.09	50.000
218.47	112.500
218.84	300.000
219.22	66.667
219.59	-100.000
219.97	366.667
220.34	275.000
220.72	271.429
221.09	25.000
221.47	700.000
221.84	-50.000
222.22	-400.000
222.59	127.273
222.97	66.667
223.34	100.000
223.72	35.714
224.09	23.810
224.46	10.714
224.84	100.000
225.21	70.000
225.59	60.000
225.96	-150.000
226.34	-0.000
226.71	14.286
227.08	-133.333
227.46	50.000
227.83	-450.000
228.21	44.444
228.58	54.545
228.95	12.500
229.33	80.000
229.70	-6.250
230.08	0.000
230.45	71.429
230.82	71.429
231.20	6.667
231.57	42.857
231.95	28.571
232.32	-100.000
232.69	42.857
233.07	266.667
233.44	-40.000
233.81	40.000
234.19	44.444
234.56	0.000
234.93	200.000
235.31	75.000
235.68	40.000
236.05	-38.462
236.43	-20.000
236.80	11.765
237.17	-15.625
237.55	-10.000
237.92	-11.111
238.29	30.556
238.67	13.333
239.04	11.765
239.41	-9.756
239.79	23.333
240.16	9.756
240.53	0.000
240.91	8.696
241.28	0.000
241.65	14.286
242.02	20.548
242.40	-5.000
242.77	-18.644
243.14	-24.242
243.51	8.750
243.89	18.391
244.26	5.747
244.63	1.190
245.00	10.309
245.38	-3.093
245.75	-19.101
246.12	-0.862
246.49	1.653
246.87	6.731
247.24	-4.202
247.61	-3.509
247.98	-4.878
248.36	3.125
248.73	5.921
249.10	-2.597
249.47	1.899
249.84	2.614
250.22	2.941
250.59	-2.614
250.96	10.329
251.33	-6.977
251.70	1.176
252.08	0.508
252.45	-0.495
252.82	3.015
253.19	1.843
253.56	-5.140
253.94	2.252
254.31	2.174
254.68	3.509
255.05	-0.394
255.42	3.057
255.79	0.386
256.16	0.389
256.54	4.851
256.91	2.662
257.28	4.833
257.65	-1.124
258.02	-3.901
258.39	3.704
258.76	0.733
259.14	1.993
259.51	0.324
259.88	2.062
260.25	0.654
260.62	0.694
260.99	-5.085
261.36	-1.712
261.73	-2.532
262.10	1.520
262.47	0.307
262.85	-2.821
263.22	0.615
263.59	5.607
263.96	-1.242
264.33	3.333
264.70	-0.298
265.07	0.000
265.44	1.416
265.81	-0.847
266.18	0.546
266.55	2.571
266.92	-0.518
267.29	1.044
267.66	-1.535
268.03	-0.785
268.40	-0.261
268.77	1.070
269.14	0.240
269.51	2.571
269.88	1.496
270.25	0.255
270.62	-1.220
270.99	-1.790
271.36	-0.244
271.73	1.878
272.10	-0.487
272.47	1.418
272.84	0.000
273.21	2.784
273.58	-0.241
273.95	3.204
274.32	-0.693
274.69	1.131
275.06	0.893
275.43	-1.134
275.80	1.325
276.17	0.690
276.54	2.570
276.91	0.219
277.28	-2.402
277.65	0.826
278.02	0.851
278.39	-0.438
278.76	0.419
279.13	-2.905
279.50	0.630
279.87	2.160
280.23	-1.720
280.60	3.509
280.97	0.404
281.34	-1.731
281.71	2.053
282.08	0.613
282.45	-0.391
282.82	0.386
283.19	1.354
283.56	0.578
283.92	-0.569
284.29	0.385
284.66	0.000
285.03	-1.179
285.40	-1.323
285.77	0.000
286.14	1.083
286.51	2.583
286.87	0.731
287.24	0.552
287.61	1.411
287.98	1.404
288.35	1.040
288.72	2.277
289.08	-0.174
289.45	0.703
289.82	1.399
290.19	0.683
290.56	-0.343
290.93	1.515
291.29	1.079
291.66	1.417
292.03	-0.638
292.40	0.968
292.77	-0.159
293.13	-1.623
293.50	-0.607
293.87	1.832
294.24	1.236
294.60	0.596
294.97	0.298
295.34	0.767
295.71	-0.298
296.08	0.000
296.44	-0.996
296.81	-0.694
297.18	-0.725
297.55	2.033
297.91	0.274
298.28	1.583
298.65	0.543
299.02	0.674
299.38	-0.958
299.75	-0.690
300.12	0.262
300.48	0.395
300.85	2.281
301.22	1.039
301.59	-1.053
301.95	1.646
302.32	1.427
302.69	0.871
303.05	1.114
303.42	-0.747
303.79	1.168
304.15	0.717
304.52	0.000
304.89	1.053
305.25	-0.363
305.62	0.350
305.99	-0.702
306.35	0.809
306.72	-0.787
307.09	0.228
307.45	1.263
307.82	0.463
308.19	1.045
308.55	0.763
308.92	1.307
309.29	-0.782
309.65	0.323
310.02	1.100
310.38	-0.110
310.75	1.967
311.12	0.861
311.48	0.212
311.85	0.209
312.22	0.422
312.58	0.425
312.95	0.000
313.31	0.828
313.68	-0.733
314.05	0.816
314.41	0.722
314.78	1.443
315.14	0.925
315.51	0.932
315.87	1.332
316.24	3.033
316.61	3.150
316.97	1.587
317.34	2.539
317.70	2.581
318.07	1.731
318.43	2.157
318.80	2.936
319.16	3.027
319.53	4.084
319.89	2.362
320.26	3.239
320.62	3.410
320.99	4.280
321.35	4.625
321.72	4.984
322.08	5.639
322.45	3.756
322.81	4.224
323.18	5.299
323.54	4.730
323.91	6.621
324.27	7.520
324.64	7.959
325.00	8.668
325.37	8.907
325.73	8.704
326.10	9.718
326.46	11.031
326.83	11.461
327.19	10.636
327.56	10.599
327.92	12.500
328.29	12.411
328.65	12.358
329.01	13.051
329.38	13.825
329.74	14.542
330.11	13.716
330.47	14.193
330.84	14.615
331.20	19.392
331.56	16.296
331.93	16.986
332.29	18.423
332.66	18.552
333.02	17.658
333.38	18.332
333.75	18.132
334.11	18.442
334.48	19.220
334.84	18.590
335.20	18.756
335.57	20.127
335.93	20.235
336.29	20.442
336.66	18.983
337.02	19.238
337.38	19.167
337.75	20.182
338.11	22.092
338.47	22.080
338.84	21.257
339.20	21.024
339.56	21.468
339.93	22.381
340.29	21.743
340.65	23.387
341.02	21.631
341.38	22.566
341.74	21.378
342.11	22.270
342.47	21.708
342.83	22.232
343.20	21.690
343.56	23.217
343.92	23.118
344.28	23.484
344.65	23.230
345.01	22.558
345.37	22.708
345.73	23.264
346.10	23.814
346.46	23.970
346.82	23.322
347.19	22.776
347.55	23.642
347.91	24.757
348.27	23.848
348.63	23.680
349.00	23.626
349.36	24.190
349.72	24.710
350.08	24.426
350.45	24.421
350.81	23.837
351.17	24.023
351.53	23.837
351.89	24.030
352.26	24.240
352.62	25.161
352.98	24.819
353.34	24.557
353.70	26.375
354.07	23.790
354.43	24.820
354.79	25.268
355.15	25.000
355.51	25.870
355.87	24.757
356.24	25.693
356.60	25.303
356.96	26.111
357.32	25.958
357.68	25.645
358.04	26.656
358.40	24.678
358.77	27.990
359.13	25.460
359.49	25.578
359.85	26.677
360.21	26.635
360.57	25.249
360.93	26.702
361.29	25.302
361.66	26.097
362.02	27.500
362.38	27.342
362.74	27.101
363.10	28.894
363.46	27.724
363.82	28.775
364.18	28.339
364.54	28.456
364.90	27.742
365.26	28.093
365.62	29.708
365.98	28.592
366.35	29.425
366.71	28.381
367.07	28.810
367.43	28.613
367.79	28.198
368.15	29.433
368.51	29.789
368.87	29.074
369.23	29.603
369.59	29.738
369.95	29.912
370.31	29.986
370.67	30.970
371.03	30.545
371.39	31.145
371.75	30.916
372.11	30.956
372.47	32.322
372.83	30.944
373.19	32.168
373.55	31.986
373.91	32.253
374.27	33.593
374.63	33.094
374.99	32.411
375.35	33.078
375.71	32.727
376.07	34.340
376.42	33.605
376.78	33.691
377.14	33.785
377.50	34.595
377.86	33.333
378.22	34.142
378.58	35.321
378.94	35.287
379.30	34.872
379.66	36.677
380.02	34.703
380.38	33.841
380.74	35.727
381.09	36.564
381.45	35.657
381.81	36.644
382.17	35.850
382.53	37.477
382.89	37.916
383.25	37.399
383.61	37.927
383.97	37.079
384.32	37.086
384.68	38.019
385.04	35.723
385.40	37.586
385.76	38.994
386.12	39.521
386.48	39.272
386.83	38.491
387.19	39.560
387.55	39.900
387.91	39.059
388.27	39.194
388.62	40.780
388.98	38.551
389.34	39.725
389.70	39.403
390.06	38.641
390.42	40.544
390.77	40.222
391.13	38.903
391.49	40.103
391.85	39.701
392.20	40.364
392.56	41.831
392.92	41.280
393.28	40.979
393.64	40.180
393.99	41.755
394.35	41.746
394.71	41.315
395.07	41.986
395.42	40.984
395.78	40.651
396.14	42.434
396.50	42.739
396.85	43.400
397.21	42.231
397.57	41.066
397.92	41.702
398.28	41.149
398.64	40.663
399.00	42.946
399.35	40.914
399.71	42.619
400.07	43.108
400.42	42.472
400.78	42.315
401.14	41.863
401.49	42.108
401.85	42.108
402.21	42.711
402.57	42.687
402.92	41.531
403.28	42.419
403.63	43.064
403.99	40.561
404.35	43.036
404.70	42.500
405.06	41.716
405.42	42.138
405.77	42.185
406.13	42.724
406.49	41.149
406.84	41.870
407.20	42.685
407.55	40.889
407.91	41.778
408.27	41.683
408.62	42.892
408.98	41.528
409.34	42.007
409.69	42.506
410.05	41.502
410.40	42.716
410.76	42.581
411.11	41.812
411.47	42.209
411.83	42.310
412.18	42.214
412.54	43.196
412.89	42.980
413.25	43.081
413.60	42.733
413.96	41.227
414.31	42.439
414.67	42.014
415.03	42.077
415.38	42.298
415.74	43.453
416.09	43.566
416.45	43.417
416.80	42.498
417.16	43.854
417.51	44.237
417.87	42.308
418.22	44.495
418.58	42.542
418.93	43.636
419.29	41.741
419.64	44.005
420.00	44.081
420.35	44.000
420.71	44.532
421.06	44.383
421.42	43.149
421.77	43.815
422.12	43.473
422.48	44.288
422.83	44.606
423.19	44.808
423.54	44.915
423.90	46.643
424.25	45.924
424.61	44.431
424.96	44.774
425.31	46.563
425.67	46.068
426.02	46.761
426.38	47.026
426.73	46.671
427.09	47.215
427.44	47.000
427.79	47.142
428.15	46.602
428.50	47.244
428.85	46.007
429.21	46.463
429.56	48.194
429.92	47.098
430.27	46.266
430.62	45.531
430.98	47.771
431.33	47.529
431.68	47.410
432.04	49.245
432.39	46.720
432.74	47.204
433.10	48.678
433.45	48.626
433.80	48.520
434.16	48.643
434.51	49.140
434.86	49.013
435.22	49.467
435.57	49.532
435.92	49.162
436.28	48.658
436.63	50.029
436.98	48.783
437.34	48.820
437.69	50.328
438.04	50.199
438.39	49.236
438.75	50.030
439.10	50.198
439.45	50.152
439.81	50.336
440.16	52.375
440.51	50.687
440.86	52.024
441.22	50.226
441.57	50.110
441.92	51.364
442.27	51.164
442.63	50.535
442.98	51.120
443.33	49.861
443.68	50.451
444.03	50.671
444.39	50.320
444.74	52.007
445.09	51.949
445.44	51.339
445.79	52.398
446.15	49.835
446.50	49.529
446.85	50.584
447.20	50.156
447.55	50.670
447.91	52.002
448.26	51.053
448.61	51.353
448.96	52.610
449.31	50.925
449.66	51.510
450.02	51.055
450.37	52.282
450.72	52.176
451.07	51.899
451.42	51.748
451.77	51.477
452.12	50.419
452.47	51.964
452.83	50.883
453.18	51.613
453.53	51.643
453.88	51.791
454.23	51.444
454.58	52.519
454.93	51.289
455.28	50.921
455.63	51.519
455.98	51.533
456.34	52.107
456.69	52.160
457.04	52.552
457.39	51.762
457.74	51.209
458.09	50.853
458.44	51.668
458.79	51.317
459.14	51.030
459.49	51.881
459.84	52.397
460.19	52.063
460.54	52.078
460.89	51.761
461.24	51.801
461.59	51.603
461.94	49.623
462.29	52.473
462.64	53.355
462.99	52.471
463.34	52.434
463.69	51.737
464.04	50.666
464.39	50.819
464.74	50.920
465.09	51.279
465.44	50.894
465.79	49.660
466.14	51.938
466.49	50.891
466.84	51.636
467.19	51.690
467.54	50.766
467.89	51.990
468.24	50.608
468.59	51.492
468.94	50.413
469.29	51.869
469.64	51.606
469.99	53.889
470.34	52.560
470.68	53.617
471.03	52.512
471.38	51.712
471.73	52.381
472.08	51.018
472.43	52.550
472.78	51.542
473.13	51.361
473.48	51.792
473.83	51.308
474.17	51.878
474.52	51.372
474.87	50.545
475.22	52.410
475.57	50.819
475.92	51.563
476.27	52.154
476.61	52.720
476.96	49.637
477.31	51.217
477.66	49.663
478.01	51.825
478.36	50.708
478.70	52.148
479.05	51.978
479.40	51.245
479.75	51.981
480.10	50.486
480.45	51.600
480.79	52.618
481.14	52.459
481.49	50.640
481.84	51.303
482.19	50.935
482.53	50.456
482.88	50.931
483.23	50.240
483.58	50.660
483.92	49.564
484.27	50.046
484.62	50.605
484.97	50.373
485.31	49.205
485.66	48.039
486.01	47.613
486.36	47.238
486.70	47.622
487.05	47.621
487.40	48.526
487.75	48.930
488.09	49.135
488.44	48.934
488.79	49.234
489.13	50.200
489.48	50.962
489.83	50.807
490.17	50.652
490.52	50.162
490.87	48.727
491.22	50.621
491.56	49.858
491.91	50.382
492.26	50.267
492.60	50.864
492.95	51.943
493.30	50.269
493.64	51.031
493.99	50.097
494.34	50.971
494.68	51.571
495.03	50.268
495.37	50.834
495.72	50.782
496.07	51.073
496.41	50.566
496.76	51.267
497.11	50.955
497.45	51.169
497.80	51.060
498.14	49.826
498.49	50.787
498.84	50.798
499.18	50.653
499.53	50.595
499.87	50.049
500.22	50.890
500.56	51.589
500.91	50.753
501.26	50.618
501.60	50.418
501.95	50.558
502.29	50.993
502.64	51.689
502.98	51.998
503.33	49.904
503.67	50.169
504.02	50.293
504.36	51.559
504.71	50.303
505.06	50.126
505.40	51.675
505.75	52.062
506.09	50.279
506.44	51.643
506.78	51.990
507.13	51.603
507.47	50.705
507.82	52.030
508.16	51.241
508.51	51.312
508.85	51.596
509.19	50.878
509.54	51.796
509.88	51.834
510.23	52.609
510.57	52.432
510.92	50.107
511.26	52.046
511.61	52.860
511.95	51.726
512.30	52.051
512.64	52.198
512.98	52.948
513.33	52.882
513.67	52.644
514.02	53.890
514.36	52.800
514.70	54.953
515.05	53.231
515.39	53.129
515.74	54.491
516.08	53.078
516.42	53.828
516.77	53.423
517.11	54.243
517.46	54.997
517.80	53.695
518.14	53.399
518.49	52.825
518.83	53.584
519.17	53.184
519.52	52.516
519.86	53.421
520.20	53.827
520.55	53.596
520.89	54.141
521.23	54.655
521.58	55.331
521.92	55.769
522.26	54.457
522.61	55.065
522.95	55.894
523.29	54.638
523.64	55.019
523.98	54.763
524.32	53.415
524.66	53.905
525.01	54.610
525.35	55.023
525.69	54.343
526.04	54.696
526.38	56.874
526.72	54.284
527.06	53.696
527.41	55.079
527.75	54.893
528.09	54.153
528.43	55.436
528.78	54.455
529.12	53.806
529.46	55.166
529.80	54.275
530.15	54.785
530.49	55.017
530.83	55.198
531.17	54.197
531.51	54.514
531.86	53.705
532.20	55.184
532.54	54.935
532.88	55.852
533.22	54.839
533.57	53.539
533.91	54.047
534.25	54.492
534.59	53.817
534.93	52.738
535.27	53.426
535.62	53.921
535.96	53.816
536.30	53.232
536.64	54.445
536.98	53.589
537.32	54.552
537.66	55.470
538.01	54.336
538.35	54.577
538.69	54.128
539.03	52.632
539.37	53.903
539.71	54.874
540.05	54.243
540.39	53.255
540.73	54.603
541.07	54.834
541.42	53.898
541.76	54.990
542.10	53.957
542.44	54.760
542.78	52.581
543.12	53.365
543.46	55.076
543.80	53.990
544.14	52.670
544.48	53.098
544.82	53.589
545.16	54.235
545.50	54.473
545.84	54.178
546.18	53.901
546.52	53.569
546.86	53.774
547.20	54.506
547.54	54.276
547.88	54.008
548.22	53.189
548.56	53.430
548.90	54.245
549.24	53.857
549.58	52.891
549.92	53.753
550.26	55.311
550.60	55.242
550.94	55.863
551.28	57.110
551.62	56.692
551.96	54.737
552.30	54.751
552.64	53.597
552.98	53.868
553.32	55.350
553.66	54.717
554.00	55.109
554.34	55.244
554.68	54.867
555.02	56.399
555.36	55.423
555.69	55.604
556.03	54.176
556.37	53.381
556.71	55.307
557.05	56.823
557.39	54.275
557.73	55.997
558.07	56.109
558.41	56.202
558.75	56.586
559.08	55.083
559.42	57.063
559.76	57.486
560.10	55.275
560.44	55.398
560.78	55.385
561.12	56.065
561.45	56.711
561.79	54.552
562.13	55.358
562.47	55.108
562.81	54.755
563.15	55.219
563.48	54.526
563.82	54.427
564.16	55.780
564.50	55.405
564.84	54.685
565.17	54.192
565.51	56.216
565.85	56.173
566.19	54.377
566.52	57.105
566.86	54.820
567.20	54.296
567.54	54.380
567.88	54.657
568.21	54.072
568.55	52.826
568.89	53.696
569.23	52.913
569.56	53.240
569.90	53.065
570.24	50.428
570.57	51.055
570.91	51.237
571.25	50.378
571.59	49.268
571.92	48.681
572.26	49.124
572.60	50.047
572.93	49.576
573.27	49.655
573.61	50.209
573.95	49.891
574.28	48.967
574.62	48.411
574.96	48.417
575.29	48.334
575.63	47.733
575.97	48.035
576.30	48.946
576.64	48.000
576.98	49.550
577.31	49.545
577.65	48.532
577.98	48.584
578.32	47.737
578.66	47.969
578.99	48.175
579.33	48.014
579.67	48.473
580.00	48.481
580.34	49.154
580.67	48.170
581.01	48.655
581.35	48.127
581.68	48.494
582.02	48.156
582.35	48.524
582.69	48.422
583.02	48.857
583.36	48.569
583.70	50.078
584.03	50.403
584.37	51.045
584.70	49.643
585.04	48.731
585.37	49.803
585.71	49.716
586.04	48.966
586.38	48.786
586.72	50.445
587.05	50.491
587.39	51.048
587.72	51.066
588.06	50.318
588.39	50.242
588.73	50.824
589.06	51.859
589.40	51.573
589.73	51.880
590.07	52.266
590.40	51.896
590.73	53.666
591.07	52.375
591.40	52.939
591.74	53.032
592.07	52.876
592.41	53.843
592.74	52.330
593.08	50.891
593.41	51.664
593.75	50.638
594.08	51.528
594.41	52.584
594.75	52.214
595.08	52.667
595.42	52.521
595.75	53.398
596.09	53.401
596.42	52.625
596.75	52.886
597.09	52.984
597.42	53.433
597.75	54.421
598.09	53.237
598.42	52.482
598.76	52.553
599.09	52.043
599.42	50.928
599.76	50.941
600.09	51.885
600.42	51.592
600.76	51.486
601.09	52.328
601.42	52.135
601.76	52.521
602.09	52.228
602.42	53.875
602.76	53.353
603.09	53.364
603.42	53.679
603.76	52.500
604.09	53.260
604.42	53.596
604.76	54.295
605.09	54.296
605.42	53.047
605.75	54.072
606.09	53.503
606.42	52.544
606.75	52.035
607.09	53.407
607.42	53.257
607.75	52.975
608.08	53.549
608.42	52.490
608.75	54.554
609.08	54.509
609.41	54.365
609.75	54.234
610.08	54.568
610.41	53.816
610.74	54.315
611.07	56.279
611.41	54.593
611.74	55.490
612.07	54.925
612.40	56.072
612.73	55.932
613.07	56.018
613.40	55.580
613.73	55.624
614.06	55.036
614.39	55.556
614.72	54.342
615.06	55.698
615.39	54.585
615.72	54.037
616.05	55.475
616.38	53.846
616.71	56.820
617.05	56.269
617.38	57.574
617.71	57.233
618.04	56.762
618.37	57.314
618.70	57.624
619.03	58.194
619.36	57.308
619.69	60.197
620.03	59.533
620.36	59.227
620.69	58.315
621.02	58.486
621.35	60.083
621.68	60.119
622.01	59.333
622.34	59.777
622.67	60.331
623.00	59.418
623.33	57.698
623.66	57.741
623.99	58.850
624.32	59.011
624.65	58.271
624.99	60.271
625.32	58.757
625.65	59.937
625.98	60.999
626.31	60.515
626.64	61.265
626.97	60.646
627.30	61.384
627.63	61.265
627.96	63.073
628.29	63.367
628.62	62.635
628.95	63.026
629.28	64.113
629.61	61.715
629.94	63.148
630.26	60.870
630.59	64.308
630.92	64.308
631.25	61.641
631.58	64.427
631.91	64.474
632.24	65.252
632.57	66.023
632.90	65.006
633.23	65.059
633.56	67.254
633.89	66.708
634.22	68.148
634.55	65.057
634.88	68.455
635.20	66.154
635.53	69.067
635.86	66.060
636.19	66.624
636.52	66.582
636.85	64.268
637.18	64.151
637.51	66.164
637.83	67.674
638.16	68.486
638.49	65.531
638.82	65.263
639.15	65.943
639.48	67.125
639.81	67.643
640.13	67.388
640.46	67.347
640.79	66.863
641.12	66.617
641.45	69.670
641.77	66.815
642.10	70.142
642.43	69.132
642.76	70.132
643.09	70.275
643.41	65.210
643.74	65.733
644.07	67.159
644.40	72.973
644.73	72.680
645.05	67.450
645.38	69.841
645.71	70.567
646.04	71.634
646.36	70.213
646.69	71.223
647.02	72.968
647.35	70.336
647.67	69.104
648.00	73.134
648.33	68.089
648.66	70.000
648.98	64.322
649.31	68.760
649.64	68.132
649.96	66.613
650.29	70.017
650.62	68.889
650.94	70.185
651.27	70.205
651.60	71.351
651.92	69.231
652.25	68.028
652.58	67.500
652.90	70.497
653.23	67.227
653.56	67.513
653.88	66.667
654.21	67.250
654.54	67.912
654.86	68.761
655.19	63.450
655.52	62.152
655.84	51.532
656.17	55.957
656.49	76.458
656.82	80.128
657.15	61.949
657.47	47.074
657.80	35.165
658.13	35.002
658.45	54.565
658.78	55.434
659.10	55.079
659.43	56.528
659.75	58.411
660.08	59.517
660.41	64.556
660.73	66.989
661.06	70.884
661.38	69.472
661.71	66.735
662.03	75.536
662.36	72.527
662.68	74.336
663.01	72.271
663.33	76.102
663.66	74.186
663.98	74.651
664.31	68.017
664.63	72.350
664.96	67.174
665.28	71.965
665.61	73.160
665.93	71.087
666.26	73.536
666.58	69.351
666.91	73.882
667.23	76.415
667.56	72.749
667.88	74.580
668.21	74.940
668.53	75.414
668.86	75.000
669.18	70.283
669.50	76.271
669.83	70.930
670.15	70.862
670.48	73.923
670.80	70.507
671.13	71.365
671.45	71.461
671.77	73.176
672.10	67.327
672.42	70.225
672.75	69.272
673.07	69.410
673.39	70.826
673.72	68.047
674.04	71.458
674.37	71.610
674.69	70.878
675.01	73.111
675.34	74.775
675.66	75.000
675.98	70.953
676.31	71.330
676.63	73.634
676.95	72.045
677.28	76.471
677.60	80.723
677.92	75.459
678.25	74.179
678.57	71.429
678.89	73.529
679.22	75.168
679.54	71.285
679.86	68.390
680.18	69.709
680.51	67.992
680.83	70.378
681.15	72.600
681.48	73.156
681.80	73.140
682.12	69.556
682.44	71.757
682.77	73.951
683.09	74.828
683.41	71.136
683.73	72.811
684.06	73.451
684.38	70.753
684.70	74.946
685.02	74.274
685.34	67.589
685.67	69.231
685.99	66.908
686.31	66.726
686.63	68.646
686.96	69.392
687.28	69.091
687.60	70.152
687.92	72.727
688.24	69.960
688.56	74.891
688.89	72.321
689.21	74.222
689.53	72.390
689.85	71.163
690.17	70.536
690.49	72.813
690.82	75.971
691.14	72.143
691.46	74.766
691.78	72.973
692.10	73.548
692.42	70.346
692.74	71.581
693.06	72.523
693.39	70.588
693.71	71.267
694.03	72.517
694.35	72.664
694.67	74.242
694.99	73.629
695.31	79.112
695.63	73.000
695.95	71.465
696.27	74.352
696.59	78.889
696.91	73.389
697.23	73.779
697.56	77.228
697.88	69.892
698.20	75.854
698.52	74.118
698.84	69.139
699.16	70.750
699.48	75.439
699.80	73.697
700.12	73.585
700.44	75.350
700.76	73.256
701.08	75.152
701.40	73.795
701.72	80.556
702.04	82.178
702.36	83.278
702.68	77.778
703.00	80.000
703.32	74.194
703.64	71.751
703.96	78.261
704.28	74.233
704.60	78.413
704.91	72.240
705.23	78.738
705.55	79.505
705.87	80.866
706.19	87.037
706.51	78.351
706.83	73.955
707.15	74.766
707.47	78.151
707.79	73.177
708.11	73.250
708.43	72.750
708.74	72.351
709.06	76.056
709.38	80.122
709.70	75.740
710.02	83.121
710.34	75.542
710.66	75.321
710.98	81.788
711.29	76.721
711.61	77.288
711.93	76.221
712.25	81.443
712.57	77.656
712.89	78.731
713.20	79.931
713.52	82.230
713.84	79.522
714.16	75.601
714.48	75.806
714.80	72.756
715.11	73.556
715.43	73.354
715.75	77.333
716.07	77.741
716.39	74.832
716.70	73.801
717.02	78.244
717.34	85.425
717.66	85.398
717.97	86.957
718.29	84.937
718.61	77.165
718.93	74.419
719.24	80.989
719.56	77.912
719.88	71.821
720.20	75.379
720.51	73.563
720.83	83.784
721.15	86.134
721.46	80.242
721.78	80.632
722.10	75.093
722.42	84.647
722.73	82.449
723.05	82.041
723.37	82.627
723.68	85.586
724.00	82.051
724.32	80.444
724.63	75.909
724.95	81.223
725.27	79.724
725.58	77.119
725.90	70.635
726.22	74.903
726.53	77.627
726.85	79.401
727.16	80.755
727.48	80.567
727.80	79.757
728.11	79.237
728.43	78.039
728.74	74.597
729.06	79.200
729.38	80.827
729.69	77.291
730.01	72.692
730.32	79.478
730.64	78.799
730.96	83.396
731.27	71.667
731.59	75.593
731.90	72.930
732.22	72.871
732.53	74.086
732.85	77.305
733.16	83.165
733.48	76.978
733.80	78.623
734.11	73.559
734.43	77.320
734.74	70.303
735.06	74.919
735.37	72.810
735.69	80.808
736.00	73.519
736.32	75.503
736.63	78.169
736.95	79.522
737.26	77.580
737.58	75.503
737.89	75.824
738.21	78.947
738.52	81.893
738.83	83.406
739.15	76.419
739.46	79.134
739.78	76.190
740.09	70.915
740.41	77.536
740.72	71.260
741.04	80.972
741.35	71.915
741.66	83.412
741.98	86.224
742.29	78.713
742.61	80.628
742.92	74.408
743.23	73.148
743.55	84.163
743.86	79.426
744.18	81.340
744.49	83.511
744.80	83.152
745.12	93.048
745.43	76.585
745.74	89.062
746.06	81.951
746.37	91.099
746.68	83.886
747.00	82.979
747.31	90.050
747.62	81.553
747.94	83.732
748.25	88.614
748.56	85.792
748.88	88.482
749.19	85.106
749.50	79.310
749.82	79.245
750.13	86.239
750.44	81.203
750.75	80.597
751.07	79.562
751.38	81.609
751.69	81.176
752.01	74.806
752.32	79.283
752.63	78.656
752.94	77.155
753.26	81.172
753.57	84.163
753.88	81.416
754.19	82.500
754.51	78.512
754.82	78.138
755.13	83.750
755.44	80.242
755.75	80.859
756.07	77.432
756.38	74.340
756.69	75.862
757.00	74.000
757.31	72.876
757.63	73.171
757.94	71.111
758.25	70.137
758.56	64.628
758.87	66.006
759.18	68.224
759.50	75.273
759.81	75.920
760.12	76.452
760.43	70.000
760.74	76.543
761.05	72.308
761.36	71.307
761.67	73.636
761.99	76.871
762.30	74.545
762.61	79.051
762.92	75.113
763.23	80.180
763.54	77.103
763.85	83.475
764.16	76.349
764.47	73.387
764.78	71.429
765.10	73.737
765.41	70.347
765.72	73.016
766.03	74.060
766.34	74.818
766.65	72.908
766.96	81.818
767.27	82.447
767.58	77.011
767.89	88.652
768.20	75.000
768.51	82.418
768.82	76.355
769.13	68.664
769.44	72.532
769.75	70.320
770.06	75.862
770.37	79.327
770.68	75.127
770.99	70.136
771.30	87.255
771.61	71.041
771.92	72.845
772.23	81.281
772.54	86.022
772.85	83.333
773.16	79.213
773.47	90.196
773.78	84.967
774.09	77.246
774.39	76.000
774.70	67.516
775.01	88.966
775.32	80.714
775.63	93.388
775.94	83.206
776.25	90.551
776.56	80.000
776.87	90.385
777.18	83.761
777.48	83.621
777.79	88.696
778.10	82.857
778.41	83.784
778.72	86.508
779.03	78.947
779.34	84.397
779.65	86.301
779.95	87.671
780.26	77.241
780.57	89.431
780.88	71.654
781.19	80.172
781.50	93.023
781.80	76.331
782.11	68.553
782.42	90.769
782.73	78.417
783.04	85.185
783.34	69.444
783.65	73.504
783.96	83.607
784.27	82.069
784.57	80.488
784.88	75.000
785.19	94.000
785.50	89.000
785.81	83.621
786.11	81.034
786.42	77.670
786.73	77.273
787.04	78.571
787.34	65.179
787.65	83.810
787.96	76.106
788.26	86.364
788.57	76.923
788.88	82.031
789.19	75.397
789.49	75.652
789.80	90.816
790.11	86.869
790.41	68.182
790.72	96.739
791.03	87.500
791.33	98.750
791.64	87.500
791.95	97.674
792.25	73.404
792.56	88.764
792.87	90.411
793.17	92.754
793.48	81.333
793.79	73.750
794.09	85.000
794.40	68.868
794.70	72.816
795.01	63.415
795.32	70.940
795.62	74.286
795.93	90.196
796.23	80.189
796.54	83.333
796.85	91.176
797.15	80.282
797.46	86.111
797.76	84.848
798.07	74.419
798.37	61.842
798.68	75.758
798.99	85.185
799.29	77.143
799.60	79.710
799.90	76.000
800.21	85.246
800.51	73.846
800.82	81.356
801.12	76.812
801.43	86.885
801.73	88.889
802.04	84.000
802.34	92.537
802.65	75.000
802.95	76.786
803.26	73.077
803.56	109.804
803.87	69.565
804.17	73.333
804.48	103.175
804.78	87.037
805.09	91.304
805.39	91.111
805.70	81.481
806.00	61.404
806.30	70.423
806.61	91.429
806.91	69.444
807.22	96.053
807.52	81.333
807.83	87.273
808.13	86.111
808.43	82.353
808.74	58.209
809.04	77.966
809.35	94.231
809.65	73.438
809.95	67.568
810.26	84.091
810.56	68.493
810.86	78.571
811.17	84.000
811.47	100.000
811.77	94.737
812.08	72.727
812.38	92.453
812.69	75.000
812.99	96.970
813.29	81.579
813.59	85.714
813.90	59.091
814.20	84.615
814.50	82.692
814.81	90.566
815.11	61.702
815.41	83.051
815.72	97.619
816.02	78.431
816.32	72.917
816.62	75.610
816.93	86.486
817.23	111.429
817.53	89.583
817.84	78.261
818.14	78.846
818.44	68.421
818.74	95.652
819.04	37.500
819.35	124.324
819.65	50.000
819.95	88.889
820.25	76.190
820.56	112.500
820.86	58.621
821.16	70.000
821.46	89.362
821.76	95.000
822.07	90.698
822.37	51.351
822.67	68.750
822.97	66.667
823.27	71.429
823.57	80.000
823.88	74.074
824.18	92.857
824.48	50.000
824.78	93.548
825.08	73.913
825.38	90.909
825.69	58.333
825.99	81.579
826.29	72.222
826.59	160.000
826.89	42.857
827.19	58.696
827.49	90.000
827.79	85.714
828.09	132.143
828.39	112.121
828.70	105.405
829.00	107.143
829.30	114.286
829.60	93.333
829.90	84.375
830.20	71.053
830.50	96.296
830.80	91.304
831.10	81.818
831.40	84.848
831.70	106.452
832.00	90.476
832.30	100.000
832.60	100.000
832.90	89.655
833.20	90.000
833.50	63.636
833.80	85.185
834.10	84.615
834.40	84.375
834.70	155.556
835.00	84.211
835.30	153.846
835.60	146.667
835.90	70.968
836.20	95.455
836.50	78.571
836.80	19.231
837.10	71.429
837.40	700.000
837.70	113.636
838.00	63.636
838.30	39.130
838.60	84.615
838.90	81.818
839.19	71.429
839.49	66.667
839.79	138.462
840.09	75.000
840.39	96.429
840.69	42.857
840.99	115.385
841.29	57.895
841.59	40.000
841.88	145.455
842.18	110.000
842.48	156.250
842.78	120.000
843.08	59.259
843.38	80.000
843.68	82.609
843.97	146.667
844.27	93.333
844.57	90.000
844.87	66.667
845.17	38.095
845.47	106.667
845.76	80.952
846.06	105.882
846.36	110.000
846.66	128.571
846.96	33.333
847.25	112.500
847.55	128.571
847.85	62.500
848.15	77.273
848.44	366.667
848.74	70.000
849.04	51.852
849.34	54.545
849.63	83.333
849.93	220.000
850.23	61.111
850.53	120.000
850.82	61.538
851.12	144.444
851.42	80.000
851.71	57.692
852.01	57.143
852.31	75.000
852.61	54.545
852.90	75.000
853.20	105.263
853.50	116.667
853.79	95.652
854.09	116.667
854.39	84.211
854.68	37.500
854.98	58.065
855.28	123.077
855.57	95.000
855.87	72.222
856.17	74.074
856.46	35.714
856.76	80.000
857.05	155.556
857.35	68.000
857.65	66.667
857.94	69.231
858.24	72.414
858.53	77.778
858.83	48.148
859.13	50.000
859.42	69.565
859.72	0.000
860.01	-266.667
860.31	80.000
860.60	61.905
860.90	66.667
861.20	73.333
861.49	0.000
861.79	60.000
862.08	35.000
862.38	206.667
862.67	60.000
862.97	266.667
863.26	33.333
863.56	88.889
863.85	-200.000
864.15	55.556
864.44	50.000
864.74	135.714
865.03	125.000
865.33	-40.000
865.62	183.333
865.92	83.333
866.21	50.000
866.51	68.750
866.80	90.909
867.10	250.000
867.39	41.667
867.69	0.000
867.98	61.538
868.27	66.667
868.57	26.667
868.86	83.333
869.16	7.692
869.45	73.333
869.75	-300.000
870.04	0.000
870.33	171.429
870.63	47.619
870.92	66.667
871.22	-160.000
871.51	700.000
871.80	266.667
872.10	-66.667
>>>>>End Processed Spectral Data<<<<<
