SpectraSuite Data File
++++++++++++++++++++++++++++++++++++
Date: Fri May 15 17:25:21 PDT 2015
User: schluterlab
Dark Spectrum Present: Yes
Reference Spectrum Present: Yes
Number of Sampled Component Spectra: 1
Spectrometers: USB2E3373
Integration Time (usec): 3000 (USB2E3373)
Spectra Averaged: 3 (USB2E3373)
Boxcar Smoothing: 0 (USB2E3373)
Correct for Electrical Dark: No (USB2E3373)
Strobe/Lamp Enabled: No (USB2E3373)
Correct for Detector Non-linearity: No (USB2E3373)
Correct for Stray Light: No (USB2E3373)
Number of Pixels in Processed Spectrum: 2048
>>>>>Begin Processed Spectral Data<<<<<
178.53	0.000
178.91	0.000
179.29	25.000
179.67	-350.000
180.04	42.857
180.42	150.000
180.80	-100.000
181.18	-266.667
181.56	400.000
181.94	100.000
182.31	-0.000
182.69	-160.000
183.07	66.667
183.45	-120.000
183.83	116.667
184.20	18.182
184.58	77.778
184.96	-50.000
185.34	-66.667
185.72	-150.000
186.09	-0.000
186.47	-200.000
186.85	133.333
187.23	55.556
187.61	-500.000
187.98	-100.000
188.36	55.556
188.74	-66.667
189.12	82.353
189.49	27.778
189.87	0.000
190.25	100.000
190.63	-350.000
191.00	-133.333
191.38	0.000
191.76	500.000
192.14	-75.000
192.51	650.000
192.89	0.000
193.27	-128.571
193.65	-0.000
194.02	54.545
194.40	80.000
194.78	-75.000
195.15	41.667
195.53	-200.000
195.91	75.000
196.29	25.000
196.66	-7.692
197.04	-71.429
197.42	-88.889
197.79	-233.333
198.17	-76.923
198.55	800.000
198.92	-166.667
199.30	-500.000
199.68	-180.000
200.05	100.000
200.43	0.000
200.81	-200.000
201.18	-133.333
201.56	200.000
201.94	200.000
202.31	-600.000
202.69	-220.000
203.07	225.000
203.44	600.000
203.82	0.000
204.19	42.857
204.57	-200.000
204.95	37.500
205.32	0.000
205.70	100.000
206.08	25.000
206.45	188.889
206.83	107.143
207.20	42.857
207.58	-600.000
207.96	133.333
208.33	20.000
208.71	75.000
209.08	-150.000
209.46	-600.000
209.84	80.000
210.21	0.000
210.59	85.714
210.96	33.333
211.34	25.000
211.71	86.667
212.09	-100.000
212.46	-1200.000
212.84	0.000
213.22	90.000
213.59	-100.000
213.97	92.308
214.34	-45.455
214.72	16.667
215.09	250.000
215.47	61.538
215.84	-27.273
216.22	66.667
216.59	0.000
216.97	-100.000
217.34	-75.000
217.72	-60.000
218.09	-37.500
218.47	50.000
218.84	-700.000
219.22	-11.111
219.59	100.000
219.97	433.333
220.34	225.000
220.72	0.000
221.09	125.000
221.47	0.000
221.84	-650.000
222.22	-450.000
222.59	0.000
222.97	50.000
223.34	-33.333
223.72	35.714
224.09	-4.762
224.46	21.429
224.84	400.000
225.21	40.000
225.59	33.333
225.96	200.000
226.34	250.000
226.71	-57.143
227.08	-50.000
227.46	0.000
227.83	-250.000
228.21	33.333
228.58	90.909
228.95	237.500
229.33	100.000
229.70	62.500
230.08	-62.500
230.45	114.286
230.82	100.000
231.20	40.000
231.57	114.286
231.95	200.000
232.32	-20.000
232.69	-21.429
233.07	33.333
233.44	-60.000
233.81	10.000
234.19	100.000
234.56	29.412
234.93	100.000
235.31	200.000
235.68	-160.000
236.05	-84.615
236.43	35.000
236.80	5.882
237.17	50.000
237.55	10.000
237.92	14.815
238.29	5.556
238.67	43.333
239.04	58.824
239.41	-4.878
239.79	6.667
240.16	46.341
240.53	23.684
240.91	6.522
241.28	25.397
241.65	28.571
242.02	17.808
242.40	26.667
242.77	23.729
243.14	6.061
243.51	32.500
243.89	29.885
244.26	21.839
244.63	27.381
245.00	30.928
245.38	38.144
245.75	20.225
246.12	19.828
246.49	20.661
246.87	15.385
247.24	18.487
247.61	17.544
247.98	23.577
248.36	24.375
248.73	18.421
249.10	18.182
249.47	14.557
249.84	18.954
250.22	22.353
250.59	24.183
250.96	23.005
251.33	24.419
251.70	19.412
252.08	24.873
252.45	25.248
252.82	22.613
253.19	15.668
253.56	19.626
253.94	24.775
254.31	20.000
254.68	23.246
255.05	24.016
255.42	23.581
255.79	26.641
256.16	22.179
256.54	25.000
256.91	23.954
257.28	19.331
257.65	22.097
258.02	20.213
258.39	22.559
258.76	25.275
259.14	23.588
259.51	22.006
259.88	22.680
260.25	18.954
260.62	22.569
260.99	19.322
261.36	23.288
261.73	22.785
262.10	22.188
262.47	18.405
262.85	19.749
263.22	23.077
263.59	21.807
263.96	23.913
264.33	22.121
264.70	24.405
265.07	23.512
265.44	22.946
265.81	22.316
266.18	24.863
266.55	24.936
266.92	23.834
267.29	22.977
267.66	24.041
268.03	25.131
268.40	21.410
268.77	26.203
269.14	23.501
269.51	24.936
269.88	21.197
270.25	20.153
270.62	19.756
270.99	21.228
271.36	23.227
271.73	21.362
272.10	25.061
272.47	24.113
272.84	21.040
273.21	22.506
273.58	21.205
273.95	22.197
274.32	21.247
274.69	19.910
275.06	23.214
275.43	21.088
275.80	22.517
276.17	19.540
276.54	23.340
276.91	23.904
277.28	19.651
277.65	22.314
278.02	22.979
278.39	21.444
278.76	21.384
279.13	19.502
279.50	21.849
279.87	20.086
280.23	20.215
280.60	23.782
280.97	22.626
281.34	17.885
281.71	21.150
282.08	20.859
282.45	20.352
282.82	20.077
283.19	23.017
283.56	20.424
283.92	21.063
284.29	20.192
284.66	20.349
285.03	20.432
285.40	20.794
285.77	19.156
286.14	20.217
286.51	21.587
286.87	20.841
287.24	19.153
287.61	18.519
287.98	20.526
288.35	19.064
288.72	20.315
289.08	18.403
289.45	20.562
289.82	19.406
290.19	20.137
290.56	19.039
290.93	17.003
291.29	18.644
291.66	17.008
292.03	17.384
292.40	19.032
292.77	15.470
293.13	15.422
293.50	18.361
293.87	18.626
294.24	16.383
294.60	16.095
294.97	15.030
295.34	16.564
295.71	16.542
296.08	18.236
296.44	16.074
296.81	16.389
297.18	17.826
297.55	18.428
297.91	16.164
298.28	17.018
298.65	15.332
299.02	15.768
299.38	14.637
299.75	15.172
300.12	14.529
300.48	14.493
300.85	16.223
301.22	14.416
301.59	14.605
301.95	15.949
302.32	16.602
302.69	14.179
303.05	14.728
303.42	15.567
303.79	15.771
304.15	14.337
304.52	14.863
304.89	13.567
305.25	12.470
305.62	14.236
305.99	14.386
306.35	11.792
306.72	13.948
307.09	14.025
307.45	14.466
307.82	14.236
308.19	13.937
308.55	13.959
308.92	14.379
309.29	14.413
309.65	13.455
310.02	13.091
310.38	13.721
310.75	14.973
311.12	14.209
311.48	13.574
311.85	13.089
312.22	13.713
312.58	12.739
312.95	13.127
313.31	13.354
313.68	12.461
314.05	12.959
314.41	12.784
314.78	14.433
315.14	14.902
315.51	14.182
315.87	13.217
316.24	14.257
316.61	12.992
316.97	13.889
317.34	13.965
317.70	14.436
318.07	13.173
318.43	14.412
318.80	13.731
319.16	14.160
319.53	15.005
319.89	14.075
320.26	13.158
320.62	14.744
320.99	14.301
321.35	15.313
321.72	14.953
322.08	15.408
322.45	15.635
322.81	14.145
323.18	14.818
323.54	13.996
323.91	14.995
324.27	15.918
324.64	15.356
325.00	16.150
325.37	16.804
325.73	16.047
326.10	17.348
326.46	17.220
326.83	16.798
327.19	17.088
327.56	18.158
327.92	18.486
328.29	17.411
328.65	18.208
329.01	18.107
329.38	19.078
329.74	17.092
330.11	18.072
330.47	17.904
330.84	18.077
331.20	20.532
331.56	17.963
331.93	20.183
332.29	19.432
332.66	18.009
333.02	18.959
333.38	19.248
333.75	21.612
334.11	19.517
334.48	19.946
334.84	18.590
335.20	19.762
335.57	18.767
335.93	19.874
336.29	20.902
336.66	19.074
337.02	19.517
337.38	18.889
337.75	19.818
338.11	20.198
338.47	20.712
338.84	19.593
339.20	20.567
339.56	19.266
339.93	21.218
340.29	21.284
340.65	19.892
341.02	20.301
341.38	19.646
341.74	19.523
342.11	19.151
342.47	20.018
342.83	20.415
343.20	19.425
343.56	19.739
343.92	20.726
344.28	20.581
344.65	19.948
345.01	19.793
345.37	20.521
345.73	21.004
346.10	20.017
346.46	20.185
346.82	21.358
347.19	18.869
347.55	20.718
347.91	22.006
348.27	19.159
348.63	21.295
349.00	20.345
349.36	19.036
349.72	22.139
350.08	19.918
350.45	19.633
350.81	19.767
351.17	19.707
351.53	21.061
351.89	19.240
352.26	19.360
352.62	20.806
352.98	19.920
353.34	19.887
353.70	20.955
354.07	20.887
354.43	20.416
354.79	20.479
355.15	20.714
355.51	21.203
355.87	20.307
356.24	20.636
356.60	21.019
356.96	21.984
357.32	20.208
357.68	19.703
358.04	21.082
358.40	20.659
358.77	20.494
359.13	20.817
359.49	20.647
359.85	20.983
360.21	20.255
360.57	21.500
360.93	20.802
361.29	19.940
361.66	22.414
362.02	22.045
362.38	21.630
362.74	21.196
363.10	21.971
363.46	20.756
363.82	21.037
364.18	22.140
364.54	21.397
364.90	22.509
365.26	21.616
365.62	22.701
365.98	22.434
366.35	22.433
366.71	22.247
367.07	22.279
367.43	22.430
367.79	21.979
368.15	21.536
368.51	21.923
368.87	21.680
369.23	22.310
369.59	22.157
369.95	22.581
370.31	21.749
370.67	23.284
371.03	22.629
371.39	22.538
371.75	21.758
372.11	23.324
372.47	23.373
372.83	22.782
373.19	23.039
373.55	23.394
373.91	22.894
374.27	23.671
374.63	22.972
374.99	22.411
375.35	22.981
375.71	23.846
376.07	24.017
376.42	23.673
376.78	24.228
377.14	24.374
377.50	24.436
377.86	23.695
378.22	24.952
378.58	24.679
378.94	25.079
379.30	24.766
379.66	25.392
380.02	24.709
380.38	24.772
380.74	24.895
381.09	24.356
381.45	24.954
381.81	25.725
382.17	25.254
382.53	25.234
382.89	25.675
383.25	26.882
383.61	25.793
383.97	26.476
384.32	25.391
384.68	26.130
385.04	25.306
385.40	25.513
385.76	26.478
386.12	27.555
386.48	27.331
386.83	26.569
387.19	26.984
387.55	28.921
387.91	27.262
388.27	27.167
388.62	27.942
388.98	28.300
389.34	27.545
389.70	28.092
390.06	27.942
390.42	27.137
390.77	28.385
391.13	27.554
391.49	28.913
391.85	28.265
392.20	28.123
392.56	28.735
392.92	28.773
393.28	28.538
393.64	28.949
393.99	30.345
394.35	27.957
394.71	28.991
395.07	28.661
395.42	29.083
395.78	29.316
396.14	28.625
396.50	29.994
396.85	29.363
397.21	29.511
397.57	29.091
397.92	29.898
398.28	29.885
398.64	29.157
399.00	30.756
399.35	29.345
399.71	28.891
400.07	30.048
400.42	29.743
400.78	30.251
401.14	30.188
401.49	30.494
401.85	29.738
402.21	30.361
402.57	30.687
402.92	29.987
403.28	31.203
403.63	30.013
403.99	30.548
404.35	31.543
404.70	30.476
405.06	30.905
405.42	29.832
405.77	29.460
406.13	30.210
406.49	29.959
406.84	31.112
407.20	30.163
407.55	30.457
407.91	30.348
408.27	30.720
408.62	31.262
408.98	31.177
409.34	30.731
409.69	30.749
410.05	30.419
410.40	30.926
410.76	30.941
411.11	31.250
411.47	32.018
411.83	30.760
412.18	31.918
412.54	30.961
412.89	30.850
413.25	31.829
413.60	31.988
413.96	30.307
414.31	30.732
414.67	31.944
415.03	31.225
415.38	31.723
415.74	32.704
416.09	32.920
416.45	32.816
416.80	32.716
417.16	32.528
417.51	33.045
417.87	31.943
418.22	32.319
418.58	33.445
418.93	33.730
419.29	31.754
419.64	32.599
420.00	33.690
420.35	32.060
420.71	33.111
421.06	31.921
421.42	32.933
421.77	32.428
422.12	33.258
422.48	33.243
422.83	33.121
423.19	32.562
423.54	32.922
423.90	33.098
424.25	34.156
424.61	34.027
424.96	33.101
425.31	34.835
425.67	34.507
426.02	34.806
426.38	35.191
426.73	35.351
427.09	34.114
427.44	35.647
427.79	35.062
428.15	34.769
428.50	35.615
428.85	34.214
429.21	35.201
429.56	35.849
429.92	36.055
430.27	34.586
430.62	35.024
430.98	35.085
431.33	35.910
431.68	35.583
432.04	34.824
432.39	34.284
432.74	35.719
433.10	36.379
433.45	36.977
433.80	37.028
434.16	36.066
434.51	36.290
434.86	35.889
435.22	35.951
435.57	37.742
435.92	36.886
436.28	37.030
436.63	36.566
436.98	36.790
437.34	37.508
437.69	38.521
438.04	38.974
438.39	37.630
438.75	39.405
439.10	38.596
439.45	39.075
439.81	38.410
440.16	38.777
440.51	39.463
440.86	39.154
441.22	39.140
441.57	38.907
441.92	38.667
442.27	39.800
442.63	39.347
442.98	38.656
443.33	38.509
443.68	37.825
444.03	39.295
444.39	39.154
444.74	39.967
445.09	39.532
445.44	39.259
445.79	40.175
446.15	39.813
446.50	38.769
446.85	39.586
447.20	40.615
447.55	40.067
447.91	39.199
448.26	40.467
448.61	39.609
448.96	41.193
449.31	41.503
449.66	39.199
450.02	40.559
450.37	40.960
450.72	40.722
451.07	41.392
451.42	39.451
451.77	40.506
452.12	40.789
452.47	41.597
452.83	40.931
453.18	40.670
453.53	41.783
453.88	41.409
454.23	41.856
454.58	42.569
454.93	42.590
455.28	40.444
455.63	41.538
455.98	41.792
456.34	41.826
456.69	41.931
457.04	41.777
457.39	41.738
457.74	42.322
458.09	41.789
458.44	41.837
458.79	40.840
459.14	41.590
459.49	42.448
459.84	41.399
460.19	41.990
460.54	43.093
460.89	42.386
461.24	42.236
461.59	41.686
461.94	41.384
462.29	43.305
462.64	43.056
462.99	42.383
463.34	42.490
463.69	41.570
464.04	43.039
464.39	41.722
464.74	41.718
465.09	43.294
465.44	43.047
465.79	41.043
466.14	43.786
466.49	42.496
466.84	41.880
467.19	42.678
467.54	43.167
467.89	42.830
468.24	42.214
468.59	44.063
468.94	42.730
469.29	43.541
469.64	43.814
469.99	44.219
470.34	44.027
470.68	44.892
471.03	45.364
471.38	44.793
471.73	43.347
472.08	43.758
472.43	43.826
472.78	43.592
473.13	44.830
473.48	44.169
473.83	44.583
474.17	45.272
474.52	43.969
474.87	43.879
475.22	43.258
475.57	44.382
475.92	44.432
476.27	44.529
476.61	45.139
476.96	43.279
477.31	43.970
477.66	44.045
478.01	43.908
478.36	43.410
478.70	44.481
479.05	43.901
479.40	44.886
479.75	43.274
480.10	43.728
480.45	42.500
480.79	43.706
481.14	44.775
481.49	43.645
481.84	44.643
482.19	44.200
482.53	44.221
482.88	42.864
483.23	44.146
483.58	44.151
483.92	44.627
484.27	43.938
484.62	44.733
484.97	43.284
485.31	42.413
485.66	40.623
486.01	40.621
486.36	40.377
486.70	40.631
487.05	41.144
487.40	41.081
487.75	41.465
488.09	41.007
488.44	41.781
488.79	42.734
489.13	43.710
489.48	43.865
489.83	44.170
490.17	44.045
490.52	44.296
490.87	43.776
491.22	45.129
491.56	44.023
491.91	43.690
492.26	45.552
492.60	45.633
492.95	45.155
493.30	45.725
493.64	45.874
493.99	44.976
494.34	44.903
494.68	45.190
495.03	44.331
495.37	45.240
495.72	45.785
496.07	46.049
496.41	44.198
496.76	44.496
497.11	44.108
497.45	44.916
497.80	46.115
498.14	44.660
498.49	45.201
498.84	45.409
499.18	45.783
499.53	45.089
499.87	44.504
500.22	45.500
500.56	46.546
500.91	45.934
501.26	44.933
501.60	45.401
501.95	44.541
502.29	45.472
502.64	46.573
502.98	45.387
503.33	45.005
503.67	45.831
504.02	46.481
504.36	46.462
504.71	45.808
505.06	45.949
505.40	46.244
505.75	46.959
506.09	46.123
506.44	48.152
506.78	47.194
507.13	47.260
507.47	46.475
507.82	45.513
508.16	47.121
508.51	47.796
508.85	47.305
509.19	47.259
509.54	48.150
509.88	47.087
510.23	47.768
510.57	46.713
510.92	46.109
511.26	48.391
511.61	47.690
511.95	46.959
512.30	48.337
512.64	48.136
512.98	48.063
513.33	48.909
513.67	47.754
514.02	49.428
514.36	49.486
514.70	48.951
515.05	49.295
515.39	49.055
515.74	50.719
516.08	50.329
516.42	49.706
516.77	50.263
517.11	50.861
517.46	50.987
517.80	50.834
518.14	50.643
518.49	48.377
518.83	51.094
519.17	49.242
519.52	50.207
519.86	50.480
520.20	50.851
520.55	50.532
520.89	51.380
521.23	51.045
521.58	51.546
521.92	51.859
522.26	51.529
522.61	50.909
522.95	52.781
523.29	50.699
523.64	51.652
523.98	52.106
524.32	51.482
524.66	51.793
525.01	52.727
525.35	52.625
525.69	52.323
526.04	50.860
526.38	53.372
526.72	51.602
527.06	50.713
527.41	51.781
527.75	52.212
528.09	53.223
528.43	53.612
528.78	53.135
529.12	52.968
529.46	52.242
529.80	51.805
530.15	53.003
530.49	52.660
530.83	53.967
531.17	51.175
531.51	53.352
531.86	51.666
532.20	52.610
532.54	52.417
532.88	53.525
533.22	52.285
533.57	51.376
533.91	51.501
534.25	52.930
534.59	52.534
534.93	50.913
535.27	50.888
535.62	52.041
535.96	52.185
536.30	51.583
536.64	54.307
536.98	52.334
537.32	53.912
537.66	53.717
538.01	53.217
538.35	52.635
538.69	52.064
539.03	53.110
539.37	52.086
539.71	53.033
540.05	52.274
540.39	52.770
540.73	53.068
541.07	52.970
541.42	52.083
541.76	53.200
542.10	51.686
542.44	53.162
542.78	51.617
543.12	52.198
543.46	51.460
543.80	52.533
544.14	49.599
544.48	51.765
544.82	51.743
545.16	53.689
545.50	51.602
545.84	52.762
546.18	54.043
546.52	53.497
546.86	53.487
547.20	53.290
547.54	51.519
547.88	52.174
548.22	50.625
548.56	52.375
548.90	51.011
549.24	51.240
549.58	52.116
549.92	51.179
550.26	53.333
550.60	54.647
550.94	54.444
551.28	54.096
551.62	54.923
551.96	53.835
552.30	53.509
552.64	53.244
552.98	54.149
553.32	53.566
553.66	53.919
554.00	53.650
554.34	55.613
554.68	53.540
555.02	54.688
555.36	52.431
555.69	55.604
556.03	52.177
556.37	52.669
556.71	53.791
557.05	54.288
557.39	53.903
557.73	54.498
558.07	54.977
558.41	54.211
558.75	56.196
559.08	55.871
559.42	54.524
559.76	56.125
560.10	54.128
560.44	54.207
560.78	53.706
561.12	52.821
561.45	54.673
561.79	53.641
562.13	54.578
562.47	53.741
562.81	54.971
563.15	53.879
563.48	52.900
563.82	53.878
564.16	54.109
564.50	53.176
564.84	53.213
565.17	54.326
565.51	55.533
565.85	55.007
566.19	54.708
566.52	54.021
566.86	54.370
567.20	51.557
567.54	52.129
567.88	53.076
568.21	52.093
568.55	50.870
568.89	50.924
569.23	50.698
569.56	49.037
569.90	49.411
570.24	48.456
570.57	48.836
570.91	47.961
571.25	47.616
571.59	46.310
571.92	45.274
572.26	46.528
572.60	45.767
572.93	45.937
573.27	45.925
573.61	45.973
573.95	46.641
574.28	45.207
574.62	44.699
574.96	44.552
575.29	44.750
575.63	44.234
575.97	44.755
576.30	45.235
576.64	44.901
576.98	46.126
577.31	45.072
577.65	45.413
577.98	44.992
578.32	44.275
578.66	43.692
578.99	44.408
579.33	44.117
579.67	44.310
580.00	45.215
580.34	44.900
580.67	44.461
581.01	44.765
581.35	44.423
581.68	45.070
582.02	43.733
582.35	44.828
582.69	44.780
583.02	44.200
583.36	44.594
583.70	46.028
584.03	45.872
584.37	46.330
584.70	45.907
585.04	43.834
585.37	45.160
585.71	45.125
586.04	45.008
586.38	46.012
586.72	46.485
587.05	47.140
587.39	46.212
587.72	46.993
588.06	46.333
588.39	46.226
588.73	46.642
589.06	47.586
589.40	47.874
589.73	48.412
590.07	48.980
590.40	48.491
590.73	49.835
591.07	48.473
591.40	49.065
591.74	50.633
592.07	50.278
592.41	49.867
592.74	48.228
593.08	47.258
593.41	47.809
593.75	47.727
594.08	47.614
594.41	48.362
594.75	47.672
595.08	49.073
595.42	48.289
595.75	48.066
596.09	48.632
596.42	50.310
596.75	49.822
597.09	49.567
597.42	49.910
597.75	50.344
598.09	49.570
598.42	49.097
598.76	48.949
599.09	48.998
599.42	48.503
599.76	48.495
600.09	47.888
600.42	47.877
600.76	46.991
601.09	48.321
601.42	47.944
601.76	48.670
602.09	49.051
602.42	49.621
602.76	50.127
603.09	50.664
603.42	51.171
603.76	49.234
604.09	49.413
604.42	49.915
604.76	51.179
605.09	50.731
605.42	50.293
605.75	50.306
606.09	49.257
606.42	49.958
606.75	48.961
607.09	49.231
607.42	50.244
607.75	49.600
608.08	48.518
608.42	49.520
608.75	51.181
609.08	51.769
609.41	50.609
609.75	51.361
610.08	51.772
610.41	50.097
610.74	50.804
611.07	51.938
611.41	51.064
611.74	52.292
612.07	50.857
612.40	53.173
612.73	52.768
613.07	53.262
613.40	51.696
613.73	52.714
614.06	52.643
614.39	53.356
614.72	52.325
615.06	52.067
615.39	51.146
615.72	51.453
616.05	52.849
616.38	51.966
616.71	52.905
617.05	53.428
617.38	54.054
617.71	54.403
618.04	54.921
618.37	55.612
618.70	55.512
619.03	56.389
619.36	56.657
619.69	57.544
620.03	56.392
620.36	55.794
620.69	55.675
621.02	55.581
621.35	59.585
621.68	57.993
622.01	58.833
622.34	59.218
622.67	58.281
623.00	57.963
623.33	57.927
623.66	55.198
623.99	55.522
624.32	57.338
624.65	57.293
624.99	57.938
625.32	56.482
625.65	57.973
625.98	59.790
626.31	59.518
626.64	61.958
626.97	59.337
627.30	60.420
627.63	60.139
627.96	61.545
628.29	60.500
628.62	59.980
628.95	62.625
629.28	61.593
629.61	62.114
629.94	62.757
630.26	61.858
630.59	64.620
630.92	61.538
631.25	61.026
631.58	63.767
631.91	62.829
632.24	64.564
632.57	63.636
632.90	65.125
633.23	65.294
633.56	67.254
633.89	66.215
634.22	66.914
634.55	66.074
634.88	67.433
635.20	65.256
635.53	69.333
635.86	65.800
636.19	66.882
636.52	65.816
636.85	64.888
637.18	64.528
637.51	66.541
637.83	66.886
638.16	67.804
638.49	66.485
638.82	69.474
639.15	66.621
639.48	66.988
639.81	66.527
640.13	68.254
640.46	69.534
640.79	71.134
641.12	67.651
641.45	69.069
641.77	70.519
642.10	71.248
642.43	70.257
642.76	72.112
643.09	72.052
643.41	69.256
643.74	70.346
644.07	72.414
644.40	73.142
644.73	74.606
645.05	69.799
645.38	75.132
645.71	75.177
646.04	77.199
646.36	73.582
646.69	77.338
647.02	75.614
647.35	75.187
647.67	71.664
648.00	75.746
648.33	72.355
648.66	71.695
648.98	70.017
649.31	73.058
649.64	67.347
649.96	68.720
650.29	70.869
650.62	71.624
650.94	72.778
651.27	71.508
651.60	73.514
651.92	71.678
652.25	70.870
652.58	71.500
652.90	76.329
653.23	69.916
653.56	68.528
653.88	71.134
654.21	69.352
654.54	70.119
654.86	72.156
655.19	65.351
655.52	60.294
655.84	48.160
656.17	52.516
656.49	70.157
656.82	72.274
657.15	54.963
657.47	41.206
657.80	30.692
658.13	30.418
658.45	47.444
658.78	47.260
659.10	46.633
659.43	48.427
659.75	51.061
660.08	52.897
660.41	57.916
660.73	62.845
661.06	70.884
661.38	71.624
661.71	72.279
662.03	76.609
662.36	78.022
662.68	75.664
663.01	79.258
663.33	77.494
663.66	76.512
663.98	75.814
664.31	75.906
664.63	76.267
664.96	77.391
665.28	75.497
665.61	74.026
665.93	76.957
666.26	75.054
666.58	72.036
666.91	80.471
667.23	81.604
667.56	77.251
667.88	81.295
668.21	77.327
668.53	78.960
668.86	77.594
669.18	78.066
669.50	79.177
669.83	78.605
670.15	76.457
670.48	77.033
670.80	80.184
671.13	72.931
671.45	72.146
671.77	76.609
672.10	73.069
672.42	70.974
672.75	69.272
673.07	71.020
673.39	70.826
673.72	67.456
674.04	70.208
674.37	73.941
674.69	73.233
675.01	76.444
675.34	76.802
675.66	79.167
675.98	75.388
676.31	75.688
676.63	77.672
676.95	73.636
677.28	77.647
677.60	76.386
677.92	77.982
678.25	74.617
678.57	76.190
678.89	76.681
679.22	77.405
679.54	71.084
679.86	70.577
680.18	72.039
680.51	73.485
680.83	70.378
681.15	72.400
681.48	77.254
681.80	74.587
682.12	69.556
682.44	73.640
682.77	73.510
683.09	73.455
683.41	70.227
683.73	73.963
684.06	74.336
684.38	70.968
684.70	76.906
685.02	70.332
685.34	69.565
685.67	69.794
685.99	67.993
686.31	68.142
686.63	72.171
686.96	67.871
687.28	70.303
687.60	70.913
687.92	73.737
688.24	70.363
688.56	75.983
688.89	73.214
689.21	74.000
689.53	72.622
689.85	76.512
690.17	72.098
690.49	71.868
690.82	71.845
691.14	74.524
691.46	74.533
691.78	73.649
692.10	72.473
692.42	74.026
692.74	70.513
693.06	70.495
693.39	70.588
693.71	71.493
694.03	71.132
694.35	73.364
694.67	76.768
694.99	76.240
695.31	79.896
695.63	73.750
695.95	71.212
696.27	75.648
696.59	78.889
696.91	75.630
697.23	74.036
697.56	74.752
697.88	68.817
698.20	72.437
698.52	70.353
698.84	70.813
699.16	71.250
699.48	76.942
699.80	73.945
700.12	70.350
700.44	75.350
700.76	78.198
701.08	73.636
701.40	76.205
701.72	83.025
702.04	81.518
702.36	82.609
702.68	71.772
703.00	79.697
703.32	77.126
703.64	74.294
703.96	73.913
704.28	79.448
704.60	83.492
704.91	77.287
705.23	82.724
705.55	86.219
705.87	84.477
706.19	84.444
706.51	79.725
706.83	82.958
707.15	73.520
707.47	75.910
707.79	68.229
708.11	73.000
708.43	70.250
708.74	71.059
709.06	74.085
709.38	79.511
709.70	76.627
710.02	75.478
710.34	77.709
710.66	75.321
710.98	78.146
711.29	73.115
711.61	85.424
711.93	75.570
712.25	82.818
712.57	82.418
712.89	79.478
713.20	77.855
713.52	79.791
713.84	80.887
714.16	76.976
714.48	74.839
714.80	78.846
715.11	73.556
715.43	73.041
715.75	75.667
716.07	74.419
716.39	71.141
716.70	75.277
717.02	74.046
717.34	82.591
717.66	87.168
717.97	83.478
718.29	85.356
718.61	85.039
718.93	77.132
719.24	80.989
719.56	80.723
719.88	76.976
720.20	81.439
720.51	71.648
720.83	76.062
721.15	86.134
721.46	81.452
721.78	75.889
722.10	74.721
722.42	73.444
722.73	77.551
723.05	86.531
723.37	80.508
723.68	84.234
724.00	84.615
724.32	76.000
724.63	81.818
724.95	79.039
725.27	84.793
725.58	80.508
725.90	77.381
726.22	71.042
726.53	73.559
726.85	72.285
727.16	74.717
727.48	71.660
727.80	76.113
728.11	79.661
728.43	73.725
728.74	73.387
729.06	81.200
729.38	76.316
729.69	71.713
730.01	71.154
730.32	77.612
730.64	71.731
730.96	77.736
731.27	71.000
731.59	71.525
731.90	72.930
732.22	71.609
732.53	70.764
732.85	74.468
733.16	77.441
733.48	71.223
733.80	72.826
734.11	72.881
734.43	71.134
734.74	71.818
735.06	70.684
735.37	68.580
735.69	74.074
736.00	71.429
736.32	68.121
736.63	72.535
736.95	76.109
737.26	72.242
737.58	67.785
737.89	75.824
738.21	70.677
738.52	77.778
738.83	83.406
739.15	75.983
739.46	78.740
739.78	72.161
740.09	69.281
740.41	71.377
740.72	74.409
741.04	75.304
741.35	77.021
741.66	81.991
741.98	82.143
742.29	76.733
742.61	83.246
742.92	72.512
743.23	73.148
743.55	75.566
743.86	75.598
744.18	78.469
744.49	82.979
744.80	80.435
745.12	88.235
745.43	74.634
745.74	85.417
746.06	75.122
746.37	85.340
746.68	79.621
747.00	84.043
747.31	80.597
747.62	80.097
747.94	78.469
748.25	83.168
748.56	81.967
748.88	84.293
749.19	87.766
749.50	77.340
749.82	69.811
750.13	74.771
750.44	74.060
750.75	80.224
751.07	73.723
751.38	73.563
751.69	70.588
752.01	74.419
752.32	71.713
752.63	77.866
752.94	73.707
753.26	79.079
753.57	74.208
753.88	85.398
754.19	74.583
754.51	74.380
754.82	75.304
755.13	77.500
755.44	75.403
755.75	75.391
756.07	71.984
756.38	72.075
756.69	75.096
757.00	70.000
757.31	67.647
757.63	67.683
757.94	64.722
758.25	64.932
758.56	61.702
758.87	66.006
759.18	67.290
759.50	68.727
759.81	68.227
760.12	70.645
760.43	65.455
760.74	65.432
761.05	70.154
761.36	67.045
761.67	72.121
761.99	68.367
762.30	64.727
762.61	72.727
762.92	81.900
763.23	76.577
763.54	69.626
763.85	77.119
764.16	73.444
764.47	66.129
764.78	63.004
765.10	71.044
765.41	65.300
765.72	65.079
766.03	62.406
766.34	69.708
766.65	75.697
766.96	80.808
767.27	75.000
767.58	73.563
767.89	86.525
768.20	73.864
768.51	75.275
768.82	75.862
769.13	68.664
769.44	71.245
769.75	69.863
770.06	68.103
770.37	71.154
770.68	74.619
770.99	68.326
771.30	75.490
771.61	71.493
771.92	71.552
772.23	73.399
772.54	76.882
772.85	75.926
773.16	75.843
773.47	85.621
773.78	79.739
774.09	75.449
774.39	80.667
774.70	73.885
775.01	76.552
775.32	81.429
775.63	88.430
775.94	70.229
776.25	82.677
776.56	75.833
776.87	72.115
777.18	82.906
777.48	84.483
777.79	73.913
778.10	87.619
778.41	65.766
778.72	86.508
779.03	76.692
779.34	87.943
779.65	74.658
779.95	73.973
780.26	77.241
780.57	75.610
780.88	66.142
781.19	87.069
781.50	79.070
781.80	68.639
782.11	68.553
782.42	81.538
782.73	74.820
783.04	77.778
783.34	68.750
783.65	77.778
783.96	75.410
784.27	77.241
784.57	82.114
784.88	73.437
785.19	79.000
785.50	87.000
785.81	76.724
786.11	87.069
786.42	84.466
786.73	78.182
787.04	76.531
787.34	79.464
787.65	91.429
787.96	75.221
788.26	75.455
788.57	62.393
788.88	67.969
789.19	64.286
789.49	67.826
789.80	76.531
790.11	73.737
790.41	69.091
790.72	77.174
791.03	89.773
791.33	90.000
791.64	90.000
791.95	80.233
792.25	67.021
792.56	73.034
792.87	79.452
793.17	94.203
793.48	64.000
793.79	72.500
794.09	98.750
794.40	73.585
794.70	74.757
795.01	63.415
795.32	71.795
795.62	69.524
795.93	80.392
796.23	72.642
796.54	71.875
796.85	104.412
797.15	83.099
797.46	90.278
797.76	84.848
798.07	60.465
798.37	63.158
798.68	78.788
798.99	70.370
799.29	91.429
799.60	86.957
799.90	64.000
800.21	98.361
800.51	81.538
800.82	93.220
801.12	89.855
801.43	93.443
801.73	73.016
802.04	88.000
802.34	77.612
802.65	88.462
802.95	64.286
803.26	90.385
803.56	80.392
803.87	86.957
804.17	70.667
804.48	79.365
804.78	57.407
805.09	117.391
805.39	73.333
805.70	81.481
806.00	63.158
806.30	69.014
806.61	77.143
806.91	63.889
807.22	77.632
807.52	78.667
807.83	74.545
808.13	65.278
808.43	76.471
808.74	74.627
809.04	54.237
809.35	84.615
809.65	67.188
809.95	78.378
810.26	72.727
810.56	63.014
810.86	66.667
811.17	76.000
811.47	87.755
811.77	102.632
812.08	97.727
812.38	47.170
812.69	70.000
812.99	106.061
813.29	89.474
813.59	65.714
813.90	102.273
814.20	89.744
814.50	82.692
814.81	86.792
815.11	53.191
815.41	67.797
815.72	71.429
816.02	64.706
816.32	81.250
816.62	87.805
816.93	91.892
817.23	94.286
817.53	79.167
817.84	71.739
818.14	69.231
818.44	84.211
818.74	84.783
819.04	60.000
819.35	75.676
819.65	94.118
819.95	75.000
820.25	69.048
820.56	77.500
820.86	93.103
821.16	105.000
821.46	55.319
821.76	97.500
822.07	74.419
822.37	54.054
822.67	68.750
822.97	71.429
823.27	82.143
823.57	80.000
823.88	85.185
824.18	103.571
824.48	85.294
824.78	58.065
825.08	95.652
825.38	87.879
825.69	79.167
825.99	73.684
826.29	55.556
826.59	160.000
826.89	80.952
827.19	82.609
827.49	90.000
827.79	102.857
828.09	85.714
828.39	100.000
828.70	97.297
829.00	92.857
829.30	95.238
829.60	86.667
829.90	62.500
830.20	78.947
830.50	40.741
830.80	39.130
831.10	90.909
831.40	93.939
831.70	83.871
832.00	85.714
832.30	47.619
832.60	125.000
832.90	72.414
833.20	40.000
833.50	96.970
833.80	77.778
834.10	61.538
834.40	81.250
834.70	177.778
835.00	63.158
835.30	107.692
835.60	26.667
835.90	74.194
836.20	95.455
836.50	92.857
836.80	38.462
837.10	35.714
837.40	233.333
837.70	45.455
838.00	72.727
838.30	65.217
838.60	123.077
838.90	122.727
839.19	96.429
839.49	50.000
839.79	46.154
840.09	8.333
840.39	100.000
840.69	82.143
840.99	65.385
841.29	31.579
841.59	30.000
841.88	154.545
842.18	120.000
842.48	143.750
842.78	13.333
843.08	40.741
843.38	50.000
843.68	95.652
843.97	120.000
844.27	53.333
844.57	90.000
844.87	127.778
845.17	38.095
845.47	66.667
845.76	61.905
846.06	111.765
846.36	30.000
846.66	107.143
846.96	120.000
847.25	50.000
847.55	121.429
847.85	250.000
848.15	81.818
848.44	-100.000
848.74	85.000
849.04	88.889
849.34	190.909
849.63	133.333
849.93	0.000
850.23	38.889
850.53	240.000
850.82	69.231
851.12	133.333
851.42	126.667
851.71	23.077
852.01	114.286
852.31	50.000
852.61	54.545
852.90	45.000
853.20	26.316
853.50	83.333
853.79	56.522
854.09	112.500
854.39	36.842
854.68	70.833
854.98	70.968
855.28	76.923
855.57	80.000
855.87	100.000
856.17	77.778
856.46	114.286
856.76	53.333
857.05	255.556
857.35	72.000
857.65	83.333
857.94	61.538
858.24	44.828
858.53	88.889
858.83	55.556
859.13	50.000
859.42	65.217
859.72	100.000
860.01	-100.000
860.31	108.000
860.60	66.667
860.90	233.333
861.20	66.667
861.49	-100.000
861.79	46.667
862.08	70.000
862.38	80.000
862.67	120.000
862.97	0.000
863.26	58.333
863.56	100.000
863.85	-33.333
864.15	88.889
864.44	150.000
864.74	135.714
865.03	225.000
865.33	-60.000
865.62	116.667
865.92	75.000
866.21	66.667
866.51	131.250
866.80	-63.636
867.10	-100.000
867.39	166.667
867.69	0.000
867.98	53.846
868.27	-66.667
868.57	-26.667
868.86	111.111
869.16	38.462
869.45	113.333
869.75	-1500.000
870.04	0.000
870.33	71.429
870.63	76.190
870.92	266.667
871.22	180.000
871.51	400.000
871.80	188.889
872.10	33.333
>>>>>End Processed Spectral Data<<<<<
