SpectraSuite Data File
++++++++++++++++++++++++++++++++++++
Date: Fri May 15 17:32:00 PDT 2015
User: schluterlab
Dark Spectrum Present: Yes
Reference Spectrum Present: Yes
Number of Sampled Component Spectra: 1
Spectrometers: USB2E3373
Integration Time (usec): 3000 (USB2E3373)
Spectra Averaged: 3 (USB2E3373)
Boxcar Smoothing: 0 (USB2E3373)
Correct for Electrical Dark: No (USB2E3373)
Strobe/Lamp Enabled: No (USB2E3373)
Correct for Detector Non-linearity: No (USB2E3373)
Correct for Stray Light: No (USB2E3373)
Number of Pixels in Processed Spectrum: 2048
>>>>>Begin Processed Spectral Data<<<<<
178.53	0.000
178.91	0.000
179.29	112.500
179.67	250.000
180.04	-114.286
180.42	275.000
180.80	0.000
181.18	-66.667
181.56	200.000
181.94	-150.000
182.31	200.000
182.69	20.000
183.07	-266.667
183.45	260.000
183.83	200.000
184.20	27.273
184.58	100.000
184.96	-100.000
185.34	33.333
185.72	0.000
186.09	92.308
186.47	200.000
186.85	133.333
187.23	66.667
187.61	-500.000
187.98	-200.000
188.36	111.111
188.74	133.333
189.12	100.000
189.49	55.556
189.87	0.000
190.25	50.000
190.63	300.000
191.00	166.667
191.38	42.105
191.76	100.000
192.14	50.000
192.51	450.000
192.89	22.222
193.27	71.429
193.65	150.000
194.02	36.364
194.40	20.000
194.78	-25.000
195.15	33.333
195.53	12.500
195.91	150.000
196.29	100.000
196.66	61.538
197.04	114.286
197.42	-33.333
197.79	-633.333
198.17	-84.615
198.55	1400.000
198.92	300.000
199.30	500.000
199.68	-100.000
200.05	-200.000
200.43	0.000
200.81	500.000
201.18	66.667
201.56	-400.000
201.94	-450.000
202.31	-300.000
202.69	0.000
203.07	25.000
203.44	600.000
203.82	0.000
204.19	64.286
204.57	-33.333
204.95	25.000
205.32	60.000
205.70	-28.571
206.08	50.000
206.45	211.111
206.83	100.000
207.20	42.857
207.58	-100.000
207.96	400.000
208.33	30.000
208.71	-25.000
209.08	-200.000
209.46	-300.000
209.84	-60.000
210.21	-200.000
210.59	14.286
210.96	83.333
211.34	50.000
211.71	100.000
212.09	14.286
212.46	-400.000
212.84	0.000
213.22	60.000
213.59	250.000
213.97	84.615
214.34	63.636
214.72	-66.667
215.09	350.000
215.47	15.385
215.84	-18.182
216.22	-33.333
216.59	25.000
216.97	100.000
217.34	100.000
217.72	20.000
218.09	187.500
218.47	75.000
218.84	-500.000
219.22	11.111
219.59	20.000
219.97	300.000
220.34	-25.000
220.72	114.286
221.09	-50.000
221.47	100.000
221.84	-350.000
222.22	-350.000
222.59	54.545
222.97	133.333
223.34	-100.000
223.72	42.857
224.09	-23.810
224.46	35.714
224.84	-33.333
225.21	50.000
225.59	86.667
225.96	0.000
226.34	175.000
226.71	14.286
227.08	-166.667
227.46	37.500
227.83	-800.000
228.21	33.333
228.58	63.636
228.95	0.000
229.33	-10.000
229.70	75.000
230.08	62.500
230.45	-71.429
230.82	271.429
231.20	20.000
231.57	64.286
231.95	85.714
232.32	-50.000
232.69	-21.429
233.07	500.000
233.44	-80.000
233.81	0.000
234.19	155.556
234.56	82.353
234.93	-300.000
235.31	325.000
235.68	-40.000
236.05	0.000
236.43	40.000
236.80	11.765
237.17	43.750
237.55	30.000
237.92	14.815
238.29	30.556
238.67	23.333
239.04	26.471
239.41	12.195
239.79	30.000
240.16	63.415
240.53	0.000
240.91	21.739
241.28	15.873
241.65	51.786
242.02	35.616
242.40	43.333
242.77	28.814
243.14	22.727
243.51	31.250
243.89	37.931
244.26	25.287
244.63	32.143
245.00	16.495
245.38	36.082
245.75	22.472
246.12	22.414
246.49	35.537
246.87	25.962
247.24	32.773
247.61	22.807
247.98	22.764
248.36	23.750
248.73	29.605
249.10	28.571
249.47	27.848
249.84	28.758
250.22	28.824
250.59	27.451
250.96	26.291
251.33	28.488
251.70	33.529
252.08	31.980
252.45	22.277
252.82	25.126
253.19	23.963
253.56	22.430
253.94	29.279
254.31	34.348
254.68	28.509
255.05	31.890
255.42	31.878
255.79	28.185
256.16	27.237
256.54	25.746
256.91	28.897
257.28	27.881
257.65	24.719
258.02	27.305
258.39	26.263
258.76	25.641
259.14	28.239
259.51	29.773
259.88	28.866
260.25	28.758
260.62	30.556
260.99	26.102
261.36	26.027
261.73	29.747
262.10	30.395
262.47	28.221
262.85	26.332
263.22	27.692
263.59	25.857
263.96	31.366
264.33	29.091
264.70	27.381
265.07	27.083
265.44	26.629
265.81	29.944
266.18	23.770
266.55	26.478
266.92	29.793
267.29	27.937
267.66	27.366
268.03	28.796
268.40	28.460
268.77	27.005
269.14	27.578
269.51	28.535
269.88	26.683
270.25	25.510
270.62	26.341
270.99	27.366
271.36	24.694
271.73	29.577
272.10	27.007
272.47	26.714
272.84	26.238
273.21	28.306
273.58	29.639
273.95	25.858
274.32	24.018
274.69	23.529
275.06	29.911
275.43	27.891
275.80	26.932
276.17	23.448
276.54	25.910
276.91	25.439
277.28	25.546
277.65	25.207
278.02	25.957
278.39	23.851
278.76	25.996
279.13	22.407
279.50	26.261
279.87	26.998
280.23	23.441
280.60	26.121
280.97	27.071
281.34	25.192
281.71	25.873
282.08	27.812
282.45	24.658
282.82	26.255
283.19	25.338
283.56	24.470
283.92	23.909
284.29	25.192
284.66	24.225
285.03	24.361
285.40	25.142
285.77	24.956
286.14	24.368
286.51	26.753
286.87	23.949
287.24	23.389
287.61	20.635
287.98	23.333
288.35	23.917
288.72	24.343
289.08	21.875
289.45	23.199
289.82	23.077
290.19	19.795
290.56	21.784
290.93	20.370
291.29	20.493
291.66	20.945
292.03	22.010
292.40	21.613
292.77	19.777
293.13	16.721
293.50	21.244
293.87	21.679
294.24	20.711
294.60	19.672
294.97	19.345
295.34	19.939
295.71	20.566
296.08	21.076
296.44	19.061
296.81	20.417
297.18	18.551
297.55	19.648
297.91	19.589
298.28	20.580
298.65	19.132
299.02	19.003
299.38	17.784
299.75	17.931
300.12	16.885
300.48	18.445
300.85	17.617
301.22	16.883
301.59	17.105
301.95	17.468
302.32	19.585
302.69	16.915
303.05	17.450
303.42	17.435
303.79	15.771
304.15	17.324
304.52	16.766
304.89	16.140
305.25	15.860
305.62	15.753
305.99	14.737
306.35	16.879
306.72	16.198
307.09	16.534
307.45	16.877
307.82	14.931
308.19	16.957
308.55	15.049
308.92	17.102
309.29	16.536
309.65	16.254
310.02	16.392
310.38	14.929
310.75	17.049
311.12	16.577
311.48	15.058
311.85	16.230
312.22	15.295
312.58	16.561
312.95	15.902
313.31	13.872
313.68	16.230
314.05	14.796
314.41	16.598
314.78	16.392
315.14	17.575
315.51	16.149
315.87	17.008
316.24	17.796
316.61	16.437
316.97	17.857
317.34	15.332
317.70	16.539
318.07	16.154
318.43	17.451
318.80	16.383
319.16	17.480
319.53	17.474
319.89	17.323
320.26	17.814
320.62	18.455
320.99	17.432
321.35	18.499
321.72	18.484
322.08	19.335
322.45	19.188
322.81	18.861
323.18	18.351
323.54	20.270
323.91	19.377
324.27	20.410
324.64	19.663
325.00	21.715
325.37	23.783
325.73	21.668
326.10	23.070
326.46	22.242
326.83	23.622
327.19	24.324
327.56	26.064
327.92	26.232
328.29	26.429
328.65	26.981
329.01	28.125
329.38	27.926
329.74	27.573
330.11	28.452
330.47	28.571
330.84	28.654
331.20	31.654
331.56	29.259
331.93	31.050
332.29	32.997
332.66	30.588
333.02	32.528
333.38	32.172
333.75	32.875
334.11	31.692
334.48	32.638
334.84	34.707
335.20	33.486
335.57	33.817
335.93	34.508
336.29	35.083
336.66	34.060
337.02	35.130
337.38	34.537
337.75	36.455
338.11	36.249
338.47	36.588
338.84	36.322
339.20	36.106
339.56	37.248
339.93	37.511
340.29	36.881
340.65	37.366
341.02	36.791
341.38	37.699
341.74	36.307
342.11	34.835
342.47	36.744
342.83	37.024
343.20	36.585
343.56	36.609
343.92	37.378
344.28	38.087
344.65	37.651
345.01	36.128
345.37	35.997
345.73	36.569
346.10	37.274
346.46	36.922
346.82	35.925
347.19	36.575
347.55	37.343
347.91	37.298
348.27	37.672
348.63	38.756
349.00	36.833
349.36	36.991
349.72	38.391
350.08	37.787
350.45	38.308
350.81	37.458
351.17	36.564
351.53	37.959
351.89	36.829
352.26	35.840
352.62	37.823
352.98	37.028
353.34	36.795
353.70	38.026
354.07	37.258
354.43	37.390
354.79	36.912
355.15	37.222
355.51	37.025
355.87	36.812
356.24	35.889
356.60	37.672
356.96	37.540
357.32	37.620
357.68	37.998
358.04	37.561
358.40	37.379
358.77	39.314
359.13	37.470
359.49	36.903
359.85	37.676
360.21	37.799
360.57	36.725
360.93	36.536
361.29	35.952
361.66	38.245
362.02	38.030
362.38	38.233
362.74	38.531
363.10	38.600
363.46	38.176
363.82	39.068
364.18	37.934
364.54	37.206
364.90	37.563
365.26	38.646
365.62	38.978
365.98	38.710
366.35	38.893
366.71	38.729
367.07	38.171
367.43	38.102
367.79	39.364
368.15	39.196
368.51	39.257
368.87	38.119
369.23	38.195
369.59	38.338
369.95	39.223
370.31	39.234
370.67	39.104
371.03	37.864
371.39	38.950
371.75	39.414
372.11	37.946
372.47	40.163
372.83	39.461
373.19	37.874
373.55	38.484
373.91	38.445
374.27	39.192
374.63	40.416
374.99	39.007
375.35	38.997
375.71	39.161
376.07	39.817
376.42	39.116
376.78	40.134
377.14	39.269
377.50	39.442
377.86	39.357
378.22	40.332
378.58	39.744
378.94	39.004
379.30	40.175
379.66	40.439
380.02	40.282
380.38	38.771
380.74	40.335
381.09	41.288
381.45	40.245
381.81	39.975
382.17	39.594
382.53	40.287
382.89	40.929
383.25	41.195
383.61	41.402
383.97	40.762
384.32	40.963
384.68	42.229
385.04	40.809
385.40	40.510
385.76	41.950
386.12	41.268
386.48	41.762
386.83	40.330
387.19	42.735
387.55	43.287
387.91	41.993
388.27	42.552
388.62	43.424
388.98	41.989
389.34	41.849
389.70	41.392
390.06	40.340
390.42	41.451
390.77	42.904
391.13	40.858
391.49	43.079
391.85	42.690
392.20	42.122
392.56	41.767
392.92	42.513
393.28	42.099
393.64	41.321
393.99	41.630
394.35	40.860
394.71	42.976
395.07	41.169
395.42	41.651
395.78	42.280
396.14	41.488
396.50	41.978
396.85	42.949
397.21	42.607
397.57	42.006
397.92	40.803
398.28	43.276
398.64	41.687
399.00	41.874
399.35	41.027
399.71	41.011
400.07	42.201
400.42	41.738
400.78	42.743
401.14	42.226
401.49	41.691
401.85	42.048
402.21	41.506
402.57	41.312
402.92	40.652
403.28	42.168
403.63	41.803
403.99	41.199
404.35	42.036
404.70	41.548
405.06	40.423
405.42	41.454
405.77	41.081
406.13	41.793
406.49	41.208
406.84	40.648
407.20	40.638
407.55	40.695
407.91	40.709
408.27	40.089
408.62	41.231
408.98	41.651
409.34	40.397
409.69	39.858
410.05	40.887
410.40	40.679
410.76	42.039
411.11	40.937
411.47	40.434
411.83	40.490
412.18	42.085
412.54	40.075
412.89	40.456
413.25	41.937
413.60	40.994
413.96	40.123
414.31	41.890
414.67	40.924
415.03	40.812
415.38	40.470
415.74	41.433
416.09	41.737
416.45	40.783
416.80	40.714
417.16	41.506
417.51	40.573
417.87	40.808
418.22	41.904
418.58	42.074
418.93	42.194
419.29	40.205
419.64	42.061
420.00	42.821
420.35	41.075
420.71	42.467
421.06	41.436
421.42	42.308
421.77	42.775
422.12	42.054
422.48	43.097
422.83	41.299
423.19	42.833
423.54	41.681
423.90	43.051
424.25	42.365
424.61	42.289
424.96	42.567
425.31	43.385
425.67	43.662
426.02	44.523
426.38	43.770
426.73	44.007
427.09	43.354
427.44	44.529
427.79	43.371
428.15	42.779
428.50	43.913
428.85	43.857
429.21	44.029
429.56	43.720
429.92	44.171
430.27	43.559
430.62	43.492
430.98	43.577
431.33	44.900
431.68	43.328
432.04	43.712
432.39	43.639
432.74	43.175
433.10	45.230
433.45	45.221
433.80	44.631
434.16	45.429
434.51	45.968
434.86	44.251
435.22	44.363
435.57	45.290
435.92	44.970
436.28	45.021
436.63	45.294
436.98	44.670
437.34	44.888
437.69	45.856
438.04	46.040
438.39	45.754
438.75	45.902
439.10	45.501
439.45	46.318
439.81	44.832
440.16	46.081
440.51	46.507
440.86	47.372
441.22	46.606
441.57	46.854
441.92	47.796
442.27	47.284
442.63	47.484
442.98	47.559
443.33	47.190
443.68	47.639
444.03	46.895
444.39	46.877
444.74	47.603
445.09	47.439
445.44	47.635
445.79	48.014
446.15	47.137
446.50	46.700
446.85	47.928
447.20	47.810
447.55	47.600
447.91	48.505
448.26	49.118
448.61	48.187
448.96	48.709
449.31	48.497
449.66	48.490
450.02	48.659
450.37	49.437
450.72	47.251
451.07	48.038
451.42	47.378
451.77	48.644
452.12	47.967
452.47	48.165
452.83	47.880
453.18	47.755
453.53	47.598
453.88	47.784
454.23	48.064
454.58	49.244
454.93	49.678
455.28	47.810
455.63	49.535
455.98	50.030
456.34	48.595
456.69	49.365
457.04	49.653
457.39	48.967
457.74	49.395
458.09	49.559
458.44	49.035
458.79	48.908
459.14	49.657
459.49	49.552
459.84	49.182
460.19	50.182
460.54	49.572
460.89	49.545
461.24	50.497
461.59	49.644
461.94	49.119
462.29	50.603
462.64	50.100
462.99	50.169
463.34	48.818
463.69	49.936
464.04	51.029
464.39	51.001
464.74	50.000
465.09	50.780
465.44	51.241
465.79	49.093
466.14	50.969
466.49	50.776
466.84	50.089
467.19	51.001
467.54	49.106
467.89	51.232
468.24	50.608
468.59	50.921
468.94	49.651
469.29	50.754
469.64	50.034
469.99	50.666
470.34	49.488
470.68	51.603
471.03	50.814
471.38	50.357
471.73	51.190
472.08	49.186
472.43	51.074
472.78	50.034
473.13	51.156
473.48	50.749
473.83	49.564
474.17	51.554
474.52	50.032
474.87	51.333
475.22	51.495
475.57	51.722
475.92	52.551
476.27	50.640
476.61	51.331
476.96	50.586
477.31	50.892
477.66	50.674
478.01	51.544
478.36	51.035
478.70	51.278
479.05	50.714
479.40	51.457
479.75	50.834
480.10	52.279
480.45	52.700
480.79	53.374
481.14	52.152
481.49	50.837
481.84	52.847
482.19	52.152
482.53	52.470
482.88	52.029
483.23	51.200
483.58	52.075
483.92	50.968
484.27	50.365
484.62	51.995
484.97	51.119
485.31	52.204
485.66	55.132
486.01	56.276
486.36	55.834
486.70	54.865
487.05	53.697
487.40	53.257
487.75	52.423
488.09	51.236
488.44	51.376
488.79	51.289
489.13	52.083
489.48	51.603
489.83	51.390
490.17	50.292
490.52	50.901
490.87	51.134
491.22	52.388
491.56	51.139
491.91	50.621
492.26	52.406
492.60	50.768
492.95	52.287
493.30	50.904
493.64	51.916
493.99	51.643
494.34	53.107
494.68	51.667
495.03	52.019
495.37	51.668
495.72	52.448
496.07	52.390
496.41	52.028
496.76	53.017
497.11	50.722
497.45	51.647
497.80	51.564
498.14	51.118
498.49	51.397
498.84	51.248
499.18	51.757
499.53	52.083
499.87	50.924
500.22	51.533
500.56	52.295
500.91	51.958
501.26	51.903
501.60	52.878
501.95	52.741
502.29	52.107
502.64	52.075
502.98	52.886
503.33	51.009
503.67	51.518
504.02	52.004
504.36	51.954
504.71	50.859
505.06	50.830
505.40	51.117
505.75	52.784
506.09	51.394
506.44	53.645
506.78	52.143
507.13	52.327
507.47	50.183
507.82	50.908
508.16	52.034
508.51	51.679
508.85	52.015
509.19	51.836
509.54	52.011
509.88	50.485
510.23	50.726
510.57	52.272
510.92	50.053
511.26	51.118
511.61	52.585
511.95	50.904
512.30	51.220
512.64	50.807
512.98	50.533
513.33	51.259
513.67	51.734
514.02	52.746
514.36	51.543
514.70	51.340
515.05	52.115
515.39	50.826
515.74	51.437
516.08	51.644
516.42	51.708
516.77	50.907
517.11	51.454
517.46	51.945
517.80	51.013
518.14	50.337
518.49	50.240
518.83	51.276
519.17	51.546
519.52	51.806
519.86	50.300
520.20	50.425
520.55	50.156
520.89	50.063
521.23	49.462
521.58	51.356
521.92	51.026
522.26	50.098
522.61	51.039
522.95	51.126
523.29	49.873
523.64	50.508
523.98	51.588
524.32	51.160
524.66	50.960
525.01	49.481
525.35	51.329
525.69	50.236
526.04	50.265
526.38	52.270
526.72	50.360
527.06	49.157
527.41	49.538
527.75	49.330
528.09	49.635
528.43	51.992
528.78	50.891
529.12	50.581
529.46	51.462
529.80	49.778
530.15	50.957
530.49	50.909
530.83	51.915
531.17	49.966
531.51	51.163
531.86	49.490
532.20	49.687
532.54	50.647
532.88	50.171
533.22	50.336
533.57	49.934
533.91	50.849
534.25	51.497
534.59	52.021
534.93	50.220
535.27	49.937
535.62	50.616
535.96	51.076
536.30	52.111
536.64	50.861
536.98	49.617
537.32	51.422
537.66	51.332
538.01	51.469
538.35	50.485
538.69	50.399
539.03	51.538
539.37	50.606
539.71	50.170
540.05	50.713
540.39	51.662
540.73	50.837
541.07	51.312
541.42	50.874
541.76	52.030
542.10	51.617
542.44	50.799
542.78	51.204
543.12	52.129
543.46	50.904
543.80	51.908
544.14	49.266
544.48	51.233
544.82	52.973
545.16	52.254
545.50	52.203
545.84	51.771
546.18	52.270
546.52	50.180
546.86	50.467
547.20	51.073
547.54	51.095
547.88	51.427
548.22	51.414
548.56	51.715
548.90	51.954
549.24	50.275
549.58	49.647
549.92	50.679
550.26	50.476
550.60	52.193
550.94	50.709
551.28	50.386
551.62	52.000
551.96	51.579
552.30	51.535
552.64	50.141
552.98	51.055
553.32	52.853
553.66	50.798
554.00	51.460
554.34	50.812
554.68	50.737
555.02	50.967
555.36	51.608
555.69	50.989
556.03	49.964
556.37	51.744
556.71	50.758
557.05	50.112
557.39	50.335
557.73	50.750
558.07	51.508
558.41	50.842
558.75	51.130
559.08	49.724
559.42	50.556
559.76	50.520
560.10	49.771
560.44	48.697
560.78	49.790
561.12	53.173
561.45	52.916
561.79	51.541
562.13	52.165
562.47	51.439
562.81	51.441
563.15	51.904
563.48	51.273
563.82	51.544
564.16	51.462
564.50	49.797
564.84	51.339
565.17	52.381
565.51	53.415
565.85	53.018
566.19	51.592
566.52	52.212
566.86	52.057
567.20	53.051
567.54	53.406
567.88	55.419
568.21	55.600
568.55	54.130
568.89	55.339
569.23	56.091
569.56	56.436
569.90	58.019
570.24	56.718
570.57	57.418
570.91	57.825
571.25	56.725
571.59	56.431
571.92	55.911
572.26	56.914
572.60	55.504
572.93	55.758
573.27	55.455
573.61	56.295
573.95	58.056
574.28	55.932
574.62	56.140
574.96	56.470
575.29	56.184
575.63	55.222
575.97	55.110
576.30	56.311
576.64	55.629
576.98	56.937
577.31	57.655
577.65	57.225
577.98	58.178
578.32	57.018
578.66	55.835
578.99	55.873
579.33	56.433
579.67	55.816
580.00	56.152
580.34	56.567
580.67	56.231
581.01	56.388
581.35	57.386
581.68	57.626
582.02	58.157
582.35	57.976
582.69	57.363
583.02	56.975
583.36	55.784
583.70	56.490
584.03	56.658
584.37	56.522
584.70	55.962
585.04	55.777
585.37	56.413
585.71	56.974
586.04	56.984
586.38	55.962
586.72	56.528
587.05	57.019
587.39	57.339
587.72	57.900
588.06	56.712
588.39	55.967
588.73	56.166
589.06	56.621
589.40	55.410
589.73	55.969
590.07	56.231
590.40	55.921
590.73	56.631
591.07	55.895
591.40	55.298
591.74	55.566
592.07	55.334
592.41	55.521
592.74	56.910
593.08	55.885
593.41	57.397
593.75	56.984
594.08	55.681
594.41	56.295
594.75	56.145
595.08	56.754
595.42	55.834
595.75	56.440
596.09	55.590
596.42	55.519
596.75	55.107
597.09	55.353
597.42	54.697
597.75	56.115
598.09	54.097
598.42	55.099
598.76	55.899
599.09	56.771
599.42	55.741
599.76	54.590
600.09	55.845
600.42	55.534
600.76	54.681
601.09	54.924
601.42	54.211
601.76	55.181
602.09	54.785
602.42	56.276
602.76	54.626
603.09	55.980
603.42	57.316
603.76	56.129
604.09	54.800
604.42	54.611
604.76	56.297
605.09	54.799
605.42	55.079
605.75	56.655
606.09	55.924
606.42	54.837
606.75	54.719
607.09	55.121
607.42	55.117
607.75	55.107
608.08	54.133
608.42	53.358
608.75	55.181
609.08	55.356
609.41	55.381
609.75	55.645
610.08	56.266
610.41	55.121
610.74	55.241
611.07	55.711
611.41	54.281
611.74	55.810
612.07	53.640
612.40	54.376
612.73	55.537
613.07	55.062
613.40	55.033
613.73	54.841
614.06	54.201
614.39	54.371
614.72	54.566
615.06	54.469
615.39	53.712
615.72	53.767
616.05	53.855
616.38	53.105
616.71	53.884
617.05	53.984
617.38	54.871
617.71	54.088
618.04	55.492
618.37	55.170
618.70	54.257
619.03	55.208
619.36	52.098
619.69	54.132
620.03	55.077
620.36	53.648
620.69	53.105
621.02	51.070
621.35	53.195
621.68	53.316
622.01	53.333
622.34	51.796
622.67	53.391
623.00	53.369
623.33	54.040
623.66	53.179
623.99	52.874
624.32	53.232
624.65	54.135
624.99	53.123
625.32	53.374
625.65	53.731
625.98	54.069
626.31	52.369
626.64	53.380
626.97	51.396
627.30	51.751
627.63	52.686
627.96	53.100
628.29	51.249
628.62	49.853
628.95	50.701
629.28	52.722
629.61	54.138
629.94	52.590
630.26	50.889
630.59	52.445
630.92	52.103
631.25	49.641
631.58	51.101
631.91	49.342
632.24	51.720
632.57	51.023
632.90	49.941
633.23	49.176
633.56	50.126
633.89	50.308
634.22	52.222
634.55	50.064
634.88	49.936
635.20	50.385
635.53	50.667
635.86	48.895
636.19	50.582
636.52	51.913
636.85	48.759
637.18	49.937
637.51	47.799
637.83	47.175
638.16	49.523
638.49	48.638
638.82	50.921
639.15	51.560
639.48	50.206
639.81	49.930
640.13	49.639
640.46	50.146
640.79	48.601
641.12	47.710
641.45	47.898
641.77	48.889
642.10	49.447
642.43	49.518
642.76	50.165
643.09	47.334
643.41	48.544
643.74	48.600
644.07	50.575
644.40	50.169
644.73	47.811
645.05	47.315
645.38	48.325
645.71	46.099
646.04	49.731
646.36	48.404
646.69	47.482
647.02	49.149
647.35	46.082
647.67	47.166
648.00	47.761
648.33	48.805
648.66	49.492
648.98	49.581
649.31	51.736
649.64	48.195
649.96	49.271
650.29	47.359
650.62	47.009
650.94	46.481
651.27	47.486
651.60	49.189
651.92	48.776
652.25	49.201
652.58	48.833
652.90	50.086
653.23	49.916
653.56	48.562
653.88	50.344
654.21	47.285
654.54	46.520
654.86	49.406
655.19	48.977
655.52	59.056
655.84	63.356
656.17	71.191
656.49	93.844
656.82	95.060
657.15	70.717
657.47	51.750
657.80	38.028
658.13	36.977
658.45	54.665
658.78	52.671
659.10	50.168
659.43	49.548
659.75	49.877
660.08	48.345
660.41	48.417
660.73	46.547
661.06	45.581
661.38	45.205
661.71	45.175
662.03	45.708
662.36	46.374
662.68	43.805
663.01	49.127
663.33	47.100
663.66	46.744
663.98	44.651
664.31	46.269
664.63	46.544
664.96	48.478
665.28	47.241
665.61	48.052
665.93	45.217
666.26	48.807
666.58	45.414
666.91	44.471
667.23	45.991
667.56	47.867
667.88	48.441
668.21	46.778
668.53	46.099
668.86	47.642
669.18	45.991
669.50	45.278
669.83	46.977
670.15	46.154
670.48	47.608
670.80	46.774
671.13	44.743
671.45	45.205
671.77	46.781
672.10	48.713
672.42	49.064
672.75	49.911
673.07	49.016
673.39	46.789
673.72	50.690
674.04	44.792
674.37	48.729
674.69	46.039
675.01	46.222
675.34	45.946
675.66	45.139
675.98	48.337
676.31	47.018
676.63	46.793
676.95	45.227
677.28	48.706
677.60	49.398
677.92	45.642
678.25	46.171
678.57	49.134
678.89	47.269
679.22	50.336
679.54	45.582
679.86	47.515
680.18	49.126
680.51	47.159
680.83	47.913
681.15	47.600
681.48	52.254
681.80	50.207
682.12	50.403
682.44	46.444
682.77	50.331
683.09	45.080
683.41	44.773
683.73	47.235
684.06	48.230
684.38	47.742
684.70	50.327
685.02	49.793
685.34	46.640
685.67	48.780
685.99	50.090
686.31	49.912
686.63	51.391
686.96	45.057
687.28	44.444
687.60	47.719
687.92	51.717
688.24	46.976
688.56	48.253
688.89	47.321
689.21	46.889
689.53	48.724
689.85	45.116
690.17	48.438
690.49	49.882
690.82	43.689
691.14	47.381
691.46	47.897
691.78	50.450
692.10	48.817
692.42	48.268
692.74	47.009
693.06	48.649
693.39	47.059
693.71	47.059
694.03	46.189
694.35	45.794
694.67	45.707
694.99	47.258
695.31	50.131
695.63	47.500
695.95	47.727
696.27	44.560
696.59	47.778
696.91	43.978
697.23	46.015
697.56	49.257
697.88	50.538
698.20	46.469
698.52	48.706
698.84	46.411
699.16	47.500
699.48	46.617
699.80	49.132
700.12	46.631
700.44	48.459
700.76	44.186
701.08	45.455
701.40	46.687
701.72	49.383
702.04	45.215
702.36	46.488
702.68	46.847
703.00	47.879
703.32	48.387
703.64	40.678
703.96	42.609
704.28	45.706
704.60	45.714
704.91	47.319
705.23	46.512
705.55	49.823
705.87	47.653
706.19	47.778
706.51	39.863
706.83	47.910
707.15	45.794
707.47	51.261
707.79	45.833
708.11	48.250
708.43	47.000
708.74	45.995
709.06	48.169
709.38	48.624
709.70	44.675
710.02	45.541
710.34	46.440
710.66	43.590
710.98	44.040
711.29	47.541
711.61	48.814
711.93	43.974
712.25	50.172
712.57	50.183
712.89	45.149
713.20	44.291
713.52	42.509
713.84	45.392
714.16	47.766
714.48	48.387
714.80	49.038
715.11	46.201
715.43	43.887
715.75	46.667
716.07	42.525
716.39	43.960
716.70	43.911
717.02	41.985
717.34	44.130
717.66	46.018
717.97	47.391
718.29	44.351
718.61	41.732
718.93	44.574
719.24	39.544
719.56	45.783
719.88	45.704
720.20	43.939
720.51	44.828
720.83	44.788
721.15	51.261
721.46	46.371
721.78	47.431
722.10	41.636
722.42	41.909
722.73	45.306
723.05	48.980
723.37	50.000
723.68	50.000
724.00	44.444
724.32	44.444
724.63	41.818
724.95	47.598
725.27	46.083
725.58	47.458
725.90	44.444
726.22	44.402
726.53	45.424
726.85	50.936
727.16	49.811
727.48	43.320
727.80	47.773
728.11	49.153
728.43	43.137
728.74	41.532
729.06	48.000
729.38	51.128
729.69	47.012
730.01	38.846
730.32	47.761
730.64	47.703
730.96	50.189
731.27	45.333
731.59	49.492
731.90	48.726
732.22	48.580
732.53	48.505
732.85	52.837
733.16	47.138
733.48	47.842
733.80	53.261
734.11	45.763
734.43	50.515
734.74	48.485
735.06	48.208
735.37	53.172
735.69	47.811
736.00	48.084
736.32	46.644
736.63	50.000
736.95	51.536
737.26	41.637
737.58	45.973
737.89	49.817
738.21	48.120
738.52	50.206
738.83	41.921
739.15	47.162
739.46	50.787
739.78	46.520
740.09	45.752
740.41	53.623
740.72	51.181
741.04	46.154
741.35	45.532
741.66	47.393
741.98	45.408
742.29	46.535
742.61	44.503
742.92	33.649
743.23	43.056
743.55	47.059
743.86	41.627
744.18	44.019
744.49	43.617
744.80	46.739
745.12	54.545
745.43	45.366
745.74	46.354
746.06	42.927
746.37	45.026
746.68	47.393
747.00	52.660
747.31	47.264
747.62	46.602
747.94	48.804
748.25	53.465
748.56	54.645
748.88	44.503
749.19	44.681
749.50	50.246
749.82	38.208
750.13	47.248
750.44	53.759
750.75	50.746
751.07	57.299
751.38	49.042
751.69	44.314
752.01	47.287
752.32	49.004
752.63	50.198
752.94	48.707
753.26	51.883
753.57	42.081
753.88	46.460
754.19	41.667
754.51	46.281
754.82	44.939
755.13	52.917
755.44	45.161
755.75	48.437
756.07	44.747
756.38	44.151
756.69	52.107
757.00	50.000
757.31	51.961
757.63	46.646
757.94	50.278
758.25	48.219
758.56	47.872
758.87	46.176
759.18	44.237
759.50	47.273
759.81	49.164
760.12	51.613
760.43	48.485
760.74	53.086
761.05	48.308
761.36	49.432
761.67	46.970
761.99	50.680
762.30	42.545
762.61	49.012
762.92	44.796
763.23	40.991
763.54	41.589
763.85	52.542
764.16	45.228
764.47	47.581
764.78	41.392
765.10	49.832
765.41	49.211
765.72	48.889
766.03	49.248
766.34	45.255
766.65	47.410
766.96	43.434
767.27	48.404
767.58	45.977
767.89	44.681
768.20	43.750
768.51	45.604
768.82	47.783
769.13	41.014
769.44	47.639
769.75	45.662
770.06	43.103
770.37	49.519
770.68	51.269
770.99	45.701
771.30	55.882
771.61	48.869
771.92	51.293
772.23	50.739
772.54	49.462
772.85	52.469
773.16	46.067
773.47	56.209
773.78	49.020
774.09	44.311
774.39	40.000
774.70	49.045
775.01	48.966
775.32	44.286
775.63	42.975
775.94	44.275
776.25	47.244
776.56	43.333
776.87	50.962
777.18	42.735
777.48	41.379
777.79	37.391
778.10	40.000
778.41	49.550
778.72	47.619
779.03	43.609
779.34	47.518
779.65	45.205
779.95	43.151
780.26	47.586
780.57	45.528
780.88	44.094
781.19	43.966
781.50	50.388
781.80	44.379
782.11	42.767
782.42	50.769
782.73	43.885
783.04	46.667
783.34	44.444
783.65	39.316
783.96	49.180
784.27	50.345
784.57	50.407
784.88	42.187
785.19	49.000
785.50	58.000
785.81	43.103
786.11	45.690
786.42	40.777
786.73	40.909
787.04	37.755
787.34	41.071
787.65	40.000
787.96	45.133
788.26	48.182
788.57	48.718
788.88	46.875
789.19	37.302
789.49	35.652
789.80	53.061
790.11	46.465
790.41	40.000
790.72	48.913
791.03	53.409
791.33	50.000
791.64	43.750
791.95	41.860
792.25	40.426
792.56	42.697
792.87	38.356
793.17	30.435
793.48	30.667
793.79	32.500
794.09	57.500
794.40	46.226
794.70	47.573
795.01	50.407
795.32	40.171
795.62	38.095
795.93	44.118
796.23	43.396
796.54	43.750
796.85	48.529
797.15	33.803
797.46	45.833
797.76	50.000
798.07	45.349
798.37	38.158
798.68	48.485
798.99	32.099
799.29	45.714
799.60	30.435
799.90	45.333
800.21	36.066
800.51	49.231
800.82	54.237
801.12	39.130
801.43	42.623
801.73	46.032
802.04	80.000
802.34	31.343
802.65	40.385
802.95	35.714
803.26	38.462
803.56	39.216
803.87	47.826
804.17	30.667
804.48	60.317
804.78	38.889
805.09	43.478
805.39	37.778
805.70	27.778
806.00	7.018
806.30	35.211
806.61	44.286
806.91	30.556
807.22	51.316
807.52	45.333
807.83	49.091
808.13	45.833
808.43	55.882
808.74	26.866
809.04	40.678
809.35	44.231
809.65	46.875
809.95	35.135
810.26	27.273
810.56	27.397
810.86	57.143
811.17	40.000
811.47	44.898
811.77	52.632
812.08	29.545
812.38	47.170
812.69	42.500
812.99	9.091
813.29	60.526
813.59	28.571
813.90	34.091
814.20	48.718
814.50	36.538
814.81	52.830
815.11	17.021
815.41	42.373
815.72	54.762
816.02	39.216
816.32	14.583
816.62	68.293
816.93	37.838
817.23	37.143
817.53	35.417
817.84	52.174
818.14	28.846
818.44	26.316
818.74	58.696
819.04	17.500
819.35	21.622
819.65	29.412
819.95	41.667
820.25	35.714
820.56	45.000
820.86	0.000
821.16	65.000
821.46	29.787
821.76	40.000
822.07	34.884
822.37	18.919
822.67	-3.125
822.97	52.381
823.27	25.000
823.57	-16.000
823.88	14.815
824.18	14.286
824.48	26.471
824.78	25.806
825.08	8.696
825.38	21.212
825.69	8.333
825.99	42.105
826.29	61.111
826.59	6.667
826.89	14.286
827.19	54.348
827.49	35.000
827.79	62.857
828.09	64.286
828.39	57.576
828.70	102.703
829.00	10.714
829.30	61.905
829.60	6.667
829.90	37.500
830.20	28.947
830.50	11.111
830.80	17.391
831.10	45.455
831.40	57.576
831.70	45.161
832.00	85.714
832.30	0.000
832.60	33.333
832.90	10.345
833.20	-10.000
833.50	33.333
833.80	14.815
834.10	3.846
834.40	31.250
834.70	-44.444
835.00	26.316
835.30	80.769
835.60	106.667
835.90	25.806
836.20	72.727
836.50	82.143
836.80	-3.846
837.10	39.286
837.40	100.000
837.70	36.364
838.00	-109.091
838.30	34.783
838.60	0.000
838.90	40.909
839.19	42.857
839.49	66.667
839.79	30.769
840.09	-100.000
840.39	35.714
840.69	32.143
840.99	-3.846
841.29	5.263
841.59	10.000
841.88	54.545
842.18	70.000
842.48	43.750
842.78	66.667
843.08	11.111
843.38	-60.000
843.68	39.130
843.97	13.333
844.27	6.667
844.57	30.000
844.87	22.222
845.17	14.286
845.47	73.333
845.76	28.571
846.06	17.647
846.36	0.000
846.66	35.714
846.96	113.333
847.25	-100.000
847.55	42.857
847.85	50.000
848.15	-36.364
848.44	-100.000
848.74	0.000
849.04	55.556
849.34	18.182
849.63	-33.333
849.93	140.000
850.23	38.889
850.53	150.000
850.82	69.231
851.12	122.222
851.42	60.000
851.71	7.692
852.01	57.143
852.31	200.000
852.61	-9.091
852.90	50.000
853.20	31.579
853.50	-33.333
853.79	34.783
854.09	29.167
854.39	31.579
854.68	41.667
854.98	25.806
855.28	69.231
855.57	55.000
855.87	27.778
856.17	59.259
856.46	28.571
856.76	-13.333
857.05	55.556
857.35	48.000
857.65	16.667
857.94	107.692
858.24	82.759
858.53	94.444
858.83	85.185
859.13	90.909
859.42	56.522
859.72	-75.000
860.01	-200.000
860.31	20.000
860.60	47.619
860.90	-400.000
861.20	6.667
861.49	-250.000
861.79	46.667
862.08	20.000
862.38	106.667
862.67	-20.000
862.97	-50.000
863.26	58.333
863.56	55.556
863.85	-433.333
864.15	61.111
864.44	40.000
864.74	107.143
865.03	-100.000
865.33	-100.000
865.62	16.667
865.92	33.333
866.21	-116.667
866.51	87.500
866.80	-54.545
867.10	-50.000
867.39	50.000
867.69	0.000
867.98	115.385
868.27	0.000
868.57	20.000
868.86	83.333
869.16	-15.385
869.45	33.333
869.75	0.000
870.04	0.000
870.33	100.000
870.63	61.905
870.92	33.333
871.22	-60.000
871.51	300.000
871.80	133.333
872.10	333.333
>>>>>End Processed Spectral Data<<<<<
