SpectraSuite Data File
++++++++++++++++++++++++++++++++++++
Date: Fri May 15 20:08:40 PDT 2015
User: schluterlab
Dark Spectrum Present: Yes
Reference Spectrum Present: Yes
Number of Sampled Component Spectra: 1
Spectrometers: USB2E3373
Integration Time (usec): 3000 (USB2E3373)
Spectra Averaged: 3 (USB2E3373)
Boxcar Smoothing: 0 (USB2E3373)
Correct for Electrical Dark: No (USB2E3373)
Strobe/Lamp Enabled: No (USB2E3373)
Correct for Detector Non-linearity: No (USB2E3373)
Correct for Stray Light: No (USB2E3373)
Number of Pixels in Processed Spectrum: 2048
>>>>>Begin Processed Spectral Data<<<<<
178.53	0.000
178.91	0.000
179.29	150.000
179.67	-850.000
180.04	-128.571
180.42	325.000
180.80	0.000
181.18	66.667
181.56	-0.000
181.94	100.000
182.31	500.000
182.69	-40.000
183.07	-66.667
183.45	-120.000
183.83	200.000
184.20	27.273
184.58	44.444
184.96	-75.000
185.34	-33.333
185.72	-100.000
186.09	61.538
186.47	-600.000
186.85	133.333
187.23	111.111
187.61	500.000
187.98	66.667
188.36	0.000
188.74	166.667
189.12	17.647
189.49	38.889
189.87	0.000
190.25	42.857
190.63	-300.000
191.00	-333.333
191.38	36.842
191.76	150.000
192.14	-50.000
192.51	250.000
192.89	22.222
193.27	-128.571
193.65	83.333
194.02	109.091
194.40	20.000
194.78	37.500
195.15	66.667
195.53	25.000
195.91	125.000
196.29	50.000
196.66	100.000
197.04	14.286
197.42	11.111
197.79	-233.333
198.17	-92.308
198.55	400.000
198.92	-533.333
199.30	100.000
199.68	-120.000
200.05	233.333
200.43	0.000
200.81	66.667
201.18	166.667
201.56	900.000
201.94	100.000
202.31	100.000
202.69	-280.000
203.07	25.000
203.44	800.000
203.82	0.000
204.19	21.429
204.57	-66.667
204.95	137.500
205.32	50.000
205.70	-28.571
206.08	125.000
206.45	311.111
206.83	135.714
207.20	14.286
207.58	200.000
207.96	-33.333
208.33	-90.000
208.71	-100.000
209.08	-116.667
209.46	-600.000
209.84	-80.000
210.21	200.000
210.59	85.714
210.96	16.667
211.34	-325.000
211.71	13.333
212.09	-42.857
212.46	-1600.000
212.84	0.000
213.22	100.000
213.59	-150.000
213.97	123.077
214.34	72.727
214.72	33.333
215.09	200.000
215.47	-23.077
215.84	18.182
216.22	-100.000
216.59	-150.000
216.97	200.000
217.34	-25.000
217.72	-80.000
218.09	75.000
218.47	187.500
218.84	-500.000
219.22	-11.111
219.59	-120.000
219.97	-33.333
220.34	75.000
220.72	-185.714
221.09	-275.000
221.47	-150.000
221.84	-650.000
222.22	-900.000
222.59	63.636
222.97	-25.000
223.34	-100.000
223.72	35.714
224.09	23.810
224.46	42.857
224.84	400.000
225.21	-20.000
225.59	106.667
225.96	200.000
226.34	100.000
226.71	-42.857
227.08	133.333
227.46	87.500
227.83	-850.000
228.21	100.000
228.58	27.273
228.95	25.000
229.33	-10.000
229.70	87.500
230.08	-25.000
230.45	-14.286
230.82	0.000
231.20	53.333
231.57	100.000
231.95	0.000
232.32	-90.000
232.69	57.143
233.07	-100.000
233.44	200.000
233.81	-100.000
234.19	33.333
234.56	11.765
234.93	-300.000
235.31	75.000
235.68	-140.000
236.05	30.769
236.43	35.000
236.80	23.529
237.17	28.125
237.55	40.000
237.92	55.556
238.29	44.444
238.67	30.000
239.04	55.882
239.41	12.195
239.79	50.000
240.16	29.268
240.53	57.895
240.91	43.478
241.28	26.984
241.65	37.500
242.02	38.356
242.40	36.667
242.77	49.153
243.14	37.879
243.51	36.250
243.89	49.425
244.26	44.828
244.63	41.667
245.00	47.423
245.38	43.299
245.75	37.079
246.12	40.517
246.49	47.934
246.87	38.462
247.24	40.336
247.61	42.982
247.98	39.024
248.36	32.500
248.73	44.079
249.10	41.558
249.47	42.405
249.84	41.830
250.22	42.941
250.59	43.137
250.96	39.437
251.33	33.721
251.70	47.647
252.08	44.670
252.45	41.584
252.82	45.729
253.19	45.622
253.56	44.393
253.94	41.892
254.31	39.130
254.68	45.614
255.05	41.732
255.42	43.231
255.79	38.996
256.16	40.078
256.54	42.164
256.91	42.205
257.28	40.892
257.65	40.449
258.02	41.489
258.39	39.057
258.76	46.886
259.14	42.193
259.51	43.366
259.88	43.299
260.25	45.752
260.62	44.444
260.99	38.983
261.36	39.726
261.73	45.253
262.10	40.729
262.47	44.172
262.85	41.379
263.22	42.769
263.59	42.991
263.96	45.342
264.33	44.848
264.70	44.940
265.07	43.750
265.44	43.909
265.81	42.373
266.18	43.716
266.55	42.931
266.92	43.523
267.29	43.864
267.66	42.455
268.03	42.408
268.40	42.820
268.77	43.850
269.14	43.165
269.51	45.758
269.88	40.898
270.25	41.071
270.62	40.244
270.99	41.688
271.36	40.831
271.73	38.028
272.10	43.552
272.47	43.972
272.84	41.089
273.21	41.995
273.58	41.928
273.95	40.275
274.32	37.875
274.69	41.176
275.06	43.527
275.43	39.002
275.80	42.605
276.17	42.759
276.54	42.184
276.91	43.421
277.28	42.358
277.65	40.909
278.02	38.511
278.39	40.481
278.76	40.042
279.13	36.929
279.50	39.706
279.87	42.549
280.23	38.710
280.60	40.156
280.97	40.404
281.34	37.692
281.71	42.094
282.08	38.241
282.45	36.204
282.82	38.417
283.19	41.586
283.56	38.536
283.92	38.520
284.29	39.615
284.66	38.178
285.03	39.096
285.40	38.563
285.77	36.380
286.14	36.643
286.51	40.590
286.87	36.197
287.24	40.700
287.61	38.448
287.98	37.895
288.35	36.395
288.72	37.828
289.08	35.069
289.45	37.434
289.82	37.762
290.19	35.666
290.56	35.163
290.93	34.343
291.29	31.741
291.66	36.535
292.03	36.523
292.40	34.677
292.77	32.217
293.13	32.792
293.50	32.777
293.87	34.198
294.24	33.230
294.60	33.830
294.97	32.589
295.34	32.822
295.71	30.999
296.08	30.942
296.44	28.450
296.81	31.806
297.18	32.319
297.55	31.572
297.91	30.548
298.28	29.156
298.65	28.765
299.02	28.167
299.38	27.497
299.75	28.552
300.12	30.759
300.48	27.536
300.85	28.897
301.22	28.701
301.59	29.868
301.95	29.494
302.32	31.388
302.69	26.866
303.05	27.351
303.42	27.397
303.79	28.388
304.15	28.674
304.52	28.300
304.89	27.602
305.25	27.361
305.62	25.788
305.99	24.912
306.35	25.780
306.72	26.997
307.09	26.568
307.45	26.636
307.82	27.315
308.19	26.597
308.55	26.827
308.92	27.124
309.29	25.028
309.65	26.157
310.02	26.623
310.38	25.906
310.75	26.448
311.12	26.911
311.48	27.678
311.85	26.702
312.22	23.840
312.58	24.841
312.95	25.187
313.31	25.362
313.68	26.178
314.05	25.204
314.41	26.701
314.78	26.701
315.14	26.105
315.51	26.708
315.87	25.102
316.24	27.300
316.61	26.378
316.97	26.687
317.34	25.293
317.70	27.247
318.07	26.154
318.43	25.980
318.80	24.527
319.16	25.684
319.53	25.926
319.89	25.886
320.26	26.721
320.62	27.482
320.99	26.409
321.35	26.619
321.72	26.791
322.08	28.197
322.45	27.310
322.81	28.585
323.18	26.595
323.54	27.124
323.91	26.680
324.27	28.711
324.64	28.745
325.00	27.828
325.37	28.926
325.73	27.743
326.10	28.338
326.46	29.686
326.83	29.571
327.19	29.904
327.56	28.931
327.92	29.754
328.29	30.357
328.65	31.887
329.01	30.607
329.38	29.954
329.74	31.161
330.11	30.491
330.47	29.221
330.84	29.038
331.20	32.224
331.56	29.167
331.93	31.963
332.29	32.447
332.66	32.760
333.02	32.993
333.38	31.714
333.75	32.601
334.11	30.439
334.48	33.364
334.84	32.692
335.20	33.028
335.57	32.457
335.93	34.146
336.29	34.070
336.66	32.879
337.02	34.294
337.38	32.593
337.75	33.364
338.11	35.257
338.47	32.664
338.84	34.288
339.20	33.821
339.56	33.028
339.93	34.378
340.29	33.670
340.65	33.602
341.02	33.067
341.38	33.451
341.74	34.452
342.11	33.362
342.47	34.520
342.83	33.651
343.20	33.362
343.56	33.913
343.92	34.544
344.28	34.500
344.65	32.902
345.01	32.584
345.37	33.474
345.73	34.393
346.10	35.030
346.46	33.558
346.82	32.979
347.19	33.583
347.55	34.921
347.91	34.304
348.27	33.064
348.63	34.327
349.00	34.208
349.36	34.746
349.72	34.245
350.08	34.836
350.45	33.919
350.81	33.472
351.17	32.492
351.53	32.816
351.89	32.618
352.26	33.520
352.62	33.710
352.98	32.691
353.34	33.333
353.70	34.223
354.07	33.548
354.43	34.027
354.79	33.774
355.15	34.127
355.51	33.861
355.87	33.252
356.24	33.605
356.60	33.549
356.96	34.286
357.32	34.345
357.68	33.229
358.04	32.633
358.40	34.405
358.77	34.290
359.13	34.588
359.49	33.359
359.85	33.385
360.21	34.450
360.57	33.741
360.93	32.300
361.29	33.233
361.66	34.326
362.02	33.636
362.38	33.587
362.74	34.065
363.10	35.892
363.46	35.434
363.82	35.913
364.18	34.391
364.54	33.824
364.90	35.197
365.26	34.934
365.62	35.693
365.98	35.191
366.35	35.251
366.71	35.181
367.07	34.615
367.43	33.645
367.79	35.194
368.15	34.530
368.51	35.324
368.87	34.171
369.23	35.235
369.59	36.297
369.95	35.337
370.31	35.621
370.67	35.299
371.03	34.951
371.39	34.865
371.75	34.945
372.11	35.378
372.47	35.725
372.83	36.267
373.19	35.449
373.55	34.513
373.91	35.205
374.27	36.074
374.63	35.248
374.99	34.965
375.35	36.838
375.71	35.944
376.07	36.938
376.42	36.122
376.78	36.644
377.14	36.561
377.50	36.056
377.86	36.412
378.22	36.567
378.58	36.667
378.94	36.862
379.30	36.245
379.66	37.241
380.02	36.726
380.38	36.214
380.74	37.044
381.09	38.344
381.45	37.431
381.81	36.767
382.17	37.183
382.53	38.289
382.89	37.916
383.25	37.399
383.61	37.683
383.97	37.333
384.32	37.899
384.68	37.833
385.04	37.684
385.40	37.150
385.76	38.742
386.12	39.069
386.48	39.591
386.83	39.062
387.19	38.645
387.55	39.272
387.91	38.753
388.27	38.462
388.62	39.333
388.98	38.920
389.34	38.851
389.70	38.595
390.06	38.326
390.42	38.666
390.77	37.933
391.13	39.029
391.49	39.909
391.85	39.571
392.20	38.167
392.56	38.716
392.92	39.518
393.28	39.092
393.64	39.459
393.99	40.251
394.35	38.963
394.71	39.208
395.07	39.158
395.42	38.859
395.78	40.000
396.14	38.903
396.50	39.949
396.85	40.052
397.21	39.474
397.57	40.063
397.92	39.904
398.28	40.172
398.64	38.795
399.00	39.503
399.35	39.052
399.71	39.747
400.07	39.843
400.42	38.617
400.78	39.314
401.14	41.500
401.49	40.024
401.85	39.244
402.21	39.518
402.57	39.625
402.92	39.210
403.28	40.163
403.63	39.975
403.99	39.222
404.35	40.412
404.70	38.393
405.06	39.307
405.42	39.776
405.77	38.873
406.13	39.930
406.49	39.491
406.84	40.281
407.20	40.578
407.55	39.923
407.91	38.837
408.27	40.089
408.62	40.062
408.98	39.926
409.34	40.520
409.69	39.470
410.05	38.978
410.40	39.568
410.76	39.686
411.11	40.375
411.47	39.645
411.83	39.611
412.18	40.476
412.54	39.263
412.89	38.916
413.25	39.230
413.60	39.565
413.96	39.018
414.31	38.659
414.67	39.128
415.03	39.015
415.38	38.903
415.74	40.912
416.09	41.280
416.45	40.851
416.80	40.383
417.16	40.677
417.51	40.773
417.87	41.265
418.22	40.868
418.58	40.669
418.93	41.755
419.29	40.077
419.64	40.506
420.00	42.317
420.35	39.940
420.71	41.495
421.06	41.007
421.42	40.685
421.77	41.098
422.12	40.976
422.48	40.931
422.83	41.299
423.19	40.801
423.54	41.152
423.90	39.988
424.25	41.045
424.61	41.493
424.96	41.812
425.31	41.826
425.67	42.430
426.02	41.873
426.38	42.079
426.73	42.191
427.09	43.861
427.44	41.471
427.79	43.371
428.15	42.294
428.50	42.520
428.85	42.752
429.21	42.784
429.56	43.235
429.92	43.092
430.27	42.306
430.62	42.342
430.98	42.994
431.33	43.270
431.68	42.282
432.04	43.097
432.39	43.411
432.74	43.957
433.10	43.391
433.45	43.250
433.80	44.283
434.16	42.271
434.51	44.355
434.86	44.483
435.22	43.466
435.57	44.354
435.92	44.431
436.28	42.993
436.63	44.381
436.98	44.380
437.34	44.949
437.69	44.902
438.04	43.818
438.39	43.555
438.75	45.234
439.10	44.426
439.45	45.222
439.81	43.792
440.16	45.606
440.51	44.716
440.86	46.707
441.22	45.532
441.57	45.364
441.92	46.013
442.27	45.843
442.63	45.075
442.98	45.663
443.33	45.632
443.68	45.146
444.03	45.504
444.39	45.893
444.74	46.098
445.09	46.437
445.44	45.869
445.79	46.880
446.15	44.548
446.50	45.813
446.85	46.121
447.20	45.568
447.55	46.819
447.91	46.249
448.26	46.898
448.61	46.862
448.96	46.242
449.31	46.069
449.66	46.516
450.02	46.492
450.37	46.829
450.72	46.621
451.07	46.392
451.42	46.692
451.77	45.811
452.12	46.172
452.47	47.135
452.83	47.291
453.18	46.426
453.53	47.724
453.88	47.905
454.23	47.081
454.58	47.985
454.93	47.101
455.28	46.603
455.63	47.985
455.98	47.745
456.34	47.829
456.69	47.014
457.04	47.385
457.39	47.995
457.74	47.521
458.09	46.733
458.44	47.162
458.79	46.499
459.14	47.540
459.49	47.463
459.84	47.321
460.19	47.148
460.54	47.494
460.89	48.295
461.24	47.143
461.59	47.565
461.94	46.792
462.29	46.864
462.64	48.040
462.99	47.935
463.34	48.470
463.69	47.683
464.04	48.002
464.39	48.636
464.74	47.607
465.09	48.035
465.44	47.894
465.79	47.109
466.14	47.662
466.49	46.694
466.84	49.375
467.19	47.434
467.54	48.212
467.89	47.694
468.24	48.723
468.59	48.444
468.94	49.270
469.29	48.197
469.64	47.300
469.99	49.615
470.34	47.918
470.68	50.336
471.03	48.620
471.38	48.431
471.73	49.930
472.08	48.507
472.43	49.732
472.78	48.869
473.13	48.503
473.48	49.511
473.83	48.257
474.17	50.194
474.52	48.692
474.87	50.424
475.22	50.153
475.57	48.899
475.92	49.314
476.27	49.243
476.61	50.289
476.96	49.359
477.31	50.027
477.66	48.596
478.01	50.309
478.36	48.638
478.70	50.897
479.05	50.275
479.40	49.550
479.75	50.052
480.10	49.667
480.45	49.800
480.79	50.453
481.14	50.205
481.49	49.754
481.84	49.614
482.19	50.047
482.53	49.976
482.88	48.687
483.23	49.856
483.58	50.094
483.92	50.629
484.27	48.906
484.62	50.247
484.97	49.088
485.31	47.796
485.66	46.561
486.01	47.967
486.36	47.321
486.70	47.766
487.05	48.135
487.40	48.423
487.75	48.338
488.09	48.486
488.44	48.349
488.79	49.272
489.13	49.639
489.48	50.235
489.83	50.090
490.17	49.978
490.52	49.192
490.87	49.422
491.22	50.478
491.56	49.620
491.91	49.570
492.26	51.629
492.60	50.960
492.95	51.205
493.30	50.415
493.64	51.424
493.99	50.725
494.34	50.825
494.68	50.095
495.03	50.852
495.37	50.981
495.72	51.691
496.07	51.610
496.41	50.991
496.76	50.530
497.11	49.837
497.45	50.979
497.80	51.968
498.14	52.211
498.49	51.803
498.84	51.048
499.18	51.657
499.53	51.339
499.87	50.778
500.22	50.890
500.56	50.983
500.91	51.255
501.26	50.964
501.60	51.353
501.95	52.353
502.29	51.235
502.64	51.593
502.98	52.294
503.33	50.240
503.67	50.892
504.02	50.978
504.36	51.954
504.71	50.404
505.06	51.988
505.40	51.827
505.75	52.474
506.09	51.140
506.44	53.542
506.78	52.704
507.13	52.172
507.47	51.436
507.82	52.671
508.16	51.770
508.51	53.935
508.85	52.538
509.19	51.676
509.54	52.815
509.88	53.776
510.23	52.878
510.57	53.715
510.92	51.013
511.26	52.428
511.61	53.135
511.95	53.370
512.30	53.104
512.64	54.480
512.98	53.341
513.33	52.938
513.67	52.814
514.02	54.176
514.36	54.686
514.70	55.128
515.05	56.522
515.39	54.250
515.74	54.910
516.08	54.513
516.42	53.828
516.77	55.295
517.11	55.252
517.46	55.835
517.80	54.410
518.14	55.236
518.49	54.087
518.83	54.739
519.17	54.275
519.52	54.589
519.86	53.541
520.20	55.468
520.55	55.159
520.89	55.082
521.23	55.478
521.58	56.151
521.92	57.372
522.26	56.213
522.61	56.364
522.95	57.682
523.29	55.909
523.64	55.400
523.98	58.069
524.32	56.121
524.66	56.658
525.01	57.013
525.35	57.161
525.69	56.902
526.04	55.820
526.38	56.874
526.72	55.984
527.06	56.291
527.41	56.794
527.75	55.630
528.09	56.678
528.43	58.204
528.78	57.426
529.12	55.097
529.46	56.660
529.80	55.605
530.15	57.492
530.49	57.576
530.83	57.456
531.17	56.414
531.51	58.071
531.86	56.832
532.20	58.107
532.54	56.841
532.88	57.084
533.22	57.661
533.57	56.881
533.91	57.050
534.25	57.422
534.59	57.537
534.93	55.192
535.27	55.711
535.62	57.032
535.96	56.621
536.30	56.926
536.64	58.374
536.98	55.261
537.32	58.748
537.66	57.153
538.01	58.322
538.35	57.836
538.69	56.391
539.03	56.049
539.37	55.720
539.71	57.192
540.05	57.230
540.39	57.341
540.73	57.462
541.07	58.494
541.42	56.720
541.76	57.398
542.10	58.293
542.44	57.887
542.78	57.192
543.12	56.868
543.46	57.650
543.80	56.766
544.14	55.474
544.48	56.029
544.82	57.075
545.16	57.923
545.50	56.742
545.84	58.428
546.18	58.582
546.52	57.967
546.86	58.303
547.20	58.870
547.54	57.385
547.88	56.522
548.22	55.753
548.56	56.266
548.90	56.739
549.24	56.198
549.58	56.206
549.92	56.826
550.26	58.095
550.60	59.405
550.94	58.701
551.28	58.887
551.62	59.615
551.96	58.797
552.30	58.333
552.64	57.123
552.98	56.962
553.32	57.561
553.66	57.039
554.00	58.905
554.34	59.601
554.68	57.522
555.02	58.259
555.36	58.190
555.69	57.143
556.03	57.602
556.37	56.868
556.71	59.061
557.05	58.911
557.39	58.587
557.73	59.370
558.07	58.597
558.41	59.877
558.75	58.379
559.08	58.786
559.42	58.492
559.76	61.329
560.10	59.021
560.44	58.526
560.78	58.112
561.12	57.546
561.45	58.890
561.79	59.944
562.13	59.120
562.47	57.554
562.81	59.078
563.15	58.322
563.48	57.921
563.82	59.712
564.16	58.565
564.50	57.297
564.84	58.635
565.17	58.887
565.51	60.724
565.85	59.877
566.19	59.350
566.52	59.182
566.86	59.319
567.20	57.347
567.54	58.820
567.88	58.114
568.21	57.183
568.55	57.500
568.89	57.033
569.23	56.524
569.56	55.648
569.90	55.867
570.24	54.820
570.57	54.945
570.91	55.525
571.25	54.554
571.59	53.441
571.92	52.741
572.26	53.291
572.60	53.054
572.93	52.777
573.27	52.633
573.61	52.983
573.95	53.195
574.28	53.522
574.62	52.072
574.96	51.733
575.29	51.868
575.63	50.920
575.97	51.830
576.30	52.094
576.64	51.656
576.98	52.381
577.31	53.183
577.65	52.706
577.98	52.747
578.32	52.117
578.66	51.365
578.99	51.568
579.33	51.486
579.67	51.728
580.00	51.975
580.34	52.886
580.67	52.077
581.01	52.233
581.35	52.283
581.68	51.821
582.02	51.606
582.35	52.108
582.69	52.143
583.02	51.741
583.36	52.330
583.70	52.518
584.03	53.684
584.37	54.037
584.70	53.791
585.04	52.098
585.37	52.383
585.71	52.678
586.04	52.471
586.38	52.147
586.72	52.999
587.05	53.148
587.39	52.893
587.72	53.499
588.06	52.505
588.39	52.378
588.73	53.297
589.06	53.849
589.40	54.269
589.73	54.253
590.07	54.569
590.40	54.334
590.73	56.137
591.07	55.640
591.40	54.987
591.74	56.290
592.07	56.540
592.41	55.389
592.74	54.998
593.08	53.964
593.41	54.102
593.75	53.517
594.08	53.450
594.41	53.384
594.75	54.771
595.08	54.332
595.42	54.288
595.75	55.201
596.09	54.887
596.42	54.692
596.75	54.574
597.09	54.943
597.42	56.007
597.75	56.115
598.09	54.368
598.42	56.318
598.76	54.912
599.09	54.287
599.42	53.808
599.76	54.063
600.09	54.864
600.42	53.525
600.76	52.563
601.09	53.740
601.42	53.819
601.76	54.466
602.09	54.290
602.42	55.434
602.76	55.263
603.09	55.731
603.42	56.062
603.76	55.685
604.09	55.407
604.42	55.330
604.76	56.075
605.09	55.576
605.42	55.847
605.75	55.604
606.09	55.202
606.42	53.753
606.75	54.286
607.09	55.077
607.42	55.206
607.75	54.352
608.08	55.256
608.42	55.550
608.75	56.048
609.08	56.552
609.41	56.650
609.75	56.804
610.08	56.765
610.41	56.329
610.74	55.826
611.07	57.261
611.41	56.461
611.74	57.889
612.07	56.210
612.40	57.002
612.73	58.927
613.07	56.862
613.40	57.330
613.73	57.639
614.06	58.097
614.39	57.586
614.72	57.311
615.06	57.207
615.39	57.041
615.72	57.051
616.05	56.872
616.38	56.524
616.71	57.431
617.05	59.728
617.38	58.894
617.71	59.119
618.04	60.381
618.37	59.710
618.70	59.472
619.03	60.208
619.36	58.900
619.69	60.955
620.03	62.235
620.36	60.944
620.69	59.458
621.02	59.098
621.35	61.411
621.68	62.500
622.01	62.750
622.34	60.974
622.67	61.435
623.00	60.260
623.33	60.976
623.66	60.658
623.99	61.044
624.32	61.977
624.65	59.549
624.99	62.002
625.32	61.107
625.65	61.901
625.98	62.288
626.31	61.014
626.64	63.518
626.97	63.089
627.30	63.660
627.63	62.998
627.96	64.870
628.29	63.275
628.62	65.978
628.95	66.232
629.28	66.633
629.61	66.500
629.94	64.125
630.26	64.822
630.59	67.638
630.92	65.846
631.25	64.615
631.58	66.850
631.91	67.654
632.24	68.349
632.57	68.068
632.90	67.616
633.23	67.294
633.56	70.277
633.89	68.064
634.22	70.617
634.55	70.521
634.88	68.455
635.20	68.718
635.53	68.533
635.86	67.880
636.19	69.987
636.52	70.663
636.85	68.486
637.18	67.044
637.51	67.547
637.83	69.120
638.16	71.487
638.49	68.120
638.82	68.816
639.15	70.556
639.48	71.664
639.81	69.456
640.13	71.717
640.46	71.429
640.79	71.723
641.12	70.162
641.45	73.123
641.77	69.481
642.10	75.197
642.43	72.508
642.76	74.587
643.09	73.829
643.41	71.683
643.74	72.488
644.07	73.892
644.40	73.986
644.73	73.030
645.05	71.309
645.38	75.309
645.71	72.518
646.04	74.327
646.36	74.645
646.69	76.259
647.02	75.236
647.35	75.560
647.67	73.857
648.00	74.440
648.33	71.160
648.66	73.559
648.98	70.017
649.31	73.223
649.64	70.330
649.96	69.530
650.29	71.721
650.62	71.453
650.94	73.333
651.27	72.067
651.60	74.595
651.92	72.902
652.25	71.226
652.58	72.833
652.90	76.501
653.23	70.756
653.56	70.897
653.88	73.024
654.21	68.476
654.54	69.270
654.86	72.326
655.19	67.544
655.52	63.158
655.84	54.273
656.17	59.857
656.49	79.920
656.82	82.291
657.15	62.597
657.47	46.453
657.80	35.055
658.13	34.559
658.45	53.392
658.78	52.694
659.10	52.469
659.43	53.852
659.75	55.945
660.08	56.069
660.41	61.389
660.73	65.608
661.06	69.497
661.38	70.841
661.71	73.922
662.03	77.039
662.36	74.066
662.68	73.894
663.01	78.166
663.33	75.870
663.66	78.140
663.98	76.977
664.31	75.267
664.63	75.576
664.96	69.565
665.28	73.510
665.61	75.541
665.93	75.652
666.26	77.440
666.58	74.273
666.91	78.353
667.23	78.066
667.56	77.488
667.88	78.417
668.21	80.191
668.53	80.851
668.86	80.189
669.18	75.236
669.50	78.208
669.83	73.488
670.15	78.788
670.48	75.359
670.80	74.885
671.13	77.181
671.45	77.626
671.77	76.824
672.10	72.475
672.42	71.910
672.75	69.094
673.07	70.125
673.39	72.110
673.72	70.217
674.04	71.667
674.37	74.364
674.69	76.445
675.01	78.000
675.34	75.225
675.66	80.093
675.98	78.049
676.31	76.606
676.63	78.622
676.95	73.409
677.28	78.824
677.60	78.313
677.92	75.229
678.25	75.274
678.57	79.437
678.89	72.479
679.22	75.615
679.54	71.285
679.86	72.366
680.18	73.981
680.51	72.348
680.83	71.372
681.15	69.800
681.48	75.205
681.80	75.207
682.12	71.976
682.44	71.548
682.77	76.821
683.09	75.286
683.41	75.227
683.73	76.728
684.06	75.885
684.38	74.624
684.70	76.253
685.02	71.784
685.34	70.356
685.67	70.919
685.99	70.705
686.31	68.673
686.63	70.130
686.96	69.962
687.28	71.515
687.60	68.441
687.92	73.333
688.24	72.379
688.56	72.271
688.89	75.893
689.21	74.667
689.53	72.158
689.85	73.721
690.17	75.446
690.49	77.305
690.82	73.544
691.14	73.810
691.46	74.533
691.78	74.775
692.10	75.914
692.42	71.429
692.74	71.154
693.06	72.748
693.39	71.267
693.71	74.208
694.03	72.748
694.35	73.598
694.67	75.505
694.99	74.935
695.31	77.023
695.63	74.000
695.95	76.010
696.27	74.611
696.59	76.944
696.91	76.471
697.23	73.779
697.56	73.267
697.88	70.968
698.20	71.071
698.52	73.882
698.84	70.096
699.16	73.500
699.48	77.444
699.80	72.457
700.12	77.628
700.44	78.151
700.76	78.488
701.08	76.061
701.40	78.012
701.72	80.556
702.04	82.838
702.36	84.950
702.68	76.877
703.00	79.697
703.32	74.780
703.64	69.774
703.96	74.783
704.28	81.595
704.60	83.175
704.91	72.240
705.23	76.080
705.55	89.046
705.87	79.422
706.19	80.741
706.51	78.351
706.83	79.421
707.15	72.274
707.47	74.790
707.79	73.177
708.11	69.750
708.43	67.750
708.74	72.093
709.06	78.873
709.38	79.205
709.70	76.923
710.02	75.796
710.34	75.542
710.66	71.474
710.98	77.815
711.29	79.016
711.61	82.712
711.93	77.524
712.25	82.474
712.57	83.883
712.89	77.612
713.20	78.893
713.52	76.655
713.84	77.816
714.16	74.570
714.48	72.581
714.80	79.167
715.11	80.547
715.43	74.295
715.75	77.667
716.07	72.093
716.39	77.517
716.70	75.646
717.02	73.282
717.34	86.235
717.66	83.628
717.97	82.609
718.29	83.682
718.61	82.283
718.93	75.969
719.24	80.608
719.56	78.715
719.88	77.320
720.20	79.167
720.51	78.927
720.83	79.151
721.15	81.092
721.46	77.016
721.78	77.866
722.10	74.721
722.42	78.008
722.73	77.551
723.05	85.714
723.37	82.203
723.68	81.982
724.00	80.342
724.32	76.444
724.63	85.455
724.95	82.533
725.27	83.871
725.58	82.627
725.90	75.794
726.22	76.834
726.53	70.508
726.85	73.034
727.16	76.981
727.48	72.470
727.80	80.567
728.11	80.508
728.43	72.549
728.74	74.194
729.06	76.000
729.38	79.699
729.69	80.876
730.01	74.231
730.32	76.493
730.64	75.972
730.96	78.113
731.27	69.667
731.59	74.915
731.90	72.930
732.22	74.448
732.53	73.754
732.85	77.305
733.16	74.411
733.48	75.899
733.80	71.014
734.11	73.559
734.43	75.258
734.74	69.697
735.06	73.290
735.37	70.695
735.69	70.034
736.00	78.049
736.32	72.483
736.63	76.761
736.95	71.331
737.26	72.598
737.58	71.477
737.89	73.626
738.21	76.692
738.52	74.486
738.83	80.786
739.15	79.039
739.46	81.102
739.78	72.527
740.09	69.281
740.41	77.174
740.72	73.228
741.04	78.947
741.35	74.468
741.66	85.308
741.98	81.122
742.29	81.188
742.61	86.911
742.92	73.934
743.23	66.667
743.55	77.828
743.86	74.641
744.18	80.861
744.49	82.447
744.80	83.696
745.12	94.118
745.43	73.659
745.74	85.417
746.06	80.488
746.37	81.152
746.68	80.095
747.00	82.447
747.31	82.587
747.62	78.155
747.94	82.775
748.25	78.713
748.56	87.432
748.88	87.958
749.19	76.596
749.50	83.251
749.82	72.642
750.13	76.147
750.44	78.571
750.75	75.000
751.07	78.832
751.38	72.414
751.69	72.157
752.01	75.194
752.32	80.478
752.63	73.518
752.94	79.310
753.26	80.335
753.57	78.281
753.88	79.204
754.19	75.417
754.51	71.901
754.82	72.874
755.13	77.917
755.44	75.806
755.75	74.219
756.07	75.097
756.38	72.830
756.69	73.946
757.00	74.000
757.31	69.281
757.63	67.683
757.94	67.500
758.25	67.671
758.56	68.085
758.87	62.040
759.18	66.355
759.50	69.455
759.81	68.896
760.12	71.613
760.43	70.000
760.74	70.062
761.05	72.615
761.36	66.477
761.67	70.303
761.99	73.469
762.30	70.909
762.61	78.656
762.92	73.756
763.23	78.378
763.54	71.495
763.85	77.542
764.16	69.295
764.47	71.371
764.78	69.963
765.10	70.707
765.41	67.823
765.72	69.524
766.03	66.917
766.34	67.883
766.65	74.900
766.96	74.747
767.27	76.596
767.58	71.264
767.89	91.489
768.20	74.432
768.51	75.824
768.82	74.384
769.13	67.742
769.44	69.099
769.75	71.689
770.06	72.414
770.37	70.192
770.68	70.558
770.99	69.231
771.30	80.882
771.61	70.588
771.92	71.983
772.23	78.325
772.54	74.194
772.85	85.802
773.16	72.472
773.47	86.928
773.78	78.431
774.09	71.856
774.39	74.000
774.70	73.248
775.01	85.517
775.32	75.000
775.63	75.207
775.94	75.573
776.25	79.528
776.56	71.667
776.87	99.038
777.18	80.342
777.48	85.345
777.79	85.217
778.10	82.857
778.41	77.477
778.72	73.810
779.03	81.203
779.34	73.050
779.65	76.027
779.95	73.288
780.26	80.690
780.57	74.797
780.88	70.079
781.19	84.483
781.50	75.969
781.80	70.414
782.11	64.780
782.42	86.923
782.73	75.540
783.04	77.778
783.34	70.139
783.65	75.214
783.96	81.148
784.27	72.414
784.57	70.732
784.88	76.563
785.19	85.000
785.50	86.000
785.81	72.414
786.11	81.897
786.42	76.699
786.73	80.000
787.04	77.551
787.34	70.536
787.65	83.810
787.96	62.832
788.26	80.000
788.57	76.068
788.88	72.656
789.19	69.841
789.49	73.913
789.80	75.510
790.11	70.707
790.41	61.818
790.72	85.870
791.03	87.500
791.33	95.000
791.64	91.250
791.95	74.419
792.25	77.660
792.56	70.787
792.87	87.671
793.17	71.014
793.48	74.667
793.79	72.500
794.09	87.500
794.40	77.358
794.70	68.932
795.01	60.163
795.32	63.248
795.62	80.000
795.93	76.471
796.23	62.264
796.54	73.958
796.85	95.588
797.15	95.775
797.46	77.778
797.76	93.939
798.07	65.116
798.37	68.421
798.68	78.788
798.99	74.074
799.29	85.714
799.60	69.565
799.90	78.667
800.21	85.246
800.51	76.923
800.82	101.695
801.12	81.159
801.43	100.000
801.73	76.190
802.04	90.000
802.34	68.657
802.65	105.769
802.95	66.071
803.26	80.769
803.56	100.000
803.87	91.304
804.17	62.667
804.48	74.603
804.78	81.481
805.09	102.174
805.39	84.444
805.70	79.630
806.00	64.912
806.30	76.056
806.61	68.571
806.91	61.111
807.22	71.053
807.52	90.667
807.83	78.182
808.13	58.333
808.43	80.882
808.74	70.149
809.04	72.881
809.35	65.385
809.65	67.188
809.95	56.757
810.26	50.000
810.56	64.384
810.86	83.333
811.17	66.000
811.47	97.959
811.77	65.789
812.08	72.727
812.38	79.245
812.69	77.500
812.99	66.667
813.29	97.368
813.59	54.286
813.90	63.636
814.20	82.051
814.50	67.308
814.81	67.925
815.11	53.191
815.41	71.186
815.72	78.571
816.02	64.706
816.32	81.250
816.62	90.244
816.93	54.054
817.23	71.429
817.53	70.833
817.84	43.478
818.14	59.615
818.44	78.947
818.74	78.261
819.04	55.000
819.35	81.081
819.65	58.824
819.95	80.556
820.25	40.476
820.56	80.000
820.86	44.828
821.16	90.000
821.46	85.106
821.76	77.500
822.07	65.116
822.37	40.541
822.67	75.000
822.97	76.190
823.27	82.143
823.57	76.000
823.88	74.074
824.18	128.571
824.48	88.235
824.78	51.613
825.08	91.304
825.38	90.909
825.69	75.000
825.99	65.789
826.29	75.000
826.59	146.667
826.89	23.810
827.19	47.826
827.49	45.000
827.79	82.857
828.09	100.000
828.39	78.788
828.70	94.595
829.00	71.429
829.30	71.429
829.60	86.667
829.90	53.125
830.20	89.474
830.50	66.667
830.80	91.304
831.10	86.364
831.40	81.818
831.70	80.645
832.00	76.190
832.30	76.190
832.60	83.333
832.90	65.517
833.20	45.000
833.50	75.758
833.80	51.852
834.10	92.308
834.40	75.000
834.70	200.000
835.00	94.737
835.30	123.077
835.60	133.333
835.90	80.645
836.20	77.273
836.50	35.714
836.80	38.462
837.10	92.857
837.40	266.667
837.70	86.364
838.00	27.273
838.30	73.913
838.60	61.538
838.90	31.818
839.19	39.286
839.49	90.000
839.79	123.077
840.09	75.000
840.39	89.286
840.69	53.571
840.99	30.769
841.29	42.105
841.59	40.000
841.88	181.818
842.18	100.000
842.48	43.750
842.78	80.000
843.08	40.741
843.38	110.000
843.68	52.174
843.97	66.667
844.27	80.000
844.57	50.000
844.87	94.444
845.17	33.333
845.47	66.667
845.76	0.000
846.06	41.176
846.36	210.000
846.66	7.143
846.96	26.667
847.25	-62.500
847.55	100.000
847.85	37.500
848.15	50.000
848.44	-33.333
848.74	120.000
849.04	77.778
849.34	90.909
849.63	66.667
849.93	60.000
850.23	0.000
850.53	220.000
850.82	30.769
851.12	88.889
851.42	100.000
851.71	34.615
852.01	0.000
852.31	225.000
852.61	45.455
852.90	55.000
853.20	100.000
853.50	58.333
853.79	73.913
854.09	91.667
854.39	142.105
854.68	62.500
854.98	70.968
855.28	69.231
855.57	65.000
855.87	61.111
856.17	77.778
856.46	7.143
856.76	60.000
857.05	111.111
857.35	28.000
857.65	122.222
857.94	23.077
858.24	41.379
858.53	100.000
858.83	51.852
859.13	50.000
859.42	91.304
859.72	-125.000
860.01	200.000
860.31	28.000
860.60	42.857
860.90	-66.667
861.20	46.667
861.49	-150.000
861.79	-20.000
862.08	25.000
862.38	146.667
862.67	20.000
862.97	100.000
863.26	83.333
863.56	72.222
863.85	-166.667
864.15	77.778
864.44	120.000
864.74	100.000
865.03	75.000
865.33	-60.000
865.62	166.667
865.92	33.333
866.21	-150.000
866.51	131.250
866.80	72.727
867.10	-150.000
867.39	116.667
867.69	0.000
867.98	100.000
868.27	166.667
868.57	66.667
868.86	77.778
869.16	7.692
869.45	93.333
869.75	-1000.000
870.04	0.000
870.33	0.000
870.63	61.905
870.92	200.000
871.22	20.000
871.51	0.000
871.80	33.333
872.10	166.667
>>>>>End Processed Spectral Data<<<<<
