SpectraSuite Data File
++++++++++++++++++++++++++++++++++++
Date: Fri May 15 17:07:29 PDT 2015
User: schluterlab
Dark Spectrum Present: Yes
Reference Spectrum Present: Yes
Number of Sampled Component Spectra: 1
Spectrometers: USB2E3373
Integration Time (usec): 3000 (USB2E3373)
Spectra Averaged: 3 (USB2E3373)
Boxcar Smoothing: 0 (USB2E3373)
Correct for Electrical Dark: No (USB2E3373)
Strobe/Lamp Enabled: No (USB2E3373)
Correct for Detector Non-linearity: No (USB2E3373)
Correct for Stray Light: No (USB2E3373)
Number of Pixels in Processed Spectrum: 2048
>>>>>Begin Processed Spectral Data<<<<<
178.53	0.000
178.91	0.000
179.29	75.000
179.67	-450.000
180.04	-114.286
180.42	425.000
180.80	400.000
181.18	-433.333
181.56	350.000
181.94	550.000
182.31	200.000
182.69	120.000
183.07	300.000
183.45	60.000
183.83	-83.333
184.20	36.364
184.58	11.111
184.96	-75.000
185.34	-66.667
185.72	450.000
186.09	7.692
186.47	-1500.000
186.85	66.667
187.23	-66.667
187.61	-1100.000
187.98	233.333
188.36	100.000
188.74	0.000
189.12	35.294
189.49	66.667
189.87	0.000
190.25	107.143
190.63	350.000
191.00	66.667
191.38	10.526
191.76	600.000
192.14	-125.000
192.51	300.000
192.89	111.111
193.27	-28.571
193.65	-50.000
194.02	-0.000
194.40	80.000
194.78	-12.500
195.15	33.333
195.53	162.500
195.91	75.000
196.29	175.000
196.66	15.385
197.04	-71.429
197.42	133.333
197.79	66.667
198.17	0.000
198.55	1000.000
198.92	-266.667
199.30	800.000
199.68	180.000
200.05	-100.000
200.43	0.000
200.81	133.333
201.18	-66.667
201.56	200.000
201.94	200.000
202.31	-266.667
202.69	-40.000
203.07	50.000
203.44	300.000
203.82	0.000
204.19	35.714
204.57	-200.000
204.95	-25.000
205.32	40.000
205.70	142.857
206.08	125.000
206.45	266.667
206.83	121.429
207.20	-14.286
207.58	-400.000
207.96	-166.667
208.33	0.000
208.71	0.000
209.08	83.333
209.46	700.000
209.84	120.000
210.21	0.000
210.59	142.857
210.96	183.333
211.34	175.000
211.71	100.000
212.09	28.571
212.46	-600.000
212.84	0.000
213.22	160.000
213.59	50.000
213.97	123.077
214.34	63.636
214.72	166.667
215.09	225.000
215.47	15.385
215.84	9.091
216.22	0.000
216.59	0.000
216.97	700.000
217.34	75.000
217.72	20.000
218.09	75.000
218.47	62.500
218.84	100.000
219.22	88.889
219.59	20.000
219.97	-100.000
220.34	225.000
220.72	185.714
221.09	325.000
221.47	350.000
221.84	-200.000
222.22	-550.000
222.59	27.273
222.97	125.000
223.34	33.333
223.72	57.143
224.09	95.238
224.46	67.857
224.84	466.667
225.21	100.000
225.59	86.667
225.96	200.000
226.34	200.000
226.71	114.286
227.08	250.000
227.46	75.000
227.83	-100.000
228.21	44.444
228.58	136.364
228.95	162.500
229.33	-40.000
229.70	31.250
230.08	-75.000
230.45	128.571
230.82	100.000
231.20	20.000
231.57	100.000
231.95	171.429
232.32	-50.000
232.69	35.714
233.07	133.333
233.44	-20.000
233.81	-10.000
234.19	111.111
234.56	29.412
234.93	-200.000
235.31	325.000
235.68	-40.000
236.05	76.923
236.43	15.000
236.80	70.588
237.17	34.375
237.55	50.000
237.92	18.519
238.29	33.333
238.67	36.667
239.04	14.706
239.41	9.756
239.79	16.667
240.16	19.512
240.53	21.053
240.91	15.217
241.28	25.397
241.65	14.286
242.02	24.658
242.40	6.667
242.77	1.695
243.14	16.667
243.51	12.500
243.89	20.690
244.26	3.448
244.63	1.190
245.00	13.402
245.38	32.990
245.75	1.124
246.12	2.586
246.49	15.702
246.87	6.731
247.24	2.521
247.61	0.000
247.98	6.504
248.36	11.250
248.73	9.868
249.10	12.338
249.47	6.329
249.84	5.229
250.22	13.529
250.59	3.268
250.96	9.859
251.33	10.465
251.70	10.000
252.08	5.584
252.45	10.891
252.82	5.528
253.19	7.834
253.56	9.346
253.94	12.162
254.31	11.739
254.68	10.088
255.05	9.449
255.42	6.550
255.79	5.792
256.16	9.728
256.54	11.194
256.91	8.745
257.28	5.948
257.65	7.865
258.02	5.319
258.39	11.448
258.76	8.059
259.14	7.973
259.51	7.443
259.88	6.186
260.25	7.190
260.62	5.903
260.99	2.712
261.36	4.452
261.73	7.595
262.10	5.167
262.47	8.282
262.85	7.524
263.22	5.846
263.59	4.361
263.96	8.696
264.33	10.000
264.70	6.250
265.07	7.440
265.44	9.065
265.81	3.955
266.18	6.284
266.55	9.254
266.92	7.772
267.29	7.572
267.66	8.951
268.03	6.283
268.40	5.483
268.77	10.963
269.14	8.873
269.51	7.712
269.88	5.237
270.25	6.122
270.62	6.341
270.99	2.558
271.36	7.579
271.73	10.094
272.10	5.596
272.47	6.619
272.84	6.436
273.21	8.353
273.58	10.120
273.95	8.238
274.32	4.388
274.69	5.882
275.06	6.027
275.43	6.576
275.80	4.857
276.17	4.598
276.54	6.638
276.91	3.947
277.28	5.240
277.65	7.645
278.02	6.809
278.39	4.595
278.76	7.128
279.13	3.112
279.50	9.244
279.87	6.695
280.23	4.946
280.60	8.967
280.97	6.061
281.34	6.154
281.71	8.214
282.08	4.908
282.45	7.045
282.82	5.405
283.19	6.963
283.56	7.129
283.92	3.795
284.29	6.346
284.66	6.977
285.03	4.322
285.40	5.293
285.77	5.097
286.14	5.415
286.51	6.642
286.87	4.753
287.24	4.972
287.61	5.115
287.98	8.596
288.35	5.546
288.72	8.932
289.08	5.208
289.45	6.151
289.82	5.769
290.19	5.461
290.56	3.431
290.93	3.535
291.29	4.622
291.66	6.772
292.03	3.828
292.40	3.871
292.77	4.306
293.13	1.299
293.50	3.945
293.87	4.122
294.24	6.801
294.60	5.514
294.97	5.952
295.34	3.067
295.71	6.259
296.08	4.335
296.44	4.125
296.81	5.000
297.18	3.188
297.55	6.504
297.91	5.479
298.28	6.596
298.65	3.935
299.02	5.256
299.38	3.420
299.75	2.621
300.12	3.927
300.48	5.007
300.85	4.309
301.22	3.636
301.59	4.474
301.95	4.684
302.32	4.799
302.69	4.229
303.05	4.208
303.42	3.861
303.79	4.089
304.15	4.540
304.52	2.378
304.89	4.211
305.25	4.600
305.62	4.551
305.99	4.678
306.35	3.353
306.72	2.700
307.09	3.991
307.45	5.741
307.82	4.051
308.19	4.181
308.55	4.144
308.92	5.229
309.29	3.128
309.65	3.767
310.02	3.960
310.38	4.061
310.75	4.809
311.12	3.660
311.48	4.560
311.85	5.445
312.22	3.692
312.58	4.352
312.95	4.376
313.31	4.244
313.68	4.398
314.05	3.265
314.41	4.742
314.78	5.464
315.14	5.653
315.51	5.590
315.87	4.201
316.24	5.763
316.61	6.988
316.97	6.845
317.34	5.957
317.70	7.266
318.07	5.577
318.43	6.275
318.80	5.777
319.16	7.715
319.53	7.787
319.89	6.791
320.26	6.275
320.62	8.726
320.99	7.411
321.35	7.811
321.72	8.930
322.08	8.862
322.45	9.036
322.81	9.430
323.18	9.715
323.54	10.425
323.91	10.029
324.27	9.863
324.64	10.861
325.00	13.686
325.37	15.243
325.73	13.055
326.10	13.624
326.46	15.247
326.83	15.223
327.19	15.693
327.56	15.986
327.92	17.518
328.29	17.679
328.65	18.396
329.01	18.199
329.38	20.369
329.74	18.602
330.11	20.389
330.47	21.892
330.84	21.058
331.20	24.144
331.56	22.315
331.93	23.927
332.29	24.106
332.66	23.801
333.02	24.442
333.38	23.923
333.75	25.549
334.11	23.993
334.48	26.111
334.84	26.832
335.20	27.356
335.57	26.201
335.93	27.191
336.29	27.808
336.66	27.793
337.02	28.067
337.38	27.222
337.75	27.545
338.11	27.773
338.47	28.741
338.84	27.819
339.20	28.428
339.56	29.358
339.93	28.917
340.29	29.266
340.65	29.391
341.02	29.255
341.38	28.938
341.74	28.975
342.11	28.076
342.47	29.004
342.83	30.277
343.20	28.746
343.56	30.261
343.92	29.938
344.28	29.633
344.65	28.843
345.01	28.263
345.37	29.100
345.73	29.456
346.10	30.198
346.46	28.680
346.82	28.723
347.19	28.595
347.55	29.657
347.91	28.722
348.27	28.779
348.63	30.068
349.00	29.286
349.36	28.678
349.72	29.187
350.08	30.328
350.45	29.689
350.81	29.817
351.17	29.397
351.53	30.286
351.89	28.159
352.26	27.840
352.62	28.952
352.98	29.317
353.34	27.697
353.70	29.045
354.07	28.226
354.43	28.503
354.79	29.645
355.15	29.286
355.51	29.351
355.87	30.016
356.24	27.814
356.60	29.184
356.96	29.286
357.32	29.073
357.68	28.460
358.04	28.110
358.40	27.814
358.77	28.708
359.13	28.823
359.49	29.045
359.85	28.549
360.21	27.751
360.57	28.386
360.93	28.215
361.29	27.417
361.66	29.075
362.02	30.076
362.38	29.703
362.74	28.236
363.10	29.947
363.46	30.096
363.82	30.053
364.18	28.856
364.54	27.721
364.90	28.459
365.26	28.967
365.62	29.489
365.98	29.106
366.35	29.643
366.71	29.047
367.07	28.520
367.43	28.972
367.79	30.742
368.15	29.218
368.51	28.551
368.87	29.146
369.23	30.253
369.59	29.009
369.95	30.205
370.31	29.552
370.67	29.701
371.03	29.500
371.39	29.395
371.75	30.330
372.11	30.385
372.47	28.698
372.83	30.447
373.19	30.029
373.55	29.242
373.91	29.806
374.27	29.483
374.63	30.869
374.99	30.284
375.35	29.735
375.71	29.930
376.07	31.320
376.42	31.565
376.78	30.872
377.14	30.873
377.50	30.611
377.86	29.987
378.22	30.121
378.58	30.962
378.94	31.191
379.30	30.568
379.66	30.408
380.02	31.147
380.38	30.432
380.74	30.880
381.09	31.534
381.45	30.826
381.81	30.598
382.17	31.853
382.53	31.918
382.89	31.387
383.25	31.736
383.61	32.195
383.97	31.365
384.32	31.207
384.68	31.393
385.04	31.189
385.40	31.052
385.76	32.767
386.12	32.924
386.48	32.631
386.83	32.213
387.19	32.234
387.55	33.124
387.91	31.418
388.27	32.234
388.62	32.347
388.98	31.676
389.34	33.791
389.70	32.753
390.06	31.466
390.42	32.254
390.77	31.851
391.13	31.652
391.49	32.536
391.85	33.008
392.20	32.392
392.56	32.104
392.92	32.590
393.28	32.075
393.64	32.252
393.99	33.542
394.35	32.195
394.71	33.142
395.07	31.741
395.42	31.390
395.78	32.313
396.14	32.598
396.50	32.213
396.85	32.518
397.21	32.018
397.57	31.411
397.92	32.175
398.28	31.954
398.64	31.265
399.00	31.377
399.35	31.716
399.71	31.648
400.07	32.467
400.42	32.069
400.78	32.088
401.14	31.216
401.49	32.102
401.85	31.932
402.21	31.747
402.57	32.000
402.92	30.615
403.28	31.767
403.63	31.589
403.99	31.250
404.35	32.292
404.70	30.060
405.06	31.316
405.42	32.007
405.77	30.564
406.13	31.723
406.49	31.143
406.84	30.929
407.20	32.631
407.55	31.809
407.91	30.949
408.27	31.039
408.62	30.954
408.98	30.930
409.34	31.351
409.69	30.685
410.05	30.850
410.40	30.185
410.76	31.785
411.11	32.312
411.47	31.821
411.83	30.760
412.18	30.502
412.54	31.773
412.89	31.527
413.25	31.949
413.60	30.745
413.96	31.288
414.31	31.463
414.67	31.944
415.03	31.558
415.38	30.875
415.74	31.792
416.09	32.071
416.45	31.330
416.80	31.791
417.16	31.768
417.51	32.578
417.87	31.095
418.22	31.606
418.58	32.241
418.93	32.476
419.29	31.114
419.64	31.497
420.00	33.564
420.35	30.746
420.71	33.050
421.06	32.474
421.42	33.233
421.77	32.023
422.12	32.520
422.48	32.160
422.83	32.367
423.19	33.747
423.54	32.510
423.90	32.450
424.25	33.697
424.61	33.537
424.96	33.101
425.31	34.315
425.67	34.038
426.02	35.395
426.38	34.189
426.73	34.746
427.09	34.747
427.44	34.647
427.79	34.767
428.15	34.345
428.50	34.949
428.85	35.012
429.21	35.484
429.56	35.633
429.92	36.518
430.27	34.987
430.62	34.187
430.98	34.979
431.33	35.068
431.68	34.851
432.04	36.836
432.39	35.425
432.74	34.937
433.10	36.437
433.45	35.544
433.80	35.577
434.16	37.285
434.51	35.161
434.86	36.005
435.22	36.736
435.57	36.619
435.92	36.826
436.28	36.136
436.63	36.509
436.98	36.674
437.34	36.903
437.69	37.746
438.04	37.664
438.39	37.385
438.75	37.583
439.10	36.842
439.45	38.831
439.81	37.492
440.16	38.955
440.51	38.985
440.86	39.577
441.22	38.122
441.57	38.521
441.92	39.087
442.27	39.246
442.63	39.240
442.98	39.920
443.33	38.843
443.68	38.886
444.03	39.195
444.39	38.564
444.74	41.527
445.09	39.310
445.44	39.430
445.79	40.846
446.15	39.813
446.50	39.601
446.85	39.692
447.20	39.990
447.55	40.234
447.91	40.440
448.26	40.239
448.61	41.336
448.96	41.193
449.31	40.347
449.66	40.767
450.02	40.901
450.37	41.909
450.72	41.008
451.07	42.532
451.42	41.698
451.77	42.315
452.12	40.610
452.47	41.597
452.83	41.343
453.18	41.809
453.53	43.173
453.88	42.319
454.23	41.549
454.58	43.577
454.93	41.688
455.28	41.524
455.63	42.529
455.98	42.153
456.34	42.209
456.69	42.630
457.04	43.793
457.39	42.406
457.74	43.229
458.09	42.260
458.44	43.300
458.79	42.857
459.14	43.478
459.49	43.761
459.84	43.655
460.19	43.507
460.54	44.927
460.89	43.807
461.24	43.727
461.59	44.121
461.94	41.887
462.29	43.908
462.64	44.784
462.99	44.076
463.34	43.811
463.69	44.466
464.04	44.492
464.39	43.420
464.74	43.742
465.09	45.041
465.44	44.778
465.79	43.934
466.14	44.299
466.49	43.933
466.84	45.033
467.19	45.119
467.54	45.658
467.89	44.536
468.24	43.674
468.59	46.159
468.94	44.127
469.29	45.705
469.64	45.386
469.99	46.461
470.34	44.778
470.68	46.532
471.03	46.285
471.38	47.432
471.73	46.429
472.08	44.708
472.43	45.772
472.78	45.648
473.13	47.755
473.48	46.189
473.83	44.770
474.17	46.503
474.52	46.011
474.87	46.485
475.22	47.346
475.57	46.245
475.92	46.572
476.27	47.264
476.61	46.759
476.96	45.733
477.31	47.864
477.66	46.798
478.01	47.838
478.36	46.514
478.70	48.613
479.05	48.516
479.40	47.324
479.75	47.445
480.10	47.875
480.45	47.900
480.79	48.741
481.14	48.309
481.49	46.404
481.84	48.697
482.19	48.129
482.53	48.297
482.88	46.921
483.23	48.081
483.58	47.689
483.92	47.096
484.27	46.992
484.62	48.050
484.97	47.512
485.31	48.374
485.66	48.361
486.01	47.771
486.36	47.471
486.70	46.991
487.05	47.286
487.40	47.699
487.75	48.141
488.09	47.528
488.44	47.834
488.79	48.263
489.13	49.038
489.48	48.867
489.83	49.283
490.17	49.393
490.52	48.868
490.87	49.283
491.22	50.143
491.56	49.194
491.91	48.614
492.26	50.219
492.60	48.752
492.95	50.713
493.30	49.536
493.64	50.884
493.99	49.758
494.34	49.854
494.68	50.048
495.03	49.440
495.37	50.834
495.72	50.934
496.07	50.976
496.41	50.472
496.76	51.175
497.11	50.256
497.45	51.456
497.80	51.615
498.14	50.869
498.49	51.092
498.84	50.798
499.18	51.305
499.53	51.538
499.87	50.535
500.22	50.890
500.56	51.942
500.91	51.556
501.26	49.432
501.60	51.894
501.95	51.140
502.29	51.574
502.64	51.496
502.98	51.110
503.33	51.441
503.67	50.843
504.02	51.857
504.36	52.152
504.71	51.111
505.06	51.434
505.40	52.234
505.75	52.423
506.09	52.255
506.44	53.645
506.78	52.551
507.13	52.327
507.47	51.227
507.82	53.098
508.16	51.558
508.51	52.361
508.85	53.166
509.19	52.262
509.54	51.635
509.88	52.535
510.23	53.039
510.57	53.340
510.92	51.759
511.26	53.028
511.61	52.035
511.95	54.027
512.30	53.104
512.64	53.589
512.98	53.116
513.33	53.218
513.67	53.439
514.02	55.206
514.36	55.200
514.70	54.487
515.05	54.642
515.39	54.132
515.74	55.749
516.08	55.529
516.42	55.359
516.77	55.237
517.11	55.015
517.46	55.236
517.80	53.576
518.14	54.930
518.49	53.966
518.83	54.678
519.17	53.851
519.52	53.760
519.86	53.121
520.20	54.557
520.55	54.034
520.89	55.207
521.23	55.415
521.58	55.016
521.92	54.551
522.26	54.587
522.61	55.195
522.95	55.563
523.29	55.464
523.64	55.210
523.98	56.124
524.32	54.510
524.66	54.738
525.01	55.260
525.35	54.893
525.69	56.431
526.04	55.159
526.38	55.253
526.72	55.526
527.06	55.642
527.41	55.805
527.75	54.558
528.09	54.884
528.43	55.841
528.78	55.842
529.12	55.871
529.46	54.386
529.80	54.528
530.15	56.238
530.49	56.633
530.83	55.882
531.17	54.600
531.51	56.088
531.86	55.812
532.20	55.811
532.54	54.663
532.88	57.084
533.22	55.914
533.57	55.505
533.91	55.548
534.25	58.398
534.59	55.869
534.93	54.059
535.27	54.505
535.62	55.606
535.96	54.534
536.30	56.596
536.64	54.790
536.98	54.146
537.32	57.183
537.66	57.083
538.01	57.203
538.35	56.172
538.69	54.527
539.03	55.229
539.37	56.393
539.71	56.101
540.05	55.872
540.39	56.648
540.73	57.252
541.07	56.630
541.42	57.527
541.76	56.779
542.10	56.228
542.44	56.776
542.78	55.403
543.12	55.495
543.46	55.563
543.80	57.876
544.14	54.873
544.48	55.696
544.82	55.913
545.16	57.309
545.50	56.075
545.84	57.790
546.18	57.163
546.52	57.678
546.86	58.591
547.20	57.010
547.54	55.194
547.88	55.842
548.22	56.345
548.56	55.409
548.90	55.660
549.24	55.303
549.58	56.770
549.92	56.254
550.26	56.996
550.60	58.959
550.94	57.655
551.28	58.423
551.62	58.000
551.96	56.767
552.30	58.480
552.64	56.206
552.98	55.767
553.32	57.632
553.66	57.039
554.00	58.613
554.34	57.164
554.68	56.047
555.02	57.366
555.36	56.769
555.69	56.264
556.03	57.102
556.37	56.157
556.71	56.606
557.05	58.389
557.39	56.283
557.73	57.646
558.07	59.578
558.41	58.499
558.75	58.145
559.08	58.708
559.42	57.619
559.76	58.046
560.10	57.875
560.44	56.292
560.78	56.364
561.12	58.886
561.45	58.398
561.79	59.104
562.13	58.836
562.47	58.129
562.81	58.646
563.15	57.616
563.48	58.557
563.82	58.751
564.16	58.635
564.50	55.743
564.84	56.560
565.17	57.612
565.51	58.607
565.85	58.230
566.19	57.162
566.52	57.909
566.86	58.997
567.20	56.538
567.54	58.212
567.88	59.520
568.21	57.805
568.55	56.793
568.89	57.752
569.23	58.161
569.56	56.961
569.90	57.531
570.24	55.303
570.57	56.836
570.91	56.082
571.25	55.508
571.59	54.812
571.92	54.400
572.26	54.650
572.60	54.481
572.93	54.409
573.27	54.577
573.61	55.072
573.95	55.325
574.28	54.370
574.62	53.827
574.96	53.453
575.29	54.619
575.63	53.330
575.97	53.646
576.30	55.103
576.64	53.722
576.98	55.058
577.31	55.001
577.65	54.679
577.98	54.227
578.32	54.661
578.66	53.256
578.99	53.767
579.33	54.159
579.67	52.687
580.00	54.759
580.34	54.328
580.67	54.105
581.01	54.635
581.35	53.984
581.68	54.438
582.02	54.505
582.35	53.928
582.69	54.207
583.02	54.155
583.36	54.791
583.70	54.777
584.03	55.796
584.37	55.477
584.70	54.588
585.04	53.912
585.37	54.373
585.71	55.098
586.04	55.068
586.38	54.975
586.72	54.720
587.05	55.488
587.39	54.515
587.72	55.358
588.06	55.854
588.39	54.942
588.73	56.258
589.06	55.512
589.40	54.373
589.73	55.750
590.07	55.891
590.40	55.224
590.73	56.549
591.07	56.107
591.40	55.744
591.74	56.154
592.07	55.983
592.41	56.625
592.74	55.635
593.08	54.593
593.41	55.091
593.75	55.414
594.08	55.338
594.41	54.476
594.75	55.305
595.08	55.278
595.42	55.171
595.75	55.989
596.09	55.551
596.42	55.519
596.75	55.417
597.09	55.991
597.42	56.052
597.75	55.703
598.09	55.002
598.42	54.919
598.76	55.384
599.09	56.450
599.42	54.831
599.76	55.305
600.09	54.789
600.42	54.738
600.76	53.975
601.09	55.038
601.42	55.190
601.76	55.379
602.09	54.950
602.42	56.529
602.76	55.985
603.09	55.772
603.42	56.814
603.76	55.605
604.09	54.435
604.42	55.880
604.76	55.808
605.09	56.124
605.42	55.214
605.75	54.641
606.09	54.989
606.42	54.712
606.75	55.065
607.09	55.780
607.42	55.162
607.75	55.284
608.08	55.301
608.42	54.134
608.75	55.566
609.08	55.556
609.41	55.178
609.75	55.948
610.08	55.367
610.41	54.686
610.74	55.583
611.07	56.227
611.41	55.890
611.74	56.610
612.07	56.317
612.40	55.963
612.73	56.667
613.07	56.693
613.40	55.853
613.73	55.344
614.06	56.260
614.39	56.627
614.72	55.070
615.06	56.201
615.39	54.858
615.72	54.306
616.05	57.374
616.38	54.074
616.71	56.758
617.05	55.466
617.38	56.505
617.71	55.094
618.04	57.333
618.37	56.368
618.70	56.502
619.03	55.903
619.36	55.789
619.69	58.074
620.03	58.364
620.36	57.296
620.69	56.388
621.02	56.957
621.35	56.680
621.68	59.099
622.01	58.333
622.34	56.425
622.67	56.782
623.00	56.968
623.33	56.860
623.66	56.395
623.99	56.581
624.32	56.882
624.65	56.015
624.99	56.734
625.32	55.193
625.65	56.795
625.98	57.695
626.31	56.027
626.64	57.452
626.97	58.290
627.30	56.918
627.63	56.672
627.96	57.143
628.29	58.002
628.62	57.424
628.95	58.717
629.28	58.367
629.61	58.225
629.94	56.696
630.26	57.016
630.59	59.313
630.92	58.051
631.25	58.154
631.58	58.590
631.91	56.360
632.24	57.454
632.57	57.159
632.90	57.888
633.23	56.000
633.56	58.942
633.89	59.309
634.22	59.259
634.55	59.975
634.88	59.004
635.20	57.051
635.53	59.600
635.86	58.127
636.19	59.638
636.52	58.929
636.85	57.320
637.18	56.855
637.51	57.358
637.83	56.242
638.16	60.300
638.49	58.719
638.82	59.211
639.15	59.701
639.48	60.248
639.81	60.391
640.13	58.442
640.46	60.641
640.79	59.205
641.12	57.607
641.45	57.207
641.77	60.148
642.10	59.084
642.43	58.521
642.76	61.056
643.09	59.612
643.41	57.120
643.74	57.990
644.07	60.263
644.40	61.824
644.73	61.471
645.05	55.369
645.38	60.317
645.71	60.816
646.04	62.298
646.36	60.993
646.69	60.791
647.02	61.437
647.35	62.873
647.67	57.404
648.00	61.007
648.33	58.703
648.66	56.949
648.98	57.286
649.31	57.521
649.64	56.358
649.96	55.754
650.29	59.455
650.62	55.214
650.94	59.259
651.27	58.659
651.60	58.378
651.92	57.343
652.25	60.391
652.58	58.333
652.90	57.804
653.23	56.807
653.56	58.037
653.88	56.529
654.21	56.392
654.54	55.857
654.86	57.216
655.19	57.018
655.52	53.947
655.84	50.331
656.17	56.263
656.49	75.264
656.82	77.717
657.15	58.797
657.47	43.914
657.80	32.549
658.13	32.066
658.45	49.294
658.78	48.189
659.10	48.120
659.43	48.101
659.75	50.962
660.08	50.828
660.41	52.503
660.73	52.762
661.06	57.539
661.38	56.947
661.71	54.825
662.03	61.588
662.36	57.143
662.68	54.646
663.01	56.332
663.33	60.093
663.66	54.884
663.98	54.884
664.31	55.437
664.63	57.373
664.96	51.739
665.28	55.850
665.61	57.359
665.93	57.391
666.26	57.050
666.58	57.718
666.91	57.647
667.23	55.189
667.56	57.109
667.88	56.355
668.21	57.757
668.53	60.047
668.86	53.302
669.18	56.604
669.50	58.111
669.83	53.023
670.15	56.643
670.48	57.416
670.80	57.143
671.13	53.020
671.45	53.425
671.77	57.296
672.10	50.891
672.42	53.371
672.75	52.398
673.07	55.098
673.39	53.945
673.72	52.860
674.04	52.708
674.37	54.449
674.69	53.747
675.01	56.444
675.34	52.703
675.66	56.944
675.98	55.211
676.31	55.963
676.63	54.157
676.95	53.864
677.28	56.941
677.60	58.795
677.92	53.440
678.25	52.954
678.57	52.597
678.89	53.361
679.22	53.915
679.54	53.213
679.86	52.286
680.18	53.592
680.51	53.598
680.83	51.093
681.15	51.600
681.48	54.508
681.80	55.579
682.12	52.823
682.44	51.674
682.77	56.291
683.09	53.318
683.41	54.091
683.73	52.995
684.06	52.434
684.38	52.258
684.70	55.773
685.02	51.452
685.34	48.814
685.67	50.844
685.99	50.814
686.31	49.381
686.63	51.577
686.96	51.331
687.28	50.505
687.60	47.909
687.92	54.545
688.24	52.016
688.56	48.908
688.89	51.562
689.21	52.444
689.53	51.044
689.85	52.791
690.17	52.232
690.49	53.191
690.82	53.641
691.14	47.381
691.46	53.972
691.78	52.027
692.10	51.398
692.42	50.000
692.74	52.137
693.06	54.054
693.39	50.000
693.71	49.548
694.03	49.423
694.35	51.168
694.67	52.020
694.99	48.825
695.31	50.914
695.63	50.500
695.95	49.495
696.27	51.295
696.59	51.389
696.91	49.580
697.23	51.928
697.56	51.485
697.88	52.903
698.20	51.708
698.52	48.941
698.84	48.804
699.16	46.750
699.48	49.624
699.80	50.868
700.12	49.057
700.44	53.782
700.76	48.547
701.08	50.606
701.40	49.699
701.72	53.704
702.04	51.155
702.36	49.164
702.68	49.850
703.00	52.424
703.32	44.575
703.64	48.305
703.96	48.406
704.28	53.988
704.60	52.063
704.91	49.527
705.23	46.844
705.55	52.650
705.87	55.957
706.19	51.111
706.51	51.546
706.83	50.804
707.15	49.533
707.47	50.140
707.79	49.479
708.11	47.750
708.43	48.000
708.74	50.646
709.06	51.831
709.38	54.434
709.70	47.633
710.02	50.637
710.34	49.845
710.66	49.359
710.98	51.656
711.29	47.869
711.61	49.153
711.93	51.466
712.25	54.983
712.57	52.015
712.89	49.627
713.20	53.287
713.52	46.690
713.84	51.195
714.16	53.265
714.48	50.968
714.80	50.000
715.11	46.505
715.43	44.514
715.75	46.667
716.07	48.505
716.39	44.966
716.70	50.185
717.02	46.183
717.34	52.632
717.66	50.000
717.97	46.087
718.29	51.883
718.61	46.457
718.93	52.713
719.24	47.909
719.56	51.406
719.88	51.890
720.20	46.212
720.51	47.893
720.83	47.104
721.15	51.261
721.46	51.613
721.78	45.059
722.10	46.468
722.42	46.058
722.73	48.163
723.05	49.796
723.37	49.576
723.68	49.099
724.00	44.017
724.32	49.778
724.63	50.909
724.95	51.528
725.27	51.152
725.58	49.153
725.90	45.238
726.22	48.263
726.53	47.119
726.85	47.940
727.16	49.811
727.48	46.559
727.80	44.534
728.11	51.271
728.43	42.745
728.74	42.742
729.06	50.800
729.38	55.263
729.69	41.434
730.01	47.308
730.32	45.896
730.64	45.230
730.96	48.302
731.27	40.667
731.59	48.814
731.90	44.268
732.22	45.426
732.53	47.508
732.85	48.227
733.16	48.822
733.48	42.086
733.80	46.739
734.11	44.407
734.43	45.704
734.74	43.636
735.06	45.277
735.37	45.015
735.69	48.485
736.00	42.857
736.32	43.960
736.63	41.549
736.95	46.416
737.26	41.281
737.58	42.617
737.89	44.322
738.21	45.865
738.52	52.675
738.83	42.795
739.15	50.655
739.46	46.850
739.78	41.026
740.09	42.157
740.41	44.928
740.72	41.732
741.04	46.154
741.35	42.128
741.66	43.602
741.98	48.980
742.29	45.545
742.61	44.503
742.92	37.441
743.23	41.667
743.55	47.511
743.86	48.325
744.18	40.191
744.49	47.872
744.80	46.196
745.12	51.337
745.43	40.488
745.74	52.604
746.06	47.805
746.37	41.885
746.68	44.550
747.00	45.213
747.31	51.244
747.62	42.718
747.94	44.498
748.25	52.475
748.56	45.355
748.88	45.550
749.19	48.936
749.50	48.768
749.82	36.792
750.13	44.954
750.44	44.361
750.75	48.507
751.07	45.255
751.38	39.080
751.69	38.824
752.01	41.085
752.32	37.450
752.63	39.921
752.94	47.845
753.26	52.720
753.57	44.796
753.88	43.805
754.19	40.833
754.51	38.843
754.82	40.081
755.13	47.917
755.44	38.710
755.75	41.406
756.07	44.747
756.38	39.623
756.69	36.782
757.00	42.333
757.31	40.523
757.63	41.159
757.94	37.500
758.25	40.548
758.56	37.234
758.87	36.544
759.18	34.579
759.50	38.545
759.81	43.813
760.12	39.032
760.43	40.909
760.74	42.284
761.05	41.538
761.36	37.216
761.67	40.000
761.99	41.837
762.30	37.091
762.61	47.826
762.92	43.439
763.23	40.991
763.54	37.383
763.85	41.949
764.16	35.685
764.47	35.484
764.78	38.095
765.10	43.771
765.41	37.855
765.72	40.635
766.03	33.459
766.34	39.051
766.65	39.841
766.96	36.364
767.27	38.298
767.58	37.931
767.89	41.844
768.20	37.500
768.51	43.407
768.82	39.409
769.13	35.023
769.44	37.768
769.75	39.269
770.06	41.810
770.37	40.865
770.68	43.147
770.99	41.176
771.30	46.569
771.61	42.534
771.92	44.828
772.23	40.394
772.54	40.860
772.85	42.593
773.16	41.011
773.47	46.405
773.78	40.523
774.09	34.731
774.39	48.000
774.70	38.217
775.01	47.586
775.32	37.857
775.63	37.190
775.94	43.511
776.25	38.583
776.56	32.500
776.87	31.731
777.18	37.607
777.48	37.069
777.79	40.000
778.10	30.476
778.41	42.342
778.72	38.889
779.03	42.857
779.34	42.553
779.65	42.466
779.95	36.986
780.26	33.793
780.57	45.528
780.88	44.094
781.19	44.828
781.50	41.860
781.80	36.686
782.11	32.075
782.42	38.462
782.73	34.532
783.04	37.037
783.34	34.722
783.65	34.188
783.96	31.148
784.27	38.621
784.57	39.837
784.88	47.656
785.19	42.000
785.50	58.000
785.81	36.207
786.11	33.621
786.42	25.243
786.73	52.727
787.04	41.837
787.34	35.714
787.65	31.429
787.96	33.628
788.26	43.636
788.57	35.897
788.88	38.281
789.19	36.508
789.49	40.870
789.80	43.878
790.11	39.394
790.41	38.182
790.72	48.913
791.03	51.136
791.33	55.000
791.64	30.000
791.95	32.558
792.25	36.170
792.56	41.573
792.87	34.247
793.17	39.130
793.48	25.333
793.79	26.250
794.09	52.500
794.40	37.736
794.70	51.456
795.01	30.081
795.32	26.496
795.62	39.048
795.93	25.490
796.23	35.849
796.54	42.708
796.85	41.176
797.15	45.070
797.46	30.556
797.76	40.909
798.07	32.558
798.37	22.368
798.68	28.788
798.99	38.272
799.29	62.857
799.60	31.884
799.90	45.333
800.21	54.098
800.51	36.923
800.82	44.068
801.12	39.130
801.43	57.377
801.73	41.270
802.04	44.000
802.34	41.791
802.65	59.615
802.95	37.500
803.26	21.154
803.56	45.098
803.87	17.391
804.17	44.000
804.48	44.444
804.78	31.481
805.09	43.478
805.39	46.667
805.70	42.593
806.00	24.561
806.30	45.070
806.61	45.714
806.91	26.389
807.22	43.421
807.52	42.667
807.83	30.909
808.13	41.667
808.43	36.765
808.74	29.851
809.04	27.119
809.35	34.615
809.65	31.250
809.95	2.703
810.26	4.545
810.56	24.658
810.86	16.667
811.17	36.000
811.47	34.694
811.77	31.579
812.08	38.636
812.38	33.962
812.69	60.000
812.99	42.424
813.29	36.842
813.59	31.429
813.90	27.273
814.20	48.718
814.50	42.308
814.81	54.717
815.11	21.277
815.41	50.847
815.72	45.238
816.02	52.941
816.32	41.667
816.62	36.585
816.93	35.135
817.23	11.429
817.53	56.250
817.84	30.435
818.14	26.923
818.44	28.947
818.74	45.652
819.04	15.000
819.35	45.946
819.65	50.000
819.95	33.333
820.25	28.571
820.56	67.500
820.86	6.897
821.16	67.500
821.46	42.553
821.76	57.500
822.07	37.209
822.37	0.000
822.67	53.125
822.97	38.095
823.27	10.714
823.57	60.000
823.88	29.630
824.18	67.857
824.48	41.176
824.78	25.806
825.08	30.435
825.38	36.364
825.69	45.833
825.99	26.316
826.29	47.222
826.59	13.333
826.89	52.381
827.19	54.348
827.49	30.000
827.79	54.286
828.09	78.571
828.39	63.636
828.70	86.486
829.00	39.286
829.30	38.095
829.60	56.667
829.90	46.875
830.20	57.895
830.50	14.815
830.80	43.478
831.10	36.364
831.40	60.606
831.70	61.290
832.00	47.619
832.30	23.810
832.60	16.667
832.90	44.828
833.20	0.000
833.50	45.455
833.80	29.630
834.10	50.000
834.40	43.750
834.70	-33.333
835.00	63.158
835.30	84.615
835.60	126.667
835.90	51.613
836.20	72.727
836.50	78.571
836.80	-19.231
837.10	14.286
837.40	33.333
837.70	40.909
838.00	36.364
838.30	56.522
838.60	76.923
838.90	54.545
839.19	75.000
839.49	56.667
839.79	0.000
840.09	8.333
840.39	78.571
840.69	53.571
840.99	38.462
841.29	-5.263
841.59	-60.000
841.88	36.364
842.18	110.000
842.48	68.750
842.78	66.667
843.08	11.111
843.38	80.000
843.68	60.870
843.97	0.000
844.27	46.667
844.57	55.000
844.87	77.778
845.17	9.524
845.47	60.000
845.76	0.000
846.06	111.765
846.36	120.000
846.66	-14.286
846.96	133.333
847.25	25.000
847.55	100.000
847.85	62.500
848.15	9.091
848.44	-233.333
848.74	60.000
849.04	59.259
849.34	18.182
849.63	83.333
849.93	220.000
850.23	27.778
850.53	120.000
850.82	15.385
851.12	55.556
851.42	60.000
851.71	50.000
852.01	35.714
852.31	50.000
852.61	127.273
852.90	80.000
853.20	47.368
853.50	125.000
853.79	39.130
854.09	104.167
854.39	47.368
854.68	29.167
854.98	35.484
855.28	61.538
855.57	30.000
855.87	27.778
856.17	33.333
856.46	50.000
856.76	60.000
857.05	144.444
857.35	40.000
857.65	138.889
857.94	7.692
858.24	58.621
858.53	61.111
858.83	77.778
859.13	40.909
859.42	26.087
859.72	100.000
860.01	-100.000
860.31	36.000
860.60	9.524
860.90	-166.667
861.20	-13.333
861.49	200.000
861.79	26.667
862.08	15.000
862.38	160.000
862.67	-40.000
862.97	100.000
863.26	41.667
863.56	83.333
863.85	100.000
864.15	111.111
864.44	60.000
864.74	71.429
865.03	-125.000
865.33	40.000
865.62	233.333
865.92	0.000
866.21	-150.000
866.51	118.750
866.80	-45.455
867.10	300.000
867.39	125.000
867.69	0.000
867.98	23.077
868.27	133.333
868.57	33.333
868.86	33.333
869.16	-7.692
869.45	66.667
869.75	-700.000
870.04	0.000
870.33	100.000
870.63	76.190
870.92	66.667
871.22	0.000
871.51	-400.000
871.80	177.778
872.10	333.333
>>>>>End Processed Spectral Data<<<<<
