SpectraSuite Data File
++++++++++++++++++++++++++++++++++++
Date: Fri May 15 20:15:55 PDT 2015
User: schluterlab
Dark Spectrum Present: Yes
Reference Spectrum Present: Yes
Number of Sampled Component Spectra: 1
Spectrometers: USB2E3373
Integration Time (usec): 3000 (USB2E3373)
Spectra Averaged: 3 (USB2E3373)
Boxcar Smoothing: 0 (USB2E3373)
Correct for Electrical Dark: No (USB2E3373)
Strobe/Lamp Enabled: No (USB2E3373)
Correct for Detector Non-linearity: No (USB2E3373)
Correct for Stray Light: No (USB2E3373)
Number of Pixels in Processed Spectrum: 2048
>>>>>Begin Processed Spectral Data<<<<<
178.53	0.000
178.91	0.000
179.29	-12.500
179.67	-500.000
180.04	14.286
180.42	50.000
180.80	400.000
181.18	-100.000
181.56	100.000
181.94	250.000
182.31	-0.000
182.69	0.000
183.07	-133.333
183.45	-260.000
183.83	200.000
184.20	45.455
184.58	55.556
184.96	25.000
185.34	-66.667
185.72	-550.000
186.09	138.462
186.47	-600.000
186.85	183.333
187.23	88.889
187.61	500.000
187.98	-166.667
188.36	33.333
188.74	-33.333
189.12	11.765
189.49	-22.222
189.87	0.000
190.25	64.286
190.63	250.000
191.00	-266.667
191.38	-36.842
191.76	100.000
192.14	125.000
192.51	200.000
192.89	44.444
193.27	-28.571
193.65	316.667
194.02	190.909
194.40	60.000
194.78	-37.500
195.15	-25.000
195.53	-25.000
195.91	350.000
196.29	175.000
196.66	100.000
197.04	200.000
197.42	-33.333
197.79	-333.333
198.17	-30.769
198.55	1400.000
198.92	-433.333
199.30	700.000
199.68	0.000
200.05	-233.333
200.43	0.000
200.81	-233.333
201.18	200.000
201.56	500.000
201.94	-50.000
202.31	-166.667
202.69	-160.000
203.07	250.000
203.44	600.000
203.82	0.000
204.19	7.143
204.57	-666.667
204.95	12.500
205.32	40.000
205.70	-71.429
206.08	-175.000
206.45	155.556
206.83	42.857
207.20	-100.000
207.58	200.000
207.96	-300.000
208.33	-40.000
208.71	-275.000
209.08	-100.000
209.46	200.000
209.84	-60.000
210.21	-1700.000
210.59	-14.286
210.96	66.667
211.34	100.000
211.71	33.333
212.09	-228.571
212.46	-600.000
212.84	0.000
213.22	40.000
213.59	950.000
213.97	30.769
214.34	72.727
214.72	83.333
215.09	500.000
215.47	-38.462
215.84	27.273
216.22	-133.333
216.59	-62.500
216.97	-50.000
217.34	-275.000
217.72	-200.000
218.09	50.000
218.47	112.500
218.84	-600.000
219.22	-55.556
219.59	20.000
219.97	400.000
220.34	250.000
220.72	14.286
221.09	-125.000
221.47	0.000
221.84	-50.000
222.22	-350.000
222.59	27.273
222.97	0.000
223.34	-100.000
223.72	0.000
224.09	28.571
224.46	42.857
224.84	433.333
225.21	-30.000
225.59	93.333
225.96	50.000
226.34	350.000
226.71	-128.571
227.08	-50.000
227.46	25.000
227.83	-450.000
228.21	88.889
228.58	63.636
228.95	25.000
229.33	70.000
229.70	-18.750
230.08	-25.000
230.45	-114.286
230.82	-14.286
231.20	73.333
231.57	71.429
231.95	28.571
232.32	-110.000
232.69	-14.286
233.07	-100.000
233.44	40.000
233.81	60.000
234.19	-22.222
234.56	-11.765
234.93	-350.000
235.31	75.000
235.68	-100.000
236.05	-53.846
236.43	-5.000
236.80	-23.529
237.17	-18.750
237.55	-30.000
237.92	-29.630
238.29	-2.778
238.67	0.000
239.04	-2.941
239.41	-21.951
239.79	-6.667
240.16	29.268
240.53	-28.947
240.91	-15.217
241.28	-3.175
241.65	10.714
242.02	15.068
242.40	16.667
242.77	3.390
243.14	4.545
243.51	15.000
243.89	19.540
244.26	0.000
244.63	4.762
245.00	16.495
245.38	9.278
245.75	0.000
246.12	6.034
246.49	-0.826
246.87	5.769
247.24	8.403
247.61	5.263
247.98	7.317
248.36	5.625
248.73	11.842
249.10	11.039
249.47	3.165
249.84	5.882
250.22	10.588
250.59	10.458
250.96	12.207
251.33	6.977
251.70	12.941
252.08	16.244
252.45	7.921
252.82	6.533
253.19	12.442
253.56	5.607
253.94	12.162
254.31	9.130
254.68	10.526
255.05	7.480
255.42	9.170
255.79	10.039
256.16	8.171
256.54	10.448
256.91	9.886
257.28	13.755
257.65	10.861
258.02	6.738
258.39	8.418
258.76	10.989
259.14	12.957
259.51	6.472
259.88	8.591
260.25	6.863
260.62	12.153
260.99	5.424
261.36	7.877
261.73	7.278
262.10	9.422
262.47	11.963
262.85	4.389
263.22	10.154
263.59	10.280
263.96	11.180
264.33	13.030
264.70	10.714
265.07	4.167
265.44	9.065
265.81	12.712
266.18	12.022
266.55	11.054
266.92	10.363
267.29	8.094
267.66	8.951
268.03	12.304
268.40	7.050
268.77	9.358
269.14	9.353
269.51	13.882
269.88	9.227
270.25	8.163
270.62	6.829
270.99	10.230
271.36	10.024
271.73	8.685
272.10	9.976
272.47	10.165
272.84	8.663
273.21	11.601
273.58	9.880
273.95	11.670
274.32	8.545
274.69	6.109
275.06	7.812
275.43	7.256
275.80	9.051
276.17	8.046
276.54	9.636
276.91	10.965
277.28	8.734
277.65	13.017
278.02	10.213
278.39	6.783
278.76	10.692
279.13	6.846
279.50	11.134
279.87	9.719
280.23	7.527
280.60	10.916
280.97	9.899
281.34	9.038
281.71	9.446
282.08	8.589
282.45	9.002
282.82	8.301
283.19	9.284
283.56	6.744
283.92	8.539
284.29	9.615
284.66	9.884
285.03	8.841
285.40	9.452
285.77	5.975
286.14	8.303
286.51	9.594
286.87	7.130
287.24	9.392
287.61	9.700
287.98	9.825
288.35	5.893
288.72	8.932
289.08	8.854
289.45	9.139
289.82	8.392
290.19	7.338
290.56	7.890
290.93	8.081
291.29	8.475
291.66	7.559
292.03	9.410
292.40	8.226
292.77	8.453
293.13	7.955
293.50	7.891
293.87	7.328
294.24	8.037
294.60	7.899
294.97	7.143
295.34	7.362
295.71	8.942
296.08	7.623
296.44	7.112
296.81	8.472
297.18	7.246
297.55	7.046
297.91	7.534
298.28	7.916
298.65	6.649
299.02	7.817
299.38	5.335
299.75	6.483
300.12	6.937
300.48	6.324
300.85	7.098
301.22	7.532
301.59	8.026
301.95	6.709
302.32	8.301
302.69	6.095
303.05	7.178
303.42	6.600
303.79	6.659
304.15	8.363
304.52	5.232
304.89	5.965
305.25	6.659
305.62	4.551
305.99	5.731
306.35	6.590
306.72	5.512
307.09	6.727
307.45	7.233
307.82	5.671
308.19	6.039
308.55	6.325
308.92	7.843
309.29	4.246
309.65	5.705
310.02	5.281
310.38	6.915
310.75	7.104
311.12	5.920
311.48	5.408
311.85	7.539
312.22	4.747
312.58	6.051
312.95	4.696
313.31	5.590
313.68	6.597
314.05	6.735
314.41	6.701
314.78	6.186
315.14	7.400
315.51	6.625
315.87	5.430
316.24	7.482
316.61	7.087
316.97	6.944
317.34	5.859
317.70	7.935
318.07	7.019
318.43	6.569
318.80	6.155
319.16	7.129
319.53	7.502
319.89	6.594
320.26	7.389
320.62	8.526
320.99	6.681
321.35	7.914
321.72	8.307
322.08	7.754
322.45	8.426
322.81	7.269
323.18	7.556
323.54	8.494
323.91	7.984
324.27	8.594
324.64	8.801
325.00	9.672
325.37	11.019
325.73	8.341
326.10	9.809
326.46	9.955
326.83	9.624
327.19	10.288
327.56	10.860
327.92	10.651
328.29	9.821
328.65	10.943
329.01	11.489
329.38	10.876
329.74	10.009
330.11	10.473
330.47	11.039
330.84	10.962
331.20	13.878
331.56	10.741
331.93	12.329
332.29	12.191
332.66	12.127
333.02	12.546
333.38	12.099
333.75	12.821
334.11	13.250
334.48	13.418
334.84	13.278
335.20	12.717
335.57	12.783
335.93	13.550
336.29	13.076
336.66	13.442
337.02	12.082
337.38	13.333
337.75	13.909
338.11	13.075
338.47	14.142
338.84	13.124
339.20	13.620
339.56	13.578
339.93	14.235
340.29	13.578
340.65	14.516
341.02	14.184
341.38	13.451
341.74	12.456
342.11	13.605
342.47	13.256
342.83	14.533
343.20	13.502
343.56	14.174
343.92	14.438
344.28	14.176
344.65	13.299
345.01	13.656
345.37	14.550
345.73	13.975
346.10	15.099
346.46	14.718
346.82	14.075
347.19	14.131
347.55	14.035
347.91	14.320
348.27	13.985
348.63	14.566
349.00	14.602
349.36	14.630
349.72	14.096
350.08	14.672
350.45	14.525
350.81	14.120
351.17	13.518
351.53	14.531
351.89	14.699
352.26	14.320
352.62	15.403
352.98	14.618
353.34	13.688
353.70	14.725
354.07	13.629
354.43	14.331
354.79	14.946
355.15	15.238
355.51	15.111
355.87	14.806
356.24	13.622
356.60	14.713
356.96	15.000
357.32	14.457
357.68	14.308
358.04	14.540
358.40	14.550
358.77	14.434
359.13	15.452
359.49	14.638
359.85	14.899
360.21	14.434
360.57	14.920
360.93	15.431
361.29	13.746
361.66	14.655
362.02	15.227
362.38	15.994
362.74	14.534
363.10	14.898
363.46	14.529
363.82	16.304
364.18	14.982
364.54	15.368
364.90	15.054
365.26	14.556
365.62	15.620
365.98	14.296
366.35	15.805
366.71	16.186
367.07	14.877
367.43	14.738
367.79	15.830
368.15	16.152
368.51	15.586
368.87	15.219
369.23	15.307
369.59	15.962
369.95	14.663
370.31	16.040
370.67	14.403
371.03	14.937
371.39	14.880
371.75	15.604
372.11	16.405
372.47	15.607
372.83	15.614
373.19	15.264
373.55	15.451
373.91	15.767
374.27	15.804
374.63	15.865
374.99	15.674
375.35	16.156
375.71	16.224
376.07	15.660
376.42	15.850
376.78	16.174
377.14	16.317
377.50	15.405
377.86	16.131
378.22	16.273
378.58	15.897
378.94	15.753
379.30	16.032
379.66	16.238
380.02	16.125
380.38	15.520
380.74	15.679
381.09	17.362
381.45	15.902
381.81	16.780
382.17	15.673
382.53	16.115
382.89	16.635
383.25	16.677
383.61	17.195
383.97	16.952
384.32	17.261
384.68	16.718
385.04	16.850
385.40	16.055
385.76	17.484
386.12	16.882
386.48	16.220
386.83	16.677
387.19	17.582
387.55	16.625
387.91	16.565
388.27	17.582
388.62	16.866
388.98	16.636
389.34	16.740
389.70	17.340
390.06	16.362
390.42	16.904
390.77	17.332
391.13	16.583
391.49	17.335
391.85	17.869
392.20	17.012
392.56	17.355
392.92	17.733
393.28	17.217
393.64	16.817
393.99	17.743
394.35	16.951
394.71	18.072
395.07	16.468
395.42	17.304
395.78	16.873
396.14	17.150
396.50	16.931
396.85	17.643
397.21	16.416
397.57	17.116
397.92	17.436
398.28	17.414
398.64	16.566
399.00	18.172
399.35	17.212
399.71	17.576
400.07	17.231
400.42	17.564
400.78	17.759
401.14	17.181
401.49	17.689
401.85	17.246
402.21	17.470
402.57	18.062
402.92	16.688
403.28	17.794
403.63	17.150
403.99	17.283
404.35	17.052
404.70	16.429
405.06	17.744
405.42	16.967
405.77	16.676
406.13	17.113
406.49	16.755
406.84	17.298
407.20	17.158
407.55	17.965
407.91	16.979
408.27	16.826
408.62	17.846
408.98	17.129
409.34	17.658
409.69	16.667
410.05	17.057
410.40	16.358
410.76	17.250
411.11	17.875
411.47	17.094
411.83	14.878
412.18	17.246
412.54	16.854
412.89	16.626
413.25	17.449
413.60	15.901
413.96	17.423
414.31	18.537
414.67	16.100
415.03	16.711
415.38	17.232
415.74	17.785
416.09	18.093
416.45	17.151
416.80	18.044
417.16	17.887
417.51	18.254
417.87	17.405
418.22	17.293
418.58	17.258
418.93	17.492
419.29	15.685
419.64	17.110
420.00	18.703
420.35	17.791
420.71	17.436
421.06	17.864
421.42	17.608
421.77	17.688
422.12	17.764
422.48	17.163
422.83	16.531
423.19	17.043
423.54	17.989
423.90	17.197
424.25	17.853
424.61	17.931
424.96	17.538
425.31	18.371
425.67	17.547
426.02	17.786
426.38	18.410
426.73	17.978
427.09	18.924
427.44	17.824
427.79	16.853
428.15	18.265
428.50	17.807
428.85	17.138
429.21	18.506
429.56	18.005
429.92	17.874
430.27	17.794
430.62	17.721
430.98	18.259
431.33	18.086
431.68	16.954
432.04	18.167
432.39	17.570
432.74	18.340
433.10	18.218
433.45	17.981
433.80	18.166
434.16	17.230
434.51	18.763
434.86	17.944
435.22	18.452
435.57	18.590
435.92	17.126
436.28	18.068
436.63	17.741
436.98	17.497
437.34	18.693
437.69	19.261
438.04	18.462
438.39	17.715
438.75	18.276
439.10	18.053
439.45	18.198
439.81	18.349
440.16	18.112
440.51	18.388
440.86	18.973
441.22	18.439
441.57	18.377
441.92	18.993
442.27	18.348
442.63	18.201
442.98	18.840
443.33	18.531
443.68	18.408
444.03	18.877
444.39	18.692
444.74	19.008
445.09	17.650
445.44	18.689
445.79	18.876
446.15	17.952
446.50	17.748
446.85	18.597
447.20	19.187
447.55	19.643
447.91	18.556
448.26	19.351
448.61	18.883
448.96	18.531
449.31	18.960
449.66	18.525
450.02	19.053
450.37	18.257
450.72	18.614
451.07	19.177
451.42	19.788
451.77	19.228
452.12	18.600
452.47	18.094
452.83	19.140
453.18	19.228
453.53	19.722
453.88	19.065
454.23	19.361
454.58	19.395
454.93	19.588
455.28	18.921
455.63	19.591
455.98	19.242
456.34	19.604
456.69	18.933
457.04	19.975
457.39	18.712
457.74	19.166
458.09	18.481
458.44	18.783
458.79	18.431
459.14	18.993
459.49	20.776
459.84	18.725
460.19	19.903
460.54	19.621
460.89	18.580
461.24	19.255
461.59	19.774
461.94	19.057
462.29	19.361
462.64	20.465
462.99	19.025
463.34	18.289
463.69	18.790
464.04	20.218
464.39	20.255
464.74	18.834
465.09	20.025
465.44	20.138
465.79	19.444
466.14	19.840
466.49	19.034
466.84	20.048
467.19	19.712
467.54	19.285
467.89	19.141
468.24	19.100
468.59	19.492
468.94	19.492
469.29	20.459
469.64	19.139
469.99	20.392
470.34	18.362
470.68	20.582
471.03	20.807
471.38	19.187
471.73	19.328
472.08	19.810
472.43	19.463
472.78	19.397
473.13	21.361
473.48	19.283
473.83	19.925
474.17	19.365
474.52	19.528
474.87	20.061
475.22	19.280
475.57	18.916
475.92	19.912
476.27	20.140
476.61	20.544
476.96	19.967
477.31	20.119
477.66	20.899
478.01	19.427
478.36	20.153
478.70	20.663
479.05	20.659
479.40	19.502
479.75	19.447
480.10	20.328
480.45	19.950
480.79	20.947
481.14	20.184
481.49	19.754
481.84	20.560
482.19	19.551
482.53	20.288
482.88	19.475
483.23	19.866
483.58	20.425
483.92	20.184
484.27	19.827
484.62	19.588
484.97	19.527
485.31	19.436
485.66	19.049
486.01	18.798
486.36	18.812
486.70	18.919
487.05	19.187
487.40	19.416
487.75	19.746
488.09	19.283
488.44	19.223
488.79	20.209
489.13	21.074
489.48	20.222
489.83	20.135
490.17	19.910
490.52	21.247
490.87	19.621
491.22	20.057
491.56	20.304
491.91	20.172
492.26	20.272
492.60	20.298
492.95	20.856
493.30	19.736
493.64	20.776
493.99	20.145
494.34	20.777
494.68	20.524
495.03	20.097
495.37	20.363
495.72	20.747
496.07	20.683
496.41	20.660
496.76	20.682
497.11	19.888
497.45	21.193
497.80	21.191
498.14	20.864
498.49	20.569
498.84	21.756
499.18	20.231
499.53	21.429
499.87	20.136
500.22	20.920
500.56	20.625
500.91	20.030
501.26	19.970
501.60	21.053
501.95	20.864
502.29	20.630
502.64	21.332
502.98	20.868
503.33	20.029
503.67	20.530
504.02	21.065
504.36	21.376
504.71	20.960
505.06	20.886
505.40	20.609
505.75	20.619
506.09	20.020
506.44	21.099
506.78	21.735
507.13	20.683
507.47	20.888
507.82	21.047
508.16	21.289
508.51	20.881
508.85	20.984
509.19	20.703
509.54	20.858
509.88	20.658
510.23	21.194
510.57	21.700
510.92	20.416
511.26	21.549
511.61	21.012
511.95	22.192
512.30	21.397
512.64	21.480
512.98	21.617
513.33	21.824
513.67	21.319
514.02	22.426
514.36	22.343
514.70	22.844
515.05	22.679
515.39	22.373
515.74	22.635
516.08	21.757
516.42	22.144
516.77	22.177
517.11	22.136
517.46	22.442
517.80	22.646
518.14	22.168
518.49	21.875
518.83	22.114
519.17	21.346
519.52	21.314
519.86	22.389
520.20	22.600
520.55	22.264
520.89	22.961
521.23	22.673
521.58	23.155
521.92	22.564
522.26	22.772
522.61	22.208
522.95	23.775
523.29	22.872
523.64	22.745
523.98	23.202
524.32	21.972
524.66	23.431
525.01	22.857
525.35	23.979
525.69	22.020
526.04	22.090
526.38	23.281
526.72	23.152
527.06	22.957
527.41	22.955
527.75	23.056
528.09	22.525
528.43	23.498
528.78	23.828
529.12	22.774
529.46	21.702
529.80	22.926
530.15	24.224
530.49	23.771
530.83	22.777
531.17	22.565
531.51	23.256
531.86	21.754
532.20	23.591
532.54	22.873
532.88	23.682
533.22	22.245
533.57	22.805
533.91	22.846
534.25	23.568
534.59	22.707
534.93	21.901
535.27	21.637
535.62	23.266
535.96	23.679
536.30	23.285
536.64	23.983
536.98	22.997
537.32	24.680
537.66	24.194
538.01	22.727
538.35	22.746
538.69	23.435
539.03	22.830
539.37	23.217
539.71	23.586
540.05	22.403
540.39	22.645
540.73	22.664
541.07	23.273
541.42	23.253
541.76	23.125
542.10	23.193
542.44	22.307
542.78	22.230
543.12	22.253
543.46	23.922
543.80	22.762
544.14	22.163
544.48	23.384
544.82	22.967
545.16	23.702
545.50	23.565
545.84	24.363
546.18	23.901
546.52	23.216
546.86	23.149
547.20	23.319
547.54	22.615
547.88	23.573
548.22	22.880
548.56	22.164
548.90	24.057
549.24	22.727
549.58	22.638
549.92	22.802
550.26	23.736
550.60	23.346
550.94	23.824
551.28	23.648
551.62	24.077
551.96	23.083
552.30	23.757
552.64	22.567
552.98	24.051
553.32	23.680
553.66	23.585
554.00	23.504
554.34	24.003
554.68	23.820
555.02	24.479
555.36	23.111
555.69	23.004
556.03	22.841
556.37	23.488
556.71	23.394
557.05	23.863
557.39	22.528
557.73	24.438
558.07	24.133
558.41	24.655
558.75	23.227
559.08	24.192
559.42	24.286
559.76	23.859
560.10	23.165
560.44	23.529
560.78	23.636
561.12	24.542
561.45	24.385
561.79	24.020
562.13	23.847
562.47	23.669
562.81	24.135
563.15	24.330
563.48	23.975
563.82	24.640
564.16	24.164
564.50	23.649
564.84	23.762
565.17	23.206
565.51	23.429
565.85	23.800
566.19	23.541
566.52	23.324
566.86	24.357
567.20	22.976
567.54	23.662
567.88	23.140
568.21	23.982
568.55	22.283
568.89	23.203
569.23	22.436
569.56	21.848
569.90	22.452
570.24	21.920
570.57	22.000
570.91	22.342
571.25	21.506
571.59	22.111
571.92	21.452
572.26	21.286
572.60	21.550
572.93	21.776
573.27	20.564
573.61	21.778
573.95	21.436
574.28	20.895
574.62	20.849
574.96	21.242
575.29	20.192
575.63	20.575
575.97	20.548
576.30	20.973
576.64	20.636
576.98	21.441
577.31	20.742
577.65	21.009
577.98	21.133
578.32	20.834
578.66	20.825
578.99	20.847
579.33	20.560
579.67	20.994
580.00	20.861
580.34	21.294
580.67	20.129
581.01	20.509
581.35	21.016
581.68	20.646
582.02	20.609
582.35	20.353
582.69	20.510
583.02	20.487
583.36	21.079
583.70	21.443
584.03	21.907
584.37	22.050
584.70	21.456
585.04	20.415
585.37	20.983
585.71	21.032
586.04	21.357
586.38	20.752
586.72	21.463
587.05	21.693
587.39	21.303
587.72	21.296
588.06	21.782
588.39	21.390
588.73	21.520
589.06	21.918
589.40	21.362
589.73	22.088
590.07	21.979
590.40	22.330
590.73	22.776
591.07	21.968
591.40	22.084
591.74	22.127
592.07	23.145
592.41	22.350
592.74	21.943
593.08	21.306
593.41	21.483
593.75	21.786
594.08	21.284
594.41	21.798
594.75	21.794
595.08	21.983
595.42	21.568
595.75	21.517
596.09	21.814
596.42	21.827
596.75	23.046
597.09	22.187
597.42	22.448
597.75	22.950
598.09	22.182
598.42	22.292
598.76	22.608
599.09	21.755
599.42	21.675
599.76	21.708
600.09	21.946
600.42	21.190
600.76	21.285
601.09	21.794
601.42	21.034
601.76	22.072
602.09	22.195
602.42	22.578
602.76	21.859
603.09	22.508
603.42	22.492
603.76	21.976
604.09	21.142
604.42	22.377
604.76	22.786
605.09	22.486
605.42	22.212
605.75	22.504
606.09	21.699
606.42	21.685
606.75	22.165
607.09	22.725
607.42	22.153
607.75	21.670
608.08	21.743
608.42	22.522
608.75	23.325
609.08	23.069
609.41	22.893
609.75	22.984
610.08	22.916
610.41	22.222
610.74	22.574
611.07	22.946
611.41	21.847
611.74	23.294
612.07	22.270
612.40	23.359
612.73	23.503
613.07	23.060
613.40	23.140
613.73	22.664
614.06	22.927
614.39	23.858
614.72	22.913
615.06	23.184
615.39	22.052
615.72	22.766
616.05	22.011
616.38	21.994
616.71	22.997
617.05	24.027
617.38	23.947
617.71	23.585
618.04	24.317
618.37	24.023
618.70	23.366
619.03	25.139
619.36	23.951
619.69	25.095
620.03	25.493
620.36	24.678
620.69	24.911
621.02	24.312
621.35	24.481
621.68	24.660
622.01	24.833
622.34	25.140
622.67	25.789
623.00	24.579
623.33	25.229
623.66	24.458
623.99	24.584
624.32	24.335
624.65	24.511
624.99	24.530
625.32	23.578
625.65	26.316
625.98	25.463
626.31	23.525
626.64	26.950
626.97	25.044
627.30	24.781
627.63	26.603
627.96	25.517
628.29	25.254
628.62	26.647
628.95	26.253
629.28	26.512
629.61	25.723
629.94	26.002
630.26	26.087
630.59	26.847
630.92	27.590
631.25	25.641
631.58	26.101
631.91	25.658
632.24	26.950
632.57	28.295
632.90	26.809
633.23	27.412
633.56	27.582
633.89	28.113
634.22	29.383
634.55	27.065
634.88	28.097
635.20	27.949
635.53	29.333
635.86	27.698
636.19	28.461
636.52	27.041
636.85	27.667
637.18	27.170
637.51	26.792
637.83	29.435
638.16	29.468
638.49	27.793
638.82	28.421
639.15	28.087
639.48	27.373
639.81	28.452
640.13	27.706
640.46	27.988
640.79	28.130
641.12	28.951
641.45	30.180
641.77	27.704
642.10	30.490
642.43	27.010
642.76	30.528
643.09	28.271
643.41	29.126
643.74	28.007
644.07	31.363
644.40	29.899
644.73	32.049
645.05	28.356
645.38	30.511
645.71	29.965
646.04	30.521
646.36	28.723
646.69	31.835
647.02	29.868
647.35	28.545
647.67	29.250
648.00	30.410
648.33	28.840
648.66	29.153
648.98	29.481
649.31	27.438
649.64	27.159
649.96	28.849
650.29	28.961
650.62	29.915
650.94	28.333
651.27	28.305
651.60	29.550
651.92	31.993
652.25	30.195
652.58	29.500
652.90	29.160
653.23	27.731
653.56	27.242
653.88	30.584
654.21	27.145
654.54	29.032
654.86	30.221
655.19	26.316
655.52	26.161
655.84	21.524
656.17	22.771
656.49	30.406
656.82	31.491
657.15	23.822
657.47	18.159
657.80	13.582
658.13	13.223
658.45	21.325
658.78	21.900
659.10	21.493
659.43	21.989
659.75	22.940
660.08	23.724
660.41	24.821
660.73	26.105
661.06	27.903
661.38	26.810
661.71	30.185
662.03	31.545
662.36	30.110
662.68	27.212
663.01	31.223
663.33	30.394
663.66	31.163
663.98	28.837
664.31	30.277
664.63	34.332
664.96	29.783
665.28	30.243
665.61	31.602
665.93	32.826
666.26	28.633
666.58	29.083
666.91	30.824
667.23	30.660
667.56	32.464
667.88	31.415
668.21	31.026
668.53	32.624
668.86	33.491
669.18	29.245
669.50	29.540
669.83	27.674
670.15	30.536
670.48	29.904
670.80	32.258
671.13	31.544
671.45	25.571
671.77	32.403
672.10	28.911
672.42	30.337
672.75	27.886
673.07	30.769
673.39	29.358
673.72	25.444
674.04	27.292
674.37	28.178
674.69	28.908
675.01	31.111
675.34	28.829
675.66	32.176
675.98	28.381
676.31	28.670
676.63	30.404
676.95	26.136
677.28	31.294
677.60	31.325
677.92	27.982
678.25	31.510
678.57	25.541
678.89	28.571
679.22	30.649
679.54	28.715
679.86	24.851
680.18	30.291
680.51	26.136
680.83	28.231
681.15	31.200
681.48	33.197
681.80	28.719
682.12	27.016
682.44	27.615
682.77	28.918
683.09	30.206
683.41	27.273
683.73	27.419
684.06	30.752
684.38	26.667
684.70	28.322
685.02	29.668
685.34	27.273
685.67	27.017
685.99	26.401
686.31	27.965
686.63	26.345
686.96	27.757
687.28	25.253
687.60	26.996
687.92	30.303
688.24	27.419
688.56	29.039
688.89	29.911
689.21	30.000
689.53	27.610
689.85	29.535
690.17	27.232
690.49	31.442
690.82	28.641
691.14	24.762
691.46	29.673
691.78	28.378
692.10	30.753
692.42	27.489
692.74	29.701
693.06	28.604
693.39	25.113
693.71	24.887
694.03	24.480
694.35	28.037
694.67	29.798
694.99	26.632
695.31	29.765
695.63	29.500
695.95	26.768
696.27	27.720
696.59	30.278
696.91	26.891
697.23	26.735
697.56	29.208
697.88	29.032
698.20	25.285
698.52	28.706
698.84	25.359
699.16	27.500
699.48	27.820
699.80	30.273
700.12	29.380
700.44	29.972
700.76	28.488
701.08	26.667
701.40	30.120
701.72	33.951
702.04	31.683
702.36	30.769
702.68	29.129
703.00	30.909
703.32	29.912
703.64	25.141
703.96	32.464
704.28	30.368
704.60	29.206
704.91	31.861
705.23	31.561
705.55	31.449
705.87	36.462
706.19	28.519
706.51	29.897
706.83	32.476
707.15	25.545
707.47	30.252
707.79	26.823
708.11	27.000
708.43	27.750
708.74	28.165
709.06	30.141
709.38	25.382
709.70	30.473
710.02	28.344
710.34	30.341
710.66	24.679
710.98	26.159
711.29	29.836
711.61	33.559
711.93	29.316
712.25	35.395
712.57	30.769
712.89	30.224
713.20	28.720
713.52	30.662
713.84	25.597
714.16	26.117
714.48	28.065
714.80	28.526
715.11	27.964
715.43	26.019
715.75	26.667
716.07	24.917
716.39	28.523
716.70	28.782
717.02	27.481
717.34	31.579
717.66	30.088
717.97	30.870
718.29	30.962
718.61	34.252
718.93	31.783
719.24	26.616
719.56	29.719
719.88	31.615
720.20	30.303
720.51	26.054
720.83	28.571
721.15	34.034
721.46	27.016
721.78	28.854
722.10	26.766
722.42	29.876
722.73	28.163
723.05	28.163
723.37	29.661
723.68	31.982
724.00	31.624
724.32	26.667
724.63	30.000
724.95	32.751
725.27	28.111
725.58	26.695
725.90	32.540
726.22	29.730
726.53	31.186
726.85	32.210
727.16	27.925
727.48	23.887
727.80	26.316
728.11	27.119
728.43	28.235
728.74	24.597
729.06	33.600
729.38	35.338
729.69	26.295
730.01	25.769
730.32	27.612
730.64	31.095
730.96	33.208
731.27	26.000
731.59	31.186
731.90	25.478
732.22	29.338
732.53	28.904
732.85	30.142
733.16	30.303
733.48	22.662
733.80	28.623
734.11	26.441
734.43	28.179
734.74	28.788
735.06	22.150
735.37	26.586
735.69	27.273
736.00	29.268
736.32	24.161
736.63	28.169
736.95	26.621
737.26	24.911
737.58	24.161
737.89	26.740
738.21	25.940
738.52	28.807
738.83	26.638
739.15	27.948
739.46	27.953
739.78	26.740
740.09	25.490
740.41	24.638
740.72	21.654
741.04	30.769
741.35	25.532
741.66	28.436
741.98	31.122
742.29	31.188
742.61	31.414
742.92	26.066
743.23	24.537
743.55	29.864
743.86	33.971
744.18	28.708
744.49	23.936
744.80	29.348
745.12	33.155
745.43	30.732
745.74	33.333
746.06	29.268
746.37	34.031
746.68	33.649
747.00	26.064
747.31	32.338
747.62	27.670
747.94	28.708
748.25	27.723
748.56	34.973
748.88	28.272
749.19	35.106
749.50	27.094
749.82	27.830
750.13	27.064
750.44	30.451
750.75	29.104
751.07	33.942
751.38	31.801
751.69	26.667
752.01	29.070
752.32	25.100
752.63	25.692
752.94	29.310
753.26	33.054
753.57	28.959
753.88	28.761
754.19	25.417
754.51	29.339
754.82	24.291
755.13	28.750
755.44	31.855
755.75	30.859
756.07	27.626
756.38	29.811
756.69	24.521
757.00	27.667
757.31	27.451
757.63	27.439
757.94	25.833
758.25	23.836
758.56	23.936
758.87	23.796
759.18	25.234
759.50	25.818
759.81	29.766
760.12	27.419
760.43	27.576
760.74	26.543
761.05	27.692
761.36	26.136
761.67	26.970
761.99	25.510
762.30	25.455
762.61	29.249
762.92	23.529
763.23	29.730
763.54	28.037
763.85	24.576
764.16	26.971
764.47	27.419
764.78	24.908
765.10	29.293
765.41	26.814
765.72	26.349
766.03	21.805
766.34	25.912
766.65	29.482
766.96	24.242
767.27	22.872
767.58	25.287
767.89	26.950
768.20	30.114
768.51	31.319
768.82	26.108
769.13	23.041
769.44	26.180
769.75	19.635
770.06	25.431
770.37	23.558
770.68	27.919
770.99	27.149
771.30	25.980
771.61	24.887
771.92	28.017
772.23	29.064
772.54	32.796
772.85	24.074
773.16	27.528
773.47	26.797
773.78	26.797
774.09	25.749
774.39	34.667
774.70	35.669
775.01	33.103
775.32	37.143
775.63	28.926
775.94	35.878
776.25	28.346
776.56	30.000
776.87	31.731
777.18	31.624
777.48	21.552
777.79	22.609
778.10	28.571
778.41	22.523
778.72	30.952
779.03	39.098
779.34	31.206
779.65	31.507
779.95	21.233
780.26	24.828
780.57	21.951
780.88	29.134
781.19	29.310
781.50	36.434
781.80	28.994
782.11	19.497
782.42	20.000
782.73	26.619
783.04	31.852
783.34	27.778
783.65	20.513
783.96	25.410
784.27	33.103
784.57	24.390
784.88	27.344
785.19	30.000
785.50	49.000
785.81	17.241
786.11	35.345
786.42	20.388
786.73	27.273
787.04	27.551
787.34	16.964
787.65	19.048
787.96	23.009
788.26	33.636
788.57	29.060
788.88	25.781
789.19	28.571
789.49	24.348
789.80	23.469
790.11	24.242
790.41	28.182
790.72	41.304
791.03	34.091
791.33	31.250
791.64	26.250
791.95	24.419
792.25	34.043
792.56	32.584
792.87	21.918
793.17	28.986
793.48	16.000
793.79	22.500
794.09	45.000
794.40	26.415
794.70	28.155
795.01	20.325
795.32	22.222
795.62	29.524
795.93	31.373
796.23	30.189
796.54	33.333
796.85	35.294
797.15	14.085
797.46	26.389
797.76	46.970
798.07	23.256
798.37	23.684
798.68	28.788
798.99	25.926
799.29	40.000
799.60	17.391
799.90	33.333
800.21	34.426
800.51	21.538
800.82	40.678
801.12	47.826
801.43	32.787
801.73	38.095
802.04	28.000
802.34	17.910
802.65	50.000
802.95	26.786
803.26	32.692
803.56	43.137
803.87	17.391
804.17	22.667
804.48	28.571
804.78	37.037
805.09	23.913
805.39	46.667
805.70	37.037
806.00	24.561
806.30	19.718
806.61	27.143
806.91	20.833
807.22	31.579
807.52	41.333
807.83	18.182
808.13	34.722
808.43	36.765
808.74	23.881
809.04	15.254
809.35	23.077
809.65	18.750
809.95	2.703
810.26	20.455
810.56	17.808
810.86	26.190
811.17	14.000
811.47	30.612
811.77	0.000
812.08	25.000
812.38	28.302
812.69	20.000
812.99	6.061
813.29	47.368
813.59	11.429
813.90	9.091
814.20	20.513
814.50	44.231
814.81	39.623
815.11	4.255
815.41	35.593
815.72	21.429
816.02	31.373
816.32	29.167
816.62	26.829
816.93	18.919
817.23	25.714
817.53	33.333
817.84	17.391
818.14	40.385
818.44	10.526
818.74	41.304
819.04	-32.500
819.35	43.243
819.65	20.588
819.95	38.889
820.25	30.952
820.56	60.000
820.86	24.138
821.16	45.000
821.46	25.532
821.76	40.000
822.07	20.930
822.37	16.216
822.67	34.375
822.97	59.524
823.27	0.000
823.57	0.000
823.88	11.111
824.18	14.286
824.48	20.588
824.78	48.387
825.08	21.739
825.38	27.273
825.69	-8.333
825.99	39.474
826.29	25.000
826.59	13.333
826.89	-61.905
827.19	17.391
827.49	37.500
827.79	68.571
828.09	46.429
828.39	42.424
828.70	32.432
829.00	28.571
829.30	38.095
829.60	16.667
829.90	12.500
830.20	15.789
830.50	14.815
830.80	21.739
831.10	59.091
831.40	45.455
831.70	38.710
832.00	28.571
832.30	38.095
832.60	41.667
832.90	44.828
833.20	-25.000
833.50	24.242
833.80	18.519
834.10	-3.846
834.40	18.750
834.70	33.333
835.00	36.842
835.30	80.769
835.60	20.000
835.90	45.161
836.20	31.818
836.50	64.286
836.80	-7.692
837.10	17.857
837.40	-33.333
837.70	22.727
838.00	54.545
838.30	-26.087
838.60	23.077
838.90	36.364
839.19	39.286
839.49	26.667
839.79	38.462
840.09	-33.333
840.39	46.429
840.69	28.571
840.99	-26.923
841.29	-21.053
841.59	-30.000
841.88	-9.091
842.18	30.000
842.48	12.500
842.78	6.667
843.08	-7.407
843.38	-30.000
843.68	21.739
843.97	53.333
844.27	13.333
844.57	35.000
844.87	27.778
845.17	28.571
845.47	33.333
845.76	-33.333
846.06	41.176
846.36	30.000
846.66	21.429
846.96	53.333
847.25	-37.500
847.55	71.429
847.85	-25.000
848.15	36.364
848.44	-200.000
848.74	40.000
849.04	81.481
849.34	9.091
849.63	-100.000
849.93	-140.000
850.23	27.778
850.53	220.000
850.82	92.308
851.12	-33.333
851.42	26.667
851.71	34.615
852.01	0.000
852.31	-100.000
852.61	45.455
852.90	5.000
853.20	26.316
853.50	25.000
853.79	69.565
854.09	45.833
854.39	36.842
854.68	-25.000
854.98	54.839
855.28	42.308
855.57	95.000
855.87	50.000
856.17	51.852
856.46	14.286
856.76	60.000
857.05	33.333
857.35	36.000
857.65	22.222
857.94	-23.077
858.24	27.586
858.53	72.222
858.83	51.852
859.13	104.545
859.42	21.739
859.72	-50.000
860.01	-300.000
860.31	32.000
860.60	33.333
860.90	-133.333
861.20	-26.667
861.49	-750.000
861.79	-40.000
862.08	15.000
862.38	13.333
862.67	-180.000
862.97	33.333
863.26	41.667
863.56	44.444
863.85	-266.667
864.15	16.667
864.44	-80.000
864.74	50.000
865.03	100.000
865.33	-160.000
865.62	50.000
865.92	25.000
866.21	0.000
866.51	81.250
866.80	-72.727
867.10	100.000
867.39	108.333
867.69	0.000
867.98	0.000
868.27	-166.667
868.57	73.333
868.86	44.444
869.16	-69.231
869.45	33.333
869.75	-400.000
870.04	0.000
870.33	-71.429
870.63	52.381
870.92	266.667
871.22	-320.000
871.51	100.000
871.80	111.111
872.10	200.000
>>>>>End Processed Spectral Data<<<<<
