SpectraSuite Data File
++++++++++++++++++++++++++++++++++++
Date: Fri May 15 17:32:12 PDT 2015
User: schluterlab
Dark Spectrum Present: Yes
Reference Spectrum Present: Yes
Number of Sampled Component Spectra: 1
Spectrometers: USB2E3373
Integration Time (usec): 3000 (USB2E3373)
Spectra Averaged: 3 (USB2E3373)
Boxcar Smoothing: 0 (USB2E3373)
Correct for Electrical Dark: No (USB2E3373)
Strobe/Lamp Enabled: No (USB2E3373)
Correct for Detector Non-linearity: No (USB2E3373)
Correct for Stray Light: No (USB2E3373)
Number of Pixels in Processed Spectrum: 2048
>>>>>Begin Processed Spectral Data<<<<<
178.53	0.000
178.91	0.000
179.29	87.500
179.67	-350.000
180.04	28.571
180.42	325.000
180.80	800.000
181.18	-66.667
181.56	350.000
181.94	-50.000
182.31	-700.000
182.69	-40.000
183.07	-466.667
183.45	-40.000
183.83	150.000
184.20	90.909
184.58	22.222
184.96	-75.000
185.34	-133.333
185.72	-550.000
186.09	-46.154
186.47	0.000
186.85	50.000
187.23	11.111
187.61	-500.000
187.98	300.000
188.36	-44.444
188.74	-33.333
189.12	58.824
189.49	94.444
189.87	0.000
190.25	100.000
190.63	200.000
191.00	200.000
191.38	-21.053
191.76	150.000
192.14	50.000
192.51	0.000
192.89	-55.556
193.27	-14.286
193.65	50.000
194.02	100.000
194.40	40.000
194.78	-12.500
195.15	41.667
195.53	50.000
195.91	75.000
196.29	100.000
196.66	92.308
197.04	71.429
197.42	66.667
197.79	-233.333
198.17	-15.385
198.55	900.000
198.92	200.000
199.30	-200.000
199.68	40.000
200.05	-233.333
200.43	0.000
200.81	166.667
201.18	100.000
201.56	-100.000
201.94	-100.000
202.31	-0.000
202.69	-140.000
203.07	125.000
203.44	-1000.000
203.82	0.000
204.19	64.286
204.57	-333.333
204.95	100.000
205.32	30.000
205.70	-57.143
206.08	200.000
206.45	177.778
206.83	78.571
207.20	0.000
207.58	-500.000
207.96	-133.333
208.33	-100.000
208.71	0.000
209.08	-183.333
209.46	100.000
209.84	-20.000
210.21	600.000
210.59	14.286
210.96	66.667
211.34	50.000
211.71	73.333
212.09	0.000
212.46	-300.000
212.84	0.000
213.22	120.000
213.59	300.000
213.97	61.538
214.34	109.091
214.72	-150.000
215.09	175.000
215.47	15.385
215.84	-27.273
216.22	100.000
216.59	-50.000
216.97	250.000
217.34	50.000
217.72	-20.000
218.09	112.500
218.47	212.500
218.84	-500.000
219.22	-11.111
219.59	120.000
219.97	-100.000
220.34	-75.000
220.72	-28.571
221.09	125.000
221.47	450.000
221.84	-550.000
222.22	-500.000
222.59	100.000
222.97	91.667
223.34	0.000
223.72	-28.571
224.09	33.333
224.46	14.286
224.84	133.333
225.21	-40.000
225.59	106.667
225.96	300.000
226.34	175.000
226.71	28.571
227.08	66.667
227.46	25.000
227.83	-200.000
228.21	22.222
228.58	27.273
228.95	75.000
229.33	60.000
229.70	-6.250
230.08	0.000
230.45	-14.286
230.82	57.143
231.20	-13.333
231.57	85.714
231.95	71.429
232.32	-140.000
232.69	100.000
233.07	366.667
233.44	140.000
233.81	30.000
234.19	33.333
234.56	76.471
234.93	150.000
235.31	325.000
235.68	-20.000
236.05	-46.154
236.43	20.000
236.80	82.353
237.17	46.875
237.55	55.000
237.92	25.926
238.29	27.778
238.67	53.333
239.04	35.294
239.41	36.585
239.79	36.667
240.16	56.098
240.53	7.895
240.91	23.913
241.28	20.635
241.65	21.429
242.02	47.945
242.40	45.000
242.77	30.508
243.14	13.636
243.51	32.500
243.89	34.483
244.26	27.586
244.63	29.762
245.00	32.990
245.38	22.680
245.75	40.449
246.12	27.586
246.49	28.099
246.87	39.423
247.24	31.933
247.61	35.088
247.98	30.894
248.36	30.000
248.73	29.605
249.10	25.325
249.47	27.215
249.84	43.137
250.22	28.824
250.59	32.680
250.96	36.150
251.33	26.744
251.70	33.529
252.08	33.503
252.45	30.198
252.82	31.156
253.19	28.571
253.56	33.178
253.94	31.532
254.31	33.913
254.68	37.281
255.05	26.772
255.42	31.878
255.79	28.185
256.16	34.630
256.54	33.955
256.91	34.601
257.28	28.625
257.65	29.213
258.02	30.496
258.39	29.966
258.76	28.571
259.14	31.894
259.51	33.981
259.88	33.677
260.25	31.046
260.62	37.153
260.99	30.847
261.36	31.507
261.73	32.911
262.10	33.435
262.47	28.834
262.85	27.900
263.22	31.385
263.59	34.891
263.96	33.230
264.33	33.636
264.70	33.333
265.07	31.548
265.44	34.844
265.81	30.791
266.18	32.514
266.55	32.648
266.92	33.161
267.29	32.898
267.66	30.179
268.03	31.152
268.40	29.243
268.77	36.898
269.14	31.415
269.51	32.905
269.88	30.923
270.25	29.592
270.62	33.171
270.99	29.668
271.36	30.318
271.73	30.047
272.10	30.657
272.47	31.206
272.84	27.970
273.21	32.947
273.58	33.253
273.95	32.723
274.32	31.871
274.69	28.281
275.06	33.036
275.43	29.932
275.80	31.126
276.17	28.046
276.54	31.478
276.91	32.237
277.28	30.568
277.65	31.612
278.02	31.277
278.39	29.540
278.76	31.237
279.13	27.386
279.50	30.672
279.87	30.670
280.23	27.957
280.60	30.799
280.97	31.515
281.34	30.000
281.71	32.444
282.08	26.380
282.45	29.550
282.82	27.992
283.19	28.046
283.56	29.480
283.92	26.945
284.29	28.846
284.66	28.295
285.03	28.291
285.40	28.166
285.77	27.241
286.14	26.715
286.51	31.181
286.87	29.799
287.24	27.624
287.61	24.162
287.98	28.772
288.35	27.730
288.72	27.496
289.08	25.868
289.45	26.714
289.82	27.972
290.19	24.915
290.56	26.244
290.93	25.253
291.29	22.804
291.66	25.669
292.03	24.880
292.40	27.419
292.77	23.923
293.13	22.727
293.50	22.610
293.87	24.427
294.24	23.338
294.60	23.100
294.97	23.661
295.34	23.620
295.71	22.504
296.08	22.870
296.44	21.195
296.81	22.639
297.18	20.435
297.55	23.035
297.91	23.973
298.28	22.823
298.65	21.710
299.02	22.776
299.38	18.057
299.75	22.207
300.12	21.335
300.48	20.817
300.85	21.926
301.22	21.169
301.59	18.947
301.95	22.532
302.32	22.438
302.69	20.896
303.05	20.916
303.42	20.423
303.79	21.846
304.15	20.311
304.52	19.025
304.89	19.766
305.25	21.308
305.62	19.603
305.99	18.713
306.35	17.803
306.72	17.998
307.09	20.068
307.45	19.518
307.82	18.634
308.19	20.674
308.55	19.847
308.92	20.697
309.29	17.877
309.65	18.622
310.02	18.702
310.38	20.088
310.75	19.454
311.12	18.407
311.48	18.876
311.85	18.429
312.22	17.616
312.58	18.153
312.95	17.182
313.31	18.530
313.68	18.115
314.05	18.571
314.41	19.278
314.78	18.144
315.14	18.602
315.51	18.737
315.87	18.545
316.24	20.324
316.61	20.276
316.97	19.444
317.34	19.824
317.70	19.120
318.07	20.000
318.43	20.196
318.80	19.413
319.16	19.824
319.53	20.608
319.89	20.472
320.26	19.737
320.62	22.066
320.99	20.146
321.35	20.555
321.72	22.430
322.08	20.745
322.45	21.624
322.81	21.709
323.18	21.492
323.54	21.718
323.91	21.616
324.27	23.340
324.64	23.221
325.00	23.266
325.37	24.426
325.73	23.753
326.10	23.706
326.46	24.843
326.83	25.197
327.19	24.237
327.56	23.892
327.92	26.056
328.29	24.821
328.65	26.415
329.01	26.195
329.38	27.005
329.74	26.723
330.11	26.691
330.47	26.252
330.84	25.865
331.20	28.612
331.56	27.130
331.93	28.037
332.29	28.323
332.66	27.511
333.02	28.439
333.38	28.139
333.75	29.212
334.11	27.395
334.48	29.374
334.84	28.022
335.20	27.996
335.57	28.921
335.93	28.997
336.29	29.006
336.66	29.155
337.02	30.112
337.38	29.074
337.75	29.000
338.11	28.855
338.47	30.292
338.84	29.482
339.20	29.068
339.56	28.899
339.93	29.275
340.29	29.633
340.65	29.659
341.02	28.989
341.38	29.292
341.74	28.445
342.11	27.556
342.47	29.715
342.83	29.931
343.20	28.659
343.56	29.478
343.92	28.787
344.28	30.914
344.65	29.793
345.01	28.954
345.37	27.502
345.73	28.117
346.10	30.026
346.46	28.595
346.82	29.051
347.19	27.515
347.55	29.490
347.91	28.722
348.27	28.779
348.63	30.579
349.00	27.810
349.36	28.263
349.72	30.182
350.08	29.344
350.45	29.928
350.81	27.326
351.17	28.909
351.53	29.633
351.89	27.911
352.26	28.400
352.62	27.903
352.98	28.273
353.34	28.019
353.70	29.450
354.07	27.903
354.43	28.183
354.79	28.571
355.15	29.365
355.51	28.560
355.87	29.288
356.24	28.140
356.60	28.052
356.96	29.286
357.32	29.553
357.68	29.867
358.04	28.110
358.40	28.617
358.77	29.426
359.13	28.102
359.49	28.274
359.85	28.705
360.21	29.107
360.57	28.156
360.93	28.064
361.29	28.248
361.66	28.840
362.02	29.318
362.38	29.398
362.74	28.842
363.10	30.173
363.46	28.614
363.82	29.602
364.18	29.225
364.54	27.794
364.90	28.387
365.26	28.530
365.62	30.438
365.98	28.812
366.35	29.862
366.71	30.229
367.07	29.463
367.43	28.253
367.79	30.035
368.15	29.505
368.51	29.206
368.87	28.859
369.23	30.036
369.59	30.321
369.95	29.912
370.31	30.347
370.67	30.597
371.03	28.753
371.39	29.686
371.75	30.476
372.11	29.957
372.47	30.399
372.83	30.376
373.19	30.956
373.55	30.253
373.91	31.030
374.27	29.766
374.63	30.510
374.99	30.355
375.35	29.805
375.71	31.958
376.07	30.688
376.42	30.204
376.78	30.537
377.14	31.212
377.50	30.611
377.86	30.388
378.22	29.930
378.58	30.064
378.94	29.427
379.30	29.944
379.66	31.034
380.02	31.821
380.38	30.493
380.74	31.897
381.09	31.656
381.45	31.621
381.81	30.845
382.17	30.711
382.53	30.918
382.89	31.136
383.25	31.549
383.61	30.915
383.97	31.556
384.32	31.832
384.68	31.022
385.04	30.821
385.40	30.678
385.76	32.516
386.12	30.789
386.48	32.375
386.83	32.086
387.19	32.357
387.55	32.497
387.91	32.090
388.27	32.051
388.62	32.788
388.98	32.228
389.34	32.979
389.70	34.058
390.06	32.159
390.42	32.319
390.77	32.832
391.13	32.724
391.49	33.312
391.85	33.008
392.20	32.768
392.56	31.786
392.92	33.940
393.28	33.078
393.64	31.952
393.99	34.044
394.35	32.954
394.71	33.397
395.07	32.432
395.42	33.212
395.78	33.420
396.14	32.661
396.50	33.354
396.85	33.355
397.21	33.083
397.57	32.665
397.92	32.894
398.28	33.161
398.64	33.072
399.00	34.312
399.35	32.957
399.71	31.936
400.07	33.676
400.42	32.864
400.78	33.435
401.14	33.031
401.49	34.068
401.85	33.455
402.21	32.711
402.57	32.562
402.92	31.932
403.28	33.459
403.63	34.174
403.99	33.099
404.35	33.417
404.70	32.679
405.06	33.490
405.42	33.686
405.77	32.597
406.13	32.771
406.49	33.511
406.84	33.802
407.20	33.293
407.55	32.775
407.91	33.289
408.27	32.632
408.62	34.092
408.98	32.964
409.34	33.209
409.69	33.269
410.05	32.759
410.40	33.642
410.76	33.233
411.11	33.125
411.47	33.596
411.83	32.768
412.18	33.526
412.54	33.084
412.89	33.374
413.25	34.597
413.60	34.348
413.96	34.049
414.31	33.293
414.67	32.649
415.03	32.889
415.38	32.245
415.74	33.876
416.09	33.769
416.45	33.491
416.80	34.237
417.16	34.876
417.51	34.044
417.87	33.246
418.22	34.132
418.58	33.177
418.93	34.859
419.29	32.971
419.64	33.182
420.00	34.320
420.35	33.373
420.71	33.657
421.06	34.131
421.42	34.856
421.77	34.566
422.12	34.336
422.48	34.109
422.83	33.353
423.19	35.327
423.54	33.686
423.90	34.217
424.25	34.214
424.61	35.006
424.96	34.727
425.31	35.644
425.67	35.505
426.02	34.570
426.38	34.690
426.73	35.472
427.09	35.063
427.44	35.176
427.79	35.003
428.15	35.558
428.50	35.191
428.85	35.135
429.21	36.559
429.56	36.173
429.92	36.055
430.27	35.890
430.62	34.449
430.98	35.510
431.33	36.278
431.68	34.746
432.04	36.501
432.39	35.026
432.74	34.756
433.10	36.264
433.45	35.364
433.80	36.042
434.16	35.402
434.51	37.258
434.86	35.598
435.22	36.119
435.57	37.118
435.92	35.808
436.28	35.540
436.63	35.596
436.98	35.458
437.34	36.419
437.69	36.434
438.04	35.954
438.39	34.575
438.75	37.037
439.10	35.993
439.45	36.823
439.81	36.269
440.16	36.995
440.51	36.358
440.86	37.039
441.22	36.482
441.57	37.914
441.92	38.143
442.27	37.251
442.63	36.991
442.98	36.588
443.33	36.895
443.68	36.711
444.03	36.612
444.39	37.285
444.74	38.016
445.09	37.082
445.44	36.980
445.79	37.751
446.15	36.839
446.50	36.661
446.85	37.566
447.20	36.966
447.55	37.277
447.91	36.548
448.26	38.418
448.61	37.363
448.96	37.751
449.31	36.879
449.66	37.456
450.02	37.136
450.37	36.752
450.72	37.171
451.07	37.658
451.42	37.578
451.77	36.468
452.12	36.962
452.47	36.252
452.83	37.691
453.18	37.002
453.53	35.904
453.88	36.551
454.23	36.509
454.58	37.909
454.93	36.856
455.28	35.048
455.63	37.818
455.98	37.763
456.34	36.526
456.69	36.086
457.04	36.925
457.39	37.120
457.74	37.787
458.09	37.316
458.44	36.279
458.79	37.367
459.14	37.700
459.49	37.791
459.84	37.902
460.19	37.015
460.54	37.775
460.89	37.727
461.24	38.012
461.59	37.055
461.94	36.918
462.29	37.214
462.64	37.143
462.99	37.373
463.34	36.648
463.69	36.937
464.04	36.622
464.39	36.507
464.74	36.748
465.09	37.617
465.44	38.142
465.79	37.245
466.14	38.198
466.49	36.170
466.84	37.537
467.19	36.984
467.54	36.015
467.89	36.134
468.24	37.287
468.59	36.381
468.94	35.683
469.29	36.000
469.64	36.979
469.99	37.281
470.34	35.495
470.68	37.360
471.03	35.810
471.38	35.449
471.73	36.064
472.08	35.075
472.43	34.832
472.78	35.367
473.13	36.395
473.48	36.352
473.83	35.928
474.17	36.788
474.52	36.120
474.87	35.636
475.22	35.937
475.57	35.234
475.92	36.972
476.27	36.903
476.61	36.632
476.96	35.750
477.31	36.236
477.66	34.607
478.01	35.935
478.36	36.057
478.70	36.813
479.05	36.978
479.40	35.188
479.75	36.184
480.10	36.252
480.45	35.600
480.79	36.707
481.14	35.963
481.49	35.616
481.84	36.052
482.19	35.220
482.53	36.451
482.88	35.656
483.23	35.797
483.58	35.660
483.92	34.753
484.27	36.098
484.62	36.127
484.97	35.779
485.31	36.452
485.66	37.614
486.01	39.010
486.36	38.741
486.70	38.739
487.05	37.748
487.40	37.099
487.75	36.479
488.09	36.465
488.44	35.935
488.79	35.487
489.13	35.497
489.48	34.972
489.83	34.888
490.17	34.427
490.52	35.704
490.87	34.336
491.22	34.766
491.56	35.342
491.91	33.987
492.26	34.954
492.60	34.645
492.95	35.317
493.30	34.636
493.64	36.395
493.99	34.589
494.34	33.883
494.68	34.952
495.03	34.258
495.37	34.642
495.72	34.629
496.07	34.390
496.41	35.142
496.76	34.961
497.11	34.280
497.45	35.179
497.80	35.116
498.14	34.228
498.49	34.027
498.84	33.633
499.18	34.890
499.53	35.020
499.87	34.874
500.22	34.075
500.56	34.947
500.91	34.337
501.26	34.009
501.60	34.530
501.95	35.371
502.29	34.576
502.64	34.653
502.98	34.287
503.33	33.622
503.67	34.120
504.02	35.386
504.36	34.983
504.71	33.384
505.06	34.071
505.40	34.264
505.75	34.794
506.09	33.604
506.44	34.548
506.78	34.235
507.13	34.540
507.47	32.272
507.82	33.494
508.16	32.594
508.51	33.788
508.85	33.281
509.19	33.369
509.54	33.029
509.88	32.039
510.23	33.190
510.57	33.565
510.92	31.930
511.26	32.788
511.61	33.553
511.95	33.260
512.30	32.539
512.64	33.890
512.98	33.633
513.33	32.625
513.67	32.803
514.02	33.295
514.36	33.257
514.70	33.508
515.05	33.255
515.39	32.645
515.74	32.994
516.08	32.875
516.42	32.862
516.77	33.119
517.11	33.294
517.46	31.598
517.80	32.479
518.14	32.088
518.49	32.031
518.83	32.382
519.17	32.565
519.52	31.853
519.86	32.353
520.20	32.199
520.55	30.832
520.89	32.936
521.23	30.779
521.58	31.735
521.92	31.474
522.26	31.750
522.61	30.844
522.95	31.987
523.29	31.576
523.64	31.830
523.98	31.821
524.32	31.443
524.66	32.330
525.01	32.403
525.35	31.951
525.69	31.582
526.04	30.622
526.38	32.490
526.72	31.458
527.06	31.258
527.41	31.926
527.75	30.831
528.09	31.495
528.43	32.343
528.78	31.683
529.12	31.032
529.46	32.164
529.80	31.856
530.15	33.333
530.49	31.852
530.83	32.285
531.17	30.020
531.51	32.490
531.86	31.067
532.20	30.202
532.54	31.926
532.88	32.375
533.22	31.116
533.57	32.569
533.91	32.768
534.25	33.008
534.59	32.585
534.93	31.844
535.27	30.330
535.62	31.692
535.96	33.659
536.30	31.926
536.64	31.496
536.98	30.244
537.32	31.223
537.66	32.398
538.01	31.888
538.35	32.386
538.69	32.290
539.03	31.511
539.37	32.907
539.71	31.561
540.05	31.432
540.39	32.202
540.73	32.915
541.07	32.390
541.42	32.997
541.76	32.003
542.10	31.727
542.44	32.314
542.78	31.246
543.12	31.456
543.46	32.615
543.80	31.922
544.14	31.242
544.48	32.778
544.82	32.331
545.16	32.787
545.50	32.176
545.84	32.578
546.18	32.057
546.52	31.291
546.86	31.129
547.20	31.402
547.54	31.307
547.88	31.590
548.22	31.361
548.56	32.850
548.90	32.547
549.24	31.956
549.58	32.087
549.92	31.308
550.26	32.015
550.60	33.011
550.94	31.292
551.28	31.607
551.62	31.000
551.96	30.677
552.30	31.287
552.64	31.382
552.98	32.489
553.32	31.669
553.66	30.406
554.00	32.555
554.34	31.758
554.68	30.310
555.02	31.548
555.36	32.087
555.69	31.575
556.03	30.764
556.37	32.313
556.71	30.758
557.05	31.618
557.39	30.632
557.73	31.184
558.07	32.504
558.41	30.858
558.75	31.489
559.08	30.969
559.42	30.556
559.76	31.305
560.10	31.575
560.44	31.124
560.78	31.818
561.12	31.735
561.45	31.834
561.79	32.143
562.13	32.079
562.47	31.151
562.81	31.268
563.15	31.735
563.48	31.612
563.82	32.876
564.16	31.058
564.50	32.635
564.84	32.664
565.17	32.059
565.51	33.197
565.85	33.608
566.19	32.427
566.52	32.976
566.86	33.997
567.20	33.064
567.54	34.246
567.88	33.743
568.21	34.615
568.55	34.130
568.89	34.908
569.23	35.195
569.56	36.953
569.90	36.744
570.24	36.249
570.57	37.418
570.91	36.947
571.25	36.402
571.59	36.718
571.92	36.889
572.26	36.232
572.60	36.713
572.93	35.613
573.27	36.050
573.61	36.068
573.95	37.302
574.28	37.500
574.62	36.512
574.96	36.350
575.29	36.875
575.63	36.201
575.97	36.297
576.30	36.632
576.64	36.371
576.98	37.426
577.31	37.134
577.65	37.615
577.98	38.102
578.32	37.435
578.66	37.030
578.99	37.015
579.33	36.473
579.67	36.462
580.00	36.734
580.34	36.891
580.67	37.043
581.01	37.272
581.35	37.661
581.68	38.457
582.02	38.025
582.35	37.994
582.69	37.963
583.02	37.834
583.36	37.379
583.70	37.591
584.03	37.642
584.37	37.973
584.70	37.582
585.04	36.373
585.37	36.609
585.71	37.670
586.04	37.141
586.38	36.676
586.72	37.561
587.05	37.493
587.39	37.601
587.72	38.710
588.06	37.476
588.39	37.254
588.73	37.302
589.06	37.052
589.40	37.159
589.73	37.094
590.07	36.631
590.40	36.958
590.73	37.479
591.07	35.623
591.40	35.841
591.74	35.249
592.07	36.503
592.41	36.572
592.74	35.723
593.08	36.465
593.41	37.166
593.75	36.768
594.08	36.904
594.41	36.536
594.75	36.679
595.08	37.193
595.42	37.468
595.75	36.838
596.09	36.552
596.42	36.296
596.75	37.123
597.09	35.626
597.42	36.269
597.75	35.960
598.09	36.125
598.42	35.424
598.76	36.251
599.09	36.739
599.42	36.529
599.76	36.268
600.09	35.860
600.42	36.581
600.76	36.218
601.09	36.679
601.42	36.075
601.76	36.840
602.09	36.015
602.42	37.110
602.76	37.012
603.09	35.797
603.42	37.500
603.76	36.613
604.09	35.885
604.42	36.083
604.76	36.493
605.09	36.472
605.42	35.982
605.75	36.296
606.09	36.178
606.42	35.279
606.75	36.234
607.09	36.440
607.42	35.534
607.75	35.613
608.08	35.220
608.42	35.267
608.75	36.916
609.08	36.173
609.41	35.635
609.75	35.282
610.08	36.645
610.41	35.990
610.74	36.519
611.07	35.142
611.41	35.029
611.74	36.834
612.07	35.225
612.40	35.996
612.73	35.593
613.07	35.827
613.40	35.339
613.73	35.590
614.06	34.669
614.39	35.307
614.72	35.350
615.06	34.916
615.39	34.498
615.72	35.522
616.05	34.693
616.38	34.986
616.71	34.924
617.05	34.836
617.38	34.758
617.71	35.157
618.04	35.302
618.37	35.183
618.70	35.908
619.03	35.208
619.36	33.140
619.69	34.572
620.03	36.231
620.36	34.120
620.69	34.118
621.02	32.034
621.35	34.025
621.68	33.844
622.01	33.167
622.34	34.796
622.67	34.464
623.00	34.609
623.33	34.146
623.66	33.732
623.99	33.964
624.32	35.285
624.65	33.383
624.99	34.763
625.32	34.951
625.65	34.878
625.98	35.214
626.31	33.583
626.64	33.276
626.97	34.555
627.30	33.275
627.63	33.449
627.96	33.513
628.29	33.488
628.62	31.662
628.95	31.864
629.28	32.359
629.61	33.799
629.94	33.138
630.26	30.830
630.59	33.299
630.92	31.897
631.25	31.179
631.58	33.260
631.91	30.263
632.24	30.161
632.57	31.705
632.90	31.198
633.23	30.235
633.56	30.982
633.89	30.580
634.22	32.593
634.55	31.385
634.88	30.907
635.20	30.000
635.53	30.800
635.86	27.828
636.19	31.565
636.52	31.122
636.85	32.010
637.18	30.943
637.51	31.572
637.83	31.012
638.16	30.696
638.49	29.428
638.82	31.447
639.15	32.022
639.48	31.362
639.81	29.289
640.13	29.726
640.46	30.758
640.79	31.075
641.12	30.281
641.45	29.580
641.77	29.778
642.10	31.438
642.43	26.688
642.76	29.538
643.09	28.918
643.41	27.994
643.74	28.007
644.07	31.363
644.40	30.912
644.73	29.072
645.05	26.510
645.38	30.159
645.71	33.156
646.04	31.598
646.36	29.078
646.69	31.115
647.02	28.355
647.35	28.545
647.67	27.788
648.00	31.157
648.33	31.058
648.66	30.169
648.98	28.476
649.31	32.397
649.64	28.571
649.96	29.173
650.29	31.687
650.62	29.402
650.94	28.889
651.27	29.981
651.60	29.730
651.92	30.594
652.25	28.952
652.58	31.667
652.90	34.305
653.23	30.084
653.56	29.949
653.88	30.241
654.21	28.371
654.54	29.202
654.86	30.730
655.19	30.848
655.52	37.848
655.84	42.202
656.17	48.454
656.49	65.629
656.82	67.462
657.15	50.413
657.47	37.263
657.80	27.164
658.13	26.405
658.45	40.064
658.78	38.574
659.10	37.233
659.43	35.986
659.75	35.422
660.08	34.414
660.41	34.423
660.73	31.077
661.06	29.809
661.38	27.593
661.71	27.721
662.03	29.399
662.36	27.692
662.68	28.982
663.01	32.314
663.33	25.058
663.66	27.674
663.98	25.116
664.31	27.719
664.63	27.419
664.96	25.000
665.28	27.815
665.61	29.437
665.93	28.261
666.26	31.670
666.58	28.188
666.91	28.941
667.23	30.425
667.56	28.673
667.88	27.818
668.21	27.685
668.53	27.423
668.86	29.717
669.18	28.066
669.50	23.729
669.83	28.140
670.15	31.702
670.48	28.947
670.80	27.419
671.13	27.293
671.45	24.201
671.77	30.043
672.10	29.505
672.42	31.461
672.75	29.663
673.07	33.810
673.39	31.009
673.72	28.994
674.04	27.292
674.37	30.932
674.69	28.908
675.01	29.111
675.34	25.901
675.66	30.787
675.98	31.707
676.31	29.587
676.63	28.029
676.95	27.045
677.28	30.824
677.60	29.398
677.92	29.358
678.25	29.978
678.57	30.736
678.89	30.672
679.22	31.767
679.54	29.719
679.86	32.008
680.18	32.039
680.51	32.955
680.83	30.616
681.15	31.000
681.48	32.377
681.80	31.612
682.12	30.040
682.44	28.033
682.77	31.347
683.09	29.062
683.41	30.000
683.73	29.724
684.06	30.310
684.38	30.108
684.70	31.155
685.02	32.780
685.34	31.423
685.67	29.644
685.99	33.635
686.31	34.159
686.63	32.653
686.96	32.129
687.28	29.495
687.60	29.278
687.92	35.152
688.24	30.645
688.56	28.821
688.89	29.911
689.21	32.222
689.53	31.787
689.85	30.233
690.17	32.589
690.49	32.861
690.82	31.796
691.14	31.905
691.46	33.178
691.78	33.108
692.10	34.194
692.42	30.736
692.74	30.556
693.06	31.532
693.39	28.507
693.71	32.805
694.03	28.176
694.35	28.972
694.67	33.333
694.99	30.809
695.31	30.026
695.63	31.750
695.95	29.798
696.27	30.052
696.59	31.944
696.91	29.972
697.23	28.278
697.56	31.436
697.88	34.839
698.20	33.485
698.52	31.765
698.84	29.904
699.16	30.250
699.48	31.078
699.80	31.514
700.12	30.458
700.44	30.532
700.76	34.012
701.08	26.364
701.40	27.410
701.72	33.025
702.04	34.983
702.36	31.773
702.68	29.429
703.00	33.636
703.32	31.965
703.64	26.271
703.96	35.072
704.28	28.221
704.60	32.698
704.91	29.968
705.23	27.575
705.55	31.802
705.87	31.769
706.19	28.148
706.51	27.491
706.83	28.296
707.15	28.972
707.47	31.653
707.79	34.375
708.11	32.750
708.43	34.250
708.74	34.367
709.06	32.958
709.38	35.168
709.70	34.911
710.02	30.255
710.34	33.746
710.66	32.051
710.98	33.444
711.29	31.803
711.61	32.203
711.93	37.785
712.25	31.615
712.57	34.799
712.89	29.104
713.20	31.834
713.52	31.707
713.84	27.986
714.16	32.302
714.48	30.323
714.80	39.423
715.11	34.043
715.43	31.034
715.75	32.667
716.07	30.897
716.39	30.201
716.70	29.151
717.02	30.534
717.34	30.364
717.66	28.319
717.97	31.739
718.29	27.615
718.61	29.921
718.93	26.744
719.24	31.939
719.56	33.333
719.88	34.708
720.20	32.955
720.51	29.119
720.83	34.363
721.15	31.933
721.46	34.274
721.78	32.016
722.10	32.342
722.42	30.290
722.73	29.388
723.05	33.469
723.37	34.322
723.68	38.739
724.00	30.769
724.32	34.222
724.63	30.000
724.95	34.061
725.27	30.415
725.58	30.508
725.90	34.921
726.22	33.591
726.53	34.915
726.85	35.581
727.16	35.849
727.48	29.960
727.80	29.150
728.11	35.169
728.43	32.549
728.74	29.435
729.06	34.800
729.38	33.083
729.69	36.255
730.01	28.846
730.32	36.567
730.64	37.102
730.96	37.358
731.27	36.000
731.59	32.881
731.90	36.624
732.22	35.962
732.53	37.874
732.85	37.589
733.16	40.067
733.48	33.453
733.80	38.768
734.11	35.593
734.43	39.519
734.74	38.485
735.06	35.831
735.37	37.160
735.69	37.710
736.00	36.585
736.32	30.537
736.63	38.732
736.95	37.543
737.26	38.078
737.58	34.228
737.89	34.066
738.21	33.083
738.52	35.802
738.83	38.428
739.15	28.384
739.46	36.614
739.78	33.333
740.09	35.948
740.41	37.681
740.72	33.858
741.04	36.437
741.35	31.064
741.66	27.962
741.98	31.122
742.29	38.119
742.61	36.649
742.92	36.019
743.23	29.630
743.55	37.104
743.86	36.842
744.18	32.536
744.49	30.851
744.80	33.152
745.12	36.898
745.43	31.707
745.74	35.417
746.06	33.659
746.37	39.791
746.68	33.649
747.00	31.383
747.31	38.806
747.62	30.097
747.94	39.713
748.25	30.693
748.56	31.694
748.88	34.031
749.19	37.234
749.50	32.020
749.82	34.434
750.13	34.862
750.44	43.609
750.75	36.940
751.07	40.876
751.38	37.931
751.69	34.510
752.01	36.434
752.32	35.458
752.63	36.759
752.94	33.621
753.26	39.749
753.57	28.507
753.88	33.186
754.19	33.333
754.51	35.124
754.82	39.271
755.13	32.500
755.44	40.323
755.75	40.625
756.07	36.965
756.38	38.113
756.69	35.632
757.00	40.333
757.31	39.216
757.63	33.232
757.94	39.444
758.25	38.904
758.56	37.500
758.87	40.227
759.18	34.891
759.50	38.545
759.81	38.127
760.12	40.645
760.43	39.091
760.74	41.049
761.05	40.615
761.36	38.352
761.67	43.939
761.99	43.197
762.30	35.273
762.61	36.759
762.92	38.462
763.23	35.135
763.54	38.785
763.85	44.492
764.16	34.440
764.47	37.903
764.78	36.264
765.10	43.434
765.41	36.909
765.72	40.317
766.03	37.594
766.34	37.591
766.65	38.645
766.96	44.949
767.27	39.362
767.58	33.908
767.89	31.915
768.20	34.091
768.51	32.967
768.82	41.379
769.13	37.788
769.44	39.056
769.75	37.900
770.06	37.931
770.37	36.538
770.68	37.563
770.99	33.937
771.30	38.235
771.61	44.344
771.92	40.517
772.23	44.828
772.54	37.634
772.85	43.210
773.16	38.764
773.47	46.405
773.78	35.948
774.09	40.120
774.39	36.000
774.70	36.306
775.01	43.448
775.32	35.714
775.63	34.711
775.94	27.481
776.25	29.921
776.56	35.000
776.87	31.731
777.18	29.915
777.48	23.276
777.79	29.565
778.10	33.333
778.41	40.541
778.72	33.333
779.03	36.090
779.34	37.589
779.65	47.260
779.95	30.822
780.26	38.621
780.57	26.016
780.88	33.071
781.19	45.690
781.50	37.984
781.80	33.728
782.11	35.849
782.42	37.692
782.73	38.129
783.04	41.481
783.34	28.472
783.65	29.915
783.96	41.803
784.27	43.448
784.57	38.211
784.88	37.500
785.19	44.000
785.50	42.000
785.81	41.379
786.11	36.207
786.42	33.981
786.73	47.273
787.04	32.653
787.34	24.107
787.65	38.095
787.96	33.628
788.26	35.455
788.57	38.462
788.88	36.719
789.19	36.508
789.49	39.130
789.80	39.796
790.11	34.343
790.41	29.091
790.72	42.391
791.03	27.273
791.33	42.500
791.64	40.000
791.95	27.907
792.25	36.170
792.56	43.820
792.87	15.068
793.17	31.884
793.48	21.333
793.79	25.000
794.09	32.500
794.40	33.019
794.70	39.806
795.01	29.268
795.32	41.880
795.62	33.333
795.93	42.157
796.23	28.302
796.54	23.958
796.85	36.765
797.15	30.986
797.46	44.444
797.76	45.455
798.07	38.372
798.37	25.000
798.68	18.182
798.99	27.160
799.29	22.857
799.60	24.638
799.90	44.000
800.21	47.541
800.51	40.000
800.82	55.932
801.12	42.029
801.43	26.230
801.73	36.508
802.04	22.000
802.34	32.836
802.65	21.154
802.95	16.071
803.26	34.615
803.56	43.137
803.87	28.261
804.17	28.000
804.48	28.571
804.78	25.926
805.09	52.174
805.39	17.778
805.70	42.593
806.00	15.789
806.30	45.070
806.61	57.143
806.91	27.778
807.22	40.789
807.52	38.667
807.83	21.818
808.13	27.778
808.43	42.647
808.74	28.358
809.04	25.424
809.35	15.385
809.65	39.063
809.95	27.027
810.26	18.182
810.56	26.027
810.86	30.952
811.17	38.000
811.47	36.735
811.77	63.158
812.08	13.636
812.38	37.736
812.69	15.000
812.99	30.303
813.29	23.684
813.59	25.714
813.90	56.818
814.20	5.128
814.50	38.462
814.81	26.415
815.11	27.660
815.41	32.203
815.72	33.333
816.02	37.255
816.32	31.250
816.62	24.390
816.93	5.405
817.23	28.571
817.53	10.417
817.84	21.739
818.14	34.615
818.44	18.421
818.74	41.304
819.04	2.500
819.35	10.811
819.65	14.706
819.95	36.111
820.25	11.905
820.56	57.500
820.86	-3.448
821.16	52.500
821.46	42.553
821.76	67.500
822.07	39.535
822.37	10.811
822.67	9.375
822.97	30.952
823.27	0.000
823.57	-4.000
823.88	22.222
824.18	75.000
824.48	47.059
824.78	12.903
825.08	43.478
825.38	21.212
825.69	4.167
825.99	39.474
826.29	38.889
826.59	53.333
826.89	38.095
827.19	50.000
827.49	40.000
827.79	74.286
828.09	46.429
828.39	33.333
828.70	40.541
829.00	35.714
829.30	38.095
829.60	53.333
829.90	6.250
830.20	23.684
830.50	37.037
830.80	43.478
831.10	-9.091
831.40	48.485
831.70	32.258
832.00	14.286
832.30	-19.048
832.60	-8.333
832.90	6.897
833.20	15.000
833.50	54.545
833.80	44.444
834.10	19.231
834.40	50.000
834.70	0.000
835.00	0.000
835.30	88.462
835.60	26.667
835.90	45.161
836.20	45.455
836.50	89.286
836.80	-7.692
837.10	39.286
837.40	66.667
837.70	36.364
838.00	-36.364
838.30	34.783
838.60	-23.077
838.90	40.909
839.19	-14.286
839.49	43.333
839.79	30.769
840.09	8.333
840.39	35.714
840.69	17.857
840.99	15.385
841.29	0.000
841.59	40.000
841.88	-27.273
842.18	120.000
842.48	-12.500
842.78	53.333
843.08	18.519
843.38	-40.000
843.68	47.826
843.97	20.000
844.27	13.333
844.57	75.000
844.87	72.222
845.17	0.000
845.47	66.667
845.76	-9.524
846.06	52.941
846.36	130.000
846.66	-14.286
846.96	46.667
847.25	-62.500
847.55	71.429
847.85	-87.500
848.15	27.273
848.44	-333.333
848.74	60.000
849.04	66.667
849.34	-18.182
849.63	-33.333
849.93	-120.000
850.23	16.667
850.53	20.000
850.82	38.462
851.12	-44.444
851.42	26.667
851.71	3.846
852.01	42.857
852.31	-100.000
852.61	72.727
852.90	10.000
853.20	57.895
853.50	41.667
853.79	43.478
854.09	58.333
854.39	5.263
854.68	37.500
854.98	70.968
855.28	42.308
855.57	10.000
855.87	116.667
856.17	74.074
856.46	21.429
856.76	-26.667
857.05	77.778
857.35	32.000
857.65	27.778
857.94	69.231
858.24	37.931
858.53	77.778
858.83	37.037
859.13	9.091
859.42	0.000
859.72	100.000
860.01	-333.333
860.31	12.000
860.60	57.143
860.90	33.333
861.20	53.333
861.49	650.000
861.79	20.000
862.08	5.000
862.38	140.000
862.67	-160.000
862.97	-16.667
863.26	25.000
863.56	66.667
863.85	-266.667
864.15	-11.111
864.44	-40.000
864.74	50.000
865.03	50.000
865.33	-200.000
865.62	-16.667
865.92	16.667
866.21	-33.333
866.51	43.750
866.80	-63.636
867.10	-350.000
867.39	33.333
867.69	0.000
867.98	46.154
868.27	-33.333
868.57	120.000
868.86	44.444
869.16	53.846
869.45	60.000
869.75	0.000
870.04	0.000
870.33	71.429
870.63	104.762
870.92	433.333
871.22	-140.000
871.51	200.000
871.80	133.333
872.10	333.333
>>>>>End Processed Spectral Data<<<<<
