SpectraSuite Data File
++++++++++++++++++++++++++++++++++++
Date: Fri May 15 17:23:46 PDT 2015
User: schluterlab
Dark Spectrum Present: Yes
Reference Spectrum Present: Yes
Number of Sampled Component Spectra: 1
Spectrometers: USB2E3373
Integration Time (usec): 3000 (USB2E3373)
Spectra Averaged: 3 (USB2E3373)
Boxcar Smoothing: 0 (USB2E3373)
Correct for Electrical Dark: No (USB2E3373)
Strobe/Lamp Enabled: No (USB2E3373)
Correct for Detector Non-linearity: No (USB2E3373)
Correct for Stray Light: No (USB2E3373)
Number of Pixels in Processed Spectrum: 2048
>>>>>Begin Processed Spectral Data<<<<<
178.53	0.000
178.91	0.000
179.29	75.000
179.67	-50.000
180.04	-57.143
180.42	125.000
180.80	-600.000
181.18	-66.667
181.56	-100.000
181.94	50.000
182.31	-100.000
182.69	120.000
183.07	-266.667
183.45	0.000
183.83	-50.000
184.20	-27.273
184.58	22.222
184.96	-200.000
185.34	-400.000
185.72	-250.000
186.09	76.923
186.47	100.000
186.85	-50.000
187.23	11.111
187.61	-800.000
187.98	200.000
188.36	66.667
188.74	-366.667
189.12	52.941
189.49	44.444
189.87	0.000
190.25	57.143
190.63	900.000
191.00	-100.000
191.38	0.000
191.76	350.000
192.14	150.000
192.51	-50.000
192.89	-33.333
193.27	0.000
193.65	200.000
194.02	145.455
194.40	60.000
194.78	-25.000
195.15	-75.000
195.53	12.500
195.91	425.000
196.29	-75.000
196.66	84.615
197.04	-0.000
197.42	-66.667
197.79	-166.667
198.17	-46.154
198.55	600.000
198.92	33.333
199.30	-100.000
199.68	-100.000
200.05	-33.333
200.43	0.000
200.81	-33.333
201.18	133.333
201.56	-500.000
201.94	-150.000
202.31	-166.667
202.69	0.000
203.07	100.000
203.44	900.000
203.82	0.000
204.19	42.857
204.57	-266.667
204.95	137.500
205.32	60.000
205.70	85.714
206.08	0.000
206.45	100.000
206.83	135.714
207.20	57.143
207.58	-1100.000
207.96	-100.000
208.33	-90.000
208.71	-100.000
209.08	-83.333
209.46	-1200.000
209.84	-140.000
210.21	-800.000
210.59	142.857
210.96	33.333
211.34	-50.000
211.71	73.333
212.09	14.286
212.46	-900.000
212.84	0.000
213.22	40.000
213.59	400.000
213.97	84.615
214.34	72.727
214.72	-83.333
215.09	275.000
215.47	-23.077
215.84	-36.364
216.22	-166.667
216.59	75.000
216.97	600.000
217.34	225.000
217.72	-140.000
218.09	150.000
218.47	225.000
218.84	100.000
219.22	-11.111
219.59	140.000
219.97	233.333
220.34	-150.000
220.72	-14.286
221.09	-150.000
221.47	50.000
221.84	-450.000
222.22	-100.000
222.59	-9.091
222.97	50.000
223.34	100.000
223.72	78.571
224.09	4.762
224.46	39.286
224.84	-366.667
225.21	-20.000
225.59	120.000
225.96	150.000
226.34	550.000
226.71	-128.571
227.08	-16.667
227.46	100.000
227.83	-150.000
228.21	-77.778
228.58	100.000
228.95	0.000
229.33	-10.000
229.70	87.500
230.08	-25.000
230.45	-100.000
230.82	-42.857
231.20	53.333
231.57	114.286
231.95	14.286
232.32	-30.000
232.69	92.857
233.07	233.333
233.44	-100.000
233.81	20.000
234.19	44.444
234.56	47.059
234.93	350.000
235.31	175.000
235.68	20.000
236.05	-38.462
236.43	-15.000
236.80	11.765
237.17	9.375
237.55	10.000
237.92	-3.704
238.29	19.444
238.67	16.667
239.04	-11.765
239.41	-9.756
239.79	-3.333
240.16	14.634
240.53	-5.263
240.91	6.522
241.28	17.460
241.65	14.286
242.02	9.589
242.40	8.333
242.77	-3.390
243.14	-18.182
243.51	10.000
243.89	10.345
244.26	-3.448
244.63	11.905
245.00	18.557
245.38	8.247
245.75	-1.124
246.12	1.724
246.49	11.570
246.87	10.577
247.24	-2.521
247.61	-5.263
247.98	3.252
248.36	6.875
248.73	2.632
249.10	3.247
249.47	5.063
249.84	-1.307
250.22	4.706
250.59	1.961
250.96	9.859
251.33	0.000
251.70	0.588
252.08	5.584
252.45	5.941
252.82	2.513
253.19	9.217
253.56	3.738
253.94	4.054
254.31	11.304
254.68	6.579
255.05	5.906
255.42	6.114
255.79	6.178
256.16	5.837
256.54	13.433
256.91	5.323
257.28	5.204
257.65	3.371
258.02	6.738
258.39	6.397
258.76	7.692
259.14	2.990
259.51	11.327
259.88	4.124
260.25	5.882
260.62	5.903
260.99	1.356
261.36	4.452
261.73	4.430
262.10	6.991
262.47	6.748
262.85	4.702
263.22	6.769
263.59	6.542
263.96	8.385
264.33	5.758
264.70	6.845
265.07	5.357
265.44	6.516
265.81	3.672
266.18	4.918
266.55	9.769
266.92	6.218
267.29	6.005
267.66	3.325
268.03	3.927
268.40	3.394
268.77	8.556
269.14	7.194
269.51	5.656
269.88	4.489
270.25	1.531
270.62	3.171
270.99	3.069
271.36	5.379
271.73	6.573
272.10	6.813
272.47	5.674
272.84	6.188
273.21	6.497
273.58	6.747
273.95	5.721
274.32	3.464
274.69	2.941
275.06	5.580
275.43	5.215
275.80	6.181
276.17	4.598
276.54	5.139
276.91	6.579
277.28	4.803
277.65	7.025
278.02	3.617
278.39	5.689
278.76	7.338
279.13	1.245
279.50	8.193
279.87	4.320
280.23	5.376
280.60	7.602
280.97	4.848
281.34	3.462
281.71	6.982
282.08	3.681
282.45	4.501
282.82	3.861
283.19	4.255
283.56	5.973
283.92	3.605
284.29	5.385
284.66	4.070
285.03	2.947
285.40	4.726
285.77	4.921
286.14	6.498
286.51	5.351
286.87	6.947
287.24	4.420
287.61	4.409
287.98	4.386
288.35	2.946
288.72	5.954
289.08	6.771
289.45	4.921
289.82	4.895
290.19	3.584
290.56	4.631
290.93	3.872
291.29	5.085
291.66	6.299
292.03	3.509
292.40	3.871
292.77	3.828
293.13	2.273
293.50	2.580
293.87	4.733
294.24	3.709
294.60	5.365
294.97	5.804
295.34	2.914
295.71	2.086
296.08	1.943
296.44	2.987
296.81	4.444
297.18	3.478
297.55	7.453
297.91	4.247
298.28	5.409
298.65	2.714
299.02	4.043
299.38	1.778
299.75	2.759
300.12	2.749
300.48	2.899
300.85	4.436
301.22	3.247
301.59	3.553
301.95	3.671
302.32	3.891
302.69	3.856
303.05	3.589
303.42	3.861
303.79	4.556
304.15	4.062
304.52	2.735
304.89	3.860
305.25	3.390
305.62	2.217
305.99	1.754
306.35	4.046
306.72	3.262
307.09	3.649
307.45	4.248
307.82	2.546
308.19	2.671
308.55	2.944
308.92	4.357
309.29	3.911
309.65	3.983
310.02	2.750
310.38	3.293
310.75	3.497
311.12	4.306
311.48	3.075
311.85	3.665
312.22	2.532
312.58	3.609
312.95	2.561
313.31	2.484
313.68	3.560
314.05	3.673
314.41	3.918
314.78	3.918
315.14	3.700
315.51	4.555
315.87	3.484
316.24	5.258
316.61	4.724
316.97	4.960
317.34	5.664
317.70	3.442
318.07	3.750
318.43	6.078
318.80	5.682
319.16	4.980
319.53	5.888
319.89	5.217
320.26	4.150
320.62	6.419
320.99	5.010
321.35	5.036
321.72	6.750
322.08	6.244
322.45	6.599
322.81	6.189
323.18	7.458
323.54	6.467
323.91	6.621
324.27	6.641
324.64	7.116
325.00	7.391
325.37	9.366
325.73	6.346
326.10	8.447
326.46	9.507
326.83	7.524
327.19	8.893
327.56	9.557
327.92	8.803
328.29	9.018
328.65	9.057
329.01	10.478
329.38	10.783
329.74	9.537
330.11	10.102
330.47	9.647
330.84	10.000
331.20	12.167
331.56	9.907
331.93	11.142
332.29	11.366
332.66	10.226
333.02	11.431
333.38	10.907
333.75	12.454
334.11	11.638
334.48	13.055
334.84	12.179
335.20	12.260
335.57	11.242
335.93	11.653
336.29	12.431
336.66	11.535
337.02	11.338
337.38	11.204
337.75	12.000
338.11	12.624
338.47	12.865
338.84	13.586
339.20	13.071
339.56	13.670
339.93	13.339
340.29	14.037
340.65	14.158
341.02	12.500
341.38	11.947
341.74	12.102
342.11	12.045
342.47	14.146
342.83	13.841
343.20	12.631
343.56	14.348
343.92	12.755
344.28	13.664
344.65	13.126
345.01	13.829
345.37	13.288
345.73	13.808
346.10	13.028
346.46	13.625
346.82	14.321
347.19	12.884
347.55	13.701
347.91	13.916
348.27	14.551
348.63	13.629
349.00	13.208
349.36	13.300
349.72	14.677
350.08	13.934
350.45	14.206
350.81	13.455
351.17	12.296
351.53	14.531
351.89	13.625
352.26	12.720
352.62	14.597
352.98	14.217
353.34	12.882
353.70	13.997
354.07	14.194
354.43	13.131
354.79	13.130
355.15	14.444
355.51	13.766
355.87	14.159
356.24	14.111
356.60	13.905
356.96	14.127
357.32	14.696
357.68	14.777
358.04	13.086
358.40	14.148
358.77	15.391
359.13	13.291
359.49	14.869
359.85	14.899
360.21	14.354
360.57	14.078
360.93	16.112
361.29	13.520
361.66	14.577
362.02	14.242
362.38	15.308
362.74	14.837
363.10	15.801
363.46	14.307
363.82	15.177
364.18	15.867
364.54	14.412
364.90	14.910
365.26	15.138
365.62	16.350
365.98	15.543
366.35	16.387
366.71	15.743
367.07	15.385
367.43	15.241
367.79	16.466
368.15	15.721
368.51	15.004
368.87	14.573
369.23	15.451
369.59	15.671
369.95	16.202
370.31	15.896
370.67	15.448
371.03	15.907
371.39	15.828
371.75	16.703
372.11	16.262
372.47	16.272
372.83	16.040
373.19	16.976
373.55	15.668
373.91	16.343
374.27	17.647
374.63	17.803
374.99	16.667
375.35	15.947
375.71	18.042
376.07	16.713
376.42	17.075
376.78	17.383
377.14	17.468
377.50	17.530
377.86	18.072
378.22	18.188
378.58	17.372
378.94	18.084
379.30	18.341
379.66	18.997
380.02	18.578
380.38	17.407
380.74	18.312
381.09	19.080
381.45	18.777
381.81	18.754
382.17	18.464
382.53	18.738
382.89	18.581
383.25	18.668
383.61	20.244
383.97	18.476
384.32	18.824
384.68	19.195
385.04	19.792
385.40	18.793
385.76	20.629
386.12	20.116
386.48	21.009
386.83	20.038
387.19	21.123
387.55	20.640
387.91	20.355
388.27	20.574
388.62	21.271
388.98	20.688
389.34	21.861
389.70	21.380
390.06	21.208
390.42	21.373
390.77	21.714
391.13	20.681
391.49	21.539
391.85	21.053
392.20	21.594
392.56	22.187
392.92	21.961
393.28	21.698
393.64	21.862
393.99	22.132
394.35	21.948
394.71	22.478
395.07	22.062
395.42	22.404
395.78	21.889
396.14	22.131
396.50	21.940
396.85	22.408
397.21	22.494
397.57	21.755
397.92	22.888
398.28	22.701
398.64	22.349
399.00	22.856
399.35	21.501
399.71	21.827
400.07	22.370
400.42	23.439
400.78	22.596
401.14	22.807
401.49	24.181
401.85	23.339
402.21	23.434
402.57	22.688
402.92	22.522
403.28	23.183
403.63	23.707
403.99	23.151
404.35	23.360
404.70	22.679
405.06	23.443
405.42	23.120
405.77	22.080
406.13	23.225
406.49	22.321
406.84	23.472
407.20	23.480
407.55	22.988
407.91	23.128
408.27	23.582
408.62	24.000
408.98	23.598
409.34	23.606
409.69	23.837
410.05	23.522
410.40	24.136
410.76	23.341
411.11	25.125
411.47	24.063
411.83	22.913
412.18	23.810
412.54	24.032
412.89	23.091
413.25	23.406
413.60	23.354
413.96	22.945
414.31	23.659
414.67	22.771
415.03	23.103
415.38	23.629
415.74	24.169
416.09	24.102
416.45	23.633
416.80	23.860
417.16	23.964
417.51	24.584
417.87	23.664
418.22	23.964
418.58	24.147
418.93	24.013
419.29	23.175
419.64	23.720
420.00	25.063
420.35	24.418
420.71	24.666
421.06	24.555
421.42	25.300
421.77	24.740
422.12	24.574
422.48	24.418
422.83	24.710
423.19	24.661
423.54	23.339
423.90	24.912
424.25	24.914
424.61	24.602
424.96	24.971
425.31	24.841
425.67	25.763
426.02	25.265
426.38	25.423
426.73	26.271
427.09	25.886
427.44	25.647
427.79	25.987
428.15	25.728
428.50	25.318
428.85	24.816
429.21	25.693
429.56	26.307
429.92	25.989
430.27	25.815
430.62	25.510
430.98	25.849
431.33	25.920
431.68	25.275
432.04	25.769
432.39	25.556
432.74	25.015
433.10	26.552
433.45	25.627
433.80	25.305
434.16	25.097
434.51	25.269
434.86	27.468
435.22	25.407
435.57	27.511
435.92	25.808
436.28	26.058
436.63	26.241
436.98	25.492
437.34	25.832
437.69	26.953
438.04	25.413
438.39	25.351
438.75	26.412
439.10	25.863
439.45	26.293
439.81	25.749
440.16	27.019
440.51	26.269
440.86	27.915
441.22	25.905
441.57	26.159
441.92	27.230
442.27	26.996
442.63	27.355
442.98	26.479
443.33	26.989
443.68	26.154
444.03	26.528
444.39	26.955
444.74	27.090
445.09	27.617
445.44	27.578
445.79	27.076
446.15	27.093
446.50	26.733
446.85	26.939
447.20	26.330
447.55	26.786
447.91	27.468
448.26	27.604
448.61	27.231
448.96	27.424
449.31	26.763
449.66	26.655
450.02	27.153
450.37	27.623
450.72	27.262
451.07	28.101
451.42	26.966
451.77	26.823
452.12	26.196
452.47	26.851
452.83	27.739
453.18	26.502
453.53	27.497
453.88	27.505
454.23	27.228
454.58	27.330
454.93	26.804
455.28	27.175
455.63	27.216
455.98	27.300
456.34	28.033
456.69	27.891
457.04	27.473
457.39	27.764
457.74	27.207
458.09	27.016
458.44	26.916
458.79	26.499
459.14	27.574
459.49	28.179
459.84	27.016
460.19	27.731
460.54	28.423
460.89	27.898
461.24	26.770
461.59	27.732
461.94	26.918
462.29	28.106
462.64	28.040
462.99	28.030
463.34	26.773
463.69	27.477
464.04	26.877
464.39	27.168
464.74	27.362
465.09	26.513
465.44	27.351
465.79	27.268
466.14	27.651
466.49	27.430
466.84	27.484
467.19	28.536
467.54	27.969
467.89	28.111
468.24	26.521
468.59	28.444
468.94	27.937
469.29	27.869
469.64	27.478
469.99	27.470
470.34	27.986
470.68	28.113
471.03	28.804
471.38	28.174
471.73	28.782
472.08	28.426
472.43	27.315
472.78	28.033
473.13	28.163
473.48	28.274
473.83	27.584
474.17	27.850
474.52	28.079
474.87	28.485
475.22	28.005
475.57	27.724
475.92	28.579
476.27	28.580
476.61	28.009
476.96	27.942
477.31	28.286
477.66	27.472
478.01	28.523
478.36	28.758
478.70	27.624
479.05	28.462
479.40	28.352
479.75	27.164
480.10	28.264
480.45	27.400
480.79	28.399
481.14	28.689
481.49	27.882
481.84	28.764
482.19	27.175
482.53	27.002
482.88	27.351
483.23	28.119
483.58	27.972
483.92	27.396
484.27	26.253
484.62	27.656
484.97	27.363
485.31	27.421
485.66	26.115
486.01	25.948
486.36	25.472
486.70	25.712
487.05	26.111
487.40	26.293
487.75	26.901
488.09	26.731
488.44	26.960
488.79	28.129
489.13	27.724
489.48	27.319
489.83	27.444
490.17	27.910
490.52	28.453
490.87	27.348
491.22	28.940
491.56	28.178
491.91	28.203
492.26	27.953
492.60	28.455
492.95	29.021
493.30	28.383
493.64	28.045
493.99	27.874
494.34	27.767
494.68	28.571
495.03	28.224
495.37	28.459
495.72	28.370
496.07	28.390
496.41	28.302
496.76	28.650
497.11	27.294
497.45	28.687
497.80	28.708
498.14	28.217
498.49	29.203
498.84	28.094
499.18	29.217
499.53	29.613
499.87	27.529
500.22	28.190
500.56	28.593
500.91	28.665
501.26	28.077
501.60	28.333
501.95	28.772
502.29	28.668
502.64	28.041
502.98	28.564
503.33	28.002
503.67	29.301
504.02	28.495
504.36	29.045
504.71	28.232
505.06	28.284
505.40	28.173
505.75	29.536
506.09	29.143
506.44	29.671
506.78	29.133
507.13	29.162
507.47	28.930
507.82	29.274
508.16	28.843
508.51	30.063
508.85	29.566
509.19	29.537
509.54	29.169
509.88	29.827
510.23	29.909
510.57	29.984
510.92	28.518
511.26	29.296
511.61	30.363
511.95	29.863
512.30	29.823
512.64	29.939
512.98	30.208
513.33	29.771
513.67	30.529
514.02	31.007
514.36	30.457
514.70	30.886
515.05	31.845
515.39	31.405
515.74	30.958
516.08	30.484
516.42	31.684
516.77	31.597
517.11	31.335
517.46	32.376
517.80	31.704
518.14	31.170
518.49	30.108
518.83	31.288
519.17	29.533
519.52	31.261
519.86	30.852
520.20	31.045
520.55	30.457
520.89	32.434
521.23	31.222
521.58	32.240
521.92	31.603
522.26	31.490
522.61	31.753
522.95	32.384
523.29	31.449
523.64	32.211
523.98	32.080
524.32	31.186
524.66	31.882
525.01	32.532
525.35	32.404
525.69	31.582
526.04	31.680
526.38	33.528
526.72	32.505
527.06	32.555
527.41	32.916
527.75	31.769
528.09	32.159
528.43	33.153
528.78	31.749
529.12	32.129
529.46	31.904
529.80	31.856
530.15	33.069
530.49	31.178
530.83	32.900
531.17	32.371
531.51	32.763
531.86	31.543
532.20	31.872
532.54	33.152
532.88	32.786
533.22	32.728
533.57	32.438
533.91	31.201
534.25	32.487
534.59	31.495
534.93	31.529
535.27	31.091
535.62	31.173
535.96	33.333
536.30	33.179
536.64	32.667
536.98	31.568
537.32	32.930
537.66	32.679
538.01	33.077
538.35	32.663
538.69	32.756
539.03	31.784
539.37	32.974
539.71	31.970
540.05	31.840
540.39	33.310
540.73	33.612
541.07	32.044
541.42	32.325
541.76	32.897
542.10	32.347
542.44	33.426
542.78	31.521
543.12	30.357
543.46	32.615
543.80	33.518
544.14	30.841
544.48	32.512
544.82	32.468
545.16	32.514
545.50	31.842
545.84	33.003
546.18	32.837
546.52	32.372
546.86	32.638
547.20	33.476
547.54	31.378
547.88	32.201
548.22	32.347
548.56	31.464
548.90	31.806
549.24	32.438
549.58	32.934
549.92	31.737
550.26	32.454
550.60	33.011
550.94	32.786
551.28	32.998
551.62	33.769
551.96	31.805
552.30	33.260
552.64	31.664
552.98	31.575
553.32	32.097
553.66	32.946
554.00	32.555
554.34	32.570
554.68	32.080
555.02	32.068
555.36	33.657
555.69	31.282
556.03	32.263
556.37	32.456
556.71	32.708
557.05	33.259
557.39	32.119
557.73	33.883
558.07	33.937
558.41	33.767
558.75	33.593
559.08	33.964
559.42	32.698
559.76	34.347
560.10	32.951
560.44	32.688
560.78	32.308
561.12	33.427
561.45	33.872
561.79	32.913
562.13	32.221
562.47	33.022
562.81	32.061
563.15	32.581
563.48	32.603
563.82	32.670
564.16	32.242
564.50	31.824
564.84	32.932
565.17	31.925
565.51	33.128
565.85	32.442
566.19	32.958
566.52	32.842
566.86	34.383
567.20	31.818
567.54	32.968
567.88	32.396
568.21	32.692
568.55	31.793
568.89	32.187
569.23	30.958
569.56	31.042
569.90	31.344
570.24	30.368
570.57	30.036
570.91	30.533
571.25	29.628
571.59	29.928
571.92	29.156
572.26	28.653
572.60	29.023
572.93	29.150
573.27	29.091
573.61	29.206
573.95	29.219
574.28	27.860
574.62	28.324
574.96	28.148
575.29	28.269
575.63	27.261
575.97	28.490
576.30	28.479
576.64	28.238
576.98	29.086
577.31	28.361
577.65	28.784
577.98	28.381
578.32	27.883
578.66	27.552
578.99	28.100
579.33	27.979
579.67	28.110
580.00	28.911
580.34	28.383
580.67	27.967
581.01	28.386
581.35	27.692
581.68	28.105
582.02	27.730
582.35	27.335
582.69	28.009
583.02	28.455
583.36	28.767
583.70	29.206
584.03	29.413
584.37	29.588
584.70	29.121
585.04	28.446
585.37	28.526
585.71	29.030
586.04	27.837
586.38	28.994
586.72	29.010
587.05	29.723
587.39	29.382
587.72	29.142
588.06	29.228
588.39	29.052
588.73	29.243
589.06	29.680
589.40	29.865
589.73	30.230
590.07	30.891
590.40	30.341
590.73	31.343
591.07	30.322
591.40	30.766
591.74	31.312
592.07	30.612
592.41	30.830
592.74	30.028
593.08	28.851
593.41	30.016
593.75	29.539
594.08	29.111
594.41	29.876
594.75	29.771
595.08	30.042
595.42	29.702
595.75	30.004
596.09	29.984
596.42	30.591
596.75	30.462
597.09	31.071
597.42	30.352
597.75	31.562
598.09	30.376
598.42	30.190
598.76	30.073
599.09	29.888
599.42	29.708
599.76	29.007
600.09	28.733
600.42	29.719
600.76	29.346
601.09	29.656
601.42	28.907
601.76	30.052
602.09	30.116
602.42	30.666
602.76	30.857
603.09	31.520
603.42	30.978
603.76	30.081
604.09	30.782
604.42	31.007
604.76	30.797
605.09	30.850
605.42	31.196
605.75	30.342
606.09	30.743
606.42	31.109
606.75	29.957
607.09	30.813
607.42	30.660
607.75	30.107
608.08	30.593
608.42	30.745
608.75	31.325
609.08	31.440
609.41	31.015
609.75	30.746
610.08	31.553
610.41	30.580
610.74	30.619
611.07	31.525
611.41	30.877
611.74	31.290
612.07	31.317
612.40	32.221
612.73	31.243
613.07	31.609
613.40	31.947
613.73	30.834
614.06	31.831
614.39	31.641
614.72	31.261
615.06	31.676
615.39	30.459
615.72	30.517
616.05	32.514
616.38	30.199
616.71	31.560
617.05	32.613
617.38	32.181
617.71	33.082
618.04	33.587
618.37	33.039
618.70	32.541
619.03	33.403
619.36	33.575
619.69	34.193
620.03	34.186
620.36	34.406
620.69	33.619
621.02	33.563
621.35	34.523
621.68	34.014
622.01	33.667
622.34	34.477
622.67	33.517
623.00	34.074
623.33	33.765
623.66	33.957
623.99	33.737
624.32	34.525
624.65	33.233
624.99	34.913
625.32	33.510
625.65	36.449
625.98	34.649
626.31	34.081
626.64	35.182
626.97	35.689
627.30	35.289
627.63	35.702
627.96	35.490
628.29	35.430
628.62	35.398
628.95	36.673
629.28	35.988
629.61	35.194
629.94	36.950
630.26	35.968
630.59	38.189
630.92	36.821
631.25	35.897
631.58	36.344
631.91	38.377
632.24	38.417
632.57	36.818
632.90	37.129
633.23	38.235
633.56	39.673
633.89	37.731
634.22	40.247
634.55	39.771
634.88	38.570
635.20	37.308
635.53	39.200
635.86	39.272
636.19	40.103
636.52	38.138
636.85	38.586
637.18	38.616
637.51	39.623
637.83	40.079
638.16	41.337
638.49	39.373
638.82	39.737
639.15	39.349
639.48	40.440
639.81	39.331
640.13	37.807
640.46	41.691
640.79	39.175
641.12	40.916
641.45	39.489
641.77	39.704
642.10	45.024
642.43	38.424
642.76	39.604
643.09	41.195
643.41	40.129
643.74	41.845
644.07	41.872
644.40	41.554
644.73	41.856
645.05	39.262
645.38	43.034
645.71	42.376
646.04	43.268
646.36	41.312
646.69	43.165
647.02	44.423
647.35	43.657
647.67	41.499
648.00	45.149
648.33	40.614
648.66	39.831
648.98	39.531
649.31	39.504
649.64	38.462
649.96	41.167
650.29	41.397
650.62	40.684
650.94	42.593
651.27	43.575
651.60	42.342
651.92	40.385
652.25	38.899
652.58	39.167
652.90	38.765
653.23	41.513
653.56	39.425
653.88	41.581
654.21	35.902
654.54	39.559
654.86	43.124
655.19	36.842
655.52	35.217
655.84	28.222
656.17	30.818
656.49	41.448
656.82	43.390
657.15	33.663
657.47	25.322
657.80	18.908
658.13	18.895
658.45	29.620
658.78	30.237
659.10	30.499
659.43	31.465
659.75	33.695
660.08	34.138
660.41	36.874
660.73	38.398
661.06	40.728
661.38	39.922
661.71	39.425
662.03	45.494
662.36	39.560
662.68	42.699
663.01	43.450
663.33	42.923
663.66	45.116
663.98	40.930
664.31	43.070
664.63	44.700
664.96	39.565
665.28	40.839
665.61	41.126
665.93	40.435
666.26	43.818
666.58	42.282
666.91	43.529
667.23	43.868
667.56	42.891
667.88	41.966
668.21	44.630
668.53	44.444
668.86	42.925
669.18	40.094
669.50	41.162
669.83	41.860
670.15	43.124
670.48	43.062
670.80	41.935
671.13	39.821
671.45	39.954
671.77	41.202
672.10	40.594
672.42	41.199
672.75	41.030
673.07	41.145
673.39	40.000
673.72	37.081
674.04	42.500
674.37	43.220
674.69	41.970
675.01	40.667
675.34	42.117
675.66	44.907
675.98	45.011
676.31	40.826
676.63	43.705
676.95	40.227
677.28	43.765
677.60	46.024
677.92	41.055
678.25	43.764
678.57	40.260
678.89	40.336
679.22	46.085
679.54	38.554
679.86	39.364
680.18	39.612
680.51	39.394
680.83	40.358
681.15	41.000
681.48	41.803
681.80	41.529
682.12	44.153
682.44	42.678
682.77	42.826
683.09	37.300
683.41	38.409
683.73	39.171
684.06	42.035
684.38	40.860
684.70	40.959
685.02	38.174
685.34	38.340
685.67	37.148
685.99	39.060
686.31	39.823
686.63	37.848
686.96	38.593
687.28	38.586
687.60	40.494
687.92	43.030
688.24	39.113
688.56	40.830
688.89	40.179
689.21	40.222
689.53	39.675
689.85	41.395
690.17	40.402
690.49	39.716
690.82	40.534
691.14	39.762
691.46	40.421
691.78	41.892
692.10	40.860
692.42	39.827
692.74	39.957
693.06	39.414
693.39	39.140
693.71	37.783
694.03	38.799
694.35	43.692
694.67	41.414
694.99	42.037
695.31	44.386
695.63	41.500
695.95	42.172
696.27	41.451
696.59	41.389
696.91	42.297
697.23	41.131
697.56	41.337
697.88	38.710
698.20	39.180
698.52	42.824
698.84	36.842
699.16	39.000
699.48	41.103
699.80	43.176
700.12	43.127
700.44	44.818
700.76	41.860
701.08	41.818
701.40	43.072
701.72	47.222
702.04	45.545
702.36	47.157
702.68	42.943
703.00	42.424
703.32	37.830
703.64	35.876
703.96	42.029
704.28	42.638
704.60	45.397
704.91	42.271
705.23	40.532
705.55	53.004
705.87	46.570
706.19	46.296
706.51	44.674
706.83	44.373
707.15	40.498
707.47	40.056
707.79	37.760
708.11	40.750
708.43	38.000
708.74	40.568
709.06	46.479
709.38	42.508
709.70	43.491
710.02	44.268
710.34	40.557
710.66	40.064
710.98	48.344
711.29	49.508
711.61	44.068
711.93	46.906
712.25	48.454
712.57	43.223
712.89	40.672
713.20	46.021
713.52	46.341
713.84	44.369
714.16	43.643
714.48	42.581
714.80	46.795
715.11	39.818
715.43	41.066
715.75	45.667
716.07	38.206
716.39	39.262
716.70	42.804
717.02	42.366
717.34	46.964
717.66	48.230
717.97	43.478
718.29	43.096
718.61	46.850
718.93	42.248
719.24	42.586
719.56	44.177
719.88	42.268
720.20	40.152
720.51	43.295
720.83	47.490
721.15	48.739
721.46	46.371
721.78	43.874
722.10	41.264
722.42	39.834
722.73	44.082
723.05	46.531
723.37	51.271
723.68	52.252
724.00	46.581
724.32	39.556
724.63	42.727
724.95	48.472
725.27	42.857
725.58	44.068
725.90	42.063
726.22	49.807
726.53	42.712
726.85	41.573
727.16	45.660
727.48	39.271
727.80	47.773
728.11	45.763
728.43	44.706
728.74	40.323
729.06	44.400
729.38	47.368
729.69	45.020
730.01	38.462
730.32	43.284
730.64	39.223
730.96	43.019
731.27	41.333
731.59	40.339
731.90	38.535
732.22	43.533
732.53	40.532
732.85	42.199
733.16	42.761
733.48	42.806
733.80	40.942
734.11	40.339
734.43	41.237
734.74	40.303
735.06	37.134
735.37	38.671
735.69	44.108
736.00	41.812
736.32	39.933
736.63	42.958
736.95	43.345
737.26	37.367
737.58	38.926
737.89	39.560
738.21	46.617
738.52	41.564
738.83	41.921
739.15	43.668
739.46	44.094
739.78	40.659
740.09	37.908
740.41	43.841
740.72	40.157
741.04	45.749
741.35	42.979
741.66	36.967
741.98	46.939
742.29	47.525
742.61	43.979
742.92	45.024
743.23	31.481
743.55	45.701
743.86	49.761
744.18	43.541
744.49	48.936
744.80	39.674
745.12	51.337
745.43	43.902
745.74	47.917
746.06	44.878
746.37	45.026
746.68	44.550
747.00	40.426
747.31	51.741
747.62	39.806
747.94	43.541
748.25	40.594
748.56	53.552
748.88	51.832
749.19	52.128
749.50	51.232
749.82	39.151
750.13	43.119
750.44	40.602
750.75	43.284
751.07	47.445
751.38	42.529
751.69	38.039
752.01	40.310
752.32	43.028
752.63	37.549
752.94	40.948
753.26	48.954
753.57	44.344
753.88	45.133
754.19	42.083
754.51	42.562
754.82	37.247
755.13	49.583
755.44	43.548
755.75	46.484
756.07	39.300
756.38	39.245
756.69	40.613
757.00	40.667
757.31	39.542
757.63	35.976
757.94	35.833
758.25	33.425
758.56	36.436
758.87	35.127
759.18	36.760
759.50	41.455
759.81	41.137
760.12	41.935
760.43	38.485
760.74	40.123
761.05	43.077
761.36	36.932
761.67	40.909
761.99	46.599
762.30	35.636
762.61	40.711
762.92	43.891
763.23	41.892
763.54	41.121
763.85	40.678
764.16	40.249
764.47	37.500
764.78	36.996
765.10	38.047
765.41	39.432
765.72	40.952
766.03	37.970
766.34	40.146
766.65	39.841
766.96	45.960
767.27	41.489
767.58	39.655
767.89	52.482
768.20	40.909
768.51	48.352
768.82	37.438
769.13	37.327
769.44	36.052
769.75	34.247
770.06	39.655
770.37	43.269
770.68	40.102
770.99	39.367
771.30	39.216
771.61	40.271
771.92	42.672
772.23	41.379
772.54	43.548
772.85	43.210
773.16	43.820
773.47	48.366
773.78	45.098
774.09	41.317
774.39	34.667
774.70	30.573
775.01	46.897
775.32	45.000
775.63	43.802
775.94	46.565
776.25	43.307
776.56	42.500
776.87	53.846
777.18	46.154
777.48	44.828
777.79	40.000
778.10	44.762
778.41	54.054
778.72	50.000
779.03	39.850
779.34	43.972
779.65	41.781
779.95	45.205
780.26	48.966
780.57	49.593
780.88	41.732
781.19	55.172
781.50	44.961
781.80	37.278
782.11	39.623
782.42	39.231
782.73	44.604
783.04	37.778
783.34	35.417
783.65	30.769
783.96	50.000
784.27	46.897
784.57	46.341
784.88	38.281
785.19	47.000
785.50	51.000
785.81	37.931
786.11	53.448
786.42	50.485
786.73	52.727
787.04	46.939
787.34	45.536
787.65	47.619
787.96	44.248
788.26	47.273
788.57	40.171
788.88	41.406
789.19	35.714
789.49	31.304
789.80	35.714
790.11	38.384
790.41	36.364
790.72	60.870
791.03	47.727
791.33	56.250
791.64	43.750
791.95	44.186
792.25	37.234
792.56	44.944
792.87	42.466
793.17	34.783
793.48	36.000
793.79	35.000
794.09	53.750
794.40	37.736
794.70	37.864
795.01	33.333
795.32	32.479
795.62	41.905
795.93	41.176
796.23	42.453
796.54	54.167
796.85	50.000
797.15	50.704
797.46	58.333
797.76	50.000
798.07	32.558
798.37	43.421
798.68	36.364
798.99	46.914
799.29	58.571
799.60	34.783
799.90	49.333
800.21	55.738
800.51	49.231
800.82	50.847
801.12	34.783
801.43	32.787
801.73	65.079
802.04	42.000
802.34	43.284
802.65	55.769
802.95	33.929
803.26	34.615
803.56	56.863
803.87	41.304
804.17	65.333
804.48	55.556
804.78	50.000
805.09	63.043
805.39	37.778
805.70	59.259
806.00	29.825
806.30	36.620
806.61	41.429
806.91	38.889
807.22	44.737
807.52	42.667
807.83	52.727
808.13	45.833
808.43	58.824
808.74	47.761
809.04	37.288
809.35	53.846
809.65	53.125
809.95	13.514
810.26	34.091
810.56	47.945
810.86	50.000
811.17	38.000
811.47	57.143
811.77	39.474
812.08	61.364
812.38	54.717
812.69	32.500
812.99	57.576
813.29	42.105
813.59	17.143
813.90	22.727
814.20	20.513
814.50	36.538
814.81	56.604
815.11	48.936
815.41	57.627
815.72	30.952
816.02	50.980
816.32	37.500
816.62	56.098
816.93	37.838
817.23	54.286
817.53	47.917
817.84	47.826
818.14	48.077
818.44	23.684
818.74	69.565
819.04	22.500
819.35	32.432
819.65	58.824
819.95	58.333
820.25	16.667
820.56	70.000
820.86	44.828
821.16	60.000
821.46	59.574
821.76	30.000
822.07	27.907
822.37	13.514
822.67	40.625
822.97	64.286
823.27	21.429
823.57	0.000
823.88	3.704
824.18	50.000
824.48	38.235
824.78	51.613
825.08	21.739
825.38	78.788
825.69	62.500
825.99	50.000
826.29	27.778
826.59	113.333
826.89	0.000
827.19	50.000
827.49	32.500
827.79	54.286
828.09	28.571
828.39	54.545
828.70	75.676
829.00	32.143
829.30	42.857
829.60	50.000
829.90	59.375
830.20	44.737
830.50	74.074
830.80	4.348
831.10	40.909
831.40	66.667
831.70	58.065
832.00	47.619
832.30	9.524
832.60	83.333
832.90	13.793
833.20	20.000
833.50	39.394
833.80	44.444
834.10	57.692
834.40	31.250
834.70	33.333
835.00	21.053
835.30	96.154
835.60	100.000
835.90	54.839
836.20	59.091
836.50	67.857
836.80	38.462
837.10	60.714
837.40	166.667
837.70	45.455
838.00	63.636
838.30	17.391
838.60	7.692
838.90	45.455
839.19	46.429
839.49	33.333
839.79	38.462
840.09	75.000
840.39	71.429
840.69	3.571
840.99	0.000
841.29	31.579
841.59	-30.000
841.88	90.909
842.18	30.000
842.48	31.250
842.78	53.333
843.08	22.222
843.38	60.000
843.68	73.913
843.97	146.667
844.27	-6.667
844.57	70.000
844.87	33.333
845.17	-23.810
845.47	66.667
845.76	19.048
846.06	17.647
846.36	-40.000
846.66	50.000
846.96	66.667
847.25	62.500
847.55	92.857
847.85	-75.000
848.15	50.000
848.44	-266.667
848.74	65.000
849.04	37.037
849.34	127.273
849.63	66.667
849.93	-200.000
850.23	5.556
850.53	100.000
850.82	46.154
851.12	66.667
851.42	73.333
851.71	23.077
852.01	85.714
852.31	25.000
852.61	-9.091
852.90	30.000
853.20	52.632
853.50	66.667
853.79	60.870
854.09	45.833
854.39	42.105
854.68	58.333
854.98	25.806
855.28	65.385
855.57	30.000
855.87	66.667
856.17	77.778
856.46	50.000
856.76	-6.667
857.05	222.222
857.35	60.000
857.65	33.333
857.94	38.462
858.24	72.414
858.53	55.556
858.83	29.630
859.13	9.091
859.42	0.000
859.72	0.000
860.01	-33.333
860.31	16.000
860.60	23.810
860.90	66.667
861.20	-6.667
861.49	0.000
861.79	-13.333
862.08	15.000
862.38	126.667
862.67	-40.000
862.97	33.333
863.26	25.000
863.56	16.667
863.85	-133.333
864.15	55.556
864.44	70.000
864.74	78.571
865.03	-25.000
865.33	160.000
865.62	66.667
865.92	33.333
866.21	-83.333
866.51	81.250
866.80	-54.545
867.10	-50.000
867.39	125.000
867.69	0.000
867.98	7.692
868.27	-66.667
868.57	33.333
868.86	94.444
869.16	30.769
869.45	66.667
869.75	-700.000
870.04	0.000
870.33	14.286
870.63	23.810
870.92	200.000
871.22	-40.000
871.51	100.000
871.80	55.556
872.10	-33.333
>>>>>End Processed Spectral Data<<<<<
