SpectraSuite Data File
++++++++++++++++++++++++++++++++++++
Date: Fri May 15 17:32:52 PDT 2015
User: schluterlab
Dark Spectrum Present: Yes
Reference Spectrum Present: Yes
Number of Sampled Component Spectra: 1
Spectrometers: USB2E3373
Integration Time (usec): 3000 (USB2E3373)
Spectra Averaged: 3 (USB2E3373)
Boxcar Smoothing: 0 (USB2E3373)
Correct for Electrical Dark: No (USB2E3373)
Strobe/Lamp Enabled: No (USB2E3373)
Correct for Detector Non-linearity: No (USB2E3373)
Correct for Stray Light: No (USB2E3373)
Number of Pixels in Processed Spectrum: 2048
>>>>>Begin Processed Spectral Data<<<<<
178.53	0.000
178.91	0.000
179.29	-25.000
179.67	-350.000
180.04	71.429
180.42	250.000
180.80	-400.000
181.18	-66.667
181.56	550.000
181.94	150.000
182.31	200.000
182.69	-20.000
183.07	-333.333
183.45	0.000
183.83	100.000
184.20	27.273
184.58	88.889
184.96	275.000
185.34	-166.667
185.72	-200.000
186.09	107.692
186.47	-600.000
186.85	-16.667
187.23	44.444
187.61	-600.000
187.98	-33.333
188.36	44.444
188.74	-333.333
189.12	58.824
189.49	-5.556
189.87	0.000
190.25	85.714
190.63	550.000
191.00	133.333
191.38	47.368
191.76	400.000
192.14	-0.000
192.51	-250.000
192.89	0.000
193.27	71.429
193.65	33.333
194.02	163.636
194.40	70.000
194.78	-12.500
195.15	75.000
195.53	-100.000
195.91	200.000
196.29	-25.000
196.66	92.308
197.04	-42.857
197.42	-11.111
197.79	-333.333
198.17	-92.308
198.55	500.000
198.92	-100.000
199.30	600.000
199.68	-20.000
200.05	-433.333
200.43	0.000
200.81	66.667
201.18	166.667
201.56	1000.000
201.94	-500.000
202.31	-100.000
202.69	0.000
203.07	125.000
203.44	300.000
203.82	0.000
204.19	71.429
204.57	-700.000
204.95	150.000
205.32	110.000
205.70	100.000
206.08	100.000
206.45	277.778
206.83	57.143
207.20	100.000
207.58	-400.000
207.96	-66.667
208.33	-60.000
208.71	50.000
209.08	-16.667
209.46	-800.000
209.84	-40.000
210.21	-500.000
210.59	142.857
210.96	16.667
211.34	-25.000
211.71	60.000
212.09	-71.429
212.46	-1000.000
212.84	0.000
213.22	100.000
213.59	150.000
213.97	15.385
214.34	100.000
214.72	133.333
215.09	75.000
215.47	0.000
215.84	36.364
216.22	33.333
216.59	-37.500
216.97	300.000
217.34	225.000
217.72	-100.000
218.09	50.000
218.47	137.500
218.84	300.000
219.22	122.222
219.59	140.000
219.97	-33.333
220.34	-0.000
220.72	28.571
221.09	-25.000
221.47	-100.000
221.84	-400.000
222.22	-450.000
222.59	81.818
222.97	108.333
223.34	-100.000
223.72	64.286
224.09	28.571
224.46	35.714
224.84	200.000
225.21	30.000
225.59	73.333
225.96	100.000
226.34	25.000
226.71	-100.000
227.08	116.667
227.46	100.000
227.83	-350.000
228.21	177.778
228.58	63.636
228.95	-37.500
229.33	10.000
229.70	6.250
230.08	-125.000
230.45	114.286
230.82	171.429
231.20	-26.667
231.57	71.429
231.95	100.000
232.32	10.000
232.69	42.857
233.07	233.333
233.44	60.000
233.81	70.000
234.19	55.556
234.56	0.000
234.93	-50.000
235.31	150.000
235.68	0.000
236.05	107.692
236.43	-15.000
236.80	70.588
237.17	37.500
237.55	25.000
237.92	25.926
238.29	72.222
238.67	33.333
239.04	29.412
239.41	26.829
239.79	50.000
240.16	26.829
240.53	44.737
240.91	58.696
241.28	38.095
241.65	69.643
242.02	54.795
242.40	61.667
242.77	42.373
243.14	45.455
243.51	58.750
243.89	63.218
244.26	36.782
244.63	51.190
245.00	52.577
245.38	54.639
245.75	52.809
246.12	48.276
246.49	42.149
246.87	49.038
247.24	49.580
247.61	46.491
247.98	47.154
248.36	43.750
248.73	56.579
249.10	51.299
249.47	51.266
249.84	56.209
250.22	55.294
250.59	55.556
250.96	52.113
251.33	45.349
251.70	55.294
252.08	53.807
252.45	51.485
252.82	54.271
253.19	55.760
253.56	46.729
253.94	50.000
254.31	50.435
254.68	52.193
255.05	51.181
255.42	53.712
255.79	47.876
256.16	52.918
256.54	47.388
256.91	47.148
257.28	50.929
257.65	50.562
258.02	49.645
258.39	53.535
258.76	58.242
259.14	48.505
259.51	42.718
259.88	53.608
260.25	54.248
260.62	52.431
260.99	51.186
261.36	49.658
261.73	52.532
262.10	48.936
262.47	50.000
262.85	53.292
263.22	49.846
263.59	50.779
263.96	53.416
264.33	48.485
264.70	51.786
265.07	50.595
265.44	47.592
265.81	51.695
266.18	53.005
266.55	48.843
266.92	47.927
267.29	52.742
267.66	47.826
268.03	52.356
268.40	46.736
268.77	54.011
269.14	47.962
269.51	50.643
269.88	46.633
270.25	48.980
270.62	50.976
270.99	48.849
271.36	48.900
271.73	50.000
272.10	50.608
272.47	50.827
272.84	48.267
273.21	50.116
273.58	49.157
273.95	49.886
274.32	47.575
274.69	48.190
275.06	49.554
275.43	47.392
275.80	50.993
276.17	49.885
276.54	44.325
276.91	49.781
277.28	48.908
277.65	48.760
278.02	46.596
278.39	50.109
278.76	46.751
279.13	44.606
279.50	46.008
279.87	44.276
280.23	49.032
280.60	46.004
280.97	49.293
281.34	46.154
281.71	48.049
282.08	46.830
282.45	46.380
282.82	45.753
283.19	46.228
283.56	45.279
283.92	45.161
284.29	45.769
284.66	43.992
285.03	43.615
285.40	44.612
285.77	43.409
286.14	42.960
286.51	45.941
286.87	42.413
287.24	45.120
287.61	44.268
287.98	43.860
288.35	44.887
288.72	44.483
289.08	42.708
289.45	41.301
289.82	43.881
290.19	42.491
290.56	43.225
290.93	41.246
291.29	38.521
291.66	41.575
292.03	40.670
292.40	39.677
292.77	38.915
293.13	37.662
293.50	35.812
293.87	38.321
294.24	38.640
294.60	37.705
294.97	37.351
295.34	36.963
295.71	35.618
296.08	35.127
296.44	35.420
296.81	34.444
297.18	37.681
297.55	37.398
297.91	35.890
298.28	35.620
298.65	33.650
299.02	34.097
299.38	31.190
299.75	33.793
300.12	31.806
300.48	32.675
300.85	33.967
301.22	32.987
301.59	34.211
301.95	33.544
302.32	33.852
302.69	32.836
303.05	31.807
303.42	31.382
303.79	32.593
304.15	32.975
304.52	30.797
304.89	30.175
305.25	29.782
305.62	30.105
305.99	29.825
306.35	30.058
306.72	30.146
307.09	29.647
307.45	31.688
307.82	30.440
308.19	31.243
308.55	30.425
308.92	30.065
309.29	31.844
309.65	31.216
310.02	30.033
310.38	30.406
310.75	31.148
311.12	30.893
311.48	29.586
311.85	29.529
312.22	29.325
312.58	28.981
312.95	28.175
313.31	28.468
313.68	30.157
314.05	28.061
314.41	30.412
314.78	28.144
315.14	30.627
315.51	28.675
315.87	28.791
316.24	32.255
316.61	28.839
316.97	28.968
317.34	29.980
317.70	28.776
318.07	28.942
318.43	28.824
318.80	28.693
319.16	29.785
319.53	29.060
319.89	28.740
320.26	29.049
320.62	29.689
320.99	28.497
321.35	28.469
321.72	29.387
322.08	29.204
322.45	30.051
322.81	28.389
323.18	29.441
323.54	28.378
323.91	28.140
324.27	28.906
324.64	28.277
325.00	29.380
325.37	29.385
325.73	26.927
326.10	27.884
326.46	28.610
326.83	28.171
327.19	28.073
327.56	29.626
327.92	29.313
328.29	27.857
328.65	29.717
329.01	28.401
329.38	28.756
329.74	28.329
330.11	27.062
330.47	27.644
330.84	27.308
331.20	28.422
331.56	26.019
331.93	29.315
332.29	27.956
332.66	27.602
333.02	27.230
333.38	26.214
333.75	28.297
334.11	28.201
334.48	27.471
334.84	28.663
335.20	27.905
335.57	28.196
335.93	26.829
336.29	27.901
336.66	28.520
337.02	26.952
337.38	27.222
337.75	27.727
338.11	26.781
338.47	27.828
338.84	27.079
339.20	26.051
339.56	27.064
339.93	27.574
340.29	26.147
340.65	27.061
341.02	27.482
341.38	27.434
341.74	25.707
342.11	24.870
342.47	25.356
342.83	27.163
343.20	26.829
343.56	27.217
343.92	26.484
344.28	27.412
344.65	27.202
345.01	25.843
345.37	26.493
345.73	26.695
346.10	26.747
346.46	27.670
346.82	25.041
347.19	25.187
347.55	26.399
347.91	26.699
348.27	25.869
348.63	26.320
349.00	25.185
349.36	25.935
349.72	26.036
350.08	26.148
350.45	25.459
350.81	25.415
351.17	25.977
351.53	24.980
351.89	25.186
352.26	25.840
352.62	25.484
352.98	24.177
353.34	24.235
353.70	25.485
354.07	25.403
354.43	25.220
354.79	25.103
355.15	26.349
355.51	25.237
355.87	25.000
356.24	24.715
356.60	25.707
356.96	25.873
357.32	25.000
357.68	24.550
358.04	25.767
358.40	24.759
358.77	25.359
359.13	25.300
359.49	24.730
359.85	24.493
360.21	24.402
360.57	25.631
360.93	24.660
361.29	24.169
361.66	24.765
362.02	26.288
362.38	24.067
362.74	24.830
363.10	25.207
363.46	25.204
363.82	25.695
364.18	23.616
364.54	24.485
364.90	24.875
365.26	24.964
365.62	25.328
365.98	23.021
366.35	24.472
366.71	24.908
367.07	25.181
367.43	23.940
367.79	24.099
368.15	23.977
368.51	24.181
368.87	24.264
369.23	23.682
369.59	23.907
369.95	24.267
370.31	24.350
370.67	24.403
371.03	24.272
371.39	23.632
371.75	23.297
372.11	23.395
372.47	25.074
372.83	24.982
373.19	23.966
373.55	23.610
373.91	23.758
374.27	25.443
374.63	25.054
374.99	24.326
375.35	23.955
375.71	23.287
376.07	24.719
376.42	24.014
376.78	24.295
377.14	23.426
377.50	23.772
377.86	24.431
378.22	24.314
378.58	24.808
378.94	23.440
379.30	23.893
379.66	24.263
380.02	23.605
380.38	23.494
380.74	24.297
381.09	25.092
381.45	24.465
381.81	23.998
382.17	24.937
382.53	23.111
382.89	23.854
383.25	24.642
383.61	24.207
383.97	23.238
384.32	23.890
384.68	22.663
385.04	23.284
385.40	22.900
385.76	25.031
386.12	24.580
386.48	24.777
386.83	24.604
387.19	24.054
387.55	24.780
387.91	24.939
388.27	24.359
388.62	24.166
388.98	24.125
389.34	24.297
389.70	24.860
390.06	24.229
390.42	24.676
390.77	24.330
391.13	23.518
391.49	23.545
391.85	24.496
392.20	24.733
392.56	24.984
392.92	25.250
393.28	24.469
393.64	24.685
393.99	25.016
394.35	24.478
394.71	24.904
395.07	24.827
395.42	24.469
395.78	24.300
396.14	24.968
396.50	24.921
396.85	24.598
397.21	25.125
397.57	24.639
397.92	24.326
398.28	25.000
398.64	23.976
399.00	24.718
399.35	23.251
399.71	24.411
400.07	25.151
400.42	24.602
400.78	24.923
401.14	24.743
401.49	24.598
401.85	24.680
402.21	24.819
402.57	25.188
402.92	24.529
403.28	25.376
403.63	24.905
403.99	25.128
404.35	24.922
404.70	24.643
405.06	24.089
405.42	24.549
405.77	24.056
406.13	24.913
406.49	24.275
406.84	25.122
407.20	24.925
407.55	25.177
407.91	24.532
408.27	24.665
408.62	25.169
408.98	24.214
409.34	25.527
409.69	25.065
410.05	24.754
410.40	25.185
410.76	25.090
411.11	25.187
411.47	24.918
411.83	24.733
412.18	24.968
412.54	24.969
412.89	24.507
413.25	25.090
413.60	24.720
413.96	25.337
414.31	24.756
414.67	25.016
415.03	24.434
415.38	25.261
415.74	25.798
416.09	25.343
416.45	25.118
416.80	25.116
417.16	24.931
417.51	26.649
417.87	24.576
418.22	25.000
418.58	26.087
418.93	26.646
419.29	23.944
419.64	24.757
420.00	26.071
420.35	25.075
420.71	25.638
421.06	25.414
421.42	25.661
421.77	25.202
422.12	24.915
422.48	25.338
422.83	25.406
423.19	25.451
423.54	24.927
423.90	25.442
424.25	26.005
424.61	25.826
424.96	25.494
425.31	26.228
425.67	26.467
426.02	25.324
426.38	26.111
426.73	25.605
427.09	26.266
427.44	26.235
427.79	26.164
428.15	26.396
428.50	25.863
428.85	24.877
429.21	26.825
429.56	26.739
429.92	26.040
430.27	25.464
430.62	25.405
430.98	25.796
431.33	26.078
431.68	26.060
432.04	25.433
432.39	25.157
432.74	24.654
433.10	26.667
433.45	25.448
433.80	27.104
434.16	25.319
434.51	25.699
434.86	26.249
435.22	26.865
435.57	26.138
435.92	26.228
436.28	26.118
436.63	26.412
436.98	26.304
437.34	25.892
437.69	27.013
438.04	26.667
438.39	25.412
438.75	26.655
439.10	25.976
439.45	27.024
439.81	26.422
440.16	26.366
440.51	26.030
440.86	27.372
441.22	26.640
441.57	26.490
441.92	26.863
442.27	26.829
442.63	26.767
442.98	27.226
443.33	26.043
443.68	27.162
444.03	26.776
444.39	26.365
444.74	27.090
445.09	26.169
445.44	26.154
445.79	26.663
446.15	25.881
446.50	25.901
446.85	26.567
447.20	26.642
447.55	28.181
447.91	25.719
448.26	26.978
448.61	26.540
448.96	26.162
449.31	27.225
449.66	26.945
450.02	26.754
450.37	26.675
450.72	26.976
451.07	27.152
451.42	27.403
451.77	28.451
452.12	26.495
452.47	26.851
452.83	26.796
453.18	26.945
453.53	27.876
453.88	27.140
454.23	26.921
454.58	27.267
454.93	27.899
455.28	25.968
455.63	26.844
455.98	27.420
456.34	27.586
456.69	26.366
457.04	27.725
457.39	26.974
457.74	27.267
458.09	26.722
458.44	27.618
458.79	26.611
459.14	28.318
459.49	26.746
459.84	27.411
460.19	26.335
460.54	27.078
460.89	27.102
461.24	27.640
461.59	27.672
461.94	26.415
462.29	27.503
462.64	27.774
462.99	28.436
463.34	27.260
463.69	26.384
464.04	26.877
464.39	27.289
464.74	27.055
465.09	28.072
465.44	27.755
465.79	26.814
466.14	27.024
466.49	26.337
466.84	26.591
467.19	27.597
467.54	27.395
467.89	27.669
468.24	27.311
468.59	27.810
468.94	27.619
469.29	28.525
469.64	27.888
469.99	28.381
470.34	26.553
470.68	28.934
471.03	29.229
471.38	27.817
471.73	28.011
472.08	27.476
472.43	27.450
472.78	27.210
473.13	27.823
473.48	27.296
473.83	27.584
474.17	27.591
474.52	27.632
474.87	27.455
475.22	28.737
475.57	26.200
475.92	28.250
476.27	27.939
476.61	27.662
476.96	27.050
477.31	27.474
477.66	27.472
478.01	28.018
478.36	27.342
478.70	28.004
479.05	28.297
479.40	28.776
479.75	27.372
480.10	27.752
480.45	27.450
480.79	28.701
481.14	28.125
481.49	27.685
481.84	28.330
482.19	27.643
482.53	27.914
482.88	27.971
483.23	28.263
483.58	27.594
483.92	28.170
484.27	27.894
484.62	27.790
484.97	27.653
485.31	27.493
485.66	26.249
486.01	25.751
486.36	25.338
486.70	25.604
487.05	26.134
487.40	26.215
487.75	26.930
488.09	27.163
488.44	27.613
488.79	27.269
489.13	28.245
489.48	28.388
489.83	27.713
490.17	27.596
490.52	28.176
490.87	27.025
491.22	28.510
491.56	27.941
491.91	27.820
492.26	28.099
492.60	29.079
492.95	27.988
493.30	27.553
493.64	29.322
493.99	29.034
494.34	28.350
494.68	28.190
495.03	28.467
495.37	29.244
495.72	28.521
496.07	29.024
496.41	27.736
496.76	28.052
497.11	28.086
497.45	28.401
497.80	28.910
498.14	28.018
498.49	29.050
498.84	28.643
499.18	28.514
499.53	28.869
499.87	27.675
500.22	28.932
500.56	29.349
500.91	28.916
501.26	28.473
501.60	28.578
501.95	28.481
502.29	28.717
502.64	28.378
502.98	28.022
503.33	28.434
503.67	29.639
504.02	28.690
504.36	28.946
504.71	28.586
505.06	28.686
505.40	29.239
505.75	28.351
506.09	28.485
506.44	28.901
506.78	28.673
507.13	28.956
507.47	28.877
507.82	28.846
508.16	29.371
508.51	28.961
508.85	29.252
509.19	28.366
509.54	28.901
509.88	28.803
510.23	29.532
510.57	29.449
510.92	28.038
511.26	29.460
511.61	29.428
511.95	29.425
512.30	29.656
512.64	28.826
512.98	28.579
513.33	29.379
513.67	28.880
514.02	31.121
514.36	30.571
514.70	30.420
515.05	30.435
515.39	29.752
515.74	31.078
516.08	30.544
516.42	30.212
516.77	30.720
517.11	30.801
517.46	31.239
517.80	31.168
518.14	29.822
518.49	30.108
518.83	31.106
519.17	28.927
519.52	30.491
519.86	29.772
520.20	30.194
520.55	30.144
520.89	31.556
521.23	30.462
521.58	30.726
521.92	31.474
522.26	30.579
522.61	31.169
522.95	32.252
523.29	31.385
523.64	30.432
523.98	31.432
524.32	30.477
524.66	30.986
525.01	31.558
525.35	30.914
525.69	31.448
526.04	30.886
526.38	32.101
526.72	30.739
527.06	31.128
527.41	31.596
527.75	30.362
528.09	30.831
528.43	32.005
528.78	30.495
529.12	31.097
529.46	29.240
529.80	31.032
530.15	31.287
530.49	31.717
530.83	32.421
531.17	30.154
531.51	31.943
531.86	31.611
532.20	30.898
532.54	31.586
532.88	32.033
533.22	31.586
533.57	31.258
533.91	29.634
534.25	30.729
534.59	31.302
534.93	30.271
535.27	30.203
535.62	30.006
535.96	30.463
536.30	30.937
536.64	30.462
536.98	31.498
537.32	31.792
537.66	32.048
538.01	31.049
538.35	30.583
538.69	30.360
539.03	30.759
539.37	31.494
539.71	30.948
540.05	30.210
540.39	31.094
540.73	32.078
541.07	32.528
541.42	31.720
541.76	30.764
542.10	30.282
542.44	31.202
542.78	29.732
543.12	30.563
543.46	31.641
543.80	31.783
544.14	30.708
544.48	32.245
544.82	30.417
545.16	31.284
545.50	31.175
545.84	31.161
546.18	31.206
546.52	31.579
546.86	31.129
547.20	30.758
547.54	30.530
547.88	31.046
548.22	30.440
548.56	30.409
548.90	30.323
549.24	30.372
549.58	32.087
549.92	29.878
550.26	31.062
550.60	31.004
550.94	31.516
551.28	31.221
551.62	31.615
551.96	31.429
552.30	32.164
552.64	31.171
552.98	31.364
553.32	31.241
553.66	31.060
554.00	30.584
554.34	30.428
554.68	31.490
555.02	31.473
555.36	31.937
555.69	30.623
556.03	29.764
556.37	31.032
556.71	30.903
557.05	31.842
557.39	31.450
557.73	31.709
558.07	31.976
558.41	31.623
558.75	31.645
559.08	32.861
559.42	31.984
559.76	32.186
560.10	31.728
560.44	31.646
560.78	31.399
561.12	31.312
561.45	32.607
561.79	30.252
562.13	31.441
562.47	31.223
562.81	31.556
563.15	30.677
563.48	30.905
563.82	30.885
564.16	31.407
564.50	30.405
564.84	30.656
565.17	30.382
565.51	30.464
565.85	31.824
566.19	30.769
566.52	31.166
566.86	32.584
567.20	29.390
567.54	30.049
567.88	29.818
568.21	31.165
568.55	30.163
568.89	30.031
569.23	29.995
569.56	28.853
569.90	29.963
570.24	28.359
570.57	28.582
570.91	28.581
571.25	27.261
571.59	27.219
571.92	26.519
572.26	27.506
572.60	27.132
572.93	27.487
573.27	27.649
573.61	27.208
573.95	26.816
574.28	26.986
574.62	26.112
574.96	26.527
575.29	26.754
575.63	26.354
575.97	26.457
576.30	26.792
576.64	26.490
576.98	26.770
577.31	26.812
577.65	26.789
577.98	26.564
578.32	26.152
578.66	26.327
578.99	26.065
579.33	26.080
579.67	26.318
580.00	26.582
580.34	27.040
580.67	26.533
581.01	26.801
581.35	26.357
581.68	26.294
582.02	25.876
582.35	26.202
582.69	26.159
583.02	26.469
583.36	26.686
583.70	27.077
584.03	27.245
584.37	28.035
584.70	27.280
585.04	26.839
585.37	26.486
585.71	26.635
586.04	26.425
586.38	26.594
586.72	27.088
587.05	27.065
587.39	27.230
587.72	27.283
588.06	26.931
588.39	26.944
588.73	27.015
589.06	27.919
589.40	27.860
589.73	27.966
590.07	28.134
590.40	28.599
590.73	28.913
591.07	28.075
591.40	29.519
591.74	28.643
592.07	28.479
592.41	29.108
592.74	28.355
593.08	26.720
593.41	26.919
593.75	26.627
594.08	27.154
594.41	27.547
594.75	26.679
595.08	27.696
595.42	27.236
595.75	27.976
596.09	27.991
596.42	27.656
596.75	28.020
597.09	28.519
597.42	28.907
597.75	27.989
598.09	27.931
598.42	27.933
598.76	27.585
599.09	27.083
599.42	27.473
599.76	27.239
600.09	26.848
600.42	27.597
600.76	27.415
601.09	26.870
601.42	27.184
601.76	27.312
602.09	27.351
602.42	28.475
602.76	28.098
603.09	28.405
603.42	28.303
603.76	26.532
604.09	28.352
604.42	28.130
604.76	28.660
605.09	28.336
605.42	28.713
605.75	27.408
606.09	27.643
606.42	27.815
606.75	28.225
607.09	27.429
607.42	28.135
607.75	27.620
608.08	27.538
608.42	27.410
608.75	28.386
609.08	28.102
609.41	29.086
609.75	27.520
610.08	28.407
610.41	27.391
610.74	28.913
611.07	28.734
611.41	28.957
611.74	28.998
612.07	28.640
612.40	29.212
612.73	29.379
613.07	28.909
613.40	29.540
613.73	29.211
614.06	28.770
614.39	29.160
614.72	28.796
615.06	28.547
615.39	28.876
615.72	28.579
616.05	29.050
616.38	28.376
616.71	30.031
617.05	29.092
617.38	29.227
617.71	29.623
618.04	30.413
618.37	29.067
618.70	30.231
619.03	30.347
619.36	29.450
619.69	31.463
620.03	31.264
620.36	30.329
620.69	30.478
621.02	29.893
621.35	30.788
621.68	32.313
622.01	31.917
622.34	31.604
622.67	31.309
623.00	30.704
623.33	30.488
623.66	30.965
623.99	30.787
624.32	31.179
624.65	30.000
624.99	31.076
625.32	30.402
625.65	32.443
625.98	31.990
626.31	31.505
626.64	31.629
626.97	31.675
627.30	32.574
627.63	32.149
627.96	31.536
628.29	31.915
628.62	32.547
628.95	32.064
629.28	32.661
629.61	31.306
629.94	33.333
630.26	32.806
630.59	33.507
630.92	32.513
631.25	31.897
631.58	32.048
631.91	34.539
632.24	32.913
632.57	35.682
632.90	34.638
633.23	35.412
633.56	34.509
633.89	33.662
634.22	34.568
634.55	33.926
634.88	33.716
635.20	34.615
635.53	32.667
635.86	31.990
636.19	35.576
636.52	33.673
636.85	32.754
637.18	33.333
637.51	33.585
637.83	34.691
638.16	36.698
638.49	34.060
638.82	36.842
639.15	33.786
639.48	35.488
639.81	35.286
640.13	35.786
640.46	33.965
640.79	35.641
641.12	33.678
641.45	36.186
641.77	34.074
642.10	36.335
642.43	35.852
642.76	36.469
643.09	35.703
643.41	33.819
643.74	34.432
644.07	39.573
644.40	36.149
644.73	37.303
645.05	38.255
645.38	37.213
645.71	37.411
646.04	34.650
646.36	33.688
646.69	38.309
647.02	39.509
647.35	36.754
647.67	36.563
648.00	39.739
648.33	37.543
648.66	37.119
648.98	34.673
649.31	35.372
649.64	34.066
649.96	35.170
650.29	37.308
650.62	34.188
650.94	36.481
651.27	33.892
651.60	35.495
651.92	34.965
652.25	35.702
652.58	35.167
652.90	37.393
653.23	35.462
653.56	34.856
653.88	36.598
654.21	35.201
654.54	35.484
654.86	36.333
655.19	33.772
655.52	30.031
655.84	24.172
656.17	27.216
656.49	36.963
656.82	39.063
657.15	30.664
657.47	22.698
657.80	16.948
658.13	16.815
658.45	27.153
658.78	27.102
659.10	27.441
659.43	28.427
659.75	29.551
660.08	30.207
660.41	32.380
660.73	33.287
661.06	37.088
661.38	36.791
661.71	33.881
662.03	38.841
662.36	39.560
662.68	36.726
663.01	39.083
663.33	36.195
663.66	39.535
663.98	37.209
664.31	37.527
664.63	34.332
664.96	32.826
665.28	36.424
665.61	37.013
665.93	37.391
666.26	38.395
666.58	34.452
666.91	36.706
667.23	39.387
667.56	38.152
667.88	39.089
668.21	38.186
668.53	39.953
668.86	39.387
669.18	38.208
669.50	37.046
669.83	35.814
670.15	38.462
670.48	38.038
670.80	37.097
671.13	34.004
671.45	34.703
671.77	37.339
672.10	34.059
672.42	34.831
672.75	34.458
673.07	35.242
673.39	33.578
673.72	34.122
674.04	36.458
674.37	36.017
674.69	33.833
675.01	37.333
675.34	36.261
675.66	37.037
675.98	36.364
676.31	36.697
676.63	38.480
676.95	36.136
677.28	37.882
677.60	39.518
677.92	39.679
678.25	39.825
678.57	36.147
678.89	34.244
679.22	38.031
679.54	32.932
679.86	33.002
680.18	35.728
680.51	34.470
680.83	31.412
681.15	36.000
681.48	37.705
681.80	35.744
682.12	35.282
682.44	34.100
682.77	37.307
683.09	33.638
683.41	36.364
683.73	35.253
684.06	36.504
684.38	33.978
684.70	36.166
685.02	36.100
685.34	30.237
685.67	31.707
685.99	34.358
686.31	33.451
686.63	31.911
686.96	31.179
687.28	31.515
687.60	34.030
687.92	34.747
688.24	35.887
688.56	35.808
688.89	33.482
689.21	38.889
689.53	38.051
689.85	33.488
690.17	31.027
690.49	37.116
690.82	34.466
691.14	35.238
691.46	35.047
691.78	36.036
692.10	35.914
692.42	33.333
692.74	36.325
693.06	33.784
693.39	32.353
693.71	30.543
694.03	34.411
694.35	36.449
694.67	37.121
694.99	32.637
695.31	36.554
695.63	34.500
695.95	34.848
696.27	36.788
696.59	38.056
696.91	36.695
697.23	35.476
697.56	35.891
697.88	35.054
698.20	31.891
698.52	34.118
698.84	33.254
699.16	30.750
699.48	34.336
699.80	33.499
700.12	33.154
700.44	35.854
700.76	34.012
701.08	34.545
701.40	36.446
701.72	42.284
702.04	37.954
702.36	39.799
702.68	34.234
703.00	36.061
703.32	33.138
703.64	32.486
703.96	34.783
704.28	36.196
704.60	36.825
704.91	35.962
705.23	38.538
705.55	42.756
705.87	38.628
706.19	40.370
706.51	36.426
706.83	36.656
707.15	34.891
707.47	34.734
707.79	31.250
708.11	33.250
708.43	36.250
708.74	34.109
709.06	36.338
709.38	34.862
709.70	32.840
710.02	35.669
710.34	33.746
710.66	33.974
710.98	32.450
711.29	38.361
711.61	39.661
711.93	37.134
712.25	40.206
712.57	34.066
712.89	35.448
713.20	38.062
713.52	33.798
713.84	33.788
714.16	37.457
714.48	33.548
714.80	33.974
715.11	34.650
715.43	31.661
715.75	33.667
716.07	32.890
716.39	35.235
716.70	32.103
717.02	37.405
717.34	32.389
717.66	39.823
717.97	35.652
718.29	34.310
718.61	35.433
718.93	34.884
719.24	38.023
719.56	39.759
719.88	33.333
720.20	30.303
720.51	33.333
720.83	35.907
721.15	38.655
721.46	37.500
721.78	30.830
722.10	36.059
722.42	34.025
722.73	33.469
723.05	36.735
723.37	37.288
723.68	38.739
724.00	35.897
724.32	36.000
724.63	34.091
724.95	33.624
725.27	36.406
725.58	36.441
725.90	31.746
726.22	35.907
726.53	40.000
726.85	31.461
727.16	39.245
727.48	34.818
727.80	35.223
728.11	38.136
728.43	34.510
728.74	34.274
729.06	36.000
729.38	37.594
729.69	30.677
730.01	35.769
730.32	34.701
730.64	34.276
730.96	36.226
731.27	32.667
731.59	30.169
731.90	29.618
732.22	32.808
732.53	36.877
732.85	31.560
733.16	32.997
733.48	34.532
733.80	35.145
734.11	26.102
734.43	28.866
734.74	35.758
735.06	34.528
735.37	32.024
735.69	35.017
736.00	34.495
736.32	32.215
736.63	31.690
736.95	30.375
737.26	34.875
737.58	26.510
737.89	31.502
738.21	29.323
738.52	34.979
738.83	37.118
739.15	33.624
739.46	33.858
739.78	28.571
740.09	31.046
740.41	28.261
740.72	35.827
741.04	36.842
741.35	33.191
741.66	30.806
741.98	37.245
742.29	32.673
742.61	37.173
742.92	31.280
743.23	25.926
743.55	39.367
743.86	34.928
744.18	26.794
744.49	37.766
744.80	34.783
745.12	36.898
745.43	34.146
745.74	39.062
746.06	38.049
746.37	36.126
746.68	36.019
747.00	35.638
747.31	35.821
747.62	33.981
747.94	36.364
748.25	36.139
748.56	36.612
748.88	31.937
749.19	40.426
749.50	35.468
749.82	31.132
750.13	34.404
750.44	34.211
750.75	33.955
751.07	37.591
751.38	35.249
751.69	27.451
752.01	33.333
752.32	33.466
752.63	34.387
752.94	36.207
753.26	39.331
753.57	32.127
753.88	35.398
754.19	30.417
754.51	28.926
754.82	26.721
755.13	38.333
755.44	36.290
755.75	33.984
756.07	31.907
756.38	34.340
756.69	33.716
757.00	27.000
757.31	33.007
757.63	28.963
757.94	30.278
758.25	27.123
758.56	26.862
758.87	28.329
759.18	28.660
759.50	30.909
759.81	33.445
760.12	30.000
760.43	29.697
760.74	31.173
761.05	28.923
761.36	31.534
761.67	32.121
761.99	28.912
762.30	32.727
762.61	34.783
762.92	31.674
763.23	32.432
763.54	29.439
763.85	35.593
764.16	32.365
764.47	29.435
764.78	28.571
765.10	32.997
765.41	32.177
765.72	28.571
766.03	30.451
766.34	30.292
766.65	31.873
766.96	30.808
767.27	34.043
767.58	31.034
767.89	28.369
768.20	34.091
768.51	31.319
768.82	29.557
769.13	23.963
769.44	30.901
769.75	27.854
770.06	29.741
770.37	30.769
770.68	32.995
770.99	31.222
771.30	35.784
771.61	32.127
771.92	31.897
772.23	36.453
772.54	30.108
772.85	40.741
773.16	33.708
773.47	38.562
773.78	33.987
774.09	38.922
774.39	26.000
774.70	33.121
775.01	33.793
775.32	29.286
775.63	31.405
775.94	32.061
776.25	33.858
776.56	35.000
776.87	36.538
777.18	30.769
777.48	36.207
777.79	36.522
778.10	23.810
778.41	27.928
778.72	34.127
779.03	40.602
779.34	43.972
779.65	32.877
779.95	26.712
780.26	30.345
780.57	29.268
780.88	25.197
781.19	30.172
781.50	40.310
781.80	26.036
782.11	27.044
782.42	39.231
782.73	23.741
783.04	34.074
783.34	25.000
783.65	21.368
783.96	27.049
784.27	37.241
784.57	34.146
784.88	28.906
785.19	43.000
785.50	39.000
785.81	28.448
786.11	31.897
786.42	41.748
786.73	34.545
787.04	35.714
787.34	31.250
787.65	35.238
787.96	37.168
788.26	29.091
788.57	38.462
788.88	36.719
789.19	25.397
789.49	29.565
789.80	35.714
790.11	28.283
790.41	31.818
790.72	32.609
791.03	29.545
791.33	38.750
791.64	23.750
791.95	17.442
792.25	38.298
792.56	41.573
792.87	36.986
793.17	31.884
793.48	24.000
793.79	25.000
794.09	45.000
794.40	29.245
794.70	23.301
795.01	26.016
795.32	28.205
795.62	27.619
795.93	34.314
796.23	37.736
796.54	32.292
796.85	27.941
797.15	29.577
797.46	27.778
797.76	43.939
798.07	31.395
798.37	19.737
798.68	22.727
798.99	29.630
799.29	48.571
799.60	17.391
799.90	34.667
800.21	26.230
800.51	27.692
800.82	35.593
801.12	39.130
801.43	32.787
801.73	30.159
802.04	36.000
802.34	29.851
802.65	55.769
802.95	25.000
803.26	26.923
803.56	35.294
803.87	15.217
804.17	42.667
804.48	50.794
804.78	22.222
805.09	39.130
805.39	37.778
805.70	46.296
806.00	14.035
806.30	30.986
806.61	25.714
806.91	11.111
807.22	43.421
807.52	30.667
807.83	32.727
808.13	33.333
808.43	25.000
808.74	8.955
809.04	16.949
809.35	21.154
809.65	39.063
809.95	0.000
810.26	50.000
810.56	31.507
810.86	33.333
811.17	28.000
811.47	51.020
811.77	21.053
812.08	45.455
812.38	28.302
812.69	7.500
812.99	-12.121
813.29	50.000
813.59	14.286
813.90	18.182
814.20	33.333
814.50	25.000
814.81	39.623
815.11	12.766
815.41	47.458
815.72	26.190
816.02	41.176
816.32	10.417
816.62	46.341
816.93	27.027
817.23	17.143
817.53	27.083
817.84	26.087
818.14	40.385
818.44	5.263
818.74	56.522
819.04	20.000
819.35	37.838
819.65	26.471
819.95	25.000
820.25	11.905
820.56	40.000
820.86	17.241
821.16	55.000
821.46	29.787
821.76	20.000
822.07	51.163
822.37	29.730
822.67	53.125
822.97	42.857
823.27	50.000
823.57	48.000
823.88	7.407
824.18	32.143
824.48	47.059
824.78	29.032
825.08	34.783
825.38	33.333
825.69	-12.500
825.99	23.684
826.29	36.111
826.59	53.333
826.89	23.810
827.19	41.304
827.49	40.000
827.79	20.000
828.09	35.714
828.39	36.364
828.70	62.162
829.00	78.571
829.30	33.333
829.60	30.000
829.90	62.500
830.20	34.211
830.50	18.519
830.80	-4.348
831.10	63.636
831.40	66.667
831.70	19.355
832.00	66.667
832.30	-23.810
832.60	25.000
832.90	-10.345
833.20	35.000
833.50	51.515
833.80	62.963
834.10	26.923
834.40	46.875
834.70	44.444
835.00	78.947
835.30	107.692
835.60	86.667
835.90	19.355
836.20	13.636
836.50	57.143
836.80	11.538
837.10	10.714
837.40	300.000
837.70	77.273
838.00	100.000
838.30	30.435
838.60	0.000
838.90	59.091
839.19	14.286
839.49	60.000
839.79	46.154
840.09	75.000
840.39	57.143
840.69	21.429
840.99	11.538
841.29	5.263
841.59	-140.000
841.88	145.455
842.18	-10.000
842.48	31.250
842.78	33.333
843.08	3.704
843.38	-180.000
843.68	21.739
843.97	80.000
844.27	6.667
844.57	20.000
844.87	27.778
845.17	28.571
845.47	93.333
845.76	28.571
846.06	47.059
846.36	0.000
846.66	28.571
846.96	53.333
847.25	-100.000
847.55	71.429
847.85	50.000
848.15	-54.545
848.44	-600.000
848.74	40.000
849.04	59.259
849.34	0.000
849.63	-50.000
849.93	-240.000
850.23	16.667
850.53	120.000
850.82	30.769
851.12	-33.333
851.42	66.667
851.71	38.462
852.01	71.429
852.31	-100.000
852.61	-9.091
852.90	25.000
853.20	21.053
853.50	33.333
853.79	52.174
854.09	8.333
854.39	10.526
854.68	45.833
854.98	25.806
855.28	23.077
855.57	30.000
855.87	33.333
856.17	40.741
856.46	28.571
856.76	60.000
857.05	88.889
857.35	12.000
857.65	33.333
857.94	30.769
858.24	75.862
858.53	105.556
858.83	48.148
859.13	54.545
859.42	8.696
859.72	125.000
860.01	-66.667
860.31	20.000
860.60	61.905
860.90	-100.000
861.20	-6.667
861.49	50.000
861.79	26.667
862.08	40.000
862.38	113.333
862.67	40.000
862.97	16.667
863.26	66.667
863.56	66.667
863.85	66.667
864.15	22.222
864.44	100.000
864.74	157.143
865.03	100.000
865.33	0.000
865.62	50.000
865.92	8.333
866.21	-16.667
866.51	31.250
866.80	-18.182
867.10	550.000
867.39	100.000
867.69	0.000
867.98	53.846
868.27	-200.000
868.57	53.333
868.86	38.889
869.16	-38.462
869.45	53.333
869.75	-300.000
870.04	0.000
870.33	-128.571
870.63	-14.286
870.92	333.333
871.22	0.000
871.51	500.000
871.80	55.556
872.10	166.667
>>>>>End Processed Spectral Data<<<<<
