SpectraSuite Data File
++++++++++++++++++++++++++++++++++++
Date: Fri May 15 20:12:04 PDT 2015
User: schluterlab
Dark Spectrum Present: Yes
Reference Spectrum Present: Yes
Number of Sampled Component Spectra: 1
Spectrometers: USB2E3373
Integration Time (usec): 3000 (USB2E3373)
Spectra Averaged: 3 (USB2E3373)
Boxcar Smoothing: 0 (USB2E3373)
Correct for Electrical Dark: No (USB2E3373)
Strobe/Lamp Enabled: No (USB2E3373)
Correct for Detector Non-linearity: No (USB2E3373)
Correct for Stray Light: No (USB2E3373)
Number of Pixels in Processed Spectrum: 2048
>>>>>Begin Processed Spectral Data<<<<<
178.53	0.000
178.91	0.000
179.29	175.000
179.67	-250.000
180.04	-28.571
180.42	50.000
180.80	-100.000
181.18	-0.000
181.56	150.000
181.94	250.000
182.31	500.000
182.69	160.000
183.07	166.667
183.45	-120.000
183.83	50.000
184.20	45.455
184.58	33.333
184.96	50.000
185.34	-166.667
185.72	100.000
186.09	53.846
186.47	-200.000
186.85	-0.000
187.23	111.111
187.61	-800.000
187.98	-100.000
188.36	88.889
188.74	66.667
189.12	58.824
189.49	38.889
189.87	0.000
190.25	50.000
190.63	-100.000
191.00	133.333
191.38	42.105
191.76	400.000
192.14	50.000
192.51	50.000
192.89	-44.444
193.27	-71.429
193.65	183.333
194.02	100.000
194.40	50.000
194.78	-100.000
195.15	16.667
195.53	-62.500
195.91	375.000
196.29	150.000
196.66	53.846
197.04	-28.571
197.42	-22.222
197.79	-233.333
198.17	23.077
198.55	-100.000
198.92	-233.333
199.30	-400.000
199.68	-140.000
200.05	-133.333
200.43	0.000
200.81	-100.000
201.18	0.000
201.56	1200.000
201.94	300.000
202.31	100.000
202.69	100.000
203.07	-50.000
203.44	300.000
203.82	0.000
204.19	14.286
204.57	-466.667
204.95	-12.500
205.32	40.000
205.70	-14.286
206.08	25.000
206.45	22.222
206.83	21.429
207.20	-14.286
207.58	-400.000
207.96	100.000
208.33	30.000
208.71	150.000
209.08	-133.333
209.46	-100.000
209.84	80.000
210.21	-100.000
210.59	100.000
210.96	83.333
211.34	25.000
211.71	6.667
212.09	-57.143
212.46	-1500.000
212.84	0.000
213.22	100.000
213.59	300.000
213.97	92.308
214.34	54.545
214.72	-33.333
215.09	275.000
215.47	61.538
215.84	36.364
216.22	-66.667
216.59	0.000
216.97	300.000
217.34	-125.000
217.72	-120.000
218.09	162.500
218.47	137.500
218.84	-100.000
219.22	-66.667
219.59	60.000
219.97	66.667
220.34	75.000
220.72	71.429
221.09	200.000
221.47	-200.000
221.84	-100.000
222.22	-750.000
222.59	-27.273
222.97	8.333
223.34	33.333
223.72	-7.143
224.09	57.143
224.46	3.571
224.84	166.667
225.21	70.000
225.59	93.333
225.96	550.000
226.34	150.000
226.71	57.143
227.08	-116.667
227.46	112.500
227.83	-300.000
228.21	-33.333
228.58	54.545
228.95	0.000
229.33	110.000
229.70	6.250
230.08	-25.000
230.45	-57.143
230.82	185.714
231.20	-13.333
231.57	50.000
231.95	114.286
232.32	-100.000
232.69	21.429
233.07	-133.333
233.44	-80.000
233.81	-80.000
234.19	-77.778
234.56	11.765
234.93	-0.000
235.31	-50.000
235.68	-240.000
236.05	-61.538
236.43	-35.000
236.80	17.647
237.17	6.250
237.55	-10.000
237.92	0.000
238.29	8.333
238.67	10.000
239.04	0.000
239.41	-31.707
239.79	-26.667
240.16	2.439
240.53	5.263
240.91	-8.696
241.28	1.587
241.65	-10.714
242.02	13.699
242.40	5.000
242.77	-8.475
243.14	-7.576
243.51	3.750
243.89	4.598
244.26	-4.598
244.63	5.952
245.00	7.216
245.38	4.124
245.75	-7.865
246.12	-3.448
246.49	-1.653
246.87	5.769
247.24	-2.521
247.61	-10.526
247.98	-11.382
248.36	-5.000
248.73	2.632
249.10	1.948
249.47	-2.532
249.84	1.961
250.22	2.941
250.59	-0.654
250.96	7.042
251.33	-4.070
251.70	8.235
252.08	2.538
252.45	-1.485
252.82	5.025
253.19	1.382
253.56	-7.009
253.94	2.703
254.31	3.478
254.68	0.439
255.05	1.575
255.42	2.620
255.79	-0.772
256.16	-0.389
256.54	1.493
256.91	-5.323
257.28	-0.743
257.65	-1.498
258.02	2.128
258.39	2.694
258.76	2.564
259.14	2.326
259.51	0.647
259.88	-2.749
260.25	0.000
260.62	3.125
260.99	-0.678
261.36	-2.055
261.73	-0.949
262.10	-0.304
262.47	0.000
262.85	-1.567
263.22	-3.385
263.59	1.246
263.96	-1.242
264.33	-2.121
264.70	-0.595
265.07	-1.786
265.44	-0.850
265.81	2.260
266.18	-1.093
266.55	2.057
266.92	2.591
267.29	0.522
267.66	1.535
268.03	1.309
268.40	0.522
268.77	2.139
269.14	2.638
269.51	1.799
269.88	-0.998
270.25	-3.061
270.62	-1.951
270.99	-2.558
271.36	-2.200
271.73	1.174
272.10	-1.460
272.47	0.236
272.84	0.000
273.21	1.624
273.58	2.651
273.95	1.602
274.32	0.231
274.69	-1.584
275.06	1.786
275.43	-2.041
275.80	-0.221
276.17	-1.149
276.54	1.071
276.91	0.219
277.28	0.873
277.65	1.653
278.02	0.638
278.39	-1.751
278.76	-0.839
279.13	-5.394
279.50	-1.261
279.87	1.728
280.23	-1.505
280.60	0.975
280.97	-0.808
281.34	-1.538
281.71	-0.205
282.08	0.409
282.45	0.000
282.82	-0.386
283.19	-0.580
283.56	0.000
283.92	-2.467
284.29	0.577
284.66	1.744
285.03	-0.393
285.40	-0.189
285.77	0.527
286.14	0.722
286.51	0.554
286.87	-1.097
287.24	0.552
287.61	-1.764
287.98	0.702
288.35	-0.347
288.72	0.175
289.08	-1.562
289.45	1.582
289.82	1.573
290.19	0.000
290.56	-0.686
290.93	-1.178
291.29	0.000
291.66	2.362
292.03	-0.638
292.40	0.806
292.77	1.595
293.13	-1.948
293.50	-0.303
293.87	0.916
294.24	0.309
294.60	0.447
294.97	1.786
295.34	-0.460
295.71	0.149
296.08	0.747
296.44	-1.991
296.81	0.139
297.18	0.725
297.55	1.355
297.91	0.411
298.28	2.770
298.65	0.271
299.02	0.000
299.38	-2.052
299.75	-0.276
300.12	-0.131
300.48	-0.264
300.85	0.507
301.22	-0.649
301.59	-0.658
301.95	0.506
302.32	2.075
302.69	0.746
303.05	-0.124
303.42	1.245
303.79	2.103
304.15	1.075
304.52	-0.476
304.89	-0.468
305.25	-0.121
305.62	0.467
305.99	-0.468
306.35	-0.925
306.72	0.900
307.09	-0.342
307.45	1.378
307.82	0.694
308.19	0.465
308.55	-0.545
308.92	1.198
309.29	-1.229
309.65	0.538
310.02	0.990
310.38	0.000
310.75	0.219
311.12	0.000
311.48	0.530
311.85	0.314
312.22	-0.844
312.58	-0.318
312.95	-0.747
313.31	-1.242
313.68	-1.466
314.05	0.204
314.41	0.515
314.78	1.237
315.14	1.233
315.51	1.967
315.87	0.820
316.24	1.719
316.61	1.673
316.97	1.587
317.34	1.367
317.70	0.382
318.07	1.635
318.43	1.667
318.80	1.799
319.16	1.953
319.53	3.229
319.89	1.969
320.26	2.328
320.62	2.307
320.99	2.192
321.35	2.569
321.72	2.077
322.08	3.323
322.45	3.046
322.81	3.635
323.18	3.925
323.54	3.958
323.91	4.090
324.27	5.762
324.64	6.180
325.00	6.113
325.37	7.438
325.73	5.621
326.10	7.629
326.46	7.982
326.83	8.749
327.19	9.503
327.56	9.470
327.92	9.507
328.29	8.839
328.65	10.660
329.01	10.937
329.38	10.415
329.74	9.726
330.11	11.307
330.47	11.596
330.84	10.481
331.20	13.118
331.56	12.130
331.93	14.064
332.29	13.749
332.66	13.665
333.02	12.918
333.38	13.474
333.75	15.201
334.11	13.250
334.48	14.687
334.84	14.927
335.20	14.547
335.57	13.690
335.93	15.628
336.29	16.206
336.66	14.532
337.02	14.033
337.38	13.981
337.75	15.455
338.11	14.518
338.47	16.423
338.84	15.804
339.20	16.636
339.56	15.780
339.93	17.368
340.29	16.330
340.65	16.935
341.02	16.046
341.38	15.398
341.74	15.371
342.11	16.291
342.47	16.459
342.83	15.744
343.20	15.767
343.56	16.522
343.92	16.475
344.28	17.763
344.65	15.976
345.01	15.903
345.37	15.475
345.73	15.900
346.10	16.566
346.46	15.980
346.82	16.776
347.19	16.043
347.55	16.374
347.91	16.262
348.27	16.087
348.63	17.376
349.00	16.981
349.36	16.958
349.72	16.335
350.08	16.885
350.45	16.361
350.81	15.615
351.17	15.065
351.53	17.878
351.89	16.515
352.26	16.560
352.62	17.339
352.98	16.546
353.34	16.586
353.70	16.262
354.07	17.823
354.43	16.894
354.79	17.589
355.15	17.302
355.51	17.089
355.87	17.557
356.24	16.232
356.60	16.653
356.96	17.302
357.32	16.933
357.68	17.045
358.04	16.801
358.40	17.444
358.77	18.421
359.13	18.014
359.49	17.411
359.85	17.707
360.21	16.667
360.57	16.526
360.93	18.079
361.29	16.390
361.66	17.947
362.02	18.030
362.38	17.974
362.74	17.562
363.10	17.983
363.46	17.643
363.82	18.633
364.18	18.229
364.54	17.574
364.90	17.706
365.26	18.049
365.62	19.124
365.98	17.302
366.35	19.009
366.71	17.369
367.07	18.287
367.43	18.692
367.79	17.244
368.15	18.306
368.51	17.771
368.87	17.588
369.23	17.473
369.59	18.003
369.95	19.575
370.31	18.280
370.67	18.433
371.03	17.774
371.39	18.089
371.75	18.535
372.11	19.757
372.47	18.713
372.83	19.163
373.19	18.759
373.55	17.690
373.91	18.359
374.27	19.490
374.63	20.101
374.99	19.007
375.35	19.916
375.71	20.909
376.07	19.101
376.42	19.932
376.78	19.933
377.14	20.108
377.50	19.655
377.86	20.950
378.22	20.676
378.58	20.192
378.94	20.416
379.30	21.148
379.66	20.752
380.02	19.926
380.38	20.146
380.74	22.023
381.09	21.963
381.45	21.346
381.81	20.790
382.17	21.129
382.53	20.362
382.89	21.155
383.25	21.593
383.61	22.256
383.97	21.333
384.32	21.388
384.68	21.858
385.04	21.569
385.40	21.157
385.76	22.075
386.12	21.992
386.48	22.733
386.83	22.257
387.19	22.222
387.55	22.836
387.91	22.188
388.27	21.856
388.62	22.907
388.98	21.854
389.34	23.111
389.70	22.561
390.06	22.026
390.42	22.280
390.77	22.956
391.13	22.762
391.49	23.221
391.85	23.002
392.20	23.227
392.56	22.950
392.92	23.782
393.28	23.762
393.64	22.523
393.99	24.765
394.35	23.782
394.71	23.883
395.07	22.062
395.42	23.315
395.78	23.518
396.14	22.762
396.50	23.843
396.85	23.889
397.21	23.246
397.57	23.762
397.92	23.128
398.28	23.966
398.64	22.349
399.00	23.646
399.35	23.646
399.71	23.148
400.07	24.244
400.42	23.133
400.78	23.393
401.14	24.380
401.49	24.419
401.85	23.461
402.21	23.855
402.57	24.000
402.92	23.400
403.28	23.434
403.63	23.266
403.99	23.151
404.35	23.673
404.70	23.274
405.06	23.325
405.42	23.928
405.77	22.661
406.13	23.225
406.49	22.617
406.84	23.594
407.20	23.781
407.55	23.181
407.91	23.730
408.27	23.136
408.62	23.446
408.98	23.229
409.34	22.367
409.69	22.610
410.05	22.167
410.40	22.840
410.76	22.316
411.11	22.312
411.47	22.485
411.83	22.222
412.18	22.458
412.54	22.097
412.89	22.229
413.25	22.984
413.60	22.422
413.96	22.086
414.31	23.049
414.67	22.450
415.03	23.103
415.38	23.172
415.74	23.257
416.09	22.534
416.45	22.350
416.80	23.133
417.16	23.204
417.51	22.851
417.87	22.816
418.22	22.539
418.58	22.408
418.93	23.135
419.29	21.575
419.64	22.813
420.00	24.055
420.35	22.269
420.71	22.904
421.06	22.345
421.42	23.077
421.77	22.312
422.12	23.042
422.48	23.443
422.83	23.202
423.19	22.460
423.54	22.693
423.90	22.497
424.25	22.905
424.61	23.133
424.96	23.229
425.31	24.379
425.67	22.887
426.02	23.793
426.38	23.544
426.73	23.668
427.09	23.987
427.44	23.765
427.79	23.630
428.15	23.786
428.50	23.440
428.85	22.543
429.21	24.561
429.56	25.229
429.92	23.883
430.27	23.910
430.62	23.471
430.98	23.779
431.33	24.238
431.68	23.600
432.04	24.762
432.39	24.073
432.74	23.752
433.10	24.138
433.45	24.373
433.80	23.680
434.16	23.213
434.51	24.194
434.86	24.274
435.22	24.229
435.57	24.579
435.92	23.952
436.28	23.315
436.63	24.130
436.98	23.696
437.34	23.775
437.69	25.283
438.04	24.729
438.39	23.763
438.75	25.197
439.10	24.222
439.45	25.137
439.81	23.853
440.16	24.941
440.51	25.552
440.86	25.317
441.22	23.925
441.57	23.455
441.92	25.498
442.27	24.889
442.63	24.732
442.98	24.756
443.33	24.485
443.68	24.297
444.03	24.739
444.39	24.299
444.74	25.139
445.09	24.944
445.44	25.014
445.79	25.941
446.15	25.055
446.50	24.570
446.85	25.080
447.20	24.505
447.55	25.000
447.91	24.535
448.26	25.327
448.61	25.158
448.96	25.129
449.31	24.335
449.66	23.635
450.02	25.157
450.37	24.778
450.72	25.086
451.07	24.557
451.42	24.032
451.77	24.714
452.12	24.462
452.47	24.018
452.83	24.853
453.18	24.921
453.53	24.716
453.88	25.137
454.23	24.524
454.58	25.504
454.93	25.644
455.28	24.635
455.63	25.666
455.98	24.835
456.34	24.138
456.69	24.905
457.04	25.835
457.39	23.998
457.74	25.635
458.09	24.544
458.44	25.278
458.79	25.042
459.14	25.458
459.49	25.313
459.84	25.324
460.19	25.182
460.54	25.795
460.89	25.455
461.24	26.149
461.59	26.247
461.94	24.717
462.29	25.090
462.64	25.382
462.99	25.660
463.34	24.757
463.69	24.775
464.04	25.121
464.39	24.864
464.74	25.276
465.09	25.140
465.44	25.563
465.79	24.490
466.14	25.257
466.49	24.612
466.84	25.521
467.19	24.718
467.54	25.415
467.89	23.563
468.24	25.182
468.59	25.397
468.94	24.571
469.29	25.770
469.64	25.290
469.99	25.508
470.34	24.027
470.68	24.981
471.03	24.982
471.38	25.250
471.73	24.370
472.08	24.898
472.43	24.497
472.78	24.537
473.13	24.150
473.48	25.798
473.83	23.661
474.17	25.065
474.52	25.335
474.87	25.030
475.22	23.734
475.57	24.506
475.92	25.398
476.27	25.553
476.61	25.694
476.96	24.038
477.31	24.824
477.66	24.326
478.01	25.491
478.36	25.490
478.70	25.285
479.05	25.275
479.40	24.483
479.75	24.557
480.10	25.038
480.45	24.450
480.79	25.025
481.14	25.615
481.49	24.828
481.84	24.614
482.19	24.275
482.53	25.324
482.88	24.010
483.23	25.144
483.58	25.047
483.92	24.395
484.27	24.886
484.62	24.473
484.97	25.041
485.31	24.566
485.66	24.476
486.01	24.769
486.36	24.987
486.70	25.297
487.05	25.642
487.40	25.078
487.75	24.873
488.09	24.722
488.44	25.241
488.79	24.767
489.13	25.481
489.48	25.224
489.83	25.022
490.17	24.719
490.52	25.081
490.87	23.600
491.22	24.976
491.56	24.668
491.91	23.948
492.26	24.842
492.60	24.808
492.95	25.873
493.30	24.524
493.64	24.656
493.99	24.541
494.34	24.272
494.68	24.286
495.03	24.428
495.37	24.387
495.72	24.685
496.07	25.317
496.41	24.481
496.76	25.702
497.11	24.732
497.45	25.012
497.80	25.328
498.14	24.193
498.49	24.937
498.84	24.301
499.18	24.598
499.53	24.306
499.87	24.465
500.22	24.283
500.56	25.063
500.91	24.498
501.26	23.480
501.60	24.594
501.95	24.697
502.29	25.182
502.64	25.434
502.98	24.914
503.33	23.439
503.67	25.060
504.02	25.562
504.36	25.680
504.71	24.040
505.06	24.761
505.40	24.315
505.75	24.639
506.09	24.430
506.44	25.051
506.78	24.541
507.13	24.922
507.47	24.909
507.82	24.840
508.16	25.409
508.51	24.921
508.85	24.751
509.19	23.417
509.54	24.236
509.88	24.272
510.23	25.121
510.57	25.174
510.92	23.774
511.26	24.877
511.61	24.367
511.95	23.616
512.30	24.778
512.64	23.929
512.98	24.593
513.33	25.182
513.67	24.105
514.02	25.343
514.36	24.343
514.70	24.767
515.05	25.793
515.39	23.495
515.74	25.449
516.08	24.746
516.42	24.499
516.77	25.922
517.11	25.460
517.46	24.357
517.80	23.897
518.14	24.862
518.49	24.579
518.83	24.484
519.17	24.682
519.52	23.801
519.86	24.190
520.20	25.395
520.55	23.702
520.89	25.471
521.23	24.129
521.58	25.300
521.92	23.910
522.26	24.854
522.61	25.000
522.95	24.768
523.29	23.888
523.64	24.841
523.98	24.757
524.32	23.325
524.66	24.712
525.01	25.260
525.35	25.211
525.69	23.636
526.04	23.876
526.38	25.940
526.72	23.676
527.06	24.578
527.41	24.802
527.75	24.531
528.09	24.718
528.43	25.658
528.78	24.158
529.12	24.452
529.46	24.561
529.80	24.573
530.15	24.818
530.49	24.175
530.83	25.923
531.17	24.715
531.51	24.213
531.86	24.949
532.20	24.217
532.54	22.873
532.88	23.614
533.22	24.798
533.57	24.312
533.91	24.543
534.25	25.521
534.59	24.310
534.93	23.789
535.27	24.619
535.62	25.405
535.96	24.984
536.30	25.066
536.64	24.810
536.98	24.530
537.32	25.818
537.66	26.017
538.01	25.035
538.35	23.925
538.69	24.501
539.03	24.607
539.37	25.168
539.71	24.881
540.05	24.847
540.39	24.654
540.73	24.407
541.07	24.586
541.42	25.202
541.76	24.983
542.10	24.639
542.44	25.365
542.78	24.295
543.12	23.970
543.46	24.757
543.80	24.983
544.14	23.832
544.48	24.317
544.82	24.265
545.16	25.068
545.50	24.833
545.84	24.433
546.18	25.816
546.52	25.234
546.86	24.587
547.20	24.464
547.54	24.947
547.88	24.524
548.22	23.340
548.56	24.142
548.90	24.596
549.24	23.623
549.58	23.907
549.92	23.874
550.26	24.322
550.60	24.535
550.94	24.944
551.28	24.034
551.62	25.462
551.96	24.962
552.30	24.927
552.64	24.401
552.98	24.121
553.32	23.966
553.66	23.803
554.00	24.891
554.34	25.185
554.68	23.820
555.02	24.851
555.36	23.635
555.69	24.029
556.03	23.412
556.37	24.484
556.71	24.549
557.05	24.012
557.39	24.833
557.73	24.138
558.07	24.661
558.41	23.813
558.75	24.708
559.08	25.217
559.42	24.762
559.76	24.420
560.10	24.235
560.44	24.944
560.78	24.545
561.12	24.260
561.45	25.299
561.79	24.300
562.13	24.131
562.47	23.885
562.81	24.928
563.15	24.471
563.48	24.470
563.82	25.120
564.16	24.582
564.50	23.514
564.84	24.766
565.17	25.151
565.51	25.751
565.85	25.377
566.19	25.000
566.52	24.196
566.86	24.936
567.20	24.284
567.54	25.182
567.88	25.132
568.21	25.396
568.55	25.109
568.89	25.667
569.23	25.036
569.56	25.000
569.90	25.213
570.24	25.121
570.57	25.200
570.91	25.967
571.25	25.025
571.59	24.790
571.92	24.889
572.26	25.060
572.60	24.837
572.93	24.851
573.27	25.361
573.61	24.761
573.95	25.177
574.28	24.656
574.62	24.205
574.96	24.782
575.29	24.685
575.63	24.333
575.97	24.261
576.30	24.740
576.64	24.344
576.98	25.148
577.31	25.190
577.65	25.344
577.98	24.852
578.32	24.672
578.66	24.436
578.99	25.082
579.33	24.806
579.67	24.552
580.00	24.835
580.34	25.274
580.67	24.951
581.01	25.096
581.35	24.505
581.68	24.601
582.02	24.940
582.35	24.661
582.69	24.523
583.02	24.439
583.36	24.817
583.70	25.208
584.03	24.965
584.37	25.974
584.70	25.055
585.04	24.611
585.37	24.865
585.71	25.228
586.04	24.458
586.38	24.300
586.72	25.136
587.05	25.217
587.39	25.161
587.72	25.178
588.06	25.076
588.39	24.836
588.73	24.756
589.06	25.082
589.40	24.991
589.73	25.009
590.07	25.227
590.40	24.923
590.73	26.071
591.07	25.445
591.40	25.824
591.74	25.339
592.07	25.186
592.41	25.707
592.74	25.169
593.08	24.694
593.41	24.942
593.75	25.352
594.08	24.785
594.41	25.400
594.75	24.695
595.08	25.161
595.42	24.696
595.75	25.648
596.09	25.215
596.42	25.010
596.75	25.000
597.09	24.966
597.42	25.790
597.75	25.836
598.09	24.989
598.42	24.504
598.76	24.882
599.09	25.401
599.42	25.123
599.76	24.567
600.09	25.000
600.42	25.057
600.76	24.629
601.09	24.885
601.42	23.933
601.76	25.288
602.09	25.413
602.42	25.737
602.76	24.745
603.09	24.502
603.42	25.794
603.76	24.597
604.09	24.706
604.42	24.239
604.76	25.768
605.09	25.548
605.42	24.921
605.75	24.781
606.09	24.331
606.42	23.978
606.75	24.935
607.09	25.143
607.42	24.767
607.75	24.778
608.08	25.202
608.42	24.486
608.75	25.446
609.08	24.614
609.41	24.975
609.75	24.698
610.08	24.813
610.41	25.121
610.74	24.378
611.07	25.065
611.41	25.324
611.74	26.119
612.07	24.732
612.40	24.726
612.73	25.650
613.07	25.309
613.40	25.000
613.73	23.615
614.06	24.708
614.39	25.155
614.72	24.650
615.06	24.246
615.39	23.963
615.72	23.897
616.05	24.246
616.38	24.843
616.71	24.343
617.05	25.386
617.38	25.016
617.71	25.031
618.04	25.778
618.37	26.230
618.70	25.941
619.03	25.486
619.36	25.109
619.69	26.080
620.03	24.324
620.36	25.751
620.69	25.339
621.02	23.853
621.35	25.062
621.68	24.830
622.01	24.417
622.34	24.661
622.67	24.763
623.00	23.813
623.33	25.534
623.66	24.832
623.99	24.584
624.32	24.867
624.65	23.759
624.99	25.132
625.32	24.564
625.65	25.766
625.98	25.060
626.31	24.938
626.64	25.997
626.97	24.346
627.30	25.306
627.63	25.043
627.96	26.056
628.29	23.682
628.62	25.762
628.95	25.451
629.28	25.806
629.61	25.025
629.94	26.882
630.26	23.617
630.59	25.286
630.92	24.615
631.25	24.410
631.58	24.890
631.91	23.904
632.24	25.344
632.57	25.568
632.90	23.962
633.23	26.471
633.56	24.559
633.89	24.661
634.22	25.309
634.55	25.667
634.88	24.266
635.20	23.974
635.53	26.400
635.86	24.707
636.19	25.226
636.52	24.490
636.85	23.945
637.18	24.528
637.51	24.403
637.83	24.442
638.16	26.057
638.49	25.341
638.82	24.737
639.15	25.780
639.48	23.384
639.81	24.826
640.13	25.253
640.46	24.052
640.79	24.300
641.12	22.747
641.45	23.874
641.77	24.148
642.10	25.908
642.43	25.241
642.76	23.102
643.09	26.171
643.41	24.434
643.74	24.382
644.07	26.601
644.40	24.493
644.73	26.095
645.05	27.349
645.38	24.691
645.71	23.582
646.04	26.750
646.36	24.291
646.69	25.360
647.02	24.197
647.35	23.694
647.67	22.852
648.00	25.746
648.33	24.403
648.66	22.712
648.98	22.278
649.31	23.306
649.64	24.333
649.96	20.908
650.29	23.339
650.62	24.615
650.94	24.815
651.27	23.464
651.60	22.883
651.92	24.825
652.25	22.558
652.58	25.000
652.90	26.758
653.23	25.378
653.56	24.704
653.88	22.509
654.21	22.067
654.54	24.109
654.86	25.637
655.19	24.123
655.52	26.393
655.84	24.157
656.17	27.029
656.49	36.878
656.82	39.216
657.15	29.837
657.47	22.306
657.80	16.445
658.13	16.160
658.45	25.363
658.78	25.453
659.10	24.860
659.43	25.099
659.75	25.654
660.08	24.621
660.41	25.536
660.73	26.519
661.06	25.650
661.38	23.288
661.71	22.382
662.03	24.678
662.36	25.055
662.68	22.788
663.01	27.074
663.33	23.898
663.66	23.023
663.98	23.256
664.31	24.733
664.63	23.502
664.96	21.522
665.28	22.517
665.61	23.593
665.93	24.565
666.26	24.078
666.58	21.253
666.91	23.529
667.23	24.057
667.56	22.275
667.88	23.741
668.21	23.628
668.53	26.950
668.86	22.642
669.18	22.877
669.50	22.760
669.83	24.186
670.15	24.942
670.48	22.010
670.80	23.963
671.13	23.714
671.45	21.689
671.77	24.678
672.10	25.149
672.42	23.221
672.75	25.933
673.07	24.508
673.39	24.404
673.72	20.907
674.04	23.125
674.37	23.093
674.69	23.555
675.01	23.333
675.34	24.550
675.66	27.083
675.98	24.169
676.31	20.413
676.63	24.703
676.95	21.818
677.28	23.529
677.60	27.229
677.92	24.771
678.25	24.289
678.57	22.078
678.89	24.370
679.22	24.832
679.54	27.108
679.86	23.062
680.18	22.913
680.51	22.538
680.83	22.465
681.15	23.400
681.48	26.434
681.80	24.587
682.12	22.379
682.44	20.293
682.77	22.958
683.09	23.341
683.41	23.182
683.73	21.659
684.06	24.115
684.38	23.871
684.70	23.529
685.02	24.689
685.34	20.553
685.67	24.765
685.99	25.497
686.31	24.956
686.63	23.748
686.96	21.103
687.28	21.818
687.60	22.243
687.92	24.646
688.24	23.387
688.56	24.454
688.89	22.321
689.21	24.000
689.53	24.826
689.85	23.256
690.17	22.991
690.49	22.222
690.82	23.301
691.14	25.000
691.46	24.299
691.78	25.000
692.10	24.086
692.42	22.944
692.74	25.214
693.06	23.423
693.39	19.231
693.71	21.946
694.03	21.247
694.35	24.533
694.67	24.747
694.99	22.715
695.31	25.065
695.63	23.750
695.95	20.707
696.27	25.389
696.59	22.500
696.91	21.849
697.23	20.051
697.56	22.030
697.88	22.366
698.20	24.146
698.52	20.000
698.84	19.856
699.16	21.750
699.48	22.556
699.80	24.566
700.12	22.372
700.44	24.650
700.76	18.895
701.08	22.424
701.40	21.687
701.72	26.235
702.04	21.782
702.36	26.756
702.68	23.423
703.00	21.515
703.32	23.460
703.64	20.621
703.96	21.739
704.28	22.086
704.60	22.222
704.91	23.659
705.23	25.249
705.55	27.562
705.87	25.632
706.19	22.963
706.51	21.993
706.83	23.794
707.15	16.511
707.47	24.090
707.79	19.531
708.11	24.000
708.43	24.500
708.74	24.289
709.06	28.732
709.38	24.771
709.70	25.740
710.02	22.930
710.34	25.387
710.66	20.192
710.98	19.868
711.29	21.967
711.61	22.712
711.93	24.430
712.25	25.086
712.57	19.414
712.89	22.015
713.20	25.952
713.52	17.073
713.84	25.256
714.16	23.024
714.48	21.290
714.80	21.474
715.11	23.708
715.43	19.436
715.75	19.333
716.07	21.262
716.39	22.819
716.70	18.819
717.02	20.229
717.34	22.672
717.66	23.009
717.97	20.870
718.29	19.665
718.61	17.323
718.93	22.481
719.24	22.053
719.56	25.301
719.88	23.368
720.20	20.455
720.51	19.540
720.83	24.324
721.15	25.630
721.46	21.371
721.78	23.320
722.10	19.703
722.42	20.332
722.73	19.592
723.05	26.939
723.37	23.729
723.68	25.676
724.00	22.650
724.32	21.333
724.63	19.091
724.95	22.707
725.27	20.737
725.58	22.881
725.90	20.635
726.22	24.710
726.53	26.102
726.85	22.097
727.16	26.038
727.48	17.409
727.80	23.077
728.11	20.339
728.43	19.216
728.74	21.774
729.06	19.600
729.38	26.692
729.69	21.514
730.01	18.462
730.32	24.254
730.64	22.615
730.96	26.038
731.27	16.667
731.59	27.797
731.90	21.019
732.22	24.290
732.53	21.927
732.85	25.177
733.16	23.569
733.48	20.144
733.80	22.101
734.11	23.390
734.43	22.337
734.74	21.515
735.06	22.150
735.37	21.148
735.69	24.579
736.00	19.512
736.32	23.826
736.63	25.000
736.95	23.208
737.26	20.285
737.58	20.805
737.89	21.978
738.21	22.180
738.52	23.045
738.83	19.651
739.15	20.087
739.46	21.260
739.78	19.048
740.09	20.588
740.41	22.464
740.72	20.472
741.04	23.077
741.35	17.447
741.66	21.801
741.98	22.959
742.29	20.297
742.61	21.466
742.92	16.588
743.23	13.889
743.55	24.887
743.86	22.967
744.18	20.096
744.49	20.745
744.80	18.478
745.12	25.668
745.43	17.561
745.74	22.396
746.06	22.439
746.37	21.990
746.68	27.962
747.00	10.638
747.31	27.363
747.62	20.388
747.94	23.923
748.25	19.307
748.56	22.404
748.88	21.466
749.19	27.128
749.50	23.645
749.82	16.038
750.13	19.725
750.44	25.564
750.75	22.388
751.07	28.467
751.38	19.923
751.69	18.039
752.01	27.132
752.32	22.311
752.63	21.344
752.94	20.259
753.26	28.452
753.57	21.719
753.88	18.142
754.19	16.667
754.51	21.074
754.82	19.028
755.13	24.167
755.44	22.177
755.75	26.172
756.07	20.233
756.38	19.623
756.69	20.690
757.00	20.333
757.31	18.627
757.63	23.171
757.94	21.111
758.25	21.644
758.56	18.351
758.87	18.697
759.18	21.184
759.50	19.273
759.81	22.074
760.12	21.935
760.43	21.515
760.74	20.988
761.05	20.308
761.36	17.898
761.67	22.424
761.99	23.469
762.30	20.000
762.61	19.763
762.92	20.362
763.23	18.468
763.54	17.757
763.85	17.373
764.16	20.332
764.47	20.968
764.78	19.414
765.10	21.886
765.41	23.028
765.72	18.095
766.03	17.293
766.34	22.263
766.65	24.701
766.96	23.232
767.27	23.404
767.58	11.494
767.89	16.312
768.20	11.932
768.51	19.780
768.82	15.764
769.13	15.207
769.44	20.172
769.75	18.265
770.06	15.517
770.37	17.788
770.68	18.274
770.99	16.742
771.30	22.549
771.61	16.290
771.92	21.983
772.23	17.241
772.54	22.043
772.85	20.988
773.16	21.348
773.47	22.222
773.78	22.222
774.09	23.353
774.39	17.333
774.70	12.102
775.01	33.103
775.32	17.143
775.63	14.050
775.94	22.137
776.25	12.598
776.56	19.167
776.87	15.385
777.18	17.949
777.48	13.793
777.79	21.739
778.10	2.857
778.41	19.820
778.72	22.222
779.03	21.053
779.34	19.149
779.65	26.027
779.95	12.329
780.26	18.621
780.57	17.073
780.88	13.386
781.19	19.828
781.50	28.682
781.80	17.160
782.11	14.465
782.42	18.462
782.73	21.583
783.04	14.074
783.34	13.889
783.65	5.128
783.96	16.393
784.27	26.207
784.57	13.008
784.88	22.656
785.19	29.000
785.50	25.000
785.81	23.276
786.11	9.483
786.42	8.738
786.73	23.636
787.04	15.306
787.34	13.393
787.65	17.143
787.96	20.354
788.26	17.273
788.57	12.821
788.88	25.781
789.19	11.905
789.49	11.304
789.80	33.673
790.11	12.121
790.41	19.091
790.72	32.609
791.03	10.227
791.33	21.250
791.64	13.750
791.95	16.279
792.25	15.957
792.56	22.472
792.87	17.808
793.17	11.594
793.48	12.000
793.79	15.000
794.09	20.000
794.40	20.755
794.70	23.301
795.01	10.569
795.32	11.966
795.62	11.429
795.93	24.510
796.23	19.811
796.54	21.875
796.85	22.059
797.15	7.042
797.46	26.389
797.76	37.879
798.07	12.791
798.37	14.474
798.68	33.333
798.99	19.753
799.29	15.714
799.60	17.391
799.90	30.667
800.21	21.311
800.51	24.615
800.82	0.000
801.12	8.696
801.43	11.475
801.73	23.810
802.04	14.000
802.34	32.836
802.65	34.615
802.95	7.143
803.26	25.000
803.56	29.412
803.87	4.348
804.17	18.667
804.48	28.571
804.78	16.667
805.09	15.217
805.39	-8.889
805.70	25.926
806.00	-14.035
806.30	30.986
806.61	35.714
806.91	13.889
807.22	30.263
807.52	22.667
807.83	16.364
808.13	33.333
808.43	22.059
808.74	11.940
809.04	1.695
809.35	17.308
809.65	7.813
809.95	10.811
810.26	-20.455
810.56	20.548
810.86	9.524
811.17	20.000
811.47	10.204
811.77	15.789
812.08	9.091
812.38	13.208
812.69	7.500
812.99	0.000
813.29	-7.895
813.59	5.714
813.90	11.364
814.20	-7.692
814.50	17.308
814.81	18.868
815.11	12.766
815.41	20.339
815.72	16.667
816.02	0.000
816.32	-6.250
816.62	24.390
816.93	8.108
817.23	-8.571
817.53	39.583
817.84	2.174
818.14	30.769
818.44	-10.526
818.74	23.913
819.04	-22.500
819.35	2.703
819.65	17.647
819.95	2.778
820.25	28.571
820.56	17.500
820.86	-68.966
821.16	52.500
821.46	8.511
821.76	35.000
822.07	2.326
822.37	-32.432
822.67	12.500
822.97	28.571
823.27	-14.286
823.57	12.000
823.88	0.000
824.18	28.571
824.48	11.765
824.78	35.484
825.08	26.087
825.38	27.273
825.69	12.500
825.99	13.158
826.29	-5.556
826.59	33.333
826.89	4.762
827.19	4.348
827.49	0.000
827.79	17.143
828.09	53.571
828.39	27.273
828.70	29.730
829.00	10.714
829.30	-47.619
829.60	13.333
829.90	3.125
830.20	15.789
830.50	-3.704
830.80	4.348
831.10	13.636
831.40	42.424
831.70	22.581
832.00	61.905
832.30	-33.333
832.60	-25.000
832.90	34.483
833.20	-30.000
833.50	54.545
833.80	40.741
834.10	46.154
834.40	28.125
834.70	66.667
835.00	10.526
835.30	30.769
835.60	53.333
835.90	9.677
836.20	0.000
836.50	42.857
836.80	11.538
837.10	32.143
837.40	200.000
837.70	-4.545
838.00	-72.727
838.30	52.174
838.60	53.846
838.90	45.455
839.19	7.143
839.49	40.000
839.79	-15.385
840.09	-58.333
840.39	42.857
840.69	0.000
840.99	-19.231
841.29	5.263
841.59	-120.000
841.88	-54.545
842.18	-60.000
842.48	31.250
842.78	20.000
843.08	18.519
843.38	-120.000
843.68	69.565
843.97	53.333
844.27	6.667
844.57	20.000
844.87	-11.111
845.17	0.000
845.47	53.333
845.76	-14.286
846.06	23.529
846.36	40.000
846.66	-42.857
846.96	73.333
847.25	-50.000
847.55	35.714
847.85	25.000
848.15	-4.545
848.44	-300.000
848.74	25.000
849.04	29.630
849.34	-9.091
849.63	-83.333
849.93	-260.000
850.23	-5.556
850.53	150.000
850.82	-30.769
851.12	-77.778
851.42	40.000
851.71	11.538
852.01	85.714
852.31	0.000
852.61	9.091
852.90	5.000
853.20	31.579
853.50	50.000
853.79	34.783
854.09	41.667
854.39	47.368
854.68	37.500
854.98	3.226
855.28	19.231
855.57	0.000
855.87	55.556
856.17	37.037
856.46	0.000
856.76	73.333
857.05	11.111
857.35	12.000
857.65	38.889
857.94	7.692
858.24	27.586
858.53	0.000
858.83	25.926
859.13	18.182
859.42	-13.043
859.72	-25.000
860.01	-100.000
860.31	24.000
860.60	-4.762
860.90	-300.000
861.20	0.000
861.49	-400.000
861.79	-40.000
862.08	35.000
862.38	53.333
862.67	-120.000
862.97	-83.333
863.26	25.000
863.56	-5.556
863.85	-233.333
864.15	55.556
864.44	-110.000
864.74	0.000
865.03	350.000
865.33	-380.000
865.62	16.667
865.92	-91.667
866.21	-200.000
866.51	75.000
866.80	-100.000
867.10	-400.000
867.39	66.667
867.69	0.000
867.98	7.692
868.27	-300.000
868.57	66.667
868.86	38.889
869.16	15.385
869.45	66.667
869.75	-1800.000
870.04	0.000
870.33	-71.429
870.63	66.667
870.92	133.333
871.22	-140.000
871.51	-600.000
871.80	133.333
872.10	100.000
>>>>>End Processed Spectral Data<<<<<
