SpectraSuite Data File
++++++++++++++++++++++++++++++++++++
Date: Fri May 15 17:27:12 PDT 2015
User: schluterlab
Dark Spectrum Present: Yes
Reference Spectrum Present: Yes
Number of Sampled Component Spectra: 1
Spectrometers: USB2E3373
Integration Time (usec): 3000 (USB2E3373)
Spectra Averaged: 3 (USB2E3373)
Boxcar Smoothing: 0 (USB2E3373)
Correct for Electrical Dark: No (USB2E3373)
Strobe/Lamp Enabled: No (USB2E3373)
Correct for Detector Non-linearity: No (USB2E3373)
Correct for Stray Light: No (USB2E3373)
Number of Pixels in Processed Spectrum: 2048
>>>>>Begin Processed Spectral Data<<<<<
178.53	0.000
178.91	0.000
179.29	100.000
179.67	-200.000
180.04	-42.857
180.42	300.000
180.80	0.000
181.18	133.333
181.56	450.000
181.94	200.000
182.31	600.000
182.69	-140.000
183.07	-200.000
183.45	-20.000
183.83	183.333
184.20	-9.091
184.58	111.111
184.96	-150.000
185.34	-133.333
185.72	-100.000
186.09	107.692
186.47	0.000
186.85	100.000
187.23	122.222
187.61	-600.000
187.98	-233.333
188.36	11.111
188.74	-333.333
189.12	41.176
189.49	61.111
189.87	0.000
190.25	64.286
190.63	250.000
191.00	0.000
191.38	10.526
191.76	250.000
192.14	-125.000
192.51	200.000
192.89	33.333
193.27	0.000
193.65	66.667
194.02	100.000
194.40	100.000
194.78	-112.500
195.15	0.000
195.53	37.500
195.91	225.000
196.29	-150.000
196.66	100.000
197.04	171.429
197.42	44.444
197.79	-66.667
198.17	-107.692
198.55	1300.000
198.92	-100.000
199.30	-100.000
199.68	40.000
200.05	-233.333
200.43	0.000
200.81	466.667
201.18	-233.333
201.56	1100.000
201.94	-250.000
202.31	-233.333
202.69	-100.000
203.07	-175.000
203.44	500.000
203.82	0.000
204.19	64.286
204.57	-133.333
204.95	12.500
205.32	110.000
205.70	128.571
206.08	150.000
206.45	122.222
206.83	28.571
207.20	-171.429
207.58	400.000
207.96	0.000
208.33	-70.000
208.71	75.000
209.08	-83.333
209.46	0.000
209.84	-20.000
210.21	-1000.000
210.59	71.429
210.96	-200.000
211.34	50.000
211.71	13.333
212.09	-42.857
212.46	-1100.000
212.84	0.000
213.22	70.000
213.59	700.000
213.97	-23.077
214.34	9.091
214.72	-233.333
215.09	175.000
215.47	-46.154
215.84	45.455
216.22	-333.333
216.59	-37.500
216.97	850.000
217.34	0.000
217.72	-60.000
218.09	87.500
218.47	200.000
218.84	-100.000
219.22	-11.111
219.59	-20.000
219.97	100.000
220.34	75.000
220.72	128.571
221.09	-225.000
221.47	350.000
221.84	-300.000
222.22	-300.000
222.59	45.455
222.97	91.667
223.34	133.333
223.72	-7.143
224.09	-9.524
224.46	21.429
224.84	433.333
225.21	90.000
225.59	53.333
225.96	-50.000
226.34	150.000
226.71	14.286
227.08	0.000
227.46	-25.000
227.83	-500.000
228.21	33.333
228.58	90.909
228.95	0.000
229.33	100.000
229.70	-6.250
230.08	-137.500
230.45	-142.857
230.82	157.143
231.20	6.667
231.57	157.143
231.95	-14.286
232.32	-120.000
232.69	78.571
233.07	466.667
233.44	-60.000
233.81	-120.000
234.19	77.778
234.56	5.882
234.93	-250.000
235.31	325.000
235.68	-220.000
236.05	-15.385
236.43	20.000
236.80	82.353
237.17	28.125
237.55	-10.000
237.92	-29.630
238.29	13.889
238.67	83.333
239.04	14.706
239.41	-4.878
239.79	6.667
240.16	34.146
240.53	0.000
240.91	28.261
241.28	25.397
241.65	26.786
242.02	27.397
242.40	33.333
242.77	30.508
243.14	34.848
243.51	31.250
243.89	39.080
244.26	32.184
244.63	19.048
245.00	26.804
245.38	38.144
245.75	19.101
246.12	15.517
246.49	29.752
246.87	29.808
247.24	25.210
247.61	21.053
247.98	23.577
248.36	26.250
248.73	26.316
249.10	27.922
249.47	21.519
249.84	26.797
250.22	30.588
250.59	26.797
250.96	30.986
251.33	30.233
251.70	25.882
252.08	27.411
252.45	29.703
252.82	28.141
253.19	29.493
253.56	28.505
253.94	31.081
254.31	28.696
254.68	29.825
255.05	23.228
255.42	24.891
255.79	27.027
256.16	31.128
256.54	29.851
256.91	27.376
257.28	24.907
257.65	22.846
258.02	26.950
258.39	28.956
258.76	29.670
259.14	29.568
259.51	28.803
259.88	26.804
260.25	24.510
260.62	30.208
260.99	25.085
261.36	23.973
261.73	25.633
262.10	27.964
262.47	27.301
262.85	24.765
263.22	24.000
263.59	31.464
263.96	28.261
264.33	27.576
264.70	27.679
265.07	25.000
265.44	27.762
265.81	25.141
266.18	25.956
266.55	29.563
266.92	28.756
267.29	24.543
267.66	24.552
268.03	25.131
268.40	24.543
268.77	31.283
269.14	26.379
269.51	29.049
269.88	24.439
270.25	26.276
270.62	25.366
270.99	23.529
271.36	23.227
271.73	29.577
272.10	26.277
272.47	27.423
272.84	26.485
273.21	26.218
273.58	26.265
273.95	27.689
274.32	25.635
274.69	23.982
275.06	27.232
275.43	23.583
275.80	26.932
276.17	24.598
276.54	27.623
276.91	23.684
277.28	26.419
277.65	28.306
278.02	23.404
278.39	22.976
278.76	28.721
279.13	23.651
279.50	26.891
279.87	25.918
280.23	26.022
280.60	27.875
280.97	23.434
281.34	27.115
281.71	26.283
282.08	25.153
282.45	25.049
282.82	23.359
283.19	25.338
283.56	26.397
283.92	24.288
284.29	25.000
284.66	25.388
285.03	23.183
285.40	26.087
285.77	23.726
286.14	23.646
286.51	24.170
286.87	27.239
287.24	23.020
287.61	24.868
287.98	25.614
288.35	23.050
288.72	24.168
289.08	21.701
289.45	23.199
289.82	23.252
290.19	21.502
290.56	20.755
290.93	22.391
291.29	20.185
291.66	24.094
292.03	23.126
292.40	21.452
292.77	23.445
293.13	19.968
293.50	22.155
293.87	22.290
294.24	20.556
294.60	21.610
294.97	21.726
295.34	18.405
295.71	19.821
296.08	19.731
296.44	17.212
296.81	19.167
297.18	19.420
297.55	19.648
297.91	19.452
298.28	19.261
298.65	18.725
299.02	18.464
299.38	15.732
299.75	18.897
300.12	18.194
300.48	17.787
300.85	18.758
301.22	20.130
301.59	17.632
301.95	17.595
302.32	19.066
302.69	17.786
303.05	17.327
303.42	18.057
303.79	16.706
304.15	17.802
304.52	17.479
304.89	17.895
305.25	16.828
305.62	16.453
305.99	17.427
306.35	17.110
306.72	15.861
307.09	17.218
307.45	17.107
307.82	16.898
308.19	16.957
308.55	17.012
308.92	19.172
309.29	15.084
309.65	16.254
310.02	14.961
310.38	16.026
310.75	17.814
311.12	16.469
311.48	17.179
311.85	17.277
312.22	16.034
312.58	16.985
312.95	15.368
313.31	15.735
313.68	15.393
314.05	16.327
314.41	16.082
314.78	15.464
315.14	17.472
315.51	16.253
315.87	16.496
316.24	18.908
316.61	17.323
316.97	17.063
317.34	17.773
317.70	16.826
318.07	15.673
318.43	17.255
318.80	17.045
319.16	17.871
319.53	17.569
319.89	17.520
320.26	18.219
320.62	17.854
320.99	17.328
321.35	17.986
321.72	18.380
322.08	20.040
322.45	18.274
322.81	18.075
323.18	17.370
323.54	18.340
323.91	18.500
324.27	19.629
324.64	19.850
325.00	21.259
325.37	21.763
325.73	20.218
326.10	21.708
326.46	22.691
326.83	23.097
327.19	22.319
327.56	23.197
327.92	23.327
328.29	23.839
328.65	24.717
329.01	24.908
329.38	25.622
329.74	26.157
330.11	26.228
330.47	25.974
330.84	26.923
331.20	29.658
331.56	26.389
331.93	28.311
332.29	29.606
332.66	28.235
333.02	28.346
333.38	27.864
333.75	29.121
334.11	28.111
334.48	29.556
334.84	29.396
335.20	30.284
335.57	29.918
335.93	30.081
336.29	29.466
336.66	30.336
337.02	29.554
337.38	30.093
337.75	30.818
338.11	30.748
338.47	31.661
338.84	31.885
339.20	31.261
339.56	31.651
339.93	31.065
340.29	30.459
340.65	31.183
341.02	31.117
341.38	31.770
341.74	31.184
342.11	30.676
342.47	32.295
342.83	31.747
343.20	31.794
343.56	32.522
343.92	31.532
344.28	33.646
344.65	33.074
345.01	32.498
345.37	31.119
345.73	32.134
346.10	34.167
346.46	32.380
346.82	32.570
347.19	31.505
347.55	31.830
347.91	31.715
348.27	32.498
348.63	32.198
349.00	31.337
349.36	32.668
349.72	33.665
350.08	31.803
350.45	31.604
350.81	31.395
351.17	31.922
351.53	33.143
351.89	32.122
352.26	30.720
352.62	33.145
352.98	32.369
353.34	32.770
353.70	32.443
354.07	32.661
354.43	32.346
354.79	33.691
355.15	33.889
355.51	32.991
355.87	32.848
356.24	31.321
356.60	32.175
356.96	33.492
357.32	31.869
357.68	32.838
358.04	34.006
358.40	34.003
358.77	32.775
359.13	34.588
359.49	32.820
359.85	33.385
360.21	32.935
360.57	33.588
360.93	34.493
361.29	32.024
361.66	34.639
362.02	33.712
362.38	34.653
362.74	34.671
363.10	34.086
363.46	34.099
363.82	35.237
364.18	35.277
364.54	34.191
364.90	34.050
365.26	34.425
365.62	35.620
365.98	34.531
366.35	36.344
366.71	36.659
367.07	36.430
367.43	35.226
367.79	36.678
368.15	35.319
368.51	35.615
368.87	35.894
369.23	34.440
369.59	35.714
369.95	35.191
370.31	35.910
370.67	36.493
371.03	36.370
371.39	35.376
371.75	36.630
372.11	35.877
372.47	37.574
372.83	37.331
373.19	36.876
373.55	35.235
373.91	36.573
374.27	38.271
374.63	36.540
374.99	37.021
375.35	38.231
375.71	37.762
376.07	38.483
376.42	37.687
376.78	38.792
377.14	38.050
377.50	39.110
377.86	38.554
378.22	40.013
378.58	39.231
378.94	38.689
379.30	39.800
379.66	40.000
380.02	40.589
380.38	40.596
380.74	40.215
381.09	41.840
381.45	41.957
381.81	42.751
382.17	41.878
382.53	42.598
382.89	42.812
383.25	42.315
383.61	43.049
383.97	44.127
384.32	42.714
384.68	42.910
385.04	42.279
385.40	42.937
385.76	44.088
386.12	44.955
386.48	45.211
386.83	43.500
387.19	44.383
387.55	44.981
387.91	45.660
388.27	44.872
388.62	46.759
388.98	44.015
389.34	45.097
389.70	45.245
390.06	46.193
390.42	46.438
390.77	46.305
391.13	45.776
391.49	46.766
391.85	47.693
392.20	46.453
392.56	47.044
392.92	48.150
393.28	47.347
393.64	47.808
393.99	47.461
394.35	46.806
394.71	47.510
395.07	47.643
395.42	47.237
395.78	48.469
396.14	48.172
396.50	48.573
396.85	49.131
397.21	48.183
397.57	48.339
397.92	48.232
398.28	48.046
398.64	47.530
399.00	49.492
399.35	47.912
399.71	48.363
400.07	48.489
400.42	48.225
400.78	48.561
401.14	48.336
401.49	49.315
401.85	48.202
402.21	48.614
402.57	47.812
402.92	49.184
403.28	49.812
403.63	49.811
403.99	50.064
404.35	49.656
404.70	47.738
405.06	49.177
405.42	49.410
405.77	48.925
406.13	49.884
406.49	49.082
406.84	49.205
407.20	49.187
407.55	49.195
407.91	48.396
408.27	48.821
408.62	50.031
408.98	50.031
409.34	50.124
409.69	49.225
410.05	48.214
410.40	49.753
410.76	49.095
411.11	49.375
411.47	49.047
411.83	47.897
412.18	50.772
412.54	49.064
412.89	49.076
413.25	50.662
413.60	49.379
413.96	48.896
414.31	49.390
414.67	49.198
415.03	49.201
415.38	50.000
415.74	51.075
416.09	48.857
416.45	50.979
416.80	49.967
417.16	50.622
417.51	49.101
417.87	49.674
418.22	50.518
418.58	49.766
418.93	50.721
419.29	49.040
419.64	50.940
420.00	50.630
420.35	50.746
420.71	51.094
421.06	50.952
421.42	51.082
421.77	51.272
422.12	50.795
422.48	51.056
422.83	50.928
423.19	52.257
423.54	51.029
423.90	50.294
424.25	51.378
424.61	51.285
424.96	51.742
425.31	53.380
425.67	52.465
426.02	52.827
426.38	52.912
426.73	51.695
427.09	52.722
427.44	52.294
427.79	52.210
428.15	52.731
428.50	51.726
428.85	50.553
429.21	52.915
429.56	52.022
429.92	52.388
430.27	51.629
430.62	51.281
430.98	51.858
431.33	52.419
431.68	52.119
432.04	50.978
432.39	51.112
432.74	52.135
433.10	53.103
433.45	51.254
433.80	52.815
434.16	52.632
434.51	53.495
434.86	53.426
435.22	53.113
435.57	54.086
435.92	53.473
436.28	52.534
436.63	53.908
436.98	52.607
437.34	53.055
437.69	52.415
438.04	53.561
438.39	53.574
438.75	53.370
439.10	53.424
439.45	54.960
439.81	53.823
440.16	55.760
440.51	53.791
440.86	56.798
441.22	53.790
441.57	54.801
441.92	55.509
442.27	55.488
442.63	55.300
442.98	54.337
443.33	54.090
443.68	54.058
444.03	55.539
444.39	54.353
444.74	56.187
445.09	55.178
445.44	56.410
445.79	55.286
446.15	54.460
446.50	55.297
446.85	56.323
447.20	55.735
447.55	56.473
447.91	55.217
448.26	55.435
448.61	56.937
448.96	57.143
449.31	56.879
449.66	56.620
450.02	54.421
450.37	56.017
450.72	55.155
451.07	56.899
451.42	55.868
451.77	56.299
452.12	55.203
452.47	55.570
452.83	56.537
453.18	56.040
453.53	56.384
453.88	56.223
454.23	55.931
454.58	56.234
454.93	56.572
455.28	55.492
455.63	56.293
455.98	55.983
456.34	56.130
456.69	56.480
457.04	55.640
457.39	56.015
457.74	55.502
458.09	55.091
458.44	55.939
458.79	55.966
459.14	56.636
459.49	56.239
459.84	55.386
460.19	56.371
460.54	56.479
460.89	55.795
461.24	55.963
461.59	55.701
461.94	54.906
462.29	54.644
462.64	56.279
462.99	55.179
463.34	55.007
463.69	56.821
464.04	55.751
464.39	56.095
464.74	56.564
465.09	55.209
465.44	55.049
465.79	54.762
466.14	55.416
466.49	55.894
466.84	56.038
467.19	55.757
467.54	56.258
467.89	55.148
468.24	54.501
468.59	55.937
468.94	56.127
469.29	55.475
469.64	55.639
469.99	57.463
470.34	54.266
470.68	53.915
471.03	54.848
471.38	55.920
471.73	54.552
472.08	55.427
472.43	55.436
472.78	54.764
473.13	56.190
473.48	55.114
473.83	55.791
474.17	56.671
474.52	56.796
474.87	54.667
475.22	56.010
475.57	55.392
475.92	54.690
476.27	55.413
476.61	57.176
476.96	54.434
477.31	55.760
477.66	54.551
478.01	55.194
478.36	54.956
478.70	57.477
479.05	55.769
479.40	56.704
479.75	53.806
480.10	53.866
480.45	55.800
480.79	57.503
481.14	55.789
481.49	55.271
481.84	56.274
482.19	54.724
482.53	56.259
482.88	55.943
483.23	54.271
483.58	53.962
483.92	54.889
484.27	54.512
484.62	54.325
484.97	55.431
485.31	54.733
485.66	55.508
486.01	57.474
486.36	56.685
486.70	56.649
487.05	56.466
487.40	55.946
487.75	54.648
488.09	53.585
488.44	53.508
488.79	53.717
489.13	54.447
489.48	54.382
489.83	53.722
490.17	53.753
490.52	54.226
490.87	52.615
491.22	54.489
491.56	54.507
491.91	52.868
492.26	54.302
492.60	53.311
492.95	55.632
493.30	54.372
493.64	55.108
493.99	53.720
494.34	53.981
494.68	53.905
495.03	52.847
495.37	54.760
495.72	54.165
496.07	54.585
496.41	53.726
496.76	55.044
497.11	54.262
497.45	54.702
497.80	54.743
498.14	54.049
498.49	53.936
498.84	53.693
499.18	54.669
499.53	54.712
499.87	54.669
500.22	54.847
500.56	55.219
500.91	54.317
501.26	53.337
501.60	54.894
501.95	53.615
502.29	54.915
502.64	54.199
502.98	55.501
503.33	52.642
503.67	53.542
504.02	54.985
504.36	54.824
504.71	53.939
505.06	53.900
505.40	54.315
505.75	54.536
506.09	52.965
506.44	55.544
506.78	54.337
507.13	54.240
507.47	52.950
507.82	54.594
508.16	53.619
508.51	55.037
508.85	54.108
509.19	54.125
509.54	54.263
509.88	52.967
510.23	53.954
510.57	53.715
510.92	52.505
511.26	54.337
511.61	55.611
511.95	54.137
512.30	54.823
512.64	53.923
512.98	53.678
513.33	53.330
513.67	53.610
514.02	55.549
514.36	53.829
514.70	54.196
515.05	55.347
515.39	54.486
515.74	54.970
516.08	54.453
516.42	54.947
516.77	53.950
517.11	55.312
517.46	55.416
517.80	53.576
518.14	53.950
518.49	54.207
518.83	55.286
519.17	52.032
519.52	53.700
519.86	54.322
520.20	55.589
520.55	52.533
520.89	53.199
521.23	54.085
521.58	54.132
521.92	53.205
522.26	53.871
522.61	53.896
522.95	54.238
523.29	54.828
523.64	55.400
523.98	55.412
524.32	53.673
524.66	54.673
525.01	54.351
525.35	54.051
525.69	54.478
526.04	54.696
526.38	53.761
526.72	52.780
527.06	53.243
527.41	54.024
527.75	54.826
528.09	54.153
528.43	55.841
528.78	54.983
529.12	54.581
529.46	55.036
529.80	54.022
530.15	55.446
530.49	55.286
530.83	55.746
531.17	54.197
531.51	55.404
531.86	52.957
532.20	54.071
532.54	54.527
532.88	54.894
533.22	54.772
533.57	54.849
533.91	55.614
534.25	56.771
534.59	55.869
534.93	54.059
535.27	54.569
535.62	54.180
535.96	54.468
536.30	54.551
536.64	55.272
536.98	54.843
537.32	54.836
537.66	54.418
538.01	54.336
538.35	55.062
538.69	54.328
539.03	54.204
539.37	54.374
539.71	54.329
540.05	55.397
540.39	55.055
540.73	55.649
541.07	55.249
541.42	54.368
541.76	55.471
542.10	54.714
542.44	56.011
542.78	54.233
543.12	56.044
543.46	53.408
543.80	55.170
544.14	53.471
544.48	54.164
544.82	55.571
545.16	56.694
545.50	53.338
545.84	54.745
546.18	54.965
546.52	54.074
546.86	54.709
547.20	55.722
547.54	53.640
547.88	55.095
548.22	54.767
548.56	54.024
548.90	55.795
549.24	53.857
549.58	53.738
549.92	53.252
550.26	53.480
550.60	55.316
550.94	54.966
551.28	54.791
551.62	55.615
551.96	56.015
552.30	55.263
552.64	54.795
552.98	53.586
553.32	54.850
553.66	53.701
554.00	54.307
554.34	54.431
554.68	53.835
555.02	54.688
555.36	54.151
555.69	55.018
556.03	54.532
556.37	55.089
556.71	53.791
557.05	56.600
557.39	53.234
557.73	55.247
558.07	55.204
558.41	54.441
558.75	55.495
559.08	54.768
559.42	55.873
559.76	55.965
560.10	54.511
560.44	55.622
560.78	54.895
561.12	55.994
561.45	56.219
561.79	54.832
562.13	55.926
562.47	55.324
562.81	54.755
563.15	55.289
563.48	55.446
563.82	55.800
564.16	56.198
564.50	56.149
564.84	55.622
565.17	55.869
565.51	56.626
565.85	56.516
566.19	55.040
566.52	56.367
566.86	57.069
567.20	56.476
567.54	58.090
567.88	58.055
568.21	56.844
568.55	57.337
568.89	58.162
569.23	58.690
569.56	57.356
569.90	58.790
570.24	57.722
570.57	58.982
570.91	58.452
571.25	58.040
571.59	57.895
571.92	56.533
572.26	57.850
572.60	57.147
572.93	56.605
573.27	57.837
573.61	57.518
573.95	57.701
574.28	57.574
574.62	57.539
574.96	57.417
575.29	57.420
575.63	55.947
575.97	56.519
576.30	56.958
576.64	55.868
576.98	57.992
577.31	58.688
577.65	58.372
577.98	58.538
578.32	58.540
578.66	57.124
578.99	57.511
579.33	57.582
579.67	56.876
580.00	57.139
580.34	58.159
580.67	56.850
581.01	58.093
581.35	56.977
581.68	58.768
582.02	58.414
582.35	58.793
582.69	59.116
583.02	58.257
583.36	58.434
583.70	58.879
584.03	58.632
584.37	59.119
584.70	57.610
585.04	57.176
585.37	58.354
585.71	58.751
586.04	58.775
586.38	57.295
586.72	57.963
587.05	59.445
587.39	58.457
587.72	59.431
588.06	58.954
588.39	57.875
588.73	58.394
589.06	58.643
589.40	57.380
589.73	58.562
590.07	58.912
590.40	58.166
590.73	58.320
591.07	57.718
591.40	57.435
591.74	57.376
592.07	58.395
592.41	58.304
592.74	58.264
593.08	57.981
593.41	59.012
593.75	58.194
594.08	58.290
594.41	56.732
594.75	57.595
595.08	59.024
595.42	58.226
595.75	59.482
596.09	58.561
596.42	58.041
596.75	56.083
597.09	57.813
597.42	57.407
597.75	58.727
598.09	56.813
598.42	56.588
598.76	58.215
599.09	58.894
599.42	57.484
599.76	58.239
600.09	58.258
600.42	58.264
600.76	57.875
601.09	58.550
601.42	57.893
601.76	57.920
602.09	58.581
602.42	58.340
602.76	58.489
603.09	59.053
603.42	60.535
603.76	58.710
604.09	57.999
604.42	59.475
604.76	59.146
605.09	59.004
605.42	58.149
605.75	57.793
606.09	58.132
606.42	57.756
606.75	58.052
607.09	58.374
607.42	57.820
607.75	58.259
608.08	57.278
608.42	57.286
608.75	59.518
609.08	59.193
609.41	58.629
609.75	57.611
610.08	58.812
610.41	56.908
610.74	58.752
611.07	59.483
611.41	58.485
611.74	58.156
612.07	57.173
612.40	58.206
612.73	58.870
613.07	56.693
613.40	57.604
613.73	59.989
614.06	57.373
614.39	58.488
614.72	56.639
615.06	57.821
615.39	56.932
615.72	57.212
616.05	57.989
616.38	57.322
616.71	58.165
617.05	58.740
617.38	58.517
617.71	57.610
618.04	58.540
618.37	59.269
618.70	58.746
619.03	59.444
619.36	56.729
619.69	58.453
620.03	59.533
620.36	57.868
620.69	58.173
621.02	56.575
621.35	57.925
621.68	58.929
622.01	59.750
622.34	58.260
622.67	56.625
623.00	56.662
623.33	58.003
623.66	57.666
623.99	56.884
624.32	58.707
624.65	57.519
624.99	59.819
625.32	57.240
625.65	58.052
625.98	58.259
626.31	57.523
626.64	57.972
626.97	58.290
627.30	58.844
627.63	58.752
627.96	58.760
628.29	57.817
628.62	56.932
628.95	57.014
629.28	56.956
629.61	57.827
629.94	57.087
630.26	56.818
630.59	58.793
630.92	56.513
631.25	55.077
631.58	56.608
631.91	55.921
632.24	57.798
632.57	56.477
632.90	57.058
633.23	56.118
633.56	58.312
633.89	58.076
634.22	57.037
634.55	56.417
634.88	57.344
635.20	55.513
635.53	58.267
635.86	55.917
636.19	58.991
636.52	55.740
636.85	56.452
637.18	56.226
637.51	55.472
637.83	56.899
638.16	58.390
638.49	54.496
638.82	57.368
639.15	57.395
639.48	55.708
639.81	57.462
640.13	56.999
640.46	57.872
640.79	54.197
641.12	57.164
641.45	57.357
641.77	55.704
642.10	59.242
642.43	55.949
642.76	55.281
643.09	54.927
643.41	55.987
643.74	53.377
644.07	57.635
644.40	57.095
644.73	59.370
645.05	54.027
645.38	58.730
645.71	57.624
646.04	58.528
646.36	55.674
646.69	56.655
647.02	60.681
647.35	55.597
647.67	54.845
648.00	55.224
648.33	55.802
648.66	57.288
648.98	56.114
649.31	58.017
649.64	56.358
649.96	56.240
650.29	59.796
650.62	55.043
650.94	58.148
651.27	55.307
651.60	58.198
651.92	56.469
652.25	55.240
652.58	55.667
652.90	57.290
653.23	55.462
653.56	55.499
653.88	55.326
654.21	54.991
654.54	54.160
654.86	57.725
655.19	57.310
655.52	64.164
655.84	64.619
656.17	72.128
656.49	96.564
656.82	98.424
657.15	74.891
657.47	54.944
657.80	41.368
658.13	39.512
658.45	60.175
658.78	58.500
659.10	57.239
659.43	55.877
659.75	57.326
660.08	56.000
660.41	58.223
660.73	56.215
661.06	53.206
661.38	51.859
661.71	52.977
662.03	57.511
662.36	56.703
662.68	57.301
663.01	52.620
663.33	57.309
663.66	55.116
663.98	53.488
664.31	56.503
664.63	55.991
664.96	53.043
665.28	52.318
665.61	56.277
665.93	57.391
666.26	58.351
666.58	54.810
666.91	57.882
667.23	56.840
667.56	55.687
667.88	56.835
668.21	57.757
668.53	57.920
668.86	57.547
669.18	53.302
669.50	58.354
669.83	52.791
670.15	54.312
670.48	56.699
670.80	58.295
671.13	51.902
671.45	50.913
671.77	57.940
672.10	55.644
672.42	55.993
672.75	58.259
673.07	58.318
673.39	58.716
673.72	53.846
674.04	57.083
674.37	57.839
674.69	58.244
675.01	56.222
675.34	56.982
675.66	56.250
675.98	56.098
676.31	55.275
676.63	56.532
676.95	55.909
677.28	59.765
677.60	58.313
677.92	57.339
678.25	56.236
678.57	57.576
678.89	55.672
679.22	59.508
679.54	54.819
679.86	56.461
680.18	57.476
680.51	58.144
680.83	57.256
681.15	56.000
681.48	61.066
681.80	58.264
682.12	57.460
682.44	57.531
682.77	58.057
683.09	55.606
683.41	55.227
683.73	53.456
684.06	55.752
684.38	53.548
684.70	63.181
685.02	61.411
685.34	57.905
685.67	60.413
685.99	59.494
686.31	58.230
686.63	60.111
686.96	54.943
687.28	57.576
687.60	55.323
687.92	60.404
688.24	57.661
688.56	58.079
688.89	56.920
689.21	56.889
689.53	56.148
689.85	59.767
690.17	58.259
690.49	58.156
690.82	52.670
691.14	53.333
691.46	59.813
691.78	58.784
692.10	60.430
692.42	58.658
692.74	57.265
693.06	60.360
693.39	55.430
693.71	55.204
694.03	57.737
694.35	55.140
694.67	57.071
694.99	58.225
695.31	56.658
695.63	56.000
695.95	56.313
696.27	56.995
696.59	55.278
696.91	54.342
697.23	55.270
697.56	59.653
697.88	58.065
698.20	60.364
698.52	60.706
698.84	56.699
699.16	57.750
699.48	55.890
699.80	56.328
700.12	60.377
700.44	55.182
700.76	51.163
701.08	54.242
701.40	58.434
701.72	58.642
702.04	62.046
702.36	63.545
702.68	54.655
703.00	60.606
703.32	56.305
703.64	53.672
703.96	57.101
704.28	56.135
704.60	57.460
704.91	52.366
705.23	57.807
705.55	58.304
705.87	62.094
706.19	58.148
706.51	56.701
706.83	57.556
707.15	59.813
707.47	61.905
707.79	58.073
708.11	58.750
708.43	58.250
708.74	57.881
709.06	63.380
709.38	59.939
709.70	57.101
710.02	57.006
710.34	56.656
710.66	55.128
710.98	58.278
711.29	61.967
711.61	65.085
711.93	58.958
712.25	58.763
712.57	57.875
712.89	59.328
713.20	57.785
713.52	57.491
713.84	55.631
714.16	59.107
714.48	57.742
714.80	60.897
715.11	59.878
715.43	58.934
715.75	59.333
716.07	54.817
716.39	60.738
716.70	57.565
717.02	51.908
717.34	57.490
717.66	60.177
717.97	59.565
718.29	56.485
718.61	57.087
718.93	54.651
719.24	60.076
719.56	59.438
719.88	53.952
720.20	57.197
720.51	57.854
720.83	57.915
721.15	62.185
721.46	60.081
721.78	57.312
722.10	56.877
722.42	60.166
722.73	59.592
723.05	61.224
723.37	61.017
723.68	57.207
724.00	55.128
724.32	59.556
724.63	59.091
724.95	60.262
725.27	69.124
725.58	63.559
725.90	59.524
726.22	57.143
726.53	58.305
726.85	64.045
727.16	64.151
727.48	58.300
727.80	55.466
728.11	60.593
728.43	55.294
728.74	58.065
729.06	60.400
729.38	60.150
729.69	56.972
730.01	57.308
730.32	59.701
730.64	59.011
730.96	57.358
731.27	56.667
731.59	59.322
731.90	60.191
732.22	60.252
732.53	63.455
732.85	63.475
733.16	59.259
733.48	55.755
733.80	56.159
734.11	58.644
734.43	65.636
734.74	61.515
735.06	60.586
735.37	58.006
735.69	63.636
736.00	60.627
736.32	60.738
736.63	63.380
736.95	61.092
737.26	59.786
737.58	54.027
737.89	61.538
738.21	62.030
738.52	62.140
738.83	61.572
739.15	55.022
739.46	63.386
739.78	62.637
740.09	58.497
740.41	60.507
740.72	59.449
741.04	59.514
741.35	58.723
741.66	59.242
741.98	63.265
742.29	55.446
742.61	61.780
742.92	53.555
743.23	49.074
743.55	64.253
743.86	59.809
744.18	60.766
744.49	55.851
744.80	55.978
745.12	67.914
745.43	56.098
745.74	60.417
746.06	60.488
746.37	59.686
746.68	56.398
747.00	61.170
747.31	62.189
747.62	58.252
747.94	65.550
748.25	55.446
748.56	69.945
748.88	57.068
749.19	59.574
749.50	63.547
749.82	57.075
750.13	63.303
750.44	60.526
750.75	63.060
751.07	63.139
751.38	59.770
751.69	60.392
752.01	61.628
752.32	59.363
752.63	59.289
752.94	62.931
753.26	64.435
753.57	58.371
753.88	58.850
754.19	60.833
754.51	67.355
754.82	57.490
755.13	62.917
755.44	60.484
755.75	62.500
756.07	61.089
756.38	60.000
756.69	59.387
757.00	59.000
757.31	59.150
757.63	57.317
757.94	56.111
758.25	56.986
758.56	59.309
758.87	56.657
759.18	55.763
759.50	65.091
759.81	57.525
760.12	63.871
760.43	59.091
760.74	60.802
761.05	59.385
761.36	57.386
761.67	61.212
761.99	62.585
762.30	58.545
762.61	57.312
762.92	61.086
763.23	57.207
763.54	59.346
763.85	62.288
764.16	56.846
764.47	52.823
764.78	58.974
765.10	63.300
765.41	61.830
765.72	62.222
766.03	63.534
766.34	61.314
766.65	58.167
766.96	59.596
767.27	56.383
767.58	53.448
767.89	58.156
768.20	56.250
768.51	53.846
768.82	52.709
769.13	55.300
769.44	54.077
769.75	55.251
770.06	56.897
770.37	65.385
770.68	59.391
770.99	52.036
771.30	63.725
771.61	59.729
771.92	58.190
772.23	62.069
772.54	54.839
772.85	63.580
773.16	62.360
773.47	64.706
773.78	60.131
774.09	58.084
774.39	54.667
774.70	56.688
775.01	73.103
775.32	60.714
775.63	55.372
775.94	59.542
776.25	58.268
776.56	46.667
776.87	62.500
777.18	55.556
777.48	55.172
777.79	61.739
778.10	52.381
778.41	48.649
778.72	65.079
779.03	65.414
779.34	58.156
779.65	62.329
779.95	58.219
780.26	62.069
780.57	54.472
780.88	48.031
781.19	58.621
781.50	64.341
781.80	53.254
782.11	61.006
782.42	74.615
782.73	60.432
783.04	63.704
783.34	51.389
783.65	58.974
783.96	62.295
784.27	53.103
784.57	61.789
784.88	52.344
785.19	62.000
785.50	65.000
785.81	58.621
786.11	53.448
786.42	61.165
786.73	54.545
787.04	67.347
787.34	46.429
787.65	42.857
787.96	47.788
788.26	69.091
788.57	52.991
788.88	57.812
789.19	60.317
789.49	55.652
789.80	51.020
790.11	52.525
790.41	41.818
790.72	61.957
791.03	59.091
791.33	76.250
791.64	65.000
791.95	47.674
792.25	55.319
792.56	56.180
792.87	53.425
793.17	59.420
793.48	52.000
793.79	46.250
794.09	76.250
794.40	56.604
794.70	53.398
795.01	41.463
795.32	56.410
795.62	58.095
795.93	58.824
796.23	56.604
796.54	53.125
796.85	52.941
797.15	46.479
797.46	50.000
797.76	75.758
798.07	53.488
798.37	55.263
798.68	46.970
798.99	46.914
799.29	51.429
799.60	62.319
799.90	54.667
800.21	54.098
800.51	52.308
800.82	47.458
801.12	56.522
801.43	50.820
801.73	63.492
802.04	56.000
802.34	41.791
802.65	48.077
802.95	32.143
803.26	67.308
803.56	41.176
803.87	34.783
804.17	52.000
804.48	60.317
804.78	37.037
805.09	54.348
805.39	37.778
805.70	68.519
806.00	31.579
806.30	49.296
806.61	60.000
806.91	43.056
807.22	56.579
807.52	62.667
807.83	58.182
808.13	58.333
808.43	73.529
808.74	55.224
809.04	47.458
809.35	63.462
809.65	39.063
809.95	45.946
810.26	47.727
810.56	45.205
810.86	64.286
811.17	44.000
811.47	57.143
811.77	26.316
812.08	75.000
812.38	49.057
812.69	60.000
812.99	54.545
813.29	57.895
813.59	25.714
813.90	59.091
814.20	66.667
814.50	46.154
814.81	49.057
815.11	36.170
815.41	54.237
815.72	47.619
816.02	76.471
816.32	52.083
816.62	46.341
816.93	13.514
817.23	60.000
817.53	58.333
817.84	45.652
818.14	42.308
818.44	23.684
818.74	93.478
819.04	15.000
819.35	35.135
819.65	38.235
819.95	41.667
820.25	42.857
820.56	55.000
820.86	55.172
821.16	95.000
821.46	46.809
821.76	65.000
822.07	65.116
822.37	8.108
822.67	25.000
822.97	45.238
823.27	25.000
823.57	32.000
823.88	51.852
824.18	60.714
824.48	47.059
824.78	3.226
825.08	52.174
825.38	21.212
825.69	12.500
825.99	34.211
826.29	44.444
826.59	86.667
826.89	23.810
827.19	43.478
827.49	37.500
827.79	45.714
828.09	57.143
828.39	45.455
828.70	67.568
829.00	57.143
829.30	9.524
829.60	53.333
829.90	37.500
830.20	26.316
830.50	48.148
830.80	104.348
831.10	27.273
831.40	75.758
831.70	32.258
832.00	104.762
832.30	-14.286
832.60	8.333
832.90	62.069
833.20	45.000
833.50	63.636
833.80	11.111
834.10	46.154
834.40	62.500
834.70	100.000
835.00	42.105
835.30	76.923
835.60	113.333
835.90	51.613
836.20	9.091
836.50	78.571
836.80	38.462
837.10	-3.571
837.40	33.333
837.70	27.273
838.00	-90.909
838.30	30.435
838.60	115.385
838.90	45.455
839.19	39.286
839.49	36.667
839.79	53.846
840.09	33.333
840.39	92.857
840.69	7.143
840.99	23.077
841.29	10.526
841.59	80.000
841.88	9.091
842.18	90.000
842.48	25.000
842.78	73.333
843.08	40.741
843.38	-40.000
843.68	21.739
843.97	13.333
844.27	-26.667
844.57	5.000
844.87	33.333
845.17	47.619
845.47	93.333
845.76	0.000
846.06	23.529
846.36	30.000
846.66	-50.000
846.96	100.000
847.25	-25.000
847.55	150.000
847.85	50.000
848.15	-18.182
848.44	-266.667
848.74	40.000
849.04	44.444
849.34	36.364
849.63	-100.000
849.93	-20.000
850.23	72.222
850.53	50.000
850.82	61.538
851.12	-55.556
851.42	60.000
851.71	57.692
852.01	42.857
852.31	-100.000
852.61	63.636
852.90	30.000
853.20	10.526
853.50	66.667
853.79	47.826
854.09	70.833
854.39	42.105
854.68	20.833
854.98	45.161
855.28	34.615
855.57	60.000
855.87	38.889
856.17	48.148
856.46	64.286
856.76	26.667
857.05	144.444
857.35	8.000
857.65	22.222
857.94	7.692
858.24	75.862
858.53	66.667
858.83	40.741
859.13	50.000
859.42	21.739
859.72	250.000
860.01	-133.333
860.31	32.000
860.60	42.857
860.90	-333.333
861.20	-6.667
861.49	-250.000
861.79	6.667
862.08	25.000
862.38	106.667
862.67	-100.000
862.97	50.000
863.26	16.667
863.56	27.778
863.85	-333.333
864.15	33.333
864.44	20.000
864.74	78.571
865.03	-0.000
865.33	20.000
865.62	0.000
865.92	50.000
866.21	-33.333
866.51	12.500
866.80	0.000
867.10	-50.000
867.39	41.667
867.69	0.000
867.98	-30.769
868.27	100.000
868.57	73.333
868.86	55.556
869.16	23.077
869.45	106.667
869.75	-500.000
870.04	0.000
870.33	-85.714
870.63	9.524
870.92	366.667
871.22	-240.000
871.51	-800.000
871.80	55.556
872.10	133.333
>>>>>End Processed Spectral Data<<<<<
