SpectraSuite Data File
++++++++++++++++++++++++++++++++++++
Date: Fri May 15 20:02:26 PDT 2015
User: schluterlab
Dark Spectrum Present: Yes
Reference Spectrum Present: Yes
Number of Sampled Component Spectra: 1
Spectrometers: USB2E3373
Integration Time (usec): 3000 (USB2E3373)
Spectra Averaged: 3 (USB2E3373)
Boxcar Smoothing: 0 (USB2E3373)
Correct for Electrical Dark: No (USB2E3373)
Strobe/Lamp Enabled: No (USB2E3373)
Correct for Detector Non-linearity: No (USB2E3373)
Correct for Stray Light: No (USB2E3373)
Number of Pixels in Processed Spectrum: 2048
>>>>>Begin Processed Spectral Data<<<<<
178.53	0.000
178.91	0.000
179.29	162.500
179.67	-100.000
180.04	-42.857
180.42	50.000
180.80	200.000
181.18	233.333
181.56	-100.000
181.94	-50.000
182.31	-500.000
182.69	-20.000
183.07	166.667
183.45	-180.000
183.83	33.333
184.20	81.818
184.58	-22.222
184.96	75.000
185.34	33.333
185.72	-50.000
186.09	84.615
186.47	-800.000
186.85	83.333
187.23	155.556
187.61	100.000
187.98	233.333
188.36	-44.444
188.74	266.667
189.12	94.118
189.49	50.000
189.87	0.000
190.25	92.857
190.63	200.000
191.00	-200.000
191.38	10.526
191.76	600.000
192.14	-150.000
192.51	-50.000
192.89	33.333
193.27	-100.000
193.65	200.000
194.02	81.818
194.40	60.000
194.78	-125.000
195.15	125.000
195.53	-37.500
195.91	100.000
196.29	-200.000
196.66	61.538
197.04	85.714
197.42	-22.222
197.79	-500.000
198.17	-69.231
198.55	700.000
198.92	-100.000
199.30	-700.000
199.68	-80.000
200.05	-300.000
200.43	0.000
200.81	166.667
201.18	-66.667
201.56	800.000
201.94	-50.000
202.31	-200.000
202.69	-160.000
203.07	75.000
203.44	300.000
203.82	0.000
204.19	7.143
204.57	-400.000
204.95	162.500
205.32	-70.000
205.70	114.286
206.08	175.000
206.45	266.667
206.83	21.429
207.20	85.714
207.58	200.000
207.96	33.333
208.33	-110.000
208.71	-150.000
209.08	-200.000
209.46	-500.000
209.84	160.000
210.21	200.000
210.59	42.857
210.96	116.667
211.34	150.000
211.71	80.000
212.09	28.571
212.46	-1400.000
212.84	0.000
213.22	160.000
213.59	150.000
213.97	76.923
214.34	172.727
214.72	233.333
215.09	325.000
215.47	-23.077
215.84	27.273
216.22	-200.000
216.59	-50.000
216.97	550.000
217.34	150.000
217.72	-240.000
218.09	75.000
218.47	12.500
218.84	-500.000
219.22	11.111
219.59	0.000
219.97	300.000
220.34	-0.000
220.72	157.143
221.09	200.000
221.47	100.000
221.84	-450.000
222.22	-650.000
222.59	-9.091
222.97	91.667
223.34	100.000
223.72	-71.429
224.09	-4.762
224.46	35.714
224.84	300.000
225.21	80.000
225.59	46.667
225.96	100.000
226.34	275.000
226.71	57.143
227.08	83.333
227.46	25.000
227.83	-150.000
228.21	11.111
228.58	100.000
228.95	-25.000
229.33	50.000
229.70	43.750
230.08	-62.500
230.45	57.143
230.82	185.714
231.20	-26.667
231.57	64.286
231.95	-200.000
232.32	-50.000
232.69	-7.143
233.07	200.000
233.44	-160.000
233.81	-50.000
234.19	133.333
234.56	41.176
234.93	-350.000
235.31	25.000
235.68	-80.000
236.05	-53.846
236.43	-15.000
236.80	11.765
237.17	18.750
237.55	-10.000
237.92	22.222
238.29	5.556
238.67	20.000
239.04	44.118
239.41	-12.195
239.79	-10.000
240.16	24.390
240.53	26.316
240.91	13.043
241.28	-3.175
241.65	19.643
242.02	35.616
242.40	18.333
242.77	3.390
243.14	3.030
243.51	16.250
243.89	9.195
244.26	12.644
244.63	15.476
245.00	23.711
245.38	36.082
245.75	11.236
246.12	23.276
246.49	25.620
246.87	22.115
247.24	16.807
247.61	10.526
247.98	30.894
248.36	13.750
248.73	21.053
249.10	20.130
249.47	15.823
249.84	16.340
250.22	14.706
250.59	11.765
250.96	19.249
251.33	12.209
251.70	15.882
252.08	12.183
252.45	16.832
252.82	15.075
253.19	18.433
253.56	10.280
253.94	18.018
254.31	18.261
254.68	14.912
255.05	19.685
255.42	16.157
255.79	17.375
256.16	15.564
256.54	20.896
256.91	15.209
257.28	19.331
257.65	17.978
258.02	12.411
258.39	22.896
258.76	16.484
259.14	17.276
259.51	17.476
259.88	19.244
260.25	13.399
260.62	16.319
260.99	15.254
261.36	10.274
261.73	16.139
262.10	14.894
262.47	15.951
262.85	18.182
263.22	18.769
263.59	19.003
263.96	17.702
264.33	19.394
264.70	16.369
265.07	12.798
265.44	18.130
265.81	14.972
266.18	16.940
266.55	17.995
266.92	15.803
267.29	15.666
267.66	15.601
268.03	18.325
268.40	16.710
268.77	17.380
269.14	16.547
269.51	16.452
269.88	15.461
270.25	17.602
270.62	14.634
270.99	14.834
271.36	15.159
271.73	17.606
272.10	18.248
272.47	13.002
272.84	15.842
273.21	17.169
273.58	14.940
273.95	15.789
274.32	16.859
274.69	14.027
275.06	15.848
275.43	14.966
275.80	18.322
276.17	15.862
276.54	17.345
276.91	14.912
277.28	14.847
277.65	15.496
278.02	15.106
278.39	16.193
278.76	16.143
279.13	13.071
279.50	17.227
279.87	17.279
280.23	12.903
280.60	15.984
280.97	18.182
281.34	15.962
281.71	18.686
282.08	16.360
282.45	13.503
282.82	15.830
283.19	16.634
283.56	16.763
283.92	15.180
284.29	17.885
284.66	15.891
285.03	13.752
285.40	14.556
285.77	15.290
286.14	15.162
286.51	17.343
286.87	15.722
287.24	15.285
287.61	16.755
287.98	16.842
288.35	15.251
288.72	15.412
289.08	14.236
289.45	15.114
289.82	14.161
290.19	16.553
290.56	13.894
290.93	13.468
291.29	14.330
291.66	16.693
292.03	14.673
292.40	13.871
292.77	13.557
293.13	13.961
293.50	14.264
293.87	14.504
294.24	14.992
294.60	15.797
294.97	15.030
295.34	14.264
295.71	14.456
296.08	16.143
296.44	10.669
296.81	12.639
297.18	13.188
297.55	16.125
297.91	14.247
298.28	16.755
298.65	13.161
299.02	13.477
299.38	12.996
299.75	13.655
300.12	13.220
300.48	13.175
300.85	15.082
301.22	12.727
301.59	13.816
301.95	14.304
302.32	14.527
302.69	13.930
303.05	13.861
303.42	14.321
303.79	14.953
304.15	15.293
304.52	12.366
304.89	12.281
305.25	14.407
305.62	13.536
305.99	13.801
306.35	13.988
306.72	11.811
307.09	13.683
307.45	13.548
307.82	13.657
308.19	13.357
308.55	14.286
308.92	15.468
309.29	12.514
309.65	12.164
310.02	14.301
310.38	13.392
310.75	14.754
311.12	14.316
311.48	13.362
311.85	14.136
312.22	14.241
312.58	13.482
312.95	13.127
313.31	13.768
313.68	14.031
314.05	12.857
314.41	14.021
314.78	13.918
315.14	14.183
315.51	15.424
315.87	14.549
316.24	15.167
316.61	13.189
316.97	14.286
317.34	12.793
317.70	13.767
318.07	13.558
318.43	13.922
318.80	13.920
319.16	14.355
319.53	16.334
319.89	13.583
320.26	16.397
320.62	15.446
320.99	13.257
321.35	13.052
321.72	15.057
322.08	14.300
322.45	14.315
322.81	13.949
323.18	15.113
323.54	14.382
323.91	14.411
324.27	15.430
324.64	14.419
325.00	15.055
325.37	15.702
325.73	13.690
326.10	15.441
326.46	18.027
326.83	15.661
327.19	15.344
327.56	17.463
327.92	17.782
328.29	17.232
328.65	18.019
329.01	16.912
329.38	18.157
329.74	18.225
330.11	18.814
330.47	17.718
330.84	18.077
331.20	20.152
331.56	17.407
331.93	18.630
332.29	20.623
332.66	20.000
333.02	20.353
333.38	19.615
333.75	21.062
334.11	20.054
334.48	20.671
334.84	19.780
335.20	20.860
335.57	20.308
335.93	19.964
336.29	20.258
336.66	19.164
337.02	19.703
337.38	19.352
337.75	20.455
338.11	21.100
338.47	20.985
338.84	19.316
339.20	19.196
339.56	20.459
339.93	20.412
340.29	20.734
340.65	20.699
341.02	20.656
341.38	19.646
341.74	19.435
342.11	19.151
342.47	20.107
342.83	20.848
343.20	20.035
343.56	21.043
343.92	20.106
344.28	20.922
344.65	19.257
345.01	20.225
345.37	19.008
345.73	20.335
346.10	20.880
346.46	20.437
346.82	19.885
347.19	18.953
347.55	20.384
347.91	20.712
348.27	19.159
348.63	19.506
349.00	19.114
349.36	17.872
349.72	19.900
350.08	20.082
350.45	20.990
350.81	19.352
351.17	19.625
351.53	20.408
351.89	19.488
352.26	19.280
352.62	20.161
352.98	19.920
353.34	18.599
353.70	20.469
354.07	20.323
354.43	20.096
354.79	20.066
355.15	20.397
355.51	20.174
355.87	20.550
356.24	18.352
356.60	19.725
356.96	20.476
357.32	19.728
357.68	19.077
358.04	19.144
358.40	19.855
358.77	20.096
359.13	19.616
359.49	19.337
359.85	19.735
360.21	19.777
360.57	19.587
360.93	19.894
361.29	19.335
361.66	20.925
362.02	20.303
362.38	20.030
362.74	20.893
363.10	20.166
363.46	19.496
363.82	21.187
364.18	19.557
364.54	20.441
364.90	21.147
365.26	19.651
365.62	20.730
365.98	20.968
366.35	20.903
366.71	19.734
367.07	20.247
367.43	20.705
367.79	20.424
368.15	20.101
368.51	20.539
368.87	19.885
369.23	20.650
369.59	20.481
369.95	21.261
370.31	20.592
370.67	20.597
371.03	20.015
371.39	20.350
371.75	21.538
372.11	21.041
372.47	20.488
372.83	20.866
373.19	21.897
373.55	20.000
373.91	20.374
374.27	21.403
374.63	21.752
374.99	20.355
375.35	21.240
375.71	21.958
376.07	20.857
376.42	22.041
376.78	22.349
377.14	21.259
377.50	21.315
377.86	21.285
378.22	21.698
378.58	21.026
378.94	21.361
379.30	22.208
379.66	22.759
380.02	21.950
380.38	20.755
380.74	21.185
381.09	22.454
381.45	22.691
381.81	21.715
382.17	21.891
382.53	22.299
382.89	23.227
383.25	23.149
383.61	23.171
383.97	22.540
384.32	23.202
384.68	22.477
385.04	22.794
385.40	22.651
385.76	24.528
386.12	23.997
386.48	24.266
386.83	23.653
387.19	23.443
387.55	24.153
387.91	23.900
388.27	23.626
388.62	24.984
388.98	24.309
389.34	24.922
389.70	24.736
390.06	23.600
390.42	24.547
390.77	24.068
391.13	24.149
391.49	25.097
391.85	24.626
392.20	24.670
392.56	24.539
392.92	24.721
393.28	24.646
393.64	24.625
393.99	26.144
394.35	24.858
394.71	25.734
395.07	24.387
395.42	25.440
395.78	25.342
396.14	25.032
396.50	25.555
396.85	25.821
397.21	26.504
397.57	24.389
397.92	24.805
398.28	25.402
398.64	24.699
399.00	25.959
399.35	25.169
399.71	25.273
400.07	25.695
400.42	25.275
400.78	25.720
401.14	24.622
401.49	25.730
401.85	24.132
402.21	25.482
402.57	24.500
402.92	24.780
403.28	25.125
403.63	26.040
403.99	24.936
404.35	26.171
404.70	23.750
405.06	23.737
405.42	25.979
405.77	24.404
406.13	25.204
406.49	25.222
406.84	25.183
407.20	25.286
407.55	24.404
407.91	25.134
408.27	25.303
408.62	25.354
408.98	25.570
409.34	24.969
409.69	25.194
410.05	24.569
410.40	24.630
410.76	25.030
411.11	25.500
411.47	25.444
411.83	24.294
412.18	25.161
412.54	26.529
412.89	25.369
413.25	25.150
413.60	25.217
413.96	24.479
414.31	24.573
414.67	24.118
415.03	23.702
415.38	24.674
415.74	25.407
416.09	25.474
416.45	25.793
416.80	25.380
417.16	25.345
417.51	25.383
417.87	25.098
418.22	25.842
418.58	24.348
418.93	25.455
419.29	24.840
419.64	25.405
420.00	26.700
420.35	25.194
420.71	25.699
421.06	25.537
421.42	26.082
421.77	25.376
422.12	25.596
422.48	25.609
422.83	25.522
423.19	25.282
423.54	25.103
423.90	24.853
424.25	25.545
424.61	26.499
424.96	25.552
425.31	26.574
425.67	26.761
426.02	25.854
426.38	25.485
426.73	25.363
427.09	25.823
427.44	25.765
427.79	26.282
428.15	26.335
428.50	26.408
428.85	25.307
429.21	25.863
429.56	26.846
429.92	25.372
430.27	25.363
430.62	25.510
430.98	26.115
431.33	26.656
431.68	25.275
432.04	26.439
432.39	26.184
432.74	26.278
433.10	26.897
433.45	26.882
433.80	26.872
434.16	26.150
434.51	26.452
434.86	26.887
435.22	26.809
435.57	26.700
435.92	26.647
436.28	25.939
436.63	26.184
436.98	25.724
437.34	26.860
437.69	27.251
438.04	26.097
438.39	26.206
438.75	26.837
439.10	26.825
439.45	26.902
439.81	26.483
440.16	27.316
440.51	26.567
440.86	27.976
441.22	26.867
441.57	27.152
441.92	26.758
442.27	26.386
442.63	26.874
442.98	26.939
443.33	26.656
443.68	27.162
444.03	27.869
444.39	26.808
444.74	28.038
445.09	26.949
445.44	27.293
445.79	27.127
446.15	27.148
446.50	26.567
446.85	27.577
447.20	27.529
447.55	27.567
447.91	26.791
448.26	27.604
448.61	26.943
448.96	27.711
449.31	27.283
449.66	26.887
450.02	27.096
450.37	27.919
450.72	27.148
451.07	27.532
451.42	26.904
451.77	27.004
452.12	26.675
452.47	27.238
452.83	27.326
453.18	27.388
453.53	26.549
453.88	27.565
454.23	27.474
454.58	27.519
454.93	28.222
455.28	27.111
455.63	27.154
455.98	27.962
456.34	26.692
456.69	26.938
457.04	28.355
457.39	26.853
457.74	27.630
458.09	26.839
458.44	27.209
458.79	26.667
459.14	27.746
459.49	27.164
459.84	26.678
460.19	26.517
460.54	27.873
460.89	27.614
461.24	27.019
461.59	28.444
461.94	27.107
462.29	27.563
462.64	28.040
462.99	26.676
463.34	27.886
463.69	27.606
464.04	27.663
464.39	27.047
464.74	27.117
465.09	27.948
465.44	27.871
465.79	27.098
466.14	27.879
466.49	26.624
466.84	27.722
467.19	27.534
467.54	26.501
467.89	27.227
468.24	26.946
468.59	28.698
468.94	26.159
469.29	28.525
469.64	28.571
469.99	29.222
470.34	26.143
470.68	28.039
471.03	28.379
471.38	27.675
471.73	27.031
472.08	26.662
472.43	27.718
472.78	27.827
473.13	28.027
473.48	26.971
473.83	27.709
474.17	27.526
474.52	27.441
474.87	28.000
475.22	27.334
475.57	26.877
475.92	27.976
476.27	27.939
476.61	28.646
476.96	27.607
477.31	27.745
477.66	27.865
478.01	27.176
478.36	26.198
478.70	28.385
479.05	27.802
479.40	27.557
479.75	27.424
480.10	27.599
480.45	27.200
480.79	27.845
481.14	27.869
481.49	26.847
481.84	27.317
482.19	26.380
482.53	27.338
482.88	26.587
483.23	27.111
483.58	27.736
483.92	27.299
484.27	27.028
484.62	26.849
484.97	27.322
485.31	27.204
485.66	26.840
486.01	26.380
486.36	26.623
486.70	26.486
487.05	27.049
487.40	26.991
487.75	26.704
488.09	26.422
488.44	26.788
488.79	27.718
489.13	27.364
489.48	27.918
489.83	26.996
490.17	27.056
490.52	27.390
490.87	27.441
491.22	28.367
491.56	27.182
491.91	27.390
492.26	28.342
492.60	28.359
492.95	27.693
493.30	27.308
493.64	28.487
493.99	28.647
494.34	27.282
494.68	27.333
495.03	26.861
495.37	28.214
495.72	27.158
496.07	27.512
496.41	26.557
496.76	27.269
497.11	26.502
497.45	27.733
497.80	27.649
498.14	28.018
498.49	28.644
498.84	27.745
499.18	27.912
499.53	27.927
499.87	27.286
500.22	27.547
500.56	28.139
500.91	27.962
501.26	27.336
501.60	27.152
501.95	27.754
502.29	27.167
502.64	27.896
502.98	28.416
503.33	27.137
503.67	27.325
504.02	27.761
504.36	27.561
504.71	27.576
505.06	27.026
505.40	28.223
505.75	27.732
506.09	27.876
506.44	28.234
506.78	27.908
507.13	27.559
507.47	27.833
507.82	27.564
508.16	27.205
508.51	28.961
508.85	27.420
509.19	27.621
509.54	27.668
509.88	27.616
510.23	28.241
510.57	28.220
510.92	26.546
511.26	27.878
511.61	28.273
511.95	26.904
512.30	28.326
512.64	27.490
512.98	27.625
513.33	28.372
513.67	28.141
514.02	27.918
514.36	28.800
514.70	28.788
515.05	28.261
515.39	28.040
515.74	29.042
516.08	27.854
516.42	28.622
516.77	29.198
517.11	28.605
517.46	28.366
517.80	28.427
518.14	28.414
518.49	28.245
518.83	28.433
519.17	28.078
519.52	28.005
519.86	28.211
520.20	28.858
520.55	28.143
520.89	29.235
521.23	28.119
521.58	29.527
521.92	29.167
522.26	28.692
522.61	28.052
522.95	29.338
523.29	28.018
523.64	29.225
523.98	29.099
524.32	27.899
524.66	29.129
525.01	28.312
525.35	28.905
525.69	28.215
526.04	28.241
526.38	28.794
526.72	27.600
527.06	27.951
527.41	28.100
527.75	27.480
528.09	27.641
528.43	28.764
528.78	28.053
529.12	28.323
529.46	27.875
529.80	26.789
530.15	28.779
530.49	27.946
530.83	29.343
531.17	27.737
531.51	29.138
531.86	27.396
532.20	26.931
532.54	28.659
532.88	28.063
533.22	27.621
533.57	28.637
533.91	27.872
534.25	28.711
534.59	27.389
534.93	26.621
535.27	28.173
535.62	27.738
535.96	28.311
536.30	28.958
536.64	27.981
536.98	28.084
537.32	28.236
537.66	28.261
538.01	29.301
538.35	27.739
538.69	28.562
539.03	28.025
539.37	27.995
539.71	27.539
540.05	27.970
540.39	28.186
540.73	28.591
541.07	28.177
541.42	28.696
541.76	27.598
542.10	27.460
542.44	27.867
542.78	26.015
543.12	26.923
543.46	26.912
543.80	26.718
544.14	27.637
544.48	28.181
544.82	28.571
545.16	28.415
545.50	27.770
545.84	27.904
546.18	28.156
546.52	27.686
546.86	27.031
547.20	28.183
547.54	26.431
547.88	27.989
548.22	26.956
548.56	27.968
548.90	28.369
549.24	27.548
549.58	27.504
549.92	26.733
550.26	27.253
550.60	27.732
550.94	28.902
551.28	27.434
551.62	29.231
551.96	28.722
552.30	27.778
552.64	27.715
552.98	27.637
553.32	28.031
553.66	27.721
554.00	26.934
554.34	27.622
554.68	27.434
555.02	27.232
555.36	28.347
555.69	27.033
556.03	29.122
556.37	27.189
556.71	27.437
557.05	27.740
557.39	26.320
557.73	28.486
558.07	28.205
558.41	27.795
558.75	28.293
559.08	27.187
559.42	27.460
559.76	28.423
560.10	26.529
560.44	27.848
560.78	28.182
561.12	26.798
561.45	28.531
561.79	27.801
562.13	28.602
562.47	27.842
562.81	27.233
563.15	26.939
563.48	28.501
563.82	27.111
564.16	26.741
564.50	26.959
564.84	26.975
565.17	27.029
565.51	27.322
565.85	26.406
566.19	27.255
566.52	27.145
566.86	27.956
567.20	26.214
567.54	26.582
567.88	28.471
568.21	27.149
568.55	26.413
568.89	26.899
569.23	26.529
569.56	25.788
569.90	26.512
570.24	25.716
570.57	25.818
570.91	25.688
571.25	25.386
571.59	25.475
571.92	24.830
572.26	24.789
572.60	25.457
572.93	25.259
573.27	25.298
573.61	25.805
573.95	24.932
574.28	24.921
574.62	25.095
574.96	24.607
575.29	24.735
575.63	24.177
575.97	24.343
576.30	24.909
576.64	24.026
576.98	24.762
577.31	24.994
577.65	24.679
577.98	24.514
578.32	24.442
578.66	24.092
578.99	24.614
579.33	24.432
579.67	24.249
580.00	24.557
580.34	24.229
580.67	24.036
581.01	24.159
581.35	24.160
581.68	24.346
582.02	24.023
582.35	24.401
582.69	24.055
583.02	24.226
583.36	24.485
583.70	24.948
584.03	24.493
584.37	25.155
584.70	24.918
585.04	24.145
585.37	24.005
585.71	23.994
586.04	24.206
586.38	23.980
586.72	24.763
587.05	24.697
587.39	24.881
587.72	25.260
588.06	24.661
588.39	24.153
588.73	24.756
589.06	24.984
589.40	24.957
589.73	25.301
590.07	25.038
590.40	25.426
590.73	25.206
591.07	25.064
591.40	25.022
591.74	24.751
592.07	26.484
592.41	25.795
592.74	25.249
593.08	24.625
593.41	24.448
593.75	24.665
594.08	25.300
594.41	24.563
594.75	24.427
595.08	24.555
595.42	24.733
595.75	25.160
596.09	25.450
596.42	25.134
596.75	25.133
597.09	25.285
597.42	24.932
597.75	25.470
598.09	25.170
598.42	25.451
598.76	24.453
599.09	25.441
599.42	24.479
599.76	24.530
600.09	24.736
600.42	25.171
600.76	24.294
601.09	23.626
601.42	24.128
601.76	24.692
602.09	24.794
602.42	25.442
602.76	25.297
603.09	24.917
603.42	25.753
603.76	24.597
604.09	24.342
604.42	25.296
604.76	25.145
605.09	25.274
605.42	25.779
605.75	24.781
606.09	24.671
606.42	24.270
606.75	25.152
607.09	25.187
607.42	24.856
607.75	24.645
608.08	25.022
608.42	24.395
608.75	25.301
609.08	25.411
609.41	25.381
609.75	24.899
610.08	25.562
610.41	24.879
610.74	24.232
611.07	25.788
611.41	25.013
611.74	25.959
612.07	24.625
612.40	24.781
612.73	25.367
613.07	24.859
613.40	25.875
613.73	24.231
614.06	26.266
614.39	25.099
614.72	24.650
615.06	25.642
615.39	25.055
615.72	23.789
616.05	25.307
616.38	24.444
616.71	25.138
617.05	25.015
617.38	26.021
617.71	25.220
618.04	26.159
618.37	26.797
618.70	25.677
619.03	27.083
619.36	24.819
619.69	26.611
620.03	25.785
620.36	24.678
620.69	25.553
621.02	25.382
621.35	27.303
621.68	27.466
622.01	26.000
622.34	26.895
622.67	27.208
623.00	25.881
623.33	26.372
623.66	25.430
623.99	26.324
624.32	25.856
624.65	24.737
624.99	26.260
625.32	25.398
625.65	25.923
625.98	26.833
626.31	25.935
626.64	26.690
626.97	26.178
627.30	25.832
627.63	27.556
627.96	25.606
628.29	26.827
628.62	26.549
628.95	27.054
629.28	27.722
629.61	26.221
629.94	27.273
630.26	27.470
630.59	28.408
630.92	27.487
631.25	28.410
631.58	27.753
631.91	26.316
632.24	25.803
632.57	28.977
632.90	28.826
633.23	27.765
633.56	27.204
633.89	26.510
634.22	29.383
634.55	27.192
634.88	27.714
635.20	26.282
635.53	28.933
635.86	26.268
636.19	27.943
636.52	28.699
636.85	27.047
637.18	26.792
637.51	26.541
637.83	28.252
638.16	30.150
638.49	26.431
638.82	28.421
639.15	25.916
639.48	29.849
639.81	29.289
640.13	28.139
640.46	29.300
640.79	26.215
641.12	27.179
641.45	27.177
641.77	28.889
642.10	27.172
642.43	27.974
642.76	28.548
643.09	28.433
643.41	27.832
643.74	28.666
644.07	26.765
644.40	29.223
644.73	28.196
645.05	28.691
645.38	30.864
645.71	29.255
646.04	31.059
646.36	29.965
646.69	29.496
647.02	30.435
647.35	29.664
647.67	30.165
648.00	30.037
648.33	27.986
648.66	26.780
648.98	26.633
649.31	28.595
649.64	28.257
649.96	26.418
650.29	28.450
650.62	28.205
650.94	28.889
651.27	29.050
651.60	29.730
651.92	28.846
652.25	26.643
652.58	28.500
652.90	31.046
653.23	28.235
653.56	27.073
653.88	26.460
654.21	25.569
654.54	29.032
654.86	27.674
655.19	26.754
655.52	27.012
655.84	22.587
656.17	24.806
656.49	33.365
656.82	34.753
657.15	26.523
657.47	19.964
657.80	14.758
658.13	14.428
658.45	22.598
658.78	22.387
659.10	22.783
659.43	23.038
659.75	22.842
660.08	23.862
660.41	25.230
660.73	25.414
661.06	28.250
661.38	27.789
661.71	25.667
662.03	30.258
662.36	30.549
662.68	26.327
663.01	27.948
663.33	27.378
663.66	25.814
663.98	26.279
664.31	28.145
664.63	25.576
664.96	25.652
665.28	24.724
665.61	28.788
665.93	30.000
666.26	28.416
666.58	28.635
666.91	26.824
667.23	29.481
667.56	27.962
667.88	28.297
668.21	27.924
668.53	28.842
668.86	28.066
669.18	26.887
669.50	28.087
669.83	29.302
670.15	27.506
670.48	27.033
670.80	27.419
671.13	27.069
671.45	23.973
671.77	28.326
672.10	26.931
672.42	25.094
672.75	25.933
673.07	27.549
673.39	28.807
673.72	24.458
674.04	28.125
674.37	26.907
674.69	27.623
675.01	29.333
675.34	26.126
675.66	29.398
675.98	29.933
676.31	29.817
676.63	30.166
676.95	25.682
677.28	31.059
677.60	29.639
677.92	26.835
678.25	27.352
678.57	25.974
678.89	28.151
679.22	29.978
679.54	27.510
679.86	26.640
680.18	28.350
680.51	26.705
680.83	25.845
681.15	26.200
681.48	28.279
681.80	28.719
682.12	27.823
682.44	23.431
682.77	25.828
683.09	26.545
683.41	25.682
683.73	27.419
684.06	25.885
684.38	25.376
684.70	29.630
685.02	23.651
685.34	25.692
685.67	25.328
685.99	25.859
686.31	28.319
686.63	24.304
686.96	25.285
687.28	22.626
687.60	25.665
687.92	26.465
688.24	26.008
688.56	27.074
688.89	25.893
689.21	28.222
689.53	27.378
689.85	23.488
690.17	27.455
690.49	24.823
690.82	26.456
691.14	28.095
691.46	25.701
691.78	27.252
692.10	27.312
692.42	27.706
692.74	25.641
693.06	25.676
693.39	23.982
693.71	24.434
694.03	23.326
694.35	30.140
694.67	28.283
694.99	26.371
695.31	30.548
695.63	24.500
695.95	26.010
696.27	25.907
696.59	27.222
696.91	27.731
697.23	26.478
697.56	28.713
697.88	28.172
698.20	27.107
698.52	25.176
698.84	25.120
699.16	27.500
699.48	28.321
699.80	23.325
700.12	26.146
700.44	28.011
700.76	25.581
701.08	23.030
701.40	28.916
701.72	30.864
702.04	28.053
702.36	35.117
702.68	27.628
703.00	24.545
703.32	27.566
703.64	22.881
703.96	29.275
704.28	27.914
704.60	27.619
704.91	26.498
705.23	23.588
705.55	26.855
705.87	28.520
706.19	27.407
706.51	28.179
706.83	30.225
707.15	23.053
707.47	26.331
707.79	27.604
708.11	26.000
708.43	26.000
708.74	27.649
709.06	27.042
709.38	25.382
709.70	26.627
710.02	26.433
710.34	25.077
710.66	26.603
710.98	25.828
711.29	25.902
711.61	27.458
711.93	25.733
712.25	27.148
712.57	27.839
712.89	22.761
713.20	32.180
713.52	26.132
713.84	23.549
714.16	28.522
714.48	24.194
714.80	29.167
715.11	27.356
715.43	21.944
715.75	25.667
716.07	23.588
716.39	22.819
716.70	19.188
717.02	22.519
717.34	27.126
717.66	24.779
717.97	26.087
718.29	28.452
718.61	30.315
718.93	24.806
719.24	27.376
719.56	30.120
719.88	27.491
720.20	25.379
720.51	25.287
720.83	27.799
721.15	26.471
721.46	27.419
721.78	24.901
722.10	24.535
722.42	21.992
722.73	24.490
723.05	25.714
723.37	22.458
723.68	30.631
724.00	29.060
724.32	24.444
724.63	25.000
724.95	31.004
725.27	26.267
725.58	28.814
725.90	24.206
726.22	30.116
726.53	28.136
726.85	28.090
727.16	29.811
727.48	23.482
727.80	27.935
728.11	23.305
728.43	25.098
728.74	21.774
729.06	24.800
729.38	29.323
729.69	22.709
730.01	28.462
730.32	27.239
730.64	26.855
730.96	27.925
731.27	22.333
731.59	23.390
731.90	28.344
732.22	29.022
732.53	24.252
732.85	25.532
733.16	29.630
733.48	23.741
733.80	23.913
734.11	26.441
734.43	25.430
734.74	25.758
735.06	25.407
735.37	25.680
735.69	24.916
736.00	21.254
736.32	19.463
736.63	27.465
736.95	26.280
737.26	22.776
737.58	22.148
737.89	30.769
738.21	27.444
738.52	23.045
738.83	27.074
739.15	29.258
739.46	27.559
739.78	24.908
740.09	25.163
740.41	23.188
740.72	18.504
741.04	22.672
741.35	24.255
741.66	28.910
741.98	20.918
742.29	26.733
742.61	21.466
742.92	22.749
743.23	23.148
743.55	26.244
743.86	27.273
744.18	27.273
744.49	22.340
744.80	33.152
745.12	25.134
745.43	25.366
745.74	26.562
746.06	26.341
746.37	24.607
746.68	27.962
747.00	25.532
747.31	28.358
747.62	19.417
747.94	27.751
748.25	20.792
748.56	27.322
748.88	24.607
749.19	29.787
749.50	24.138
749.82	20.755
750.13	26.147
750.44	24.812
750.75	23.507
751.07	28.832
751.38	28.736
751.69	20.000
752.01	22.481
752.32	25.100
752.63	22.134
752.94	23.276
753.26	29.289
753.57	23.077
753.88	25.221
754.19	22.917
754.51	21.488
754.82	22.672
755.13	27.917
755.44	28.226
755.75	23.047
756.07	27.237
756.38	20.755
756.69	23.755
757.00	22.333
757.31	23.529
757.63	20.732
757.94	25.278
758.25	21.096
758.56	23.936
758.87	18.697
759.18	20.872
759.50	22.182
759.81	28.094
760.12	21.290
760.43	22.727
760.74	26.235
761.05	22.769
761.36	20.739
761.67	25.758
761.99	26.871
762.30	23.636
762.61	28.458
762.92	25.792
763.23	23.874
763.54	22.897
763.85	27.119
764.16	23.237
764.47	22.984
764.78	20.879
765.10	26.599
765.41	21.451
765.72	23.810
766.03	16.917
766.34	23.723
766.65	25.896
766.96	23.737
767.27	25.000
767.58	22.414
767.89	29.078
768.20	19.318
768.51	22.527
768.82	19.704
769.13	21.659
769.44	19.313
769.75	23.288
770.06	24.138
770.37	24.038
770.68	26.904
770.99	28.054
771.30	23.039
771.61	28.507
771.92	23.707
772.23	27.094
772.54	25.269
772.85	24.074
773.16	27.528
773.47	28.105
773.78	26.797
774.09	19.162
774.39	22.000
774.70	22.930
775.01	34.483
775.32	29.286
775.63	16.529
775.94	22.901
776.25	24.409
776.56	29.167
776.87	24.038
777.18	21.368
777.48	30.172
777.79	19.130
778.10	15.238
778.41	22.523
778.72	23.016
779.03	22.556
779.34	23.404
779.65	23.973
779.95	19.178
780.26	25.517
780.57	26.016
780.88	18.898
781.19	23.276
781.50	24.031
781.80	18.935
782.11	20.126
782.42	28.462
782.73	18.705
783.04	26.667
783.34	27.083
783.65	11.111
783.96	22.951
784.27	24.828
784.57	27.642
784.88	21.875
785.19	24.000
785.50	19.000
785.81	23.276
786.11	15.517
786.42	26.214
786.73	30.000
787.04	20.408
787.34	15.179
787.65	23.810
787.96	19.469
788.26	19.091
788.57	21.368
788.88	25.781
789.19	19.048
789.49	21.739
789.80	27.551
790.11	18.182
790.41	25.455
790.72	21.739
791.03	18.182
791.33	28.750
791.64	22.500
791.95	30.233
792.25	20.213
792.56	30.337
792.87	27.397
793.17	30.435
793.48	20.000
793.79	32.500
794.09	35.000
794.40	14.151
794.70	12.621
795.01	22.764
795.32	14.530
795.62	22.857
795.93	34.314
796.23	26.415
796.54	20.833
796.85	29.412
797.15	30.986
797.46	16.667
797.76	39.394
798.07	24.419
798.37	14.474
798.68	16.667
798.99	14.815
799.29	20.000
799.60	10.145
799.90	26.667
800.21	40.984
800.51	32.308
800.82	27.119
801.12	36.232
801.43	26.230
801.73	26.984
802.04	8.000
802.34	-1.493
802.65	26.923
802.95	25.000
803.26	21.154
803.56	25.490
803.87	-10.870
804.17	24.000
804.48	38.095
804.78	14.815
805.09	8.696
805.39	13.333
805.70	24.074
806.00	-3.509
806.30	18.310
806.61	28.571
806.91	25.000
807.22	31.579
807.52	34.667
807.83	27.273
808.13	27.778
808.43	23.529
808.74	5.970
809.04	13.559
809.35	25.000
809.65	32.812
809.95	24.324
810.26	15.909
810.56	30.137
810.86	33.333
811.17	22.000
811.47	26.531
811.77	5.263
812.08	25.000
812.38	9.434
812.69	20.000
812.99	-3.030
813.29	39.474
813.59	0.000
813.90	29.545
814.20	2.564
814.50	32.692
814.81	22.642
815.11	-2.128
815.41	28.814
815.72	30.952
816.02	29.412
816.32	10.417
816.62	34.146
816.93	21.622
817.23	37.143
817.53	45.833
817.84	-6.522
818.14	32.692
818.44	-2.632
818.74	32.609
819.04	10.000
819.35	2.703
819.65	-17.647
819.95	11.111
820.25	16.667
820.56	25.000
820.86	-55.172
821.16	47.500
821.46	17.021
821.76	35.000
822.07	6.977
822.37	10.811
822.67	18.750
822.97	16.667
823.27	0.000
823.57	4.000
823.88	-7.407
824.18	7.143
824.48	50.000
824.78	25.806
825.08	13.043
825.38	30.303
825.69	-20.833
825.99	10.526
826.29	13.889
826.59	33.333
826.89	-4.762
827.19	36.957
827.49	25.000
827.79	0.000
828.09	17.857
828.39	33.333
828.70	32.432
829.00	10.714
829.30	23.810
829.60	20.000
829.90	46.875
830.20	36.842
830.50	-11.111
830.80	39.130
831.10	18.182
831.40	48.485
831.70	29.032
832.00	0.000
832.30	-14.286
832.60	-41.667
832.90	13.793
833.20	-35.000
833.50	39.394
833.80	22.222
834.10	30.769
834.40	43.750
834.70	-88.889
835.00	-21.053
835.30	65.385
835.60	20.000
835.90	48.387
836.20	-4.545
836.50	39.286
836.80	-19.231
837.10	0.000
837.40	-166.667
837.70	50.000
838.00	36.364
838.30	-4.348
838.60	-38.462
838.90	0.000
839.19	39.286
839.49	46.667
839.79	-15.385
840.09	-8.333
840.39	50.000
840.69	-17.857
840.99	38.462
841.29	-21.053
841.59	-170.000
841.88	-27.273
842.18	50.000
842.48	50.000
842.78	-6.667
843.08	22.222
843.38	-10.000
843.68	-4.348
843.97	13.333
844.27	-6.667
844.57	15.000
844.87	16.667
845.17	9.524
845.47	53.333
845.76	-19.048
846.06	76.471
846.36	30.000
846.66	100.000
846.96	53.333
847.25	-75.000
847.55	71.429
847.85	-87.500
848.15	-18.182
848.44	33.333
848.74	25.000
849.04	77.778
849.34	-9.091
849.63	16.667
849.93	-200.000
850.23	11.111
850.53	70.000
850.82	-38.462
851.12	0.000
851.42	6.667
851.71	23.077
852.01	14.286
852.31	100.000
852.61	-81.818
852.90	35.000
853.20	84.211
853.50	-83.333
853.79	56.522
854.09	58.333
854.39	-5.263
854.68	45.833
854.98	38.710
855.28	38.462
855.57	5.000
855.87	50.000
856.17	40.741
856.46	28.571
856.76	20.000
857.05	55.556
857.35	20.000
857.65	44.444
857.94	69.231
858.24	44.828
858.53	44.444
858.83	37.037
859.13	13.636
859.42	-21.739
859.72	75.000
860.01	0.000
860.31	20.000
860.60	33.333
860.90	-400.000
861.20	-6.667
861.49	-400.000
861.79	-20.000
862.08	50.000
862.38	93.333
862.67	-100.000
862.97	-50.000
863.26	8.333
863.56	0.000
863.85	-533.333
864.15	88.889
864.44	0.000
864.74	71.429
865.03	225.000
865.33	20.000
865.62	16.667
865.92	41.667
866.21	-16.667
866.51	68.750
866.80	0.000
867.10	-400.000
867.39	100.000
867.69	0.000
867.98	15.385
868.27	-333.333
868.57	13.333
868.86	33.333
869.16	-38.462
869.45	53.333
869.75	-1900.000
870.04	0.000
870.33	-71.429
870.63	57.143
870.92	100.000
871.22	-240.000
871.51	300.000
871.80	66.667
872.10	333.333
>>>>>End Processed Spectral Data<<<<<
