SpectraSuite Data File
++++++++++++++++++++++++++++++++++++
Date: Fri May 15 17:09:02 PDT 2015
User: schluterlab
Dark Spectrum Present: Yes
Reference Spectrum Present: Yes
Number of Sampled Component Spectra: 1
Spectrometers: USB2E3373
Integration Time (usec): 3000 (USB2E3373)
Spectra Averaged: 3 (USB2E3373)
Boxcar Smoothing: 0 (USB2E3373)
Correct for Electrical Dark: No (USB2E3373)
Strobe/Lamp Enabled: No (USB2E3373)
Correct for Detector Non-linearity: No (USB2E3373)
Correct for Stray Light: No (USB2E3373)
Number of Pixels in Processed Spectrum: 2048
>>>>>Begin Processed Spectral Data<<<<<
178.53	0.000
178.91	0.000
179.29	112.500
179.67	450.000
180.04	-100.000
180.42	75.000
180.80	1100.000
181.18	-200.000
181.56	-150.000
181.94	550.000
182.31	-100.000
182.69	120.000
183.07	300.000
183.45	240.000
183.83	33.333
184.20	109.091
184.58	88.889
184.96	-400.000
185.34	-66.667
185.72	-250.000
186.09	84.615
186.47	-400.000
186.85	-0.000
187.23	11.111
187.61	-1800.000
187.98	-100.000
188.36	133.333
188.74	-133.333
189.12	41.176
189.49	38.889
189.87	0.000
190.25	100.000
190.63	700.000
191.00	-100.000
191.38	47.368
191.76	950.000
192.14	-125.000
192.51	650.000
192.89	-11.111
193.27	42.857
193.65	-33.333
194.02	127.273
194.40	50.000
194.78	-37.500
195.15	50.000
195.53	-50.000
195.91	200.000
196.29	175.000
196.66	100.000
197.04	14.286
197.42	-11.111
197.79	-333.333
198.17	-61.538
198.55	1200.000
198.92	-266.667
199.30	800.000
199.68	20.000
200.05	100.000
200.43	0.000
200.81	266.667
201.18	166.667
201.56	400.000
201.94	250.000
202.31	-300.000
202.69	60.000
203.07	75.000
203.44	500.000
203.82	0.000
204.19	85.714
204.57	-200.000
204.95	62.500
205.32	160.000
205.70	-28.571
206.08	175.000
206.45	288.889
206.83	64.286
207.20	-85.714
207.58	-1000.000
207.96	200.000
208.33	-80.000
208.71	250.000
209.08	150.000
209.46	-100.000
209.84	-20.000
210.21	600.000
210.59	57.143
210.96	66.667
211.34	250.000
211.71	113.333
212.09	0.000
212.46	-1100.000
212.84	0.000
213.22	110.000
213.59	200.000
213.97	61.538
214.34	90.909
214.72	-16.667
215.09	150.000
215.47	115.385
215.84	-36.364
216.22	300.000
216.59	100.000
216.97	350.000
217.34	150.000
217.72	-60.000
218.09	225.000
218.47	12.500
218.84	100.000
219.22	77.778
219.59	140.000
219.97	-133.333
220.34	125.000
220.72	128.571
221.09	75.000
221.47	500.000
221.84	-150.000
222.22	-550.000
222.59	72.727
222.97	25.000
223.34	333.333
223.72	42.857
224.09	42.857
224.46	39.286
224.84	100.000
225.21	0.000
225.59	40.000
225.96	350.000
226.34	25.000
226.71	-28.571
227.08	-16.667
227.46	62.500
227.83	-50.000
228.21	155.556
228.58	90.909
228.95	50.000
229.33	90.000
229.70	50.000
230.08	25.000
230.45	114.286
230.82	214.286
231.20	40.000
231.57	71.429
231.95	-71.429
232.32	-60.000
232.69	107.143
233.07	33.333
233.44	260.000
233.81	-70.000
234.19	133.333
234.56	11.765
234.93	-0.000
235.31	300.000
235.68	0.000
236.05	-15.385
236.43	-60.000
236.80	5.882
237.17	-3.125
237.55	30.000
237.92	-3.704
238.29	22.222
238.67	33.333
239.04	-17.647
239.41	-12.195
239.79	10.000
240.16	26.829
240.53	-7.895
240.91	-4.348
241.28	6.349
241.65	25.000
242.02	12.329
242.40	21.667
242.77	5.085
243.14	13.636
243.51	1.250
243.89	17.241
244.26	11.494
244.63	9.524
245.00	13.402
245.38	11.340
245.75	-8.989
246.12	9.483
246.49	9.091
246.87	12.500
247.24	-2.521
247.61	-1.754
247.98	0.000
248.36	-3.125
248.73	11.184
249.10	11.688
249.47	5.063
249.84	7.843
250.22	-1.765
250.59	10.458
250.96	7.512
251.33	-0.581
251.70	4.706
252.08	5.584
252.45	0.495
252.82	-3.518
253.19	4.608
253.56	-0.935
253.94	1.351
254.31	4.348
254.68	11.404
255.05	3.937
255.42	0.873
255.79	0.386
256.16	1.556
256.54	7.463
256.91	1.141
257.28	3.346
257.65	2.247
258.02	1.418
258.39	4.714
258.76	8.059
259.14	3.987
259.51	1.294
259.88	2.405
260.25	1.634
260.62	4.167
260.99	0.339
261.36	0.000
261.73	0.316
262.10	5.471
262.47	4.908
262.85	-0.313
263.22	2.462
263.59	-1.558
263.96	3.416
264.33	5.758
264.70	-0.298
265.07	0.298
265.44	6.516
265.81	2.260
266.18	7.377
266.55	3.599
266.92	5.699
267.29	3.394
267.66	1.279
268.03	2.880
268.40	2.872
268.77	3.743
269.14	5.276
269.51	4.113
269.88	2.993
270.25	0.765
270.62	1.951
270.99	0.767
271.36	2.934
271.73	2.817
272.10	2.920
272.47	0.473
272.84	1.238
273.21	3.480
273.58	0.482
273.95	4.348
274.32	1.386
274.69	0.679
275.06	4.911
275.43	0.454
275.80	3.311
276.17	-1.609
276.54	3.426
276.91	3.289
277.28	2.402
277.65	2.893
278.02	2.979
278.39	1.094
278.76	2.516
279.13	-1.245
279.50	3.782
279.87	1.296
280.23	0.645
280.60	3.509
280.97	2.424
281.34	2.885
281.71	3.285
282.08	1.022
282.45	0.587
282.82	1.931
283.19	2.708
283.56	4.046
283.92	0.569
284.29	1.538
284.66	1.357
285.03	2.161
285.40	1.323
285.77	3.163
286.14	3.069
286.51	3.875
286.87	3.108
287.24	1.842
287.61	2.469
287.98	2.982
288.35	2.253
288.72	4.378
289.08	2.257
289.45	2.636
289.82	3.671
290.19	1.195
290.56	1.201
290.93	0.000
291.29	1.387
291.66	3.780
292.03	2.392
292.40	2.097
292.77	2.392
293.13	0.974
293.50	0.455
293.87	2.137
294.24	0.155
294.60	1.639
294.97	3.720
295.34	1.227
295.71	2.981
296.08	1.046
296.44	1.138
296.81	1.528
297.18	1.884
297.55	2.981
297.91	3.699
298.28	3.562
298.65	2.307
299.02	1.617
299.38	-0.684
299.75	2.207
300.12	2.487
300.48	0.659
300.85	1.014
301.22	1.299
301.59	1.842
301.95	2.911
302.32	3.243
302.69	1.866
303.05	1.856
303.42	2.740
303.79	0.935
304.15	2.270
304.52	0.951
304.89	1.170
305.25	2.300
305.62	1.167
305.99	0.702
306.35	1.272
306.72	0.675
307.09	2.965
307.45	2.526
307.82	1.273
308.19	2.555
308.55	0.545
308.92	2.832
309.29	-0.335
309.65	1.507
310.02	1.540
310.38	2.634
310.75	1.749
311.12	2.476
311.48	1.166
311.85	1.780
312.22	1.899
312.58	1.168
312.95	2.028
313.31	1.139
313.68	1.571
314.05	1.531
314.41	2.680
314.78	2.577
315.14	2.775
315.51	1.760
315.87	2.152
316.24	3.134
316.61	3.642
316.97	1.984
317.34	3.223
317.70	4.493
318.07	3.558
318.43	4.706
318.80	4.356
319.16	4.199
319.53	6.173
319.89	4.528
320.26	6.174
320.62	5.316
320.99	5.324
321.35	6.372
321.72	7.580
322.08	6.747
322.45	6.904
322.81	7.466
323.18	5.692
323.54	7.915
323.91	8.277
324.27	8.398
324.64	8.989
325.00	9.489
325.37	10.285
325.73	10.789
326.10	10.536
326.46	13.004
326.83	11.986
327.19	11.683
327.56	12.945
327.92	13.732
328.29	13.214
328.65	13.491
329.01	14.338
329.38	14.654
329.74	14.825
330.11	16.126
330.47	16.234
330.84	16.923
331.20	18.821
331.56	15.741
331.93	17.717
332.29	19.432
332.66	17.285
333.02	17.844
333.38	17.690
333.75	19.139
334.11	17.457
334.48	19.220
334.84	20.421
335.20	20.494
335.57	18.767
335.93	20.867
336.29	19.521
336.66	18.892
337.02	19.238
337.38	21.019
337.75	19.636
338.11	20.830
338.47	20.529
338.84	20.425
339.20	20.110
339.56	20.734
339.93	21.397
340.29	21.376
340.65	21.505
341.02	21.543
341.38	20.885
341.74	18.816
342.11	20.017
342.47	20.730
342.83	21.367
343.20	21.864
343.56	21.913
343.92	21.346
344.28	21.605
344.65	20.898
345.01	21.694
345.37	20.690
345.73	22.008
346.10	20.880
346.46	21.867
346.82	20.540
347.19	21.696
347.55	20.635
347.91	21.440
348.27	20.534
348.63	21.124
349.00	21.411
349.36	20.865
349.72	21.061
350.08	22.213
350.45	22.187
350.81	19.934
351.17	19.544
351.53	21.224
351.89	20.727
352.26	22.000
352.62	20.887
352.98	20.964
353.34	20.451
353.70	22.249
354.07	20.968
354.43	20.576
354.79	21.057
355.15	21.905
355.51	22.152
355.87	21.197
356.24	21.452
356.60	21.746
356.96	21.825
357.32	21.406
357.68	21.423
358.04	21.648
358.40	21.543
358.77	22.010
359.13	20.897
359.49	20.647
359.85	20.671
360.21	21.212
360.57	21.882
360.93	21.331
361.29	20.997
361.66	22.414
362.02	21.288
362.38	21.478
362.74	21.272
363.10	22.348
363.46	20.756
363.82	21.713
364.18	23.026
364.54	21.765
364.90	21.075
365.26	21.834
365.62	21.752
365.98	21.408
366.35	21.996
366.71	22.395
367.07	21.771
367.43	22.286
367.79	22.403
368.15	22.685
368.51	22.797
368.87	21.177
369.23	22.022
369.59	22.085
369.95	24.267
370.31	23.555
370.67	22.090
371.03	22.479
371.39	21.955
371.75	22.198
372.11	21.755
372.47	22.633
372.83	22.427
373.19	22.468
373.55	22.383
373.91	22.606
374.27	22.466
374.63	22.757
374.99	22.128
375.35	22.563
375.71	23.776
376.07	22.823
376.42	23.265
376.78	23.087
377.14	23.629
377.50	23.307
377.86	23.963
378.22	22.910
378.58	24.359
378.94	22.999
379.30	24.017
379.66	24.577
380.02	22.747
380.38	22.763
380.74	23.339
381.09	24.294
381.45	24.037
381.81	23.010
382.17	23.731
382.53	23.173
382.89	25.173
383.25	24.331
383.61	24.451
383.97	23.175
384.32	23.827
384.68	24.149
385.04	24.326
385.40	22.962
385.76	24.403
386.12	24.580
386.48	25.160
386.83	24.033
387.19	25.092
387.55	25.094
387.91	24.205
388.27	24.054
388.62	25.362
388.98	24.862
389.34	24.859
389.70	25.109
390.06	24.166
390.42	24.806
390.77	24.657
391.13	24.590
391.49	24.580
391.85	23.847
392.20	24.419
392.56	23.840
392.92	24.956
393.28	24.351
393.64	24.865
393.99	26.019
394.35	24.731
394.71	25.479
395.07	25.079
395.42	24.954
395.78	24.691
396.14	24.590
396.50	24.984
396.85	25.241
397.21	25.313
397.57	25.141
397.92	25.165
398.28	24.885
398.64	24.398
399.00	25.621
399.35	24.436
399.71	24.124
400.07	25.877
400.42	24.969
400.78	24.985
401.14	24.622
401.49	24.896
401.85	24.619
402.21	24.759
402.57	24.500
402.92	24.279
403.28	24.812
403.63	24.968
403.99	24.554
404.35	25.422
404.70	23.690
405.06	24.442
405.42	25.482
405.77	23.940
406.13	25.029
406.49	25.400
406.84	24.633
407.20	23.540
407.55	24.404
407.91	23.930
408.27	23.964
408.62	24.800
408.98	24.338
409.34	24.597
409.69	24.096
410.05	24.754
410.40	24.136
410.76	24.125
411.11	25.438
411.47	24.589
411.83	24.231
412.18	24.453
412.54	24.220
412.89	23.522
413.25	24.188
413.60	24.658
413.96	23.252
414.31	24.024
414.67	24.503
415.03	23.635
415.38	24.086
415.74	24.495
416.09	25.147
416.45	25.186
416.80	24.124
417.16	24.309
417.51	25.050
417.87	24.316
418.22	25.389
418.58	24.214
418.93	24.702
419.29	24.840
419.64	24.887
420.00	24.874
420.35	24.955
420.71	25.273
421.06	24.923
421.42	25.120
421.77	25.838
422.12	25.255
422.48	25.609
422.83	24.884
423.19	25.451
423.54	24.633
423.90	25.147
424.25	25.545
424.61	26.377
424.96	25.261
425.31	26.343
425.67	25.998
426.02	25.795
426.38	26.675
426.73	26.332
427.09	26.582
427.44	27.294
427.79	26.812
428.15	27.002
428.50	26.469
428.85	26.167
429.21	25.863
429.56	26.415
429.92	26.913
430.27	26.416
430.62	26.869
430.98	26.327
431.33	27.655
431.68	26.164
432.04	27.893
432.39	25.841
432.74	25.917
433.10	27.356
433.45	27.599
433.80	26.930
434.16	25.873
434.51	27.581
434.86	27.875
435.22	27.594
435.57	27.386
435.92	27.964
436.28	27.132
436.63	28.865
436.98	26.477
437.34	27.163
437.69	27.609
438.04	27.350
438.39	27.306
438.75	27.687
439.10	27.844
439.45	28.789
439.81	28.196
440.16	28.444
440.51	28.299
440.86	29.668
441.22	27.319
441.57	27.980
441.92	28.541
442.27	28.326
442.63	29.122
442.98	28.087
443.33	27.490
443.68	28.806
444.03	29.657
444.39	27.939
444.74	29.710
445.09	29.677
445.44	28.775
445.79	29.706
446.15	27.753
446.50	28.064
446.85	28.799
447.20	28.519
447.55	29.464
447.91	28.539
448.26	29.197
448.61	29.188
448.96	29.891
449.31	28.555
449.66	29.094
450.02	28.408
450.37	28.749
450.72	28.465
451.07	28.671
451.42	28.152
451.77	28.933
452.12	28.589
452.47	28.590
452.83	29.505
453.18	28.653
453.53	29.456
453.88	29.144
454.23	28.396
454.58	29.723
454.93	28.802
455.28	26.413
455.63	29.262
455.98	29.705
456.34	28.799
456.69	28.844
457.04	29.805
457.39	28.493
457.74	29.021
458.09	28.075
458.44	28.555
458.79	29.020
459.14	29.233
459.49	29.254
459.84	28.708
460.19	28.459
460.54	29.462
460.89	28.636
461.24	29.814
461.59	28.860
461.94	27.673
462.29	28.890
462.64	29.900
462.99	29.113
463.34	27.886
463.69	28.700
464.04	29.358
464.39	28.623
464.74	28.528
465.09	28.759
465.44	29.198
465.79	28.345
466.14	28.449
466.49	27.890
466.84	29.030
467.19	28.974
467.54	28.352
467.89	28.174
468.24	27.494
468.59	28.762
468.94	28.254
469.29	28.721
469.64	28.640
469.99	28.872
470.34	27.099
470.68	28.934
471.03	28.379
471.38	28.103
471.73	28.221
472.08	28.087
472.43	27.584
472.78	27.416
473.13	28.231
473.48	28.274
473.83	27.335
474.17	28.044
474.52	27.313
474.87	28.242
475.22	27.822
475.57	26.877
475.92	27.976
476.27	27.823
476.61	27.894
476.96	26.715
477.31	27.961
477.66	27.640
478.01	27.793
478.36	26.416
478.70	26.917
479.05	28.352
479.40	26.921
479.75	26.642
480.10	26.831
480.45	27.100
480.79	27.694
481.14	26.793
481.49	26.207
481.84	27.268
482.19	26.848
482.53	26.571
482.88	27.064
483.23	26.679
483.58	26.085
483.92	25.653
484.27	25.479
484.62	25.773
484.97	26.202
485.31	26.481
485.66	26.169
486.01	26.655
486.36	26.490
486.70	26.072
487.05	25.709
487.40	26.293
487.75	25.606
488.09	25.556
488.44	25.550
488.79	25.327
489.13	26.362
489.48	26.165
489.83	24.798
490.17	24.899
490.52	24.896
490.87	24.757
491.22	24.785
491.56	24.763
491.91	24.570
492.26	25.328
492.60	24.856
492.95	25.578
493.30	24.963
493.64	24.705
493.99	25.797
494.34	24.563
494.68	25.190
495.03	24.477
495.37	24.387
495.72	24.735
496.07	24.585
496.41	24.811
496.76	24.827
497.11	23.847
497.45	24.678
497.80	24.470
498.14	24.590
498.49	23.921
498.84	24.501
499.18	23.845
499.53	24.058
499.87	23.930
500.22	23.591
500.56	24.206
500.91	23.594
501.26	23.777
501.60	24.397
501.95	23.581
502.29	24.407
502.64	23.649
502.98	24.766
503.33	23.247
503.67	23.373
504.02	23.949
504.36	23.701
504.71	22.929
505.06	23.150
505.40	22.538
505.75	23.144
506.09	23.416
506.44	23.819
506.78	23.418
507.13	23.733
507.47	23.081
507.82	22.169
508.16	21.870
508.51	22.455
508.85	21.873
509.19	22.885
509.54	23.110
509.88	22.762
510.23	22.647
510.57	22.341
510.92	21.269
511.26	22.259
511.61	22.332
511.95	22.849
512.30	22.228
512.64	22.482
512.98	22.066
513.33	22.384
513.67	20.978
514.02	22.769
514.36	21.486
514.70	22.494
515.05	22.738
515.39	21.783
515.74	22.635
516.08	22.116
516.42	22.085
516.77	22.469
517.11	21.958
517.46	21.843
517.80	21.216
518.14	21.066
518.49	21.274
518.83	20.960
519.17	20.922
519.52	20.189
519.86	20.708
520.20	21.264
520.55	20.325
520.89	21.205
521.23	20.329
521.58	22.082
521.92	21.603
522.26	21.015
522.61	20.909
522.95	20.927
523.29	20.330
523.64	21.093
523.98	20.868
524.32	20.683
524.66	21.383
525.01	21.623
525.35	21.322
525.69	20.471
526.04	20.701
526.38	21.725
526.72	19.751
527.06	20.558
527.41	20.185
527.75	19.839
528.09	21.329
528.43	21.540
528.78	19.406
529.12	20.903
529.46	20.143
529.80	19.886
530.15	21.650
530.49	20.202
530.83	20.246
531.17	20.551
531.51	19.904
531.86	21.006
532.20	18.789
532.54	20.899
532.88	20.260
533.22	20.497
533.57	19.790
533.91	19.125
534.25	20.638
534.59	19.628
534.93	19.006
535.27	19.036
535.62	19.767
535.96	20.352
536.30	20.515
536.64	19.021
536.98	18.537
537.32	18.990
537.66	20.898
538.01	19.720
538.35	18.932
538.69	19.774
539.03	18.865
539.37	19.785
539.71	19.223
540.05	19.009
540.39	18.837
540.73	19.805
541.07	19.406
541.42	19.624
541.76	19.683
542.10	19.064
542.44	18.972
542.78	16.862
543.12	18.956
543.46	20.028
543.80	18.529
544.14	18.291
544.48	19.387
544.82	19.002
545.16	19.057
545.50	19.092
545.84	19.759
546.18	19.574
546.52	18.673
546.86	18.476
547.20	19.385
547.54	18.587
547.88	19.226
548.22	17.883
548.56	18.668
548.90	19.474
549.24	18.113
549.58	18.124
549.92	17.298
550.26	18.315
550.60	19.182
550.94	18.521
551.28	18.238
551.62	19.846
551.96	18.271
552.30	18.202
552.64	17.772
552.98	17.932
553.32	17.546
553.66	17.562
554.00	16.934
554.34	17.725
554.68	17.920
555.02	18.006
555.36	17.427
555.69	17.143
556.03	16.631
556.37	17.082
556.71	17.906
557.05	16.555
557.39	17.249
557.73	16.792
558.07	17.421
558.41	17.152
558.75	16.212
559.08	17.021
559.42	17.302
559.76	17.374
560.10	16.896
560.44	17.275
560.78	17.273
561.12	17.137
561.45	17.147
561.79	17.017
562.13	16.749
562.47	16.619
562.81	17.507
563.15	17.842
563.48	17.539
563.82	17.227
564.16	16.992
564.50	16.419
564.84	17.671
565.17	17.237
565.51	18.374
565.85	17.695
566.19	16.048
566.52	17.292
566.86	17.738
567.20	16.127
567.54	16.241
567.88	17.516
568.21	17.025
568.55	16.522
568.89	16.684
569.23	16.899
569.56	16.506
569.90	17.458
570.24	17.008
570.57	17.309
570.91	17.393
571.25	16.541
571.59	16.817
571.92	16.415
572.26	16.395
572.60	16.310
572.93	16.536
573.27	17.022
573.61	16.438
573.95	16.412
574.28	16.578
574.62	16.374
574.96	16.604
575.29	16.406
575.63	16.170
575.97	16.536
576.30	16.165
576.64	15.921
576.98	16.654
577.31	16.245
577.65	16.881
577.98	16.695
578.32	16.350
578.66	16.334
578.99	16.261
579.33	15.913
579.67	15.569
580.00	16.633
580.34	16.119
580.67	16.271
581.01	16.042
581.35	16.301
581.68	16.434
582.02	16.223
582.35	15.933
582.69	16.459
583.02	16.428
583.36	16.324
583.70	16.070
584.03	16.375
584.37	16.629
584.70	16.071
585.04	16.088
585.37	15.774
585.71	15.873
586.04	16.036
586.38	15.364
586.72	15.753
587.05	16.002
587.39	16.187
587.72	16.238
588.06	15.804
588.39	15.637
588.73	16.148
589.06	16.308
589.40	16.177
589.73	15.882
590.07	16.125
590.40	16.060
590.73	15.939
591.07	15.564
591.40	16.028
591.74	16.471
592.07	16.141
592.41	15.945
592.74	15.293
593.08	15.753
593.41	15.124
593.75	15.244
594.08	15.139
594.41	15.357
594.75	15.191
595.08	15.551
595.42	15.127
595.75	15.321
596.09	15.676
596.42	15.502
596.75	15.853
597.09	15.444
597.42	15.041
597.75	15.254
598.09	15.256
598.42	15.478
598.76	15.230
599.09	14.904
599.42	14.513
599.76	15.087
600.09	15.121
600.42	15.353
600.76	14.413
601.09	14.504
601.42	14.689
601.76	14.490
602.09	15.140
602.42	15.712
602.76	14.983
603.09	15.407
603.42	15.886
603.76	14.637
604.09	14.783
604.42	15.017
604.76	15.799
605.09	15.356
605.42	14.221
605.75	14.930
606.09	14.395
606.42	14.721
606.75	15.022
607.09	14.374
607.42	15.463
607.75	14.476
608.08	13.926
608.42	14.710
608.75	14.506
609.08	14.350
609.41	15.279
609.75	15.323
610.08	14.728
610.41	14.783
610.74	14.481
611.07	14.522
611.41	15.205
611.74	14.659
612.07	14.400
612.40	15.153
612.73	14.520
613.07	14.792
613.40	15.263
613.73	13.822
614.06	15.693
614.39	14.608
614.72	14.510
615.06	14.190
615.39	13.701
615.72	13.348
616.05	15.028
616.38	13.903
616.71	13.884
617.05	14.639
617.38	13.074
617.71	14.403
618.04	14.603
618.37	15.700
618.70	14.653
619.03	14.375
619.36	13.386
619.69	14.405
620.03	15.047
620.36	14.664
620.69	14.847
621.02	13.609
621.35	15.436
621.68	14.116
622.01	13.333
622.34	13.567
622.67	14.117
623.00	14.778
623.33	14.101
623.66	13.762
623.99	14.523
624.32	14.221
624.65	13.910
624.99	14.146
625.32	13.419
625.65	14.847
625.98	13.940
626.31	13.466
626.64	13.605
626.97	14.485
627.30	13.222
627.63	14.385
627.96	13.926
628.29	14.524
628.62	15.438
628.95	14.128
629.28	13.306
629.61	14.457
629.94	13.881
630.26	15.020
630.59	15.088
630.92	13.744
631.25	14.256
631.58	13.656
631.91	14.254
632.24	13.991
632.57	15.000
632.90	12.100
633.23	14.000
633.56	13.350
633.89	12.577
634.22	13.951
634.55	13.469
634.88	13.921
635.20	15.000
635.53	13.067
635.86	13.264
636.19	13.713
636.52	13.648
636.85	12.159
637.18	11.950
637.51	13.711
637.83	12.746
638.16	14.734
638.49	12.398
638.82	14.079
639.15	12.483
639.48	13.205
639.81	13.389
640.13	12.266
640.46	13.411
640.79	11.635
641.12	12.408
641.45	13.213
641.77	14.370
642.10	13.428
642.43	14.469
642.76	12.211
643.09	13.570
643.41	11.812
643.74	13.180
644.07	14.943
644.40	13.851
644.73	12.259
645.05	13.926
645.38	12.346
645.71	12.766
646.04	13.645
646.36	13.298
646.69	17.266
647.02	13.800
647.35	14.366
647.67	14.442
648.00	16.604
648.33	15.188
648.66	13.220
648.98	12.563
649.31	9.752
649.64	14.286
649.96	13.452
650.29	13.799
650.62	11.966
650.94	12.593
651.27	11.359
651.60	14.234
651.92	13.462
652.25	11.901
652.58	12.833
652.90	13.722
653.23	13.950
653.56	11.337
653.88	13.058
654.21	12.084
654.54	12.733
654.86	13.582
655.19	12.719
655.52	14.087
655.84	12.933
656.17	14.375
656.49	19.773
656.82	20.954
657.15	15.609
657.47	11.728
657.80	8.657
658.13	8.217
658.45	12.990
658.78	12.935
659.10	12.767
659.43	13.165
659.75	13.468
660.08	13.241
660.41	13.892
660.73	12.983
661.06	13.518
661.38	12.329
661.71	8.419
662.03	12.876
662.36	13.187
662.68	14.159
663.01	14.192
663.33	12.297
663.66	12.093
663.98	11.628
664.31	14.712
664.63	12.673
664.96	12.391
665.28	11.258
665.61	10.606
665.93	12.826
666.26	13.883
666.58	11.186
666.91	13.882
667.23	13.679
667.56	13.270
667.88	12.230
668.21	14.797
668.53	15.366
668.86	14.858
669.18	15.330
669.50	9.685
669.83	14.186
670.15	13.986
670.48	10.766
670.80	11.060
671.13	11.186
671.45	11.872
671.77	14.163
672.10	13.861
672.42	11.236
672.75	13.499
673.07	13.059
673.39	13.394
673.72	9.467
674.04	10.625
674.37	11.864
674.69	11.349
675.01	12.889
675.34	11.712
675.66	14.120
675.98	14.856
676.31	12.156
676.63	13.539
676.95	13.636
677.28	14.353
677.60	15.663
677.92	11.468
678.25	14.223
678.57	13.203
678.89	13.025
679.22	12.752
679.54	11.446
679.86	10.139
680.18	14.951
680.51	14.394
680.83	10.139
681.15	13.200
681.48	15.164
681.80	10.537
682.12	12.702
682.44	12.343
682.77	11.700
683.09	10.526
683.41	12.045
683.73	14.286
684.06	13.274
684.38	10.323
684.70	12.200
685.02	11.826
685.34	11.858
685.67	11.069
685.99	12.477
686.31	13.805
686.63	13.544
686.96	11.597
687.28	9.495
687.60	11.977
687.92	15.758
688.24	12.097
688.56	12.664
688.89	10.937
689.21	14.222
689.53	11.137
689.85	8.837
690.17	12.946
690.49	12.766
690.82	13.107
691.14	9.762
691.46	13.785
691.78	11.712
692.10	13.118
692.42	11.255
692.74	13.675
693.06	12.838
693.39	11.765
693.71	10.860
694.03	11.085
694.35	11.449
694.67	13.384
694.99	10.966
695.31	11.749
695.63	12.250
695.95	11.616
696.27	11.399
696.59	12.222
696.91	12.045
697.23	10.540
697.56	12.129
697.88	15.269
698.20	10.251
698.52	12.000
698.84	9.091
699.16	14.750
699.48	11.779
699.80	12.407
700.12	9.973
700.44	13.165
700.76	9.884
701.08	11.515
701.40	15.964
701.72	12.654
702.04	14.191
702.36	11.037
702.68	12.012
703.00	10.909
703.32	9.677
703.64	11.299
703.96	11.014
704.28	11.350
704.60	12.698
704.91	10.726
705.23	10.963
705.55	15.194
705.87	15.884
706.19	10.741
706.51	15.120
706.83	14.148
707.15	9.657
707.47	10.924
707.79	9.115
708.11	12.750
708.43	13.500
708.74	13.178
709.06	15.775
709.38	13.761
709.70	15.089
710.02	11.465
710.34	15.170
710.66	12.821
710.98	11.258
711.29	11.803
711.61	13.220
711.93	12.378
712.25	15.120
712.57	11.355
712.89	10.821
713.20	13.841
713.52	15.331
713.84	9.898
714.16	8.247
714.48	10.968
714.80	13.462
715.11	13.070
715.43	10.972
715.75	8.667
716.07	7.641
716.39	11.409
716.70	9.963
717.02	7.634
717.34	14.170
717.66	15.487
717.97	11.739
718.29	10.042
718.61	12.205
718.93	10.465
719.24	12.167
719.56	12.851
719.88	14.089
720.20	10.606
720.51	9.962
720.83	13.900
721.15	11.345
721.46	10.887
721.78	11.067
722.10	12.639
722.42	6.639
722.73	13.061
723.05	13.061
723.37	14.831
723.68	9.910
724.00	11.966
724.32	11.556
724.63	5.909
724.95	11.354
725.27	10.599
725.58	11.017
725.90	7.143
726.22	11.969
726.53	15.254
726.85	10.861
727.16	15.849
727.48	8.097
727.80	16.599
728.11	10.593
728.43	9.412
728.74	6.452
729.06	14.400
729.38	13.534
729.69	15.139
730.01	6.538
730.32	15.672
730.64	13.428
730.96	14.340
731.27	10.000
731.59	12.203
731.90	11.783
732.22	15.142
732.53	14.286
732.85	11.702
733.16	16.835
733.48	6.115
733.80	11.232
734.11	9.153
734.43	12.715
734.74	13.333
735.06	6.515
735.37	14.804
735.69	13.131
736.00	9.059
736.32	11.745
736.63	13.732
736.95	10.580
737.26	6.406
737.58	10.403
737.89	9.524
738.21	6.391
738.52	10.700
738.83	10.917
739.15	6.987
739.46	11.417
739.78	8.791
740.09	13.399
740.41	11.232
740.72	4.724
741.04	14.170
741.35	10.213
741.66	16.588
741.98	13.265
742.29	13.861
742.61	13.089
742.92	5.687
743.23	7.870
743.55	16.290
743.86	12.440
744.18	11.483
744.49	10.106
744.80	11.413
745.12	13.369
745.43	9.268
745.74	9.375
746.06	12.195
746.37	10.995
746.68	12.322
747.00	5.851
747.31	16.418
747.62	10.194
747.94	10.526
748.25	9.406
748.56	11.475
748.88	13.089
749.19	11.702
749.50	12.315
749.82	7.075
750.13	4.587
750.44	12.030
750.75	11.194
751.07	16.058
751.38	10.728
751.69	9.804
752.01	13.178
752.32	11.155
752.63	4.743
752.94	12.500
753.26	14.644
753.57	10.407
753.88	12.389
754.19	9.167
754.51	5.785
754.82	12.955
755.13	14.583
755.44	6.855
755.75	13.672
756.07	8.560
756.38	9.811
756.69	8.046
757.00	11.333
757.31	11.765
757.63	11.280
757.94	11.944
758.25	10.411
758.56	9.309
758.87	11.048
759.18	12.150
759.50	14.182
759.81	13.378
760.12	9.032
760.43	11.818
760.74	10.185
761.05	9.846
761.36	8.807
761.67	12.121
761.99	11.905
762.30	9.455
762.61	11.067
762.92	12.217
763.23	8.108
763.54	6.542
763.85	8.475
764.16	11.618
764.47	8.468
764.78	8.425
765.10	15.152
765.41	9.779
765.72	14.286
766.03	4.887
766.34	14.599
766.65	19.124
766.96	11.111
767.27	8.511
767.58	8.046
767.89	8.511
768.20	12.500
768.51	11.538
768.82	9.360
769.13	7.373
769.44	8.584
769.75	3.653
770.06	17.241
770.37	10.577
770.68	17.259
770.99	11.765
771.30	13.235
771.61	16.290
771.92	17.672
772.23	11.823
772.54	15.591
772.85	12.963
773.16	10.674
773.47	16.993
773.78	11.765
774.09	14.970
774.39	12.000
774.70	9.554
775.01	17.931
775.32	13.571
775.63	9.917
775.94	9.160
776.25	11.024
776.56	8.333
776.87	11.538
777.18	5.128
777.48	12.069
777.79	1.739
778.10	2.857
778.41	0.000
778.72	15.079
779.03	7.519
779.34	13.475
779.65	15.753
779.95	10.274
780.26	12.414
780.57	5.691
780.88	7.087
781.19	11.207
781.50	9.302
781.80	10.059
782.11	1.258
782.42	5.385
782.73	12.230
783.04	12.593
783.34	5.556
783.65	6.838
783.96	4.098
784.27	17.931
784.57	4.065
784.88	14.062
785.19	16.000
785.50	20.000
785.81	8.621
786.11	12.931
786.42	7.767
786.73	26.364
787.04	11.224
787.34	9.821
787.65	12.381
787.96	11.504
788.26	5.455
788.57	11.966
788.88	15.625
789.19	15.079
789.49	7.826
789.80	12.245
790.11	15.152
790.41	11.818
790.72	19.565
791.03	11.364
791.33	10.000
791.64	5.000
791.95	16.279
792.25	23.404
792.56	11.236
792.87	13.699
793.17	0.000
793.48	-14.667
793.79	15.000
794.09	25.000
794.40	14.151
794.70	6.796
795.01	9.756
795.32	10.256
795.62	5.714
795.93	3.922
796.23	14.151
796.54	26.042
796.85	20.588
797.15	5.634
797.46	26.389
797.76	19.697
798.07	9.302
798.37	13.158
798.68	16.667
798.99	4.938
799.29	17.143
799.60	8.696
799.90	20.000
800.21	19.672
800.51	16.923
800.82	0.000
801.12	18.841
801.43	8.197
801.73	23.810
802.04	22.000
802.34	16.418
802.65	0.000
802.95	1.786
803.26	5.769
803.56	9.804
803.87	8.696
804.17	29.333
804.48	28.571
804.78	27.778
805.09	-2.174
805.39	13.333
805.70	7.407
806.00	1.754
806.30	21.127
806.61	18.571
806.91	0.000
807.22	28.947
807.52	29.333
807.83	5.455
808.13	23.611
808.43	35.294
808.74	11.940
809.04	-1.695
809.35	0.000
809.65	10.938
809.95	-29.730
810.26	13.636
810.56	24.658
810.86	14.286
811.17	18.000
811.47	4.082
811.77	7.895
812.08	6.818
812.38	16.981
812.69	-2.500
812.99	3.030
813.29	23.684
813.59	-20.000
813.90	38.636
814.20	0.000
814.50	5.769
814.81	32.075
815.11	-4.255
815.41	37.288
815.72	35.714
816.02	17.647
816.32	18.750
816.62	39.024
816.93	2.703
817.23	-17.143
817.53	22.917
817.84	-2.174
818.14	15.385
818.44	2.632
818.74	17.391
819.04	-17.500
819.35	35.135
819.65	23.529
819.95	16.667
820.25	28.571
820.56	35.000
820.86	-24.138
821.16	20.000
821.46	36.170
821.76	30.000
822.07	20.930
822.37	-5.405
822.67	-28.125
822.97	59.524
823.27	7.143
823.57	24.000
823.88	-22.222
824.18	-10.714
824.48	0.000
824.78	0.000
825.08	34.783
825.38	-12.121
825.69	12.500
825.99	42.105
826.29	22.222
826.59	-13.333
826.89	-38.095
827.19	41.304
827.49	20.000
827.79	57.143
828.09	14.286
828.39	39.394
828.70	40.541
829.00	28.571
829.30	-42.857
829.60	36.667
829.90	25.000
830.20	26.316
830.50	18.519
830.80	26.087
831.10	40.909
831.40	63.636
831.70	38.710
832.00	-4.762
832.30	14.286
832.60	-8.333
832.90	10.345
833.20	-15.000
833.50	42.424
833.80	14.815
834.10	11.538
834.40	37.500
834.70	-55.556
835.00	26.316
835.30	61.538
835.60	53.333
835.90	51.613
836.20	50.000
836.50	25.000
836.80	23.077
837.10	-10.714
837.40	-100.000
837.70	27.273
838.00	9.091
838.30	17.391
838.60	76.923
838.90	13.636
839.19	32.143
839.49	50.000
839.79	15.385
840.09	-25.000
840.39	39.286
840.69	-3.571
840.99	-23.077
841.29	-36.842
841.59	-140.000
841.88	45.455
842.18	-10.000
842.48	37.500
842.78	-6.667
843.08	-7.407
843.38	-110.000
843.68	34.783
843.97	66.667
844.27	60.000
844.57	65.000
844.87	11.111
845.17	19.048
845.47	86.667
845.76	42.857
846.06	47.059
846.36	60.000
846.66	-21.429
846.96	40.000
847.25	-100.000
847.55	85.714
847.85	50.000
848.15	9.091
848.44	-300.000
848.74	25.000
849.04	62.963
849.34	100.000
849.63	-33.333
849.93	-60.000
850.23	-11.111
850.53	100.000
850.82	7.692
851.12	-11.111
851.42	0.000
851.71	38.462
852.01	42.857
852.31	-150.000
852.61	-18.182
852.90	-15.000
853.20	47.368
853.50	58.333
853.79	39.130
854.09	41.667
854.39	10.526
854.68	25.000
854.98	51.613
855.28	11.538
855.57	50.000
855.87	33.333
856.17	44.444
856.46	50.000
856.76	0.000
857.05	33.333
857.35	40.000
857.65	33.333
857.94	38.462
858.24	62.069
858.53	38.889
858.83	55.556
859.13	63.636
859.42	52.174
859.72	0.000
860.01	-66.667
860.31	72.000
860.60	-14.286
860.90	100.000
861.20	73.333
861.49	-150.000
861.79	20.000
862.08	45.000
862.38	0.000
862.67	-140.000
862.97	116.667
863.26	50.000
863.56	27.778
863.85	-166.667
864.15	38.889
864.44	-50.000
864.74	128.571
865.03	125.000
865.33	-140.000
865.62	150.000
865.92	25.000
866.21	-66.667
866.51	50.000
866.80	-36.364
867.10	-150.000
867.39	58.333
867.69	0.000
867.98	84.615
868.27	166.667
868.57	0.000
868.86	33.333
869.16	38.462
869.45	80.000
869.75	-200.000
870.04	0.000
870.33	-28.571
870.63	80.952
870.92	266.667
871.22	-100.000
871.51	-400.000
871.80	211.111
872.10	300.000
>>>>>End Processed Spectral Data<<<<<
