SpectraSuite Data File
++++++++++++++++++++++++++++++++++++
Date: Fri May 15 20:08:30 PDT 2015
User: schluterlab
Dark Spectrum Present: Yes
Reference Spectrum Present: Yes
Number of Sampled Component Spectra: 1
Spectrometers: USB2E3373
Integration Time (usec): 3000 (USB2E3373)
Spectra Averaged: 3 (USB2E3373)
Boxcar Smoothing: 0 (USB2E3373)
Correct for Electrical Dark: No (USB2E3373)
Strobe/Lamp Enabled: No (USB2E3373)
Correct for Detector Non-linearity: No (USB2E3373)
Correct for Stray Light: No (USB2E3373)
Number of Pixels in Processed Spectrum: 2048
>>>>>Begin Processed Spectral Data<<<<<
178.53	0.000
178.91	0.000
179.29	137.500
179.67	-600.000
180.04	157.143
180.42	-275.000
180.80	-600.000
181.18	400.000
181.56	650.000
181.94	-400.000
182.31	-200.000
182.69	60.000
183.07	-333.333
183.45	-180.000
183.83	83.333
184.20	72.727
184.58	100.000
184.96	-75.000
185.34	-133.333
185.72	100.000
186.09	107.692
186.47	-500.000
186.85	266.667
187.23	222.222
187.61	-600.000
187.98	-133.333
188.36	144.444
188.74	-100.000
189.12	29.412
189.49	33.333
189.87	0.000
190.25	50.000
190.63	250.000
191.00	33.333
191.38	10.526
191.76	150.000
192.14	-0.000
192.51	450.000
192.89	-122.222
193.27	-128.571
193.65	116.667
194.02	100.000
194.40	40.000
194.78	-137.500
195.15	-25.000
195.53	-125.000
195.91	625.000
196.29	-200.000
196.66	7.692
197.04	100.000
197.42	-11.111
197.79	-100.000
198.17	-38.462
198.55	1000.000
198.92	66.667
199.30	0.000
199.68	0.000
200.05	-400.000
200.43	0.000
200.81	-133.333
201.18	133.333
201.56	700.000
201.94	500.000
202.31	-0.000
202.69	-140.000
203.07	-75.000
203.44	700.000
203.82	0.000
204.19	14.286
204.57	-366.667
204.95	100.000
205.32	20.000
205.70	-57.143
206.08	175.000
206.45	77.778
206.83	121.429
207.20	-128.571
207.58	500.000
207.96	0.000
208.33	-20.000
208.71	-75.000
209.08	-116.667
209.46	-900.000
209.84	-20.000
210.21	-1400.000
210.59	71.429
210.96	200.000
211.34	-175.000
211.71	86.667
212.09	-57.143
212.46	-800.000
212.84	0.000
213.22	50.000
213.59	700.000
213.97	92.308
214.34	-18.182
214.72	50.000
215.09	200.000
215.47	-15.385
215.84	27.273
216.22	-400.000
216.59	-112.500
216.97	350.000
217.34	-50.000
217.72	0.000
218.09	-25.000
218.47	100.000
218.84	-700.000
219.22	44.444
219.59	-60.000
219.97	300.000
220.34	250.000
220.72	-71.429
221.09	-175.000
221.47	400.000
221.84	-600.000
222.22	-450.000
222.59	18.182
222.97	0.000
223.34	-33.333
223.72	64.286
224.09	-9.524
224.46	3.571
224.84	400.000
225.21	80.000
225.59	26.667
225.96	50.000
226.34	25.000
226.71	-28.571
227.08	-16.667
227.46	37.500
227.83	-550.000
228.21	0.000
228.58	54.545
228.95	75.000
229.33	60.000
229.70	-37.500
230.08	-75.000
230.45	-100.000
230.82	85.714
231.20	20.000
231.57	50.000
231.95	-128.571
232.32	-90.000
232.69	21.429
233.07	-33.333
233.44	40.000
233.81	110.000
234.19	-44.444
234.56	64.706
234.93	50.000
235.31	125.000
235.68	-320.000
236.05	7.692
236.43	-45.000
236.80	11.765
237.17	12.500
237.55	0.000
237.92	0.000
238.29	2.778
238.67	0.000
239.04	17.647
239.41	4.878
239.79	-13.333
240.16	26.829
240.53	10.526
240.91	-4.348
241.28	0.000
241.65	42.857
242.02	35.616
242.40	20.000
242.77	5.085
243.14	12.121
243.51	20.000
243.89	29.885
244.26	6.897
244.63	10.714
245.00	25.773
245.38	17.526
245.75	13.483
246.12	18.103
246.49	15.702
246.87	17.308
247.24	15.126
247.61	7.895
247.98	15.447
248.36	22.500
248.73	17.763
249.10	18.182
249.47	23.418
249.84	18.301
250.22	25.294
250.59	14.379
250.96	20.657
251.33	20.349
251.70	20.000
252.08	25.381
252.45	17.822
252.82	20.603
253.19	20.276
253.56	20.093
253.94	19.369
254.31	20.435
254.68	19.737
255.05	22.047
255.42	21.834
255.79	23.166
256.16	19.844
256.54	25.000
256.91	20.913
257.28	20.818
257.65	19.476
258.02	23.404
258.39	21.549
258.76	25.641
259.14	25.914
259.51	23.301
259.88	22.337
260.25	18.954
260.62	22.569
260.99	19.322
261.36	18.493
261.73	20.253
262.10	19.757
262.47	20.859
262.85	15.361
263.22	21.538
263.59	20.249
263.96	19.565
264.33	21.818
264.70	21.131
265.07	19.940
265.44	26.062
265.81	20.904
266.18	23.497
266.55	21.594
266.92	24.093
267.29	21.410
267.66	20.716
268.03	22.513
268.40	18.277
268.77	20.588
269.14	22.062
269.51	21.594
269.88	20.698
270.25	18.878
270.62	19.756
270.99	20.205
271.36	22.249
271.73	21.831
272.10	21.655
272.47	22.459
272.84	19.307
273.21	25.290
273.58	20.482
273.95	21.281
274.32	21.016
274.69	18.326
275.06	21.652
275.43	23.129
275.80	22.296
276.17	19.080
276.54	21.627
276.91	20.833
277.28	22.271
277.65	22.727
278.02	22.766
278.39	20.788
278.76	20.755
279.13	18.050
279.50	23.319
279.87	20.302
280.23	18.065
280.60	20.468
280.97	22.828
281.34	19.231
281.71	21.355
282.08	19.836
282.45	19.765
282.82	19.112
283.19	20.696
283.56	20.809
283.92	20.873
284.29	20.192
284.66	17.054
285.03	18.664
285.40	19.849
285.77	18.981
286.14	18.412
286.51	20.111
286.87	18.647
287.24	17.311
287.61	19.224
287.98	21.053
288.35	19.757
288.72	21.541
289.08	17.882
289.45	17.399
289.82	19.231
290.19	17.918
290.56	16.981
290.93	16.330
291.29	16.795
291.66	18.583
292.03	15.789
292.40	17.258
292.77	14.673
293.13	14.123
293.50	17.299
293.87	17.710
294.24	17.774
294.60	16.542
294.97	14.435
295.34	13.804
295.71	16.244
296.08	15.845
296.44	13.371
296.81	15.417
297.18	15.362
297.55	17.480
297.91	16.712
298.28	15.435
298.65	13.976
299.02	15.094
299.38	13.543
299.75	13.379
300.12	13.743
300.48	13.570
300.85	13.815
301.22	13.896
301.59	14.342
301.95	16.329
302.32	15.564
302.69	14.179
303.05	15.099
303.42	14.570
303.79	15.070
304.15	14.217
304.52	12.604
304.89	13.450
305.25	14.407
305.62	11.435
305.99	12.047
306.35	12.832
306.72	11.811
307.09	12.885
307.45	14.007
307.82	13.310
308.19	13.705
308.55	13.413
308.92	14.161
309.29	12.402
309.65	12.379
310.02	12.761
310.38	12.514
310.75	13.770
311.12	13.563
311.48	12.301
311.85	13.927
312.22	11.392
312.58	11.677
312.95	11.633
313.31	13.665
313.68	12.251
314.05	11.224
314.41	12.680
314.78	12.887
315.14	13.155
315.51	12.112
315.87	12.602
316.24	12.740
316.61	13.189
316.97	12.202
317.34	13.184
317.70	13.098
318.07	12.596
318.43	12.647
318.80	12.500
319.16	12.109
319.53	12.536
319.89	12.598
320.26	12.146
320.62	11.635
320.99	9.186
321.35	11.819
321.72	12.773
322.08	11.984
322.45	10.863
322.81	11.690
323.18	11.384
323.54	11.390
323.91	11.587
324.27	12.598
324.64	13.483
325.00	13.321
325.37	12.397
325.73	11.695
326.10	12.897
326.46	12.646
326.83	12.511
327.19	12.467
327.56	12.076
327.92	13.292
328.29	11.875
328.65	12.830
329.01	11.397
329.38	12.719
329.74	11.237
330.11	12.419
330.47	12.430
330.84	10.481
331.20	14.639
331.56	12.037
331.93	13.699
332.29	12.466
332.66	12.489
333.02	11.989
333.38	11.916
333.75	12.179
334.11	11.549
334.48	12.602
334.84	12.363
335.20	11.436
335.57	11.242
335.93	12.737
336.29	12.339
336.66	10.990
337.02	10.781
337.38	11.481
337.75	12.727
338.11	11.903
338.47	12.318
338.84	11.645
339.20	11.700
339.56	11.560
339.93	12.086
340.29	11.743
340.65	12.097
341.02	11.170
341.38	10.708
341.74	11.307
342.11	11.352
342.47	12.278
342.83	11.765
343.20	11.760
343.56	12.696
343.92	12.046
344.28	12.724
344.65	10.881
345.01	11.150
345.37	11.775
345.73	11.464
346.10	12.425
346.46	11.859
346.82	11.784
347.19	11.139
347.55	11.445
347.91	12.460
348.27	11.560
348.63	12.010
349.00	11.485
349.36	11.388
349.72	11.526
350.08	11.311
350.45	11.492
350.81	11.379
351.17	11.156
351.53	11.918
351.89	12.221
352.26	11.440
352.62	10.726
352.98	11.325
353.34	11.192
353.70	12.298
354.07	10.323
354.43	12.730
354.79	10.570
355.15	11.508
355.51	11.867
355.87	12.136
356.24	11.093
356.60	11.075
356.96	11.667
357.32	11.821
357.68	11.650
358.04	10.178
358.40	10.772
358.77	11.962
359.13	10.568
359.49	10.401
359.85	10.842
360.21	11.164
360.57	11.018
360.93	11.346
361.29	10.272
361.66	11.599
362.02	11.364
362.38	10.663
362.74	10.749
363.10	11.813
363.46	10.378
363.82	12.472
364.18	10.996
364.54	10.662
364.90	11.039
365.26	10.116
365.62	11.533
365.98	10.630
366.35	11.362
366.71	11.086
367.07	11.321
367.43	9.921
367.79	10.459
368.15	10.983
368.51	10.706
368.87	9.907
369.23	9.892
369.59	10.496
369.95	10.997
370.31	10.694
370.67	10.522
371.03	10.007
371.39	10.430
371.75	10.989
372.11	11.127
372.47	11.391
372.83	11.214
373.19	10.414
373.55	10.614
373.91	11.159
374.27	10.702
374.63	11.486
374.99	10.000
375.35	10.585
375.71	10.979
376.07	10.604
376.42	11.020
376.78	10.738
377.14	10.697
377.50	9.296
377.86	10.509
378.22	10.913
378.58	10.321
378.94	10.082
379.30	10.792
379.66	10.408
380.02	10.178
380.38	9.799
380.74	10.473
381.09	10.736
381.45	10.336
381.81	9.994
382.17	11.485
382.53	9.869
382.89	9.793
383.25	11.201
383.61	10.427
383.97	10.476
384.32	10.694
384.68	11.146
385.04	10.355
385.40	10.765
385.76	11.698
386.12	10.608
386.48	11.111
386.83	10.082
387.19	10.195
387.55	10.853
387.91	10.636
388.27	9.951
388.62	11.013
388.98	10.681
389.34	10.369
389.70	11.311
390.06	10.510
390.42	9.456
390.77	10.137
391.13	9.269
391.49	10.608
391.85	10.071
392.20	10.734
392.56	10.362
392.92	11.274
393.28	10.259
393.64	10.090
393.99	11.536
394.35	10.436
394.71	11.430
395.07	10.811
395.42	11.111
395.78	10.749
396.14	10.404
396.50	11.224
396.85	10.045
397.21	10.401
397.57	10.846
397.92	9.766
398.28	11.092
398.64	10.843
399.00	11.456
399.35	9.819
399.71	10.913
400.07	11.064
400.42	11.261
400.78	10.900
401.14	10.224
401.49	11.435
401.85	10.116
402.21	10.482
402.57	10.312
402.92	9.849
403.28	11.153
403.63	10.656
403.99	10.459
404.35	10.618
404.70	10.298
405.06	10.223
405.42	11.063
405.77	10.633
406.13	10.943
406.49	11.190
406.84	10.452
407.20	10.536
407.55	9.916
407.91	9.960
408.27	10.261
408.62	11.262
408.98	11.091
409.34	10.037
409.69	10.078
410.05	11.576
410.40	10.679
410.76	10.253
411.11	10.688
411.47	10.454
411.83	9.542
412.18	10.103
412.54	10.549
412.89	10.160
413.25	11.071
413.60	10.683
413.96	9.816
414.31	11.280
414.67	9.557
415.03	10.852
415.38	10.966
415.74	10.619
416.09	11.039
416.45	11.546
416.80	10.839
417.16	10.981
417.51	10.193
417.87	10.561
418.22	11.010
418.58	9.632
418.93	10.846
419.29	9.603
419.64	10.758
420.00	10.202
420.35	10.567
420.71	11.118
421.06	10.190
421.42	10.877
421.77	10.809
422.12	11.067
422.48	10.287
422.83	10.499
423.19	10.497
423.54	10.523
423.90	10.247
424.25	10.448
424.61	10.465
424.96	10.569
425.31	10.803
425.67	10.153
426.02	11.366
426.38	11.146
426.73	10.956
427.09	11.013
427.44	10.353
427.79	10.784
428.15	10.558
428.50	10.660
428.85	10.258
429.21	10.866
429.56	10.243
429.92	11.505
430.27	11.228
430.62	9.880
430.98	10.563
431.33	10.936
431.68	10.466
432.04	10.341
432.39	10.382
432.74	10.643
433.10	10.747
433.45	10.812
433.80	9.286
434.16	9.917
434.51	10.108
434.86	11.731
435.22	11.385
435.57	10.418
435.92	10.539
436.28	10.197
436.63	11.409
436.98	9.733
437.34	10.042
437.69	10.495
438.04	9.801
438.39	9.896
438.75	10.018
439.10	10.866
439.45	10.469
439.81	10.214
440.16	10.451
440.51	11.104
440.86	11.601
441.22	10.011
441.57	10.210
441.92	11.280
442.27	10.144
442.63	11.510
442.98	10.281
443.33	10.796
443.68	10.292
444.03	10.383
444.39	10.871
444.74	11.204
445.09	10.746
445.44	10.142
445.79	11.501
446.15	10.352
446.50	10.483
446.85	10.627
447.20	10.845
447.55	11.105
447.91	10.829
448.26	11.212
448.61	10.938
448.96	10.901
449.31	10.462
449.66	10.627
450.02	11.010
450.37	10.848
450.72	10.195
451.07	10.759
451.42	10.674
451.77	10.970
452.12	10.108
452.47	10.818
452.83	10.365
453.18	10.436
453.53	10.999
453.88	10.747
454.23	10.141
454.58	11.272
454.93	10.503
455.28	9.079
455.63	10.849
455.98	10.824
456.34	10.089
456.69	10.546
457.04	11.531
457.39	10.510
457.74	10.883
458.09	10.359
458.44	10.123
458.79	10.140
459.14	11.670
459.49	11.642
459.84	11.111
460.19	11.165
460.54	10.452
460.89	10.909
461.24	10.373
461.59	11.105
461.94	10.126
462.29	10.434
462.64	11.229
462.99	10.630
463.34	9.944
463.69	10.360
464.04	11.441
464.39	10.067
464.74	10.123
465.09	10.293
465.44	11.310
465.79	10.828
466.14	11.403
466.49	10.868
466.84	10.529
467.19	10.451
467.54	11.239
467.89	10.992
468.24	10.219
468.59	10.476
468.94	10.159
469.29	10.689
469.64	11.415
469.99	10.652
470.34	9.147
470.68	10.962
471.03	11.253
471.38	10.342
471.73	10.994
472.08	9.973
472.43	10.134
472.78	9.664
473.13	10.544
473.48	11.075
473.83	10.648
474.17	10.233
474.52	10.657
474.87	11.030
475.22	10.189
475.57	10.164
475.92	10.861
476.27	11.118
476.61	11.227
476.96	9.927
477.31	10.276
477.66	11.011
478.01	9.994
478.36	10.185
478.70	10.984
479.05	10.110
479.40	11.341
479.75	10.480
480.10	10.906
480.45	10.300
480.79	10.574
481.14	11.168
481.49	9.951
481.84	10.521
482.19	10.430
482.53	10.552
482.88	9.451
483.23	10.221
483.58	10.660
483.92	10.939
484.27	10.210
484.62	10.937
484.97	9.950
485.31	10.585
485.66	10.962
486.01	11.668
486.36	11.300
486.70	11.766
487.05	11.124
487.40	10.677
487.75	10.479
488.09	10.198
488.44	10.316
488.79	10.123
489.13	10.136
489.48	10.218
489.83	10.314
490.17	10.247
490.52	10.346
490.87	10.458
491.22	10.124
491.56	10.104
491.91	9.178
492.26	10.695
492.60	10.557
492.95	11.166
493.30	9.868
493.64	10.609
493.99	10.048
494.34	10.243
494.68	10.048
495.03	9.635
495.37	10.402
495.72	10.399
496.07	9.951
496.41	10.330
496.76	9.535
497.11	9.548
497.45	10.549
497.80	10.293
498.14	10.432
498.49	9.751
498.84	9.681
499.18	10.090
499.53	10.268
499.87	10.068
500.22	10.089
500.56	10.741
500.91	9.639
501.26	9.689
501.60	9.444
501.95	10.577
502.29	10.799
502.64	10.473
502.98	10.212
503.33	9.798
503.67	10.410
504.02	11.290
504.36	10.787
504.71	9.848
505.06	10.116
505.40	9.594
505.75	10.670
506.09	9.934
506.44	10.524
506.78	10.204
507.13	10.703
507.47	9.661
507.82	9.135
508.16	9.562
508.51	10.073
508.85	10.152
509.19	9.633
509.54	10.241
509.88	9.978
510.23	9.252
510.57	9.621
510.92	7.889
511.26	9.656
511.61	10.341
511.95	10.027
512.30	9.812
512.64	9.293
512.98	9.826
513.33	10.520
513.67	9.835
514.02	10.355
514.36	11.029
514.70	9.674
515.05	9.988
515.39	9.740
515.74	10.419
516.08	9.863
516.42	10.660
516.77	10.064
517.11	9.614
517.46	9.934
517.80	9.774
518.14	10.043
518.49	9.856
518.83	9.721
519.17	8.975
519.52	9.651
519.86	9.844
520.20	10.753
520.55	8.380
520.89	9.724
521.23	10.006
521.58	10.536
521.92	9.551
522.26	9.694
522.61	9.545
522.95	10.066
523.29	9.911
523.64	10.483
523.98	9.527
524.32	8.570
524.66	10.563
525.01	10.130
525.35	10.175
525.69	9.024
526.04	8.664
526.38	10.506
526.72	8.633
527.06	9.728
527.41	10.554
527.75	9.651
528.09	10.432
528.43	10.061
528.78	8.647
529.12	9.097
529.46	9.357
529.80	10.576
530.15	9.901
530.49	9.226
530.83	9.986
531.17	9.268
531.51	9.576
531.86	9.313
532.20	8.699
532.54	10.211
532.88	10.130
533.22	9.409
533.57	10.485
533.91	9.269
534.25	10.938
534.59	9.557
534.93	9.503
535.27	10.343
535.62	9.462
535.96	10.633
536.30	9.499
536.64	9.993
536.98	8.850
537.32	9.815
537.66	10.168
538.01	9.720
538.35	9.709
538.69	10.186
539.03	9.911
539.37	10.027
539.71	10.089
540.05	10.115
540.39	9.695
540.73	10.251
541.07	10.014
541.42	10.551
541.76	9.773
542.10	9.704
542.44	9.590
542.78	9.016
543.12	9.409
543.46	10.292
543.80	9.993
544.14	9.079
544.48	9.993
544.82	9.501
545.16	9.358
545.50	10.748
545.84	9.632
546.18	10.638
546.52	10.310
546.86	9.777
547.20	9.800
547.54	8.622
547.88	10.462
548.22	9.204
548.56	9.763
548.90	10.108
549.24	9.917
549.58	9.873
549.92	9.149
550.26	9.377
550.60	9.963
550.94	10.082
551.28	9.196
551.62	9.692
551.96	10.000
552.30	9.430
552.64	8.604
552.98	9.845
553.32	10.200
553.66	9.507
554.00	9.635
554.34	9.749
554.68	10.251
555.02	9.747
555.36	9.574
555.69	9.670
556.03	9.350
556.37	9.751
556.71	9.892
557.05	9.843
557.39	8.550
557.73	9.445
558.07	9.578
558.41	9.112
558.75	9.587
559.08	9.693
559.42	8.095
559.76	8.487
560.10	9.251
560.44	9.382
560.78	9.091
561.12	9.803
561.45	10.401
561.79	9.874
562.13	10.362
562.47	8.705
562.81	9.294
563.15	10.226
563.48	9.194
563.82	9.883
564.16	9.401
564.50	9.527
564.84	10.776
565.17	10.396
565.51	9.973
565.85	9.671
566.19	9.350
566.52	10.992
566.86	10.026
567.20	9.465
567.54	9.793
567.88	10.603
568.21	10.690
568.55	10.054
568.89	11.499
569.23	10.881
569.56	11.296
569.90	11.165
570.24	11.388
570.57	10.655
570.91	11.154
571.25	11.082
571.59	11.180
571.92	11.200
572.26	11.171
572.60	10.884
572.93	11.327
573.27	10.878
573.61	11.426
573.95	11.469
574.28	11.414
574.62	11.391
574.96	11.493
575.29	11.232
575.63	10.806
575.97	10.951
576.30	10.964
576.64	11.020
576.98	11.583
577.31	11.452
577.65	11.628
577.98	11.877
578.32	11.595
578.66	11.326
578.99	11.207
579.33	10.992
579.67	11.103
580.00	11.190
580.34	11.194
580.67	11.177
581.01	11.671
581.35	11.585
581.68	11.809
582.02	11.598
582.35	11.681
582.69	11.473
583.02	11.408
583.36	11.545
583.70	11.345
584.03	10.954
584.37	11.801
584.70	10.907
585.04	10.907
585.37	11.499
585.71	11.503
586.04	11.397
586.38	11.043
586.72	11.593
587.05	11.121
587.39	11.658
587.72	11.864
588.06	11.542
588.39	11.250
588.73	11.142
589.06	11.220
589.40	11.511
589.73	11.574
590.07	11.178
590.40	11.184
590.73	10.791
591.07	10.433
591.40	11.131
591.74	10.769
592.07	11.503
592.41	11.440
592.74	11.031
593.08	11.526
593.41	11.697
593.75	11.384
594.08	10.917
594.41	11.245
594.75	10.840
595.08	10.745
595.42	11.520
595.75	10.552
596.09	10.829
596.42	11.162
596.75	11.101
597.09	10.569
597.42	11.201
597.75	10.582
598.09	10.684
598.42	10.966
598.76	11.369
599.09	11.218
599.42	10.989
599.76	11.023
600.09	11.086
600.42	11.600
600.76	10.773
601.09	10.229
601.42	10.302
601.76	11.155
602.09	10.602
602.42	11.373
602.76	10.739
603.09	10.880
603.42	11.622
603.76	10.645
604.09	10.490
604.42	11.464
604.76	11.482
605.09	10.878
605.42	11.016
605.75	10.158
606.09	10.786
606.42	10.842
606.75	11.082
607.09	11.297
607.42	10.811
607.75	10.435
608.08	10.647
608.42	10.461
608.75	10.795
609.08	10.463
609.41	11.117
609.75	10.635
610.08	11.383
610.41	10.580
610.74	10.726
611.07	10.956
611.41	10.327
611.74	11.194
612.07	10.546
612.40	10.394
612.73	10.282
613.07	10.236
613.40	10.667
613.73	10.017
614.06	11.185
614.39	10.378
614.72	10.420
615.06	10.056
615.39	10.153
615.72	10.657
616.05	11.397
616.38	9.516
616.71	10.459
617.05	10.439
617.38	10.308
617.71	9.748
618.04	11.048
618.37	10.845
618.70	10.495
619.03	11.458
619.36	8.683
619.69	9.553
620.03	11.176
620.36	10.086
620.69	9.921
621.02	9.251
621.35	9.461
621.68	10.374
622.01	9.333
622.34	9.577
622.67	10.331
623.00	10.184
623.33	10.137
623.66	9.050
623.99	10.590
624.32	9.962
624.65	9.774
624.99	9.932
625.32	8.567
625.65	10.448
625.98	10.314
626.31	9.061
626.64	10.919
626.97	10.471
627.30	9.982
627.63	10.485
627.96	9.793
628.29	10.823
628.62	9.833
628.95	8.717
629.28	9.677
629.61	10.967
629.94	10.557
630.26	9.783
630.59	9.469
630.92	8.923
631.25	8.205
631.58	9.692
631.91	7.566
632.24	7.913
632.57	8.750
632.90	8.660
633.23	8.824
633.56	8.816
633.89	8.015
634.22	9.630
634.55	9.403
634.88	8.301
635.20	6.410
635.53	8.400
635.86	7.542
636.19	10.737
636.52	9.184
636.85	8.065
637.18	7.925
637.51	7.673
637.83	8.147
638.16	10.368
638.49	6.403
638.82	11.184
639.15	8.005
639.48	7.840
639.81	7.950
640.13	8.225
640.46	8.601
640.79	7.806
641.12	7.829
641.45	7.057
641.77	9.926
642.10	8.215
642.43	7.235
642.76	9.241
643.09	9.047
643.41	7.605
643.74	7.249
644.07	9.524
644.40	9.291
644.73	8.406
645.05	8.893
645.38	7.407
645.71	6.560
646.04	7.181
646.36	8.865
646.69	8.633
647.02	8.318
647.35	8.396
647.67	6.764
648.00	10.075
648.33	8.532
648.66	7.797
648.98	5.863
649.31	7.769
649.64	9.733
649.96	8.752
650.29	8.007
650.62	7.521
650.94	7.778
651.27	6.145
651.60	8.288
651.92	6.469
652.25	7.105
652.58	8.667
652.90	8.748
653.23	7.731
653.56	6.261
653.88	8.076
654.21	6.655
654.54	8.319
654.86	9.677
655.19	6.725
655.52	11.378
655.84	12.533
656.17	14.366
656.49	18.716
656.82	19.046
657.15	13.845
657.47	10.067
657.80	7.473
658.13	6.897
658.45	10.205
658.78	9.940
659.10	9.512
659.43	9.150
659.75	9.127
660.08	8.414
660.41	9.704
660.73	8.702
661.06	8.319
661.38	5.871
661.71	5.955
662.03	9.227
662.36	7.253
662.68	9.071
663.01	6.769
663.33	6.497
663.66	5.116
663.98	5.349
664.31	6.823
664.63	6.452
664.96	5.652
665.28	4.636
665.61	9.091
665.93	6.957
666.26	6.508
666.58	5.817
666.91	6.588
667.23	7.311
667.56	8.294
667.88	8.153
668.21	5.251
668.53	7.092
668.86	7.075
669.18	6.840
669.50	6.295
669.83	8.605
670.15	6.294
670.48	7.416
670.80	7.143
671.13	7.383
671.45	6.164
671.77	8.369
672.10	8.515
672.42	8.240
672.75	9.236
673.07	10.197
673.39	9.358
673.72	6.509
674.04	8.125
674.37	8.898
674.69	6.424
675.01	10.222
675.34	7.432
675.66	5.787
675.98	10.421
676.31	6.881
676.63	6.413
676.95	7.727
677.28	8.941
677.60	7.470
677.92	7.339
678.25	8.315
678.57	6.710
678.89	6.092
679.22	4.922
679.54	8.233
679.86	5.368
680.18	7.767
680.51	9.280
680.83	6.163
681.15	9.200
681.48	10.451
681.80	6.405
682.12	8.871
682.44	6.485
682.77	7.726
683.09	6.865
683.41	6.818
683.73	7.143
684.06	7.080
684.38	5.161
684.70	8.061
685.02	7.676
685.34	6.126
685.67	8.068
685.99	9.222
686.31	7.788
686.63	9.462
686.96	6.844
687.28	6.263
687.60	9.125
687.92	8.687
688.24	7.661
688.56	6.550
688.89	6.920
689.21	10.444
689.53	7.657
689.85	6.512
690.17	10.938
690.49	6.856
690.82	6.068
691.14	7.143
691.46	6.308
691.78	7.883
692.10	9.247
692.42	8.225
692.74	9.188
693.06	7.883
693.39	9.276
693.71	7.240
694.03	6.928
694.35	8.178
694.67	7.323
694.99	6.527
695.31	8.877
695.63	9.250
695.95	6.061
696.27	7.772
696.59	7.778
696.91	6.723
697.23	4.627
697.56	8.168
697.88	7.527
698.20	10.478
698.52	8.000
698.84	4.785
699.16	5.750
699.48	8.271
699.80	7.444
700.12	6.739
700.44	5.322
700.76	5.233
701.08	4.242
701.40	10.241
701.72	8.951
702.04	3.630
702.36	5.686
702.68	9.309
703.00	4.242
703.32	8.211
703.64	7.627
703.96	8.406
704.28	8.282
704.60	5.397
704.91	5.047
705.23	4.983
705.55	9.541
705.87	7.942
706.19	9.259
706.51	9.966
706.83	8.682
707.15	4.361
707.47	10.364
707.79	7.813
708.11	12.250
708.43	8.500
708.74	8.269
709.06	9.296
709.38	7.951
709.70	10.059
710.02	6.369
710.34	9.907
710.66	2.885
710.98	4.305
711.29	8.852
711.61	8.136
711.93	6.515
712.25	7.904
712.57	7.326
712.89	1.866
713.20	8.997
713.52	6.969
713.84	9.556
714.16	6.529
714.48	6.129
714.80	9.295
715.11	5.167
715.43	6.270
715.75	7.333
716.07	3.987
716.39	8.725
716.70	1.845
717.02	6.870
717.34	9.312
717.66	6.195
717.97	6.522
718.29	9.205
718.61	7.874
718.93	5.814
719.24	10.266
719.56	6.024
719.88	7.216
720.20	7.197
720.51	3.831
720.83	7.722
721.15	6.303
721.46	3.629
721.78	4.743
722.10	4.089
722.42	8.299
722.73	3.673
723.05	10.204
723.37	6.356
723.68	8.559
724.00	3.846
724.32	1.778
724.63	4.545
724.95	5.240
725.27	6.912
725.58	10.593
725.90	5.556
726.22	8.494
726.53	16.610
726.85	10.112
727.16	11.698
727.48	3.644
727.80	10.121
728.11	6.356
728.43	8.627
728.74	5.645
729.06	7.600
729.38	12.406
729.69	5.976
730.01	6.154
730.32	5.224
730.64	13.781
730.96	10.189
731.27	9.000
731.59	8.475
731.90	9.236
732.22	10.726
732.53	10.963
732.85	9.220
733.16	13.468
733.48	3.597
733.80	3.623
734.11	8.136
734.43	6.186
734.74	10.303
735.06	4.560
735.37	12.689
735.69	10.438
736.00	4.181
736.32	5.705
736.63	10.915
736.95	8.191
737.26	7.473
737.58	10.067
737.89	5.861
738.21	4.887
738.52	8.230
738.83	9.607
739.15	0.873
739.46	8.268
739.78	3.663
740.09	10.131
740.41	5.435
740.72	7.087
741.04	9.717
741.35	6.809
741.66	1.896
741.98	6.122
742.29	5.941
742.61	8.901
742.92	0.474
743.23	4.630
743.55	3.620
743.86	5.742
744.18	11.005
744.49	2.660
744.80	5.978
745.12	11.765
745.43	0.976
745.74	4.167
746.06	5.854
746.37	6.806
746.68	8.057
747.00	1.064
747.31	10.448
747.62	8.252
747.94	8.134
748.25	4.950
748.56	3.279
748.88	4.188
749.19	12.234
749.50	10.345
749.82	3.774
750.13	6.881
750.44	11.654
750.75	10.075
751.07	13.504
751.38	7.280
751.69	5.882
752.01	10.465
752.32	6.773
752.63	7.905
752.94	5.172
753.26	11.715
753.57	6.335
753.88	5.752
754.19	1.250
754.51	4.132
754.82	4.049
755.13	13.750
755.44	8.065
755.75	7.422
756.07	7.393
756.38	6.792
756.69	6.130
757.00	7.667
757.31	10.458
757.63	6.402
757.94	9.722
758.25	6.575
758.56	8.777
758.87	6.516
759.18	9.969
759.50	8.364
759.81	11.371
760.12	8.387
760.43	8.485
760.74	10.185
761.05	7.077
761.36	11.080
761.67	11.818
761.99	9.184
762.30	7.636
762.61	11.462
762.92	4.525
763.23	6.306
763.54	6.542
763.85	7.627
764.16	4.149
764.47	6.855
764.78	10.623
765.10	13.131
765.41	10.726
765.72	6.984
766.03	6.015
766.34	9.489
766.65	14.741
766.96	10.101
767.27	2.128
767.58	4.023
767.89	-4.255
768.20	6.250
768.51	7.692
768.82	8.867
769.13	4.608
769.44	11.159
769.75	3.196
770.06	9.914
770.37	7.212
770.68	9.137
770.99	4.072
771.30	9.314
771.61	9.502
771.92	10.776
772.23	14.286
772.54	12.903
772.85	3.086
773.16	12.360
773.47	12.418
773.78	13.725
774.09	4.790
774.39	8.667
774.70	12.102
775.01	12.414
775.32	7.143
775.63	0.000
775.94	8.397
776.25	8.661
776.56	5.000
776.87	4.808
777.18	9.402
777.48	4.310
777.79	-1.739
778.10	-2.857
778.41	-3.604
778.72	6.349
779.03	15.789
779.34	14.894
779.65	16.438
779.95	2.055
780.26	11.034
780.57	1.626
780.88	5.512
781.19	0.862
781.50	3.101
781.80	4.734
782.11	12.579
782.42	5.385
782.73	2.158
783.04	4.444
783.34	13.194
783.65	-3.419
783.96	2.459
784.27	6.897
784.57	6.504
784.88	16.406
785.19	3.000
785.50	14.000
785.81	12.931
786.11	5.172
786.42	2.913
786.73	19.091
787.04	-1.020
787.34	-0.893
787.65	-1.905
787.96	3.540
788.26	4.545
788.57	-3.419
788.88	15.625
789.19	10.317
789.49	5.217
789.80	0.000
790.11	14.141
790.41	1.818
790.72	20.652
791.03	11.364
791.33	16.250
791.64	-1.250
791.95	8.140
792.25	-1.064
792.56	11.236
792.87	1.370
793.17	-5.797
793.48	-1.333
793.79	0.000
794.09	11.250
794.40	2.830
794.70	0.971
795.01	-6.504
795.32	0.000
795.62	3.810
795.93	0.980
796.23	6.604
796.54	7.292
796.85	14.706
797.15	11.268
797.46	2.778
797.76	10.606
798.07	-5.814
798.37	0.000
798.68	-9.091
798.99	4.938
799.29	8.571
799.60	11.594
799.90	5.333
800.21	14.754
800.51	12.308
800.82	5.085
801.12	14.493
801.43	-14.754
801.73	14.286
802.04	-18.000
802.34	0.000
802.65	17.308
802.95	8.929
803.26	-23.077
803.56	1.961
803.87	-4.348
804.17	16.000
804.48	20.635
804.78	-5.556
805.09	-13.043
805.39	2.222
805.70	7.407
806.00	-17.544
806.30	8.451
806.61	2.857
806.91	-6.944
807.22	7.895
807.52	21.333
807.83	3.636
808.13	26.389
808.43	8.824
808.74	2.985
809.04	-16.949
809.35	-11.538
809.65	-6.250
809.95	-24.324
810.26	-31.818
810.56	2.740
810.86	-9.524
811.17	-6.000
811.47	4.082
811.77	-5.263
812.08	18.182
812.38	-9.434
812.69	5.000
812.99	12.121
813.29	0.000
813.59	-28.571
813.90	-2.273
814.20	-43.590
814.50	15.385
814.81	22.642
815.11	2.128
815.41	6.780
815.72	11.905
816.02	17.647
816.32	16.667
816.62	-9.756
816.93	-10.811
817.23	-34.286
817.53	18.750
817.84	-10.870
818.14	15.385
818.44	0.000
818.74	10.870
819.04	-17.500
819.35	2.703
819.65	-11.765
819.95	-11.111
820.25	-2.381
820.56	5.000
820.86	-48.276
821.16	50.000
821.46	-4.255
821.76	22.500
822.07	20.930
822.37	-32.432
822.67	-15.625
822.97	0.000
823.27	-21.429
823.57	-44.000
823.88	-25.926
824.18	28.571
824.48	0.000
824.78	-12.903
825.08	-17.391
825.38	0.000
825.69	-45.833
825.99	-18.421
826.29	16.667
826.59	-46.667
826.89	-42.857
827.19	19.565
827.49	17.500
827.79	0.000
828.09	0.000
828.39	3.030
828.70	16.216
829.00	-32.143
829.30	-14.286
829.60	10.000
829.90	25.000
830.20	7.895
830.50	-14.815
830.80	8.696
831.10	-31.818
831.40	15.152
831.70	0.000
832.00	4.762
832.30	-19.048
832.60	-66.667
832.90	-10.345
833.20	-45.000
833.50	18.182
833.80	14.815
834.10	-11.538
834.40	6.250
834.70	-33.333
835.00	0.000
835.30	57.692
835.60	-6.667
835.90	6.452
836.20	-9.091
836.50	-3.571
836.80	-26.923
837.10	-28.571
837.40	-233.333
837.70	4.545
838.00	-72.727
838.30	4.348
838.60	-7.692
838.90	13.636
839.19	10.714
839.49	16.667
839.79	-38.462
840.09	16.667
840.39	3.571
840.69	-17.857
840.99	0.000
841.29	-31.579
841.59	-110.000
841.88	-36.364
842.18	20.000
842.48	25.000
842.78	-13.333
843.08	7.407
843.38	-130.000
843.68	82.609
843.97	-66.667
844.27	-73.333
844.57	30.000
844.87	11.111
845.17	-19.048
845.47	40.000
845.76	-28.571
846.06	52.941
846.36	-10.000
846.66	-64.286
846.96	-33.333
847.25	-125.000
847.55	-14.286
847.85	-175.000
848.15	-72.727
848.44	-566.667
848.74	65.000
849.04	37.037
849.34	-9.091
849.63	-133.333
849.93	-60.000
850.23	5.556
850.53	70.000
850.82	-30.769
851.12	-33.333
851.42	6.667
851.71	0.000
852.01	-78.571
852.31	-200.000
852.61	-100.000
852.90	10.000
853.20	63.158
853.50	-141.667
853.79	26.087
854.09	41.667
854.39	26.316
854.68	-20.833
854.98	12.903
855.28	26.923
855.57	-15.000
855.87	-22.222
856.17	22.222
856.46	7.143
856.76	-6.667
857.05	33.333
857.35	0.000
857.65	5.556
857.94	-61.538
858.24	44.828
858.53	5.556
858.83	11.111
859.13	36.364
859.42	34.783
859.72	0.000
860.01	-466.667
860.31	24.000
860.60	38.095
860.90	-333.333
861.20	-73.333
861.49	-350.000
861.79	0.000
862.08	-35.000
862.38	26.667
862.67	-260.000
862.97	-100.000
863.26	-16.667
863.56	38.889
863.85	-466.667
864.15	27.778
864.44	60.000
864.74	42.857
865.03	200.000
865.33	-100.000
865.62	-50.000
865.92	-8.333
866.21	-166.667
866.51	68.750
866.80	-27.273
867.10	-550.000
867.39	91.667
867.69	0.000
867.98	-46.154
868.27	-133.333
868.57	-20.000
868.86	77.778
869.16	-76.923
869.45	46.667
869.75	-1100.000
870.04	0.000
870.33	14.286
870.63	4.762
870.92	133.333
871.22	-240.000
871.51	-700.000
871.80	22.222
872.10	433.333
>>>>>End Processed Spectral Data<<<<<
