SpectraSuite Data File
++++++++++++++++++++++++++++++++++++
Date: Fri May 15 17:29:48 PDT 2015
User: schluterlab
Dark Spectrum Present: Yes
Reference Spectrum Present: Yes
Number of Sampled Component Spectra: 1
Spectrometers: USB2E3373
Integration Time (usec): 3000 (USB2E3373)
Spectra Averaged: 3 (USB2E3373)
Boxcar Smoothing: 0 (USB2E3373)
Correct for Electrical Dark: No (USB2E3373)
Strobe/Lamp Enabled: No (USB2E3373)
Correct for Detector Non-linearity: No (USB2E3373)
Correct for Stray Light: No (USB2E3373)
Number of Pixels in Processed Spectrum: 2048
>>>>>Begin Processed Spectral Data<<<<<
178.53	0.000
178.91	0.000
179.29	75.000
179.67	50.000
180.04	-71.429
180.42	0.000
180.80	-400.000
181.18	100.000
181.56	200.000
181.94	100.000
182.31	-100.000
182.69	80.000
183.07	133.333
183.45	-100.000
183.83	116.667
184.20	72.727
184.58	77.778
184.96	-100.000
185.34	133.333
185.72	-650.000
186.09	46.154
186.47	0.000
186.85	83.333
187.23	66.667
187.61	-600.000
187.98	66.667
188.36	100.000
188.74	200.000
189.12	23.529
189.49	22.222
189.87	0.000
190.25	28.571
190.63	550.000
191.00	100.000
191.38	57.895
191.76	650.000
192.14	-225.000
192.51	700.000
192.89	88.889
193.27	-85.714
193.65	183.333
194.02	227.273
194.40	30.000
194.78	-75.000
195.15	100.000
195.53	-50.000
195.91	350.000
196.29	100.000
196.66	76.923
197.04	157.143
197.42	-66.667
197.79	-266.667
198.17	-15.385
198.55	700.000
198.92	-66.667
199.30	-200.000
199.68	-220.000
200.05	-133.333
200.43	0.000
200.81	66.667
201.18	200.000
201.56	800.000
201.94	-100.000
202.31	-266.667
202.69	-300.000
203.07	125.000
203.44	400.000
203.82	0.000
204.19	78.571
204.57	-233.333
204.95	87.500
205.32	130.000
205.70	57.143
206.08	100.000
206.45	122.222
206.83	157.143
207.20	100.000
207.58	-0.000
207.96	-100.000
208.33	30.000
208.71	25.000
209.08	-133.333
209.46	300.000
209.84	-40.000
210.21	-400.000
210.59	128.571
210.96	66.667
211.34	75.000
211.71	73.333
212.09	42.857
212.46	-1200.000
212.84	0.000
213.22	200.000
213.59	400.000
213.97	38.462
214.34	63.636
214.72	0.000
215.09	150.000
215.47	0.000
215.84	0.000
216.22	33.333
216.59	-25.000
216.97	300.000
217.34	-125.000
217.72	-60.000
218.09	-75.000
218.47	87.500
218.84	-200.000
219.22	-44.444
219.59	40.000
219.97	-133.333
220.34	250.000
220.72	-85.714
221.09	-125.000
221.47	-200.000
221.84	-100.000
222.22	-700.000
222.59	163.636
222.97	91.667
223.34	33.333
223.72	7.143
224.09	14.286
224.46	50.000
224.84	366.667
225.21	20.000
225.59	26.667
225.96	450.000
226.34	325.000
226.71	-57.143
227.08	0.000
227.46	-37.500
227.83	50.000
228.21	77.778
228.58	0.000
228.95	-12.500
229.33	80.000
229.70	25.000
230.08	-12.500
230.45	-128.571
230.82	114.286
231.20	13.333
231.57	-7.143
231.95	57.143
232.32	20.000
232.69	142.857
233.07	33.333
233.44	-140.000
233.81	-20.000
234.19	122.222
234.56	17.647
234.93	-300.000
235.31	75.000
235.68	-100.000
236.05	-23.077
236.43	35.000
236.80	11.765
237.17	59.375
237.55	20.000
237.92	7.407
238.29	30.556
238.67	73.333
239.04	35.294
239.41	12.195
239.79	30.000
240.16	46.341
240.53	60.526
240.91	28.261
241.28	30.159
241.65	35.714
242.02	50.685
242.40	45.000
242.77	49.153
243.14	31.818
243.51	38.750
243.89	33.333
244.26	28.736
244.63	38.095
245.00	37.113
245.38	46.392
245.75	48.315
246.12	35.345
246.49	40.496
246.87	46.154
247.24	32.773
247.61	20.175
247.98	37.398
248.36	33.750
248.73	41.447
249.10	34.416
249.47	36.709
249.84	32.680
250.22	37.059
250.59	36.601
250.96	34.272
251.33	35.465
251.70	41.176
252.08	39.086
252.45	39.604
252.82	36.181
253.19	39.631
253.56	34.579
253.94	41.441
254.31	40.000
254.68	36.842
255.05	33.071
255.42	32.751
255.79	40.927
256.16	36.965
256.54	37.687
256.91	40.304
257.28	35.316
257.65	36.704
258.02	38.652
258.39	38.721
258.76	38.828
259.14	37.542
259.51	35.599
259.88	39.519
260.25	35.621
260.62	42.708
260.99	34.915
261.36	36.986
261.73	37.025
262.10	38.298
262.47	38.037
262.85	34.796
263.22	40.615
263.59	37.072
263.96	41.304
264.33	38.182
264.70	39.881
265.07	33.929
265.44	39.943
265.81	33.051
266.18	38.251
266.55	39.846
266.92	36.788
267.29	36.815
267.66	35.806
268.03	35.602
268.40	38.381
268.77	36.898
269.14	34.772
269.51	38.046
269.88	38.903
270.25	33.929
270.62	35.366
270.99	37.852
271.36	35.697
271.73	33.333
272.10	35.036
272.47	35.934
272.84	36.139
273.21	37.355
273.58	33.253
273.95	35.240
274.32	33.256
274.69	32.805
275.06	36.830
275.43	35.147
275.80	35.541
276.17	37.241
276.54	32.976
276.91	36.404
277.28	32.314
277.65	33.678
278.02	34.043
278.39	31.947
278.76	35.010
279.13	33.195
279.50	34.664
279.87	34.557
280.23	32.688
280.60	33.528
280.97	37.172
281.34	32.692
281.71	34.908
282.08	31.084
282.45	33.268
282.82	31.660
283.19	32.495
283.56	33.333
283.92	31.120
284.29	30.769
284.66	32.171
285.03	29.273
285.40	31.191
285.77	31.459
286.14	32.491
286.51	33.026
286.87	31.444
287.24	32.413
287.61	28.924
287.98	32.281
288.35	29.809
288.72	29.247
289.08	28.993
289.45	31.634
289.82	31.119
290.19	28.328
290.56	27.273
290.93	28.956
291.29	28.505
291.66	28.504
292.03	28.868
292.40	27.903
292.77	27.273
293.13	24.675
293.50	24.279
293.87	27.176
294.24	27.357
294.60	26.528
294.97	27.083
295.34	27.147
295.71	26.528
296.08	26.158
296.44	22.760
296.81	23.472
297.18	24.493
297.55	25.745
297.91	25.753
298.28	24.670
298.65	23.609
299.02	22.642
299.38	21.341
299.75	23.172
300.12	22.906
300.48	21.739
300.85	23.954
301.22	22.208
301.59	21.711
301.95	23.418
302.32	22.438
302.69	22.015
303.05	21.163
303.42	21.544
303.79	22.547
304.15	22.461
304.52	20.214
304.89	20.000
305.25	23.002
305.62	21.120
305.99	19.766
306.35	21.040
306.72	21.372
307.09	21.095
307.45	21.699
307.82	20.255
308.19	20.790
308.55	20.393
308.92	22.004
309.29	21.564
309.65	19.699
310.02	20.792
310.38	20.307
310.75	22.077
311.12	19.699
311.48	19.512
311.85	20.000
312.22	18.882
312.58	20.276
312.95	19.530
313.31	21.118
313.68	19.581
314.05	18.571
314.41	20.825
314.78	20.206
315.14	20.041
315.51	19.462
315.87	21.619
316.24	21.132
316.61	20.472
316.97	20.437
317.34	20.312
317.70	21.606
318.07	20.769
318.43	21.078
318.80	20.833
319.16	21.191
319.53	23.362
319.89	21.850
320.26	20.547
320.62	22.267
320.99	22.129
321.35	24.049
321.72	23.468
322.08	23.666
322.45	23.655
322.81	24.263
323.18	22.669
323.54	23.552
323.91	25.414
324.27	26.562
324.64	27.434
325.00	27.372
325.37	28.834
325.73	28.286
326.10	28.520
326.46	29.596
326.83	30.271
327.19	31.473
327.56	32.407
327.92	32.482
328.29	31.875
328.65	34.434
329.01	35.110
329.38	35.668
329.74	36.072
330.11	35.218
330.47	36.364
330.84	38.173
331.20	39.544
331.56	37.778
331.93	40.091
332.29	41.247
332.66	40.181
333.02	39.777
333.38	40.147
333.75	41.758
334.11	40.913
334.48	44.152
334.84	41.209
335.20	43.184
335.57	42.158
335.93	43.180
336.29	44.199
336.66	43.506
337.02	44.238
337.38	43.426
337.75	44.364
338.11	44.725
338.47	45.438
338.84	45.933
339.20	44.607
339.56	44.404
339.93	46.016
340.29	44.771
340.65	45.072
341.02	45.390
341.38	46.106
341.74	44.700
342.11	43.154
342.47	45.996
342.83	46.540
343.20	46.167
343.56	46.696
343.92	44.730
344.28	45.858
344.65	45.250
345.01	45.290
345.37	46.089
345.73	46.695
346.10	45.384
346.46	45.585
346.82	46.318
347.19	44.971
347.55	46.784
347.91	46.197
348.27	44.947
348.63	47.615
349.00	46.596
349.36	47.298
349.72	47.678
350.08	45.820
350.45	45.810
350.81	45.681
351.17	46.254
351.53	47.510
351.89	46.078
352.26	45.120
352.62	46.613
352.98	45.944
353.34	45.491
353.70	45.955
354.07	44.435
354.43	46.757
354.79	46.325
355.15	46.587
355.51	47.073
355.87	47.249
356.24	45.759
356.60	47.696
356.96	47.460
357.32	46.486
357.68	46.599
358.04	48.061
358.40	47.026
358.77	47.528
359.13	47.318
359.49	47.304
359.85	47.114
360.21	48.485
360.57	47.972
360.93	47.958
361.29	46.979
361.66	47.179
362.02	48.636
362.38	49.048
362.74	48.751
363.10	48.984
363.46	49.148
363.82	49.737
364.18	48.413
364.54	48.162
364.90	47.885
365.26	48.544
365.62	49.562
365.98	49.780
366.35	49.672
366.71	50.333
367.07	49.202
367.43	48.095
367.79	49.258
368.15	49.103
368.51	50.036
368.87	49.174
369.23	49.314
369.59	49.636
369.95	49.120
370.31	50.506
370.67	50.672
371.03	51.531
371.39	51.204
371.75	48.791
372.11	50.071
372.47	50.888
372.83	51.384
373.19	49.786
373.55	50.830
373.91	48.884
374.27	51.169
374.63	51.328
374.99	49.716
375.35	52.019
375.71	51.538
376.07	50.913
376.42	51.088
376.78	51.342
377.14	51.523
377.50	53.054
377.86	51.874
378.22	51.691
378.58	52.244
378.94	52.174
379.30	52.277
379.66	52.414
380.02	52.422
380.38	51.430
380.74	53.082
381.09	53.313
381.45	51.743
381.81	52.498
382.17	53.617
382.53	52.967
382.89	53.861
383.25	54.200
383.61	53.415
383.97	53.016
384.32	52.220
384.68	52.384
385.04	52.880
385.40	52.956
385.76	54.528
386.12	55.498
386.48	54.023
386.83	53.519
387.19	55.372
387.55	53.325
387.91	54.401
388.27	52.503
388.62	55.129
388.98	55.064
389.34	54.091
389.70	55.190
390.06	53.807
390.42	54.793
390.77	53.891
391.13	53.657
391.49	53.881
391.85	54.126
392.20	54.049
392.56	54.164
392.92	55.843
393.28	54.009
393.64	54.234
393.99	54.859
394.35	55.787
394.71	55.172
395.07	53.803
395.42	54.584
395.78	55.831
396.14	54.035
396.50	55.295
396.85	55.441
397.21	55.827
397.57	55.423
397.92	55.063
398.28	55.862
398.64	54.337
399.00	54.515
399.35	54.458
399.71	54.164
400.07	54.232
400.42	54.345
400.78	54.746
401.14	53.479
401.49	53.484
401.85	53.809
402.21	53.494
402.57	54.188
402.92	53.137
403.28	54.073
403.63	54.224
403.99	53.508
404.35	54.653
404.70	53.095
405.06	52.468
405.42	52.206
405.77	52.469
406.13	53.434
406.49	52.516
406.84	54.218
407.20	52.800
407.55	53.187
407.91	52.607
408.27	52.964
408.62	53.908
408.98	52.680
409.34	52.974
409.69	52.132
410.05	52.401
410.40	52.099
410.76	53.016
411.11	53.062
411.47	52.663
411.83	53.421
412.18	53.475
412.54	51.373
412.89	51.232
413.25	52.286
413.60	52.298
413.96	50.920
414.31	51.585
414.67	51.251
415.03	51.598
415.38	51.697
415.74	51.922
416.09	52.319
416.45	52.194
416.80	51.751
417.16	53.729
417.51	53.098
417.87	52.021
418.22	53.303
418.58	53.311
418.93	53.542
419.29	51.472
419.64	52.949
420.00	54.345
420.35	52.119
420.71	53.341
421.06	53.161
421.42	54.026
421.77	53.815
422.12	53.348
422.48	54.304
422.83	53.654
423.19	53.781
423.54	54.027
423.90	53.592
424.25	54.133
424.61	54.100
424.96	52.846
425.31	55.633
425.67	55.106
426.02	55.065
426.38	55.479
426.73	55.993
427.09	55.506
427.44	54.706
427.79	55.274
428.15	56.007
428.50	56.148
428.85	54.545
429.21	56.310
429.56	57.197
429.92	56.703
430.27	56.742
430.62	56.038
430.98	56.210
431.33	56.572
431.68	54.945
432.04	56.065
432.39	56.189
432.74	55.923
433.10	57.356
433.45	56.989
433.80	58.154
434.16	56.787
434.51	57.903
434.86	57.549
435.22	58.273
435.57	59.077
435.92	57.964
436.28	57.245
436.63	58.471
436.98	57.706
437.34	57.774
437.69	59.511
438.04	59.316
438.39	57.850
438.75	59.624
439.10	57.555
439.45	60.012
439.81	58.349
440.16	60.451
440.51	60.418
440.86	61.752
441.22	59.898
441.57	60.099
441.92	60.388
442.27	62.195
442.63	60.439
442.98	60.770
443.33	60.100
443.68	59.841
444.03	60.755
444.39	60.994
444.74	62.653
445.09	60.245
445.44	62.735
445.79	62.300
446.15	59.692
446.50	60.954
446.85	62.062
447.20	62.148
447.55	61.551
447.91	61.534
448.26	62.721
448.61	62.003
448.96	62.478
449.31	61.561
449.66	63.298
450.02	62.635
450.37	63.663
450.72	62.027
451.07	62.975
451.42	61.111
451.77	61.001
452.12	62.081
452.47	62.202
452.83	62.839
453.18	61.290
453.53	62.769
453.88	61.688
454.23	62.077
454.58	65.806
454.93	62.436
455.28	61.587
455.63	61.996
455.98	63.620
456.34	61.686
456.69	63.469
457.04	63.768
457.39	62.272
457.74	62.576
458.09	61.683
458.44	62.727
458.79	62.801
459.14	61.499
459.49	63.403
459.84	62.267
460.19	63.896
460.54	63.570
460.89	62.216
461.24	62.857
461.59	61.401
461.94	62.138
462.29	64.053
462.64	63.256
462.99	62.085
463.34	62.031
463.69	62.548
464.04	63.378
464.39	63.978
464.74	63.129
465.09	62.383
465.44	63.185
465.79	63.152
466.14	62.999
466.49	61.990
466.84	62.522
467.19	61.702
467.54	61.686
467.89	62.097
468.24	61.922
468.59	62.476
468.94	60.825
469.29	61.311
469.64	61.517
469.99	62.929
470.34	61.570
470.68	62.938
471.03	61.500
471.38	61.698
471.73	62.465
472.08	61.262
472.43	62.282
472.78	60.589
473.13	62.177
473.48	61.433
473.83	60.897
474.17	62.047
474.52	62.412
474.87	61.576
475.22	62.904
475.57	62.055
475.92	62.425
476.27	61.350
476.61	62.269
476.96	59.007
477.31	61.114
477.66	59.944
478.01	61.538
478.36	62.037
478.70	62.371
479.05	61.593
479.40	62.904
479.75	60.584
480.10	60.625
480.45	61.650
480.79	62.236
481.14	61.680
481.49	60.739
481.84	62.259
482.19	61.880
482.53	63.261
482.88	61.814
483.23	61.180
483.58	60.377
483.92	60.794
484.27	60.392
484.62	61.363
484.97	62.023
485.31	62.175
485.66	63.514
486.01	66.392
486.36	65.048
486.70	64.901
487.05	63.368
487.40	63.469
487.75	62.282
488.09	60.476
488.44	60.385
488.79	60.665
489.13	60.056
489.48	60.026
489.83	59.372
490.17	59.416
490.52	60.092
490.87	58.353
491.22	60.649
491.56	60.247
491.91	59.608
492.26	60.768
492.60	59.069
492.95	60.502
493.30	59.453
493.64	60.609
493.99	60.048
494.34	59.903
494.68	59.571
495.03	59.027
495.37	59.568
495.72	60.020
496.07	60.049
496.41	59.764
496.76	59.558
497.11	59.525
497.45	59.905
497.80	59.233
498.14	59.016
498.49	59.269
498.84	58.633
499.18	60.040
499.53	59.474
499.87	59.582
500.22	59.644
500.56	60.565
500.91	59.237
501.26	59.812
501.60	59.813
501.95	59.340
502.29	59.516
502.64	59.411
502.98	59.842
503.33	58.646
503.67	59.904
504.02	59.042
504.36	59.525
504.71	58.384
505.06	58.782
505.40	58.528
505.75	58.918
506.09	57.679
506.44	59.805
506.78	59.898
507.13	58.480
507.47	58.381
507.82	57.585
508.16	57.898
508.51	58.604
508.85	57.509
509.19	59.074
509.54	58.874
509.88	57.659
510.23	59.064
510.57	57.777
510.92	56.503
511.26	58.211
511.61	58.086
511.95	58.027
512.30	56.874
512.64	58.542
512.98	57.945
513.33	57.135
513.67	55.600
514.02	58.410
514.36	58.914
514.70	57.984
515.05	57.932
515.39	58.087
515.74	57.964
516.08	57.442
516.42	57.715
516.77	58.104
517.11	58.160
517.46	58.648
517.80	57.747
518.14	57.685
518.49	55.228
518.83	57.290
519.17	55.973
519.52	56.246
519.86	56.783
520.20	57.290
520.55	55.347
520.89	55.897
521.23	56.491
521.58	56.782
521.92	56.859
522.26	55.628
522.61	55.584
522.95	57.682
523.29	54.828
523.64	57.179
523.98	56.578
524.32	55.863
524.66	54.994
525.01	56.818
525.35	55.087
525.69	55.556
526.04	55.622
526.38	56.939
526.72	56.181
527.06	54.540
527.41	56.069
527.75	55.496
528.09	55.814
528.43	56.246
528.78	56.436
529.12	56.387
529.46	56.335
529.80	54.845
530.15	55.314
530.49	55.892
530.83	55.746
531.17	54.735
531.51	55.609
531.86	54.929
532.20	55.811
532.54	55.003
532.88	57.153
533.22	55.780
533.57	56.619
533.91	56.266
534.25	57.617
534.59	55.741
534.93	55.884
535.27	54.569
535.62	55.865
535.96	55.251
536.30	55.805
536.64	55.272
536.98	54.634
537.32	57.112
537.66	55.961
538.01	54.965
538.35	55.825
538.69	54.727
539.03	55.229
539.37	57.066
539.71	57.055
540.05	54.990
540.39	56.025
540.73	55.788
541.07	56.146
541.42	56.452
541.76	56.504
542.10	56.435
542.44	57.123
542.78	54.164
543.12	57.005
543.46	56.259
543.80	55.725
544.14	55.140
544.48	55.829
544.82	56.049
545.16	56.079
545.50	56.342
545.84	57.011
546.18	56.879
546.52	56.309
546.86	55.859
547.20	55.722
547.54	54.700
547.88	55.571
548.22	55.950
548.56	55.409
548.90	56.199
549.24	54.959
549.58	55.219
549.92	54.396
550.26	54.579
550.60	56.357
550.94	55.340
551.28	56.028
551.62	55.615
551.96	53.759
552.30	55.117
552.64	54.937
552.98	55.837
553.32	56.705
553.66	55.080
554.00	57.080
554.34	57.164
554.68	55.605
555.02	55.283
555.36	55.647
555.69	55.678
556.03	54.961
556.37	55.445
556.71	56.462
557.05	55.928
557.39	54.498
557.73	55.547
558.07	55.505
558.41	55.283
558.75	55.027
559.08	54.689
559.42	54.841
559.76	55.324
560.10	54.128
560.44	54.728
560.78	55.734
561.12	58.604
561.45	57.203
561.79	57.003
562.13	56.281
562.47	55.036
562.81	56.124
563.15	55.501
563.48	57.214
563.82	57.310
564.16	57.730
564.50	55.608
564.84	56.627
565.17	57.277
565.51	58.607
565.85	57.819
566.19	56.499
566.52	57.574
566.86	57.712
567.20	58.717
567.54	58.698
567.88	59.402
568.21	59.729
568.55	59.946
568.89	59.959
569.23	59.942
569.56	60.902
569.90	63.337
570.24	61.630
570.57	62.618
570.91	63.053
571.25	61.559
571.59	61.788
571.92	60.919
572.26	62.198
572.60	60.899
572.93	60.747
573.27	60.846
573.61	61.844
573.95	61.688
574.28	61.864
574.62	62.319
574.96	62.079
575.29	62.418
575.63	60.715
575.97	61.643
576.30	61.091
576.64	61.457
576.98	61.828
577.31	62.694
577.65	63.349
577.98	63.736
578.32	62.711
578.66	61.853
578.99	61.301
579.33	61.404
579.67	60.257
580.00	61.570
580.34	62.463
580.67	60.955
581.01	62.296
581.35	63.351
581.68	64.436
582.02	64.415
582.35	63.658
582.69	63.810
583.02	63.576
583.36	62.858
583.70	62.150
584.03	62.719
584.37	64.201
584.70	62.225
585.04	61.658
585.37	62.359
585.71	63.466
586.04	63.111
586.38	63.083
586.72	63.644
587.05	64.038
587.39	63.992
587.72	64.270
588.06	63.493
588.39	63.315
588.73	62.821
589.06	63.275
589.40	62.980
589.73	62.906
590.07	62.311
590.40	62.887
590.73	64.292
591.07	61.874
591.40	61.932
591.74	62.036
592.07	62.570
592.41	62.765
592.74	61.808
593.08	63.011
593.41	64.646
593.75	62.774
594.08	63.199
594.41	62.191
594.75	62.214
595.08	62.543
595.42	63.416
595.75	64.589
596.09	63.917
596.42	62.671
596.75	61.634
597.09	61.959
597.42	62.511
597.75	63.399
598.09	60.797
598.42	61.597
598.76	62.763
599.09	63.421
599.42	62.486
599.76	62.603
600.09	63.386
600.42	62.472
600.76	62.593
601.09	62.863
601.42	62.319
601.76	62.207
602.09	62.583
602.42	63.227
602.76	62.733
603.09	63.289
603.42	66.012
603.76	63.871
604.09	62.940
604.42	63.409
604.76	63.373
605.09	62.112
605.42	61.084
605.75	62.916
606.09	63.355
606.42	61.927
606.75	62.381
607.09	61.890
607.42	62.694
607.75	62.611
608.08	60.961
608.42	60.484
608.75	62.747
609.08	62.730
609.41	62.234
609.75	62.046
610.08	63.305
610.41	60.918
610.74	62.652
611.07	63.101
611.41	62.636
611.74	62.687
612.07	61.081
612.40	62.582
612.73	63.446
613.07	63.330
613.40	61.816
613.73	62.675
614.06	61.603
614.39	62.493
614.72	61.457
615.06	61.788
615.39	62.172
615.72	61.841
616.05	61.285
616.38	60.798
616.71	62.018
617.05	61.334
617.38	60.968
617.71	62.201
618.04	62.222
618.37	62.358
618.70	61.914
619.03	61.042
619.36	60.709
619.69	60.728
620.03	62.308
620.36	62.446
620.69	61.242
621.02	60.398
621.35	60.249
621.68	60.119
622.01	60.333
622.34	60.654
622.67	60.095
623.00	59.342
623.33	60.899
623.66	61.930
623.99	59.077
624.32	61.065
624.65	59.774
624.99	61.550
625.32	60.652
625.65	59.937
625.98	59.952
626.31	59.435
626.64	61.785
626.97	58.290
627.30	60.333
627.63	59.445
627.96	60.557
628.29	59.482
628.62	57.620
628.95	58.116
629.28	57.258
629.61	56.730
629.94	58.847
630.26	57.510
630.59	60.354
630.92	58.359
631.25	55.487
631.58	57.819
631.91	59.101
632.24	58.601
632.57	58.182
632.90	55.516
633.23	55.647
633.56	59.572
633.89	55.980
634.22	58.148
634.55	57.306
634.88	57.982
635.20	55.513
635.53	58.933
635.86	54.616
636.19	56.533
636.52	56.505
636.85	55.707
637.18	56.352
637.51	54.969
637.83	54.796
638.16	56.889
638.49	54.087
638.82	55.658
639.15	57.395
639.48	53.095
639.81	54.393
640.13	55.267
640.46	55.831
640.79	56.112
641.12	55.539
641.45	54.805
641.77	53.481
642.10	54.818
642.43	58.039
642.76	53.300
643.09	52.989
643.41	53.398
643.74	53.213
644.07	55.829
644.40	55.574
644.73	55.867
645.05	54.027
645.38	56.966
645.71	54.255
646.04	54.937
646.36	56.560
646.69	56.295
647.02	55.577
647.35	52.985
647.67	51.188
648.00	59.888
648.33	52.218
648.66	55.763
648.98	56.784
649.31	56.529
649.64	56.044
649.96	54.943
650.29	56.048
650.62	55.726
650.94	56.481
651.27	52.142
651.60	54.234
651.92	54.196
652.25	55.240
652.58	53.500
652.90	56.604
653.23	55.966
653.56	54.992
653.88	54.983
654.21	54.991
654.54	55.178
654.86	56.027
655.19	57.895
655.52	66.254
655.84	71.455
656.17	80.993
656.49	100.000
656.82	100.000
657.15	97.666
657.47	60.889
657.80	45.075
658.13	43.747
658.45	66.421
658.78	64.840
659.10	62.233
659.43	61.049
659.75	61.914
660.08	59.448
660.41	60.163
660.73	55.387
661.06	56.326
661.38	52.250
661.71	49.281
662.03	53.219
662.36	53.407
662.68	51.991
663.01	55.895
663.33	53.596
663.66	50.233
663.98	51.860
664.31	54.158
664.63	50.922
664.96	50.435
665.28	53.642
665.61	52.597
665.93	57.609
666.26	55.748
666.58	52.573
666.91	52.706
667.23	53.066
667.56	53.791
667.88	49.400
668.21	55.609
668.53	55.319
668.86	52.123
669.18	55.189
669.50	51.332
669.83	50.000
670.15	50.583
670.48	55.742
670.80	55.300
671.13	53.915
671.45	50.457
671.77	53.219
672.10	53.069
672.42	55.618
672.75	58.615
673.07	57.603
673.39	57.431
673.72	51.479
674.04	54.792
674.37	58.051
674.69	54.176
675.01	53.333
675.34	53.153
675.66	56.713
675.98	50.998
676.31	53.670
676.63	54.869
676.95	49.773
677.28	55.529
677.60	54.940
677.92	55.505
678.25	54.048
678.57	57.576
678.89	56.723
679.22	57.718
679.54	54.016
679.86	51.889
680.18	58.447
680.51	57.576
680.83	55.666
681.15	57.600
681.48	56.967
681.80	58.264
682.12	54.839
682.44	58.996
682.77	56.512
683.09	53.547
683.41	54.091
683.73	53.226
684.06	56.858
684.38	55.054
684.70	58.170
685.02	58.091
685.34	57.115
685.67	58.537
685.99	59.855
686.31	58.584
686.63	59.740
686.96	55.323
687.28	56.768
687.60	58.175
687.92	58.788
688.24	58.669
688.56	58.079
688.89	54.464
689.21	56.222
689.53	55.916
689.85	56.279
690.17	56.027
690.49	58.156
690.82	60.194
691.14	48.095
691.46	58.411
691.78	57.207
692.10	58.925
692.42	59.524
692.74	55.128
693.06	54.955
693.39	55.204
693.71	54.977
694.03	53.580
694.35	56.542
694.67	56.818
694.99	55.091
695.31	54.047
695.63	55.250
695.95	55.303
696.27	53.368
696.59	54.722
696.91	50.700
697.23	54.756
697.56	59.158
697.88	58.495
698.20	57.403
698.52	56.471
698.84	53.349
699.16	52.250
699.48	57.895
699.80	54.591
700.12	56.873
700.44	60.784
700.76	48.837
701.08	54.545
701.40	53.012
701.72	58.951
702.04	53.135
702.36	59.197
702.68	55.856
703.00	57.576
703.32	55.132
703.64	56.780
703.96	52.754
704.28	59.509
704.60	53.968
704.91	48.896
705.23	56.811
705.55	57.951
705.87	54.152
706.19	54.074
706.51	52.234
706.83	54.341
707.15	53.894
707.47	59.664
707.79	59.115
708.11	59.500
708.43	59.500
708.74	60.724
709.06	59.437
709.38	55.963
709.70	55.325
710.02	56.369
710.34	54.489
710.66	49.679
710.98	54.636
711.29	56.721
711.61	53.220
711.93	56.678
712.25	60.137
712.57	59.341
712.89	48.134
713.20	54.671
713.52	53.310
713.84	55.290
714.16	58.763
714.48	60.000
714.80	62.500
715.11	60.182
715.43	52.978
715.75	60.667
716.07	55.150
716.39	55.705
716.70	48.339
717.02	54.198
717.34	54.656
717.66	58.850
717.97	51.304
718.29	56.904
718.61	53.150
718.93	55.814
719.24	57.034
719.56	57.430
719.88	58.763
720.20	53.030
720.51	53.640
720.83	54.826
721.15	60.504
721.46	58.468
721.78	56.126
722.10	53.532
722.42	55.602
722.73	60.000
723.05	59.592
723.37	56.356
723.68	59.009
724.00	60.256
724.32	56.000
724.63	53.636
724.95	56.769
725.27	55.300
725.58	61.864
725.90	55.556
726.22	55.985
726.53	56.610
726.85	57.678
727.16	61.887
727.48	57.085
727.80	60.324
728.11	58.475
728.43	56.471
728.74	58.871
729.06	58.800
729.38	62.782
729.69	59.363
730.01	54.231
730.32	60.448
730.64	61.131
730.96	61.509
731.27	59.000
731.59	65.424
731.90	60.828
732.22	61.830
732.53	61.794
732.85	63.121
733.16	63.300
733.48	57.914
733.80	56.159
734.11	56.949
734.43	61.856
734.74	61.212
735.06	66.450
735.37	61.631
735.69	65.657
736.00	63.763
736.32	55.369
736.63	63.732
736.95	60.410
737.26	59.075
737.58	59.732
737.89	61.172
738.21	62.030
738.52	63.786
738.83	62.882
739.15	59.825
739.46	60.630
739.78	61.538
740.09	60.784
740.41	60.507
740.72	59.843
741.04	63.158
741.35	56.596
741.66	62.559
741.98	55.102
742.29	58.416
742.61	56.545
742.92	54.502
743.23	51.852
743.55	56.561
743.86	62.679
744.18	55.502
744.49	57.447
744.80	56.522
745.12	64.171
745.43	55.122
745.74	59.375
746.06	55.122
746.37	56.545
746.68	49.289
747.00	56.915
747.31	59.204
747.62	59.223
747.94	56.938
748.25	63.366
748.56	67.213
748.88	60.733
749.19	57.979
749.50	57.635
749.82	57.075
750.13	64.220
750.44	66.541
750.75	67.164
751.07	64.234
751.38	61.303
751.69	58.039
752.01	67.054
752.32	58.566
752.63	61.265
752.94	61.638
753.26	63.598
753.57	58.824
753.88	56.637
754.19	57.917
754.51	60.331
754.82	63.158
755.13	67.083
755.44	59.274
755.75	63.281
756.07	59.144
756.38	59.623
756.69	60.536
757.00	62.000
757.31	58.170
757.63	62.195
757.94	61.944
758.25	63.288
758.56	65.426
758.87	61.756
759.18	58.567
759.50	62.545
759.81	58.863
760.12	63.226
760.43	65.455
760.74	68.210
761.05	66.769
761.36	70.739
761.67	64.848
761.99	64.286
762.30	58.545
762.61	58.103
762.92	58.824
763.23	58.559
763.54	62.150
763.85	61.441
764.16	59.336
764.47	62.097
764.78	60.440
765.10	63.636
765.41	64.669
765.72	66.032
766.03	68.421
766.34	64.599
766.65	58.964
766.96	64.141
767.27	62.234
767.58	59.770
767.89	64.539
768.20	58.523
768.51	54.945
768.82	66.502
769.13	58.986
769.44	60.086
769.75	64.840
770.06	63.362
770.37	60.096
770.68	59.898
770.99	54.299
771.30	72.549
771.61	68.326
771.92	63.362
772.23	66.010
772.54	62.366
772.85	67.284
773.16	58.989
773.47	69.935
773.78	67.974
774.09	58.084
774.39	54.000
774.70	61.783
775.01	71.724
775.32	52.143
775.63	61.157
775.94	59.542
776.25	57.480
776.56	50.833
776.87	60.577
777.18	59.829
777.48	47.414
777.79	56.522
778.10	42.857
778.41	52.252
778.72	52.381
779.03	51.128
779.34	60.993
779.65	65.753
779.95	56.849
780.26	58.621
780.57	63.415
780.88	45.669
781.19	64.655
781.50	62.016
781.80	55.621
782.11	49.686
782.42	71.538
782.73	58.993
783.04	57.778
783.34	52.778
783.65	57.265
783.96	58.197
784.27	65.517
784.57	57.724
784.88	62.500
785.19	53.000
785.50	74.000
785.81	59.483
786.11	58.621
786.42	59.223
786.73	63.636
787.04	63.265
787.34	59.821
787.65	62.857
787.96	51.327
788.26	66.364
788.57	68.376
788.88	56.250
789.19	57.937
789.49	65.217
789.80	78.571
790.11	64.646
790.41	51.818
790.72	59.783
791.03	68.182
791.33	67.500
791.64	50.000
791.95	66.279
792.25	53.191
792.56	61.798
792.87	65.753
793.17	57.971
793.48	40.000
793.79	41.250
794.09	56.250
794.40	50.000
794.70	67.961
795.01	52.033
795.32	52.991
795.62	50.476
795.93	61.765
796.23	52.830
796.54	64.583
796.85	57.353
797.15	43.662
797.46	51.389
797.76	80.303
798.07	44.186
798.37	59.211
798.68	48.485
798.99	50.617
799.29	58.571
799.60	55.072
799.90	61.333
800.21	67.213
800.51	46.154
800.82	42.373
801.12	37.681
801.43	77.049
801.73	65.079
802.04	48.000
802.34	56.716
802.65	51.923
802.95	33.929
803.26	53.846
803.56	49.020
803.87	56.522
804.17	50.667
804.48	61.905
804.78	38.889
805.09	39.130
805.39	46.667
805.70	46.296
806.00	29.825
806.30	49.296
806.61	60.000
806.91	52.778
807.22	71.053
807.52	60.000
807.83	41.818
808.13	73.611
808.43	55.882
808.74	43.284
809.04	52.542
809.35	55.769
809.65	53.125
809.95	43.243
810.26	50.000
810.56	39.726
810.86	61.905
811.17	42.000
811.47	55.102
811.77	50.000
812.08	54.545
812.38	50.943
812.69	65.000
812.99	45.455
813.29	50.000
813.59	42.857
813.90	50.000
814.20	58.974
814.50	78.846
814.81	62.264
815.11	44.681
815.41	47.458
815.72	59.524
816.02	62.745
816.32	43.750
816.62	46.341
816.93	54.054
817.23	51.429
817.53	50.000
817.84	60.870
818.14	25.000
818.44	13.158
818.74	50.000
819.04	52.500
819.35	37.838
819.65	8.824
819.95	27.778
820.25	28.571
820.56	50.000
820.86	24.138
821.16	77.500
821.46	57.447
821.76	77.500
822.07	48.837
822.37	21.622
822.67	50.000
822.97	64.286
823.27	32.143
823.57	72.000
823.88	7.407
824.18	75.000
824.48	17.647
824.78	25.806
825.08	52.174
825.38	42.424
825.69	8.333
825.99	65.789
826.29	58.333
826.59	60.000
826.89	76.190
827.19	54.348
827.49	40.000
827.79	42.857
828.09	53.571
828.39	66.667
828.70	59.459
829.00	32.143
829.30	57.143
829.60	40.000
829.90	46.875
830.20	47.368
830.50	11.111
830.80	43.478
831.10	68.182
831.40	54.545
831.70	25.806
832.00	71.429
832.30	14.286
832.60	-8.333
832.90	27.586
833.20	35.000
833.50	36.364
833.80	18.519
834.10	53.846
834.40	56.250
834.70	66.667
835.00	21.053
835.30	92.308
835.60	113.333
835.90	61.290
836.20	31.818
836.50	82.143
836.80	-11.538
837.10	21.429
837.40	266.667
837.70	45.455
838.00	-27.273
838.30	34.783
838.60	69.231
838.90	45.455
839.19	25.000
839.49	76.667
839.79	69.231
840.09	-8.333
840.39	53.571
840.69	39.286
840.99	15.385
841.29	52.632
841.59	-60.000
841.88	-18.182
842.18	100.000
842.48	25.000
842.78	26.667
843.08	33.333
843.38	-80.000
843.68	-4.348
843.97	60.000
844.27	-33.333
844.57	45.000
844.87	55.556
845.17	23.810
845.47	60.000
845.76	-23.810
846.06	35.294
846.36	130.000
846.66	-14.286
846.96	80.000
847.25	-25.000
847.55	57.143
847.85	-37.500
848.15	31.818
848.44	-433.333
848.74	-5.000
849.04	62.963
849.34	36.364
849.63	-216.667
849.93	-180.000
850.23	0.000
850.53	40.000
850.82	53.846
851.12	188.889
851.42	6.667
851.71	7.692
852.01	42.857
852.31	100.000
852.61	-63.636
852.90	60.000
853.20	73.684
853.50	50.000
853.79	30.435
854.09	66.667
854.39	78.947
854.68	83.333
854.98	61.290
855.28	46.154
855.57	60.000
855.87	77.778
856.17	22.222
856.46	28.571
856.76	46.667
857.05	166.667
857.35	52.000
857.65	77.778
857.94	30.769
858.24	44.828
858.53	77.778
858.83	59.259
859.13	31.818
859.42	-8.696
859.72	200.000
860.01	-66.667
860.31	36.000
860.60	23.810
860.90	-33.333
861.20	33.333
861.49	0.000
861.79	0.000
862.08	40.000
862.38	100.000
862.67	-180.000
862.97	-83.333
863.26	8.333
863.56	0.000
863.85	-133.333
864.15	122.222
864.44	10.000
864.74	92.857
865.03	50.000
865.33	0.000
865.62	-50.000
865.92	41.667
866.21	-33.333
866.51	12.500
866.80	-9.091
867.10	50.000
867.39	83.333
867.69	0.000
867.98	46.154
868.27	-133.333
868.57	-6.667
868.86	55.556
869.16	-23.077
869.45	60.000
869.75	-800.000
870.04	0.000
870.33	42.857
870.63	33.333
870.92	600.000
871.22	-180.000
871.51	-200.000
871.80	200.000
872.10	33.333
>>>>>End Processed Spectral Data<<<<<
