SpectraSuite Data File
++++++++++++++++++++++++++++++++++++
Date: Fri May 15 20:03:41 PDT 2015
User: schluterlab
Dark Spectrum Present: Yes
Reference Spectrum Present: Yes
Number of Sampled Component Spectra: 1
Spectrometers: USB2E3373
Integration Time (usec): 3000 (USB2E3373)
Spectra Averaged: 3 (USB2E3373)
Boxcar Smoothing: 0 (USB2E3373)
Correct for Electrical Dark: No (USB2E3373)
Strobe/Lamp Enabled: No (USB2E3373)
Correct for Detector Non-linearity: No (USB2E3373)
Correct for Stray Light: No (USB2E3373)
Number of Pixels in Processed Spectrum: 2048
>>>>>Begin Processed Spectral Data<<<<<
178.53	0.000
178.91	0.000
179.29	112.500
179.67	-300.000
180.04	-42.857
180.42	200.000
180.80	-300.000
181.18	-133.333
181.56	200.000
181.94	350.000
182.31	1000.000
182.69	-80.000
183.07	-166.667
183.45	-40.000
183.83	-0.000
184.20	27.273
184.58	66.667
184.96	125.000
185.34	-233.333
185.72	100.000
186.09	61.538
186.47	-100.000
186.85	116.667
187.23	11.111
187.61	100.000
187.98	-66.667
188.36	-66.667
188.74	-166.667
189.12	52.941
189.49	44.444
189.87	0.000
190.25	50.000
190.63	400.000
191.00	-100.000
191.38	-15.789
191.76	-200.000
192.14	-150.000
192.51	150.000
192.89	0.000
193.27	-85.714
193.65	133.333
194.02	54.545
194.40	-40.000
194.78	-200.000
195.15	50.000
195.53	0.000
195.91	225.000
196.29	-200.000
196.66	76.923
197.04	157.143
197.42	77.778
197.79	-233.333
198.17	0.000
198.55	900.000
198.92	0.000
199.30	600.000
199.68	-80.000
200.05	-433.333
200.43	0.000
200.81	-66.667
201.18	0.000
201.56	1000.000
201.94	250.000
202.31	-100.000
202.69	-200.000
203.07	-50.000
203.44	-200.000
203.82	0.000
204.19	50.000
204.57	-200.000
204.95	-25.000
205.32	-10.000
205.70	114.286
206.08	-100.000
206.45	166.667
206.83	71.429
207.20	-28.571
207.58	-100.000
207.96	166.667
208.33	-40.000
208.71	0.000
209.08	-166.667
209.46	-600.000
209.84	120.000
210.21	-900.000
210.59	100.000
210.96	-50.000
211.34	175.000
211.71	20.000
212.09	-14.286
212.46	-1200.000
212.84	0.000
213.22	130.000
213.59	-200.000
213.97	-38.462
214.34	81.818
214.72	-16.667
215.09	200.000
215.47	15.385
215.84	-45.455
216.22	166.667
216.59	37.500
216.97	150.000
217.34	100.000
217.72	-120.000
218.09	137.500
218.47	12.500
218.84	-300.000
219.22	-11.111
219.59	-100.000
219.97	300.000
220.34	-50.000
220.72	0.000
221.09	25.000
221.47	150.000
221.84	-450.000
222.22	-850.000
222.59	0.000
222.97	50.000
223.34	-233.333
223.72	-57.143
224.09	47.619
224.46	39.286
224.84	66.667
225.21	70.000
225.59	73.333
225.96	0.000
226.34	275.000
226.71	14.286
227.08	16.667
227.46	12.500
227.83	-600.000
228.21	33.333
228.58	200.000
228.95	-37.500
229.33	70.000
229.70	43.750
230.08	-112.500
230.45	14.286
230.82	171.429
231.20	0.000
231.57	57.143
231.95	-42.857
232.32	10.000
232.69	-14.286
233.07	-233.333
233.44	80.000
233.81	80.000
234.19	88.889
234.56	41.176
234.93	-50.000
235.31	75.000
235.68	-100.000
236.05	23.077
236.43	0.000
236.80	117.647
237.17	34.375
237.55	50.000
237.92	22.222
238.29	50.000
238.67	53.333
239.04	64.706
239.41	21.951
239.79	23.333
240.16	97.561
240.53	50.000
240.91	58.696
241.28	49.206
241.65	58.929
242.02	67.123
242.40	58.333
242.77	76.271
243.14	65.152
243.51	70.000
243.89	70.115
244.26	55.172
244.63	71.429
245.00	54.639
245.38	71.134
245.75	65.169
246.12	53.448
246.49	66.116
246.87	71.154
247.24	68.067
247.61	76.316
247.98	58.537
248.36	60.625
248.73	64.474
249.10	64.935
249.47	68.987
249.84	69.281
250.22	67.647
250.59	69.935
250.96	59.155
251.33	66.279
251.70	66.471
252.08	65.990
252.45	65.347
252.82	65.327
253.19	68.203
253.56	63.084
253.94	65.766
254.31	68.696
254.68	67.982
255.05	64.173
255.42	72.489
255.79	67.954
256.16	67.704
256.54	66.791
256.91	61.597
257.28	67.286
257.65	63.296
258.02	69.149
258.39	65.320
258.76	69.597
259.14	69.103
259.51	64.725
259.88	64.948
260.25	64.706
260.62	68.403
260.99	63.051
261.36	65.753
261.73	62.975
262.10	67.173
262.47	65.337
262.85	67.085
263.22	70.462
263.59	67.601
263.96	68.634
264.33	67.576
264.70	72.619
265.07	63.690
265.44	66.572
265.81	67.514
266.18	64.481
266.55	68.895
266.92	67.098
267.29	64.230
267.66	62.660
268.03	65.183
268.40	63.708
268.77	67.647
269.14	63.549
269.51	67.095
269.88	62.843
270.25	64.796
270.62	62.683
270.99	67.263
271.36	66.015
271.73	62.207
272.10	64.964
272.47	65.721
272.84	66.337
273.21	62.181
273.58	64.819
273.95	61.098
274.32	62.818
274.69	63.122
275.06	66.741
275.43	61.678
275.80	60.486
276.17	62.989
276.54	62.099
276.91	60.746
277.28	61.572
277.65	60.744
278.02	60.851
278.39	61.707
278.76	61.216
279.13	57.261
279.50	62.395
279.87	60.259
280.23	63.441
280.60	59.649
280.97	64.646
281.34	59.808
281.71	62.423
282.08	59.305
282.45	60.274
282.82	56.757
283.19	61.896
283.56	60.308
283.92	60.721
284.29	58.077
284.66	58.140
285.03	58.153
285.40	58.223
285.77	55.888
286.14	57.581
286.51	59.041
286.87	57.404
287.24	58.011
287.61	57.496
287.98	57.018
288.35	57.712
288.72	56.743
289.08	56.250
289.45	54.833
289.82	55.420
290.19	53.413
290.56	54.031
290.93	55.387
291.29	50.385
291.66	51.024
292.03	50.239
292.40	54.194
292.77	49.123
293.13	48.052
293.50	48.255
293.87	50.840
294.24	46.522
294.60	47.243
294.97	46.726
295.34	48.773
295.71	46.498
296.08	44.245
296.44	47.368
296.81	46.250
297.18	46.377
297.55	46.748
297.91	43.151
298.28	44.327
298.65	43.284
299.02	44.609
299.38	41.176
299.75	44.828
300.12	42.277
300.48	44.005
300.85	41.445
301.22	41.948
301.59	42.237
301.95	42.532
302.32	42.672
302.69	41.169
303.05	41.832
303.42	41.968
303.79	42.757
304.15	41.577
304.52	40.666
304.89	39.649
305.25	41.646
305.62	37.573
305.99	39.181
306.35	39.653
306.72	39.708
307.09	40.707
307.45	38.806
307.82	40.278
308.19	40.418
308.55	38.931
308.92	41.176
309.29	38.659
309.65	38.644
310.02	39.824
310.38	40.615
310.75	41.858
311.12	40.151
311.48	40.403
311.85	40.419
312.22	41.139
312.58	40.021
312.95	38.314
313.31	38.613
313.68	41.047
314.05	38.980
314.41	40.825
314.78	38.763
315.14	39.774
315.51	41.511
315.87	41.906
316.24	42.366
316.61	40.551
316.97	40.377
317.34	42.285
317.70	40.631
318.07	42.308
318.43	42.745
318.80	41.572
319.16	43.066
319.53	42.545
319.89	42.618
320.26	42.510
320.62	44.634
320.99	44.259
321.35	43.782
321.72	44.652
322.08	44.008
322.45	44.467
322.81	45.580
323.18	43.768
323.54	45.946
323.91	45.667
324.27	47.754
324.64	46.723
325.00	47.536
325.37	49.036
325.73	47.688
326.10	49.046
326.46	49.148
326.83	49.431
327.19	49.433
327.56	51.607
327.92	51.144
328.29	52.232
328.65	53.302
329.01	51.838
329.38	53.272
329.74	53.447
330.11	53.753
330.47	52.783
330.84	53.942
331.20	55.418
331.56	52.130
331.93	54.795
332.29	53.071
332.66	53.756
333.02	54.182
333.38	55.179
333.75	54.853
334.11	52.999
334.48	53.944
334.84	54.945
335.20	55.169
335.57	54.034
335.93	55.104
336.29	55.709
336.66	54.223
337.02	55.112
337.38	53.333
337.75	55.273
338.11	54.644
338.47	56.204
338.84	54.436
339.20	56.307
339.56	55.688
339.93	55.416
340.29	56.147
340.65	54.749
341.02	55.496
341.38	55.575
341.74	54.947
342.11	53.380
342.47	54.893
342.83	55.190
343.20	53.833
343.56	56.348
343.92	56.244
344.28	55.337
344.65	54.318
345.01	54.883
345.37	54.079
345.73	54.059
346.10	55.824
346.46	54.415
346.82	53.355
347.19	52.951
347.55	52.799
347.91	53.803
348.27	52.546
348.63	54.855
349.00	55.045
349.36	54.946
349.72	56.385
350.08	54.590
350.45	54.030
350.81	53.156
351.17	52.687
351.53	54.204
351.89	52.849
352.26	54.000
352.62	55.645
352.98	53.253
353.34	54.106
353.70	56.311
354.07	54.919
354.43	54.524
354.79	55.244
355.15	53.413
355.51	55.142
355.87	55.825
356.24	53.915
356.60	55.295
356.96	55.159
357.32	54.153
357.68	54.261
358.04	55.170
358.40	55.145
358.77	56.061
359.13	54.123
359.49	54.083
359.85	54.290
360.21	55.104
360.57	54.017
360.93	55.749
361.29	53.399
361.66	56.818
362.02	54.697
362.38	55.598
362.74	56.548
363.10	56.208
363.46	57.153
363.82	57.025
364.18	54.982
364.54	55.000
364.90	55.412
365.26	56.259
365.62	57.007
365.98	55.572
366.35	57.684
366.71	57.206
367.07	57.329
367.43	56.362
367.79	56.537
368.15	55.922
368.51	56.664
368.87	57.071
369.23	55.379
369.59	57.143
369.95	59.824
370.31	57.514
370.67	57.985
371.03	57.506
371.39	57.695
371.75	56.630
372.11	56.705
372.47	57.840
372.83	58.339
373.19	57.204
373.55	56.895
373.91	59.107
374.27	58.257
374.63	59.081
374.99	57.376
375.35	58.496
375.71	60.699
376.07	58.638
376.42	59.660
376.78	59.195
377.14	60.190
377.50	60.159
377.86	59.237
378.22	58.200
378.58	61.538
378.94	59.483
379.30	60.012
379.66	61.254
380.02	60.086
380.38	60.012
380.74	61.400
381.09	61.472
381.45	61.590
381.81	62.060
382.17	60.977
382.53	61.274
382.89	63.151
383.25	64.095
383.61	62.195
383.97	61.905
384.32	63.290
384.68	63.282
385.04	61.520
385.40	62.850
385.76	65.660
386.12	63.648
386.48	64.879
386.83	62.904
387.19	63.919
387.55	65.872
387.91	64.670
388.27	63.492
388.62	64.695
388.98	65.193
389.34	65.584
389.70	65.817
390.06	63.121
390.42	65.026
390.77	66.579
391.13	65.195
391.49	66.882
391.85	66.407
392.20	65.411
392.56	64.145
392.92	65.179
393.28	65.153
393.64	65.285
393.99	65.455
394.35	65.591
394.71	65.070
395.07	64.802
395.42	65.574
395.78	66.906
396.14	65.574
396.50	65.758
396.85	68.191
397.21	65.789
397.57	67.022
397.92	66.087
398.28	66.379
398.64	65.120
399.00	67.269
399.35	65.293
399.71	65.594
400.07	67.231
400.42	65.851
400.78	65.279
401.14	65.759
401.49	66.528
401.85	66.362
402.21	66.024
402.57	66.000
402.92	65.621
403.28	66.479
403.63	65.511
403.99	64.987
404.35	66.646
404.70	65.357
405.06	65.276
405.42	65.444
405.77	65.311
406.13	66.065
406.49	65.660
406.84	65.770
407.20	65.984
407.55	65.293
407.91	65.642
408.27	64.691
408.62	65.723
408.98	65.373
409.34	66.047
409.69	65.116
410.05	64.101
410.40	65.247
410.76	65.682
411.11	65.375
411.47	65.286
411.83	64.909
412.18	66.860
412.54	63.421
412.89	63.732
413.25	66.125
413.60	65.466
413.96	65.153
414.31	63.171
414.67	63.823
415.03	65.712
415.38	64.230
415.74	64.365
416.09	64.337
416.45	64.078
416.80	64.706
417.16	66.091
417.51	65.690
417.87	63.233
418.22	65.738
418.58	64.482
418.93	65.141
419.29	64.469
419.64	65.975
420.00	67.003
420.35	64.179
420.71	65.492
421.06	65.439
421.42	65.024
421.77	65.723
422.12	65.891
422.48	66.053
422.83	65.081
423.19	65.068
423.54	65.608
423.90	64.193
424.25	65.844
424.61	66.340
424.96	67.015
425.31	66.320
425.67	66.373
426.02	66.843
426.38	68.316
426.73	68.160
427.09	67.785
427.44	66.412
427.79	66.117
428.15	65.898
428.50	66.566
428.85	66.400
429.21	67.176
429.56	68.410
429.92	66.667
430.27	65.815
430.62	66.858
430.98	68.524
431.33	67.403
431.68	67.556
432.04	66.965
432.39	64.974
432.74	65.003
433.10	66.667
433.45	67.861
433.80	68.427
434.16	65.983
434.51	66.989
434.86	67.944
435.22	67.134
435.57	68.746
435.92	69.102
436.28	66.607
436.63	66.971
436.98	66.222
437.34	66.848
437.69	67.621
438.04	66.952
438.39	66.830
438.75	69.217
439.10	67.402
439.45	66.890
439.81	67.523
440.16	69.240
440.51	67.582
440.86	69.668
441.22	67.873
441.57	68.433
441.92	69.360
442.27	68.681
442.63	68.790
442.98	69.041
443.33	67.279
443.68	67.586
444.03	68.505
444.39	67.388
444.74	69.454
445.09	69.042
445.44	68.661
445.79	69.572
446.15	68.502
446.50	68.164
446.85	68.650
447.20	67.935
447.55	67.969
447.91	67.851
448.26	69.266
448.61	67.645
448.96	68.044
449.31	68.266
449.66	68.699
450.02	67.941
450.37	68.820
450.72	66.953
451.07	69.937
451.42	67.166
451.77	67.028
452.12	66.627
452.47	67.933
452.83	67.432
453.18	66.603
453.53	67.826
453.88	67.213
454.23	68.531
454.58	67.758
454.93	67.268
455.28	65.397
455.63	68.320
455.98	68.070
456.34	67.178
456.69	67.535
457.04	67.360
457.39	67.558
457.74	68.259
458.09	68.099
458.44	66.764
458.79	67.227
459.14	67.563
459.49	67.045
459.84	68.810
460.19	68.447
460.54	68.949
460.89	67.841
461.24	68.261
461.59	67.755
461.94	66.289
462.29	67.612
462.64	67.176
462.99	65.741
463.34	67.038
463.69	67.246
464.04	66.646
464.39	67.738
464.74	65.583
465.09	67.311
465.44	67.167
465.79	66.497
466.14	66.819
466.49	66.475
466.84	66.330
467.19	66.270
467.54	65.773
467.89	66.709
468.24	66.363
468.59	66.921
468.94	65.524
469.29	67.672
469.64	66.029
469.99	67.835
470.34	64.915
470.68	67.189
471.03	67.374
471.38	65.549
471.73	66.597
472.08	65.197
472.43	65.906
472.78	65.524
473.13	66.531
473.48	65.928
473.83	66.002
474.17	67.098
474.52	67.007
474.87	66.182
475.22	67.297
475.57	67.363
475.92	67.691
476.27	66.007
476.61	67.130
476.96	65.365
477.31	65.711
477.66	65.393
478.01	66.255
478.36	66.285
478.70	66.884
479.05	65.220
479.40	65.872
479.75	65.537
480.10	65.335
480.45	66.850
480.79	67.019
481.14	67.982
481.49	66.453
481.84	68.243
482.19	65.762
482.53	66.571
482.88	64.916
483.23	66.123
483.58	65.000
483.92	65.247
484.27	64.129
484.62	65.262
484.97	66.294
485.31	66.077
485.66	67.061
486.01	69.868
486.36	69.821
486.70	70.216
487.05	69.287
487.40	67.632
487.75	67.099
488.09	65.420
488.44	65.165
488.79	64.438
489.13	64.984
489.48	65.199
489.83	64.619
490.17	64.809
490.52	65.266
490.87	62.702
491.22	64.279
491.56	63.567
491.91	63.432
492.26	64.560
492.60	63.868
492.95	65.175
493.30	63.850
493.64	65.668
493.99	63.623
494.34	64.078
494.68	64.238
495.03	63.844
495.37	64.033
495.72	64.664
496.07	65.171
496.41	64.528
496.76	64.947
497.11	64.974
497.45	64.105
497.80	64.329
498.14	62.692
498.49	63.433
498.84	63.822
499.18	65.110
499.53	64.286
499.87	63.230
500.22	64.045
500.56	64.246
500.91	63.203
501.26	63.421
501.60	63.404
501.95	64.871
502.29	63.971
502.64	64.913
502.98	66.058
503.33	63.353
503.67	63.566
504.02	64.370
504.36	64.077
504.71	62.778
505.06	63.060
505.40	64.264
505.75	63.969
506.09	62.950
506.44	63.347
506.78	63.418
507.13	63.444
507.47	63.499
507.82	63.835
508.16	63.286
508.51	63.012
508.85	64.050
509.19	63.544
509.54	62.842
509.88	62.837
510.23	63.260
510.57	62.694
510.92	62.473
511.26	62.520
511.61	64.851
511.95	62.849
512.30	62.306
512.64	62.716
512.98	62.830
513.33	62.003
513.67	62.706
514.02	63.959
514.36	63.314
514.70	62.529
515.05	63.514
515.39	62.102
515.74	64.251
516.08	63.240
516.42	62.721
516.77	62.727
517.11	64.510
517.46	63.016
517.80	62.217
518.14	62.156
518.49	62.260
518.83	61.786
519.17	61.916
519.52	61.042
519.86	61.765
520.20	62.090
520.55	61.038
520.89	61.794
521.23	62.635
521.58	61.956
521.92	61.987
522.26	61.093
522.61	61.429
522.95	62.649
523.29	60.864
523.64	61.499
523.98	62.087
524.32	61.405
524.66	62.548
525.01	63.831
525.35	60.531
525.69	62.020
526.04	60.251
526.38	61.414
526.72	60.889
527.06	60.052
527.41	60.488
527.75	60.456
528.09	61.595
528.43	62.255
528.78	62.508
529.12	61.742
529.46	61.468
529.80	61.051
530.15	63.102
530.49	61.953
530.83	61.354
531.17	61.719
531.51	61.970
531.86	60.367
532.20	60.960
532.54	61.334
532.88	62.765
533.22	61.559
533.57	61.927
533.91	61.945
534.25	63.737
534.59	61.770
534.93	61.737
535.27	60.787
535.62	60.467
535.96	61.970
536.30	62.071
536.64	61.337
536.98	60.906
537.32	62.020
537.66	62.272
538.01	61.469
538.35	62.413
538.69	60.919
539.03	61.107
539.37	61.171
539.71	61.350
540.05	60.557
540.39	60.803
540.73	62.552
541.07	62.845
541.42	62.366
541.76	62.560
542.10	61.872
542.44	62.613
542.78	60.908
543.12	60.508
543.46	61.544
543.80	61.624
544.14	58.812
544.48	61.026
544.82	61.244
545.16	62.978
545.50	61.883
545.84	61.261
546.18	62.128
546.52	62.004
546.86	60.460
547.20	62.518
547.54	61.201
547.88	61.617
548.22	59.500
548.56	60.884
548.90	60.916
549.24	61.019
549.58	59.168
549.92	59.114
550.26	59.780
550.60	61.115
550.94	61.240
551.28	58.964
551.62	61.692
551.96	60.827
552.30	61.550
552.64	59.803
552.98	60.338
553.32	59.772
553.66	60.813
554.00	61.168
554.34	61.152
554.68	59.218
555.02	60.714
555.36	60.509
555.69	62.418
556.03	61.099
556.37	60.854
556.71	59.422
557.05	62.118
557.39	58.587
557.73	60.195
558.07	59.879
558.41	60.720
558.75	61.107
559.08	59.811
559.42	59.603
559.76	60.368
560.10	59.098
560.44	60.015
560.78	59.860
561.12	61.283
561.45	61.771
561.79	60.784
562.13	60.894
562.47	61.223
562.81	60.086
563.15	60.014
563.48	60.184
563.82	60.673
564.16	60.933
564.50	60.946
564.84	61.914
565.17	60.630
565.51	62.022
565.85	61.111
566.19	61.538
566.52	62.534
566.86	62.918
567.20	60.710
567.54	63.260
567.88	64.382
568.21	64.423
568.55	64.620
568.89	65.862
569.23	64.516
569.56	64.930
569.90	65.976
570.24	65.128
570.57	66.073
570.91	65.354
571.25	66.360
571.59	65.618
571.92	65.067
572.26	65.972
572.60	65.519
572.93	64.041
573.27	64.263
573.61	66.080
573.95	66.303
574.28	65.440
574.62	65.294
574.96	65.570
575.29	66.179
575.63	63.928
575.97	64.299
576.30	64.858
576.64	64.185
576.98	66.615
577.31	66.552
577.65	66.950
577.98	66.758
578.32	66.444
578.66	65.184
578.99	64.810
579.33	64.926
579.67	64.042
580.00	65.013
580.34	65.149
580.67	64.837
581.01	65.826
581.35	65.935
581.68	66.365
582.02	66.618
582.35	66.370
582.69	66.946
583.02	66.524
583.36	65.839
583.70	65.161
584.03	65.749
584.37	65.895
584.70	65.165
585.04	64.223
585.37	64.472
585.71	65.762
586.04	65.683
586.38	65.111
586.72	65.825
587.05	65.771
587.39	65.446
587.72	67.496
588.06	65.126
588.39	65.281
588.73	64.805
589.06	65.068
589.40	64.742
589.73	64.659
590.07	64.539
590.40	64.822
590.73	65.115
591.07	63.401
591.40	63.179
591.74	63.077
592.07	63.868
592.41	64.443
592.74	64.476
593.08	63.220
593.41	65.371
593.75	65.587
594.08	63.714
594.41	64.556
594.75	65.000
595.08	64.586
595.42	65.366
595.75	66.166
596.09	64.738
596.42	63.125
596.75	64.298
597.09	63.144
597.42	63.505
597.75	63.995
598.09	62.562
598.42	61.507
598.76	63.192
599.09	63.542
599.42	63.547
599.76	64.673
600.09	63.235
600.42	63.685
600.76	63.113
601.09	64.351
601.42	62.828
601.76	63.120
602.09	63.531
602.42	64.280
602.76	64.559
603.09	64.950
603.42	65.259
603.76	64.315
604.09	64.075
604.42	62.860
604.76	63.729
605.09	63.848
605.42	62.348
605.75	62.916
606.09	62.803
606.42	63.011
606.75	62.381
607.09	62.637
607.42	62.605
607.75	62.522
608.08	61.725
608.42	61.581
608.75	62.892
609.08	62.830
609.41	63.096
609.75	61.744
610.08	63.405
610.41	61.836
610.74	63.286
611.07	61.964
611.41	62.584
611.74	62.740
612.07	61.777
612.40	61.050
612.73	62.599
613.07	60.574
613.40	60.777
613.73	60.940
614.06	60.768
614.39	61.929
614.72	62.017
615.06	61.061
615.39	60.153
615.72	61.410
616.05	62.235
616.38	59.487
616.71	60.917
617.05	62.014
617.38	60.151
617.71	61.824
618.04	61.460
618.37	60.656
618.70	61.056
619.03	60.625
619.36	60.492
619.69	60.425
620.03	62.016
620.36	61.159
620.69	59.743
621.02	59.786
621.35	57.925
621.68	59.184
622.01	59.583
622.34	59.058
622.67	59.227
623.00	58.729
623.33	59.832
623.66	60.060
623.99	59.380
624.32	59.468
624.65	59.023
624.99	60.196
625.32	58.681
625.65	61.115
625.98	57.857
626.31	58.354
626.64	58.492
626.97	58.813
627.30	58.144
627.63	58.492
627.96	58.401
628.29	57.169
628.62	57.522
628.95	56.313
629.28	58.569
629.61	57.727
629.94	57.674
630.26	54.941
630.59	56.920
630.92	58.256
631.25	56.205
631.58	57.489
631.91	58.114
632.24	57.339
632.57	55.000
632.90	54.923
633.23	55.176
633.56	56.045
633.89	55.117
634.22	56.420
634.55	54.638
634.88	53.768
635.20	53.590
635.53	53.467
635.86	54.356
636.19	54.334
636.52	55.230
636.85	53.226
637.18	55.597
637.51	54.843
637.83	54.271
638.16	55.662
638.49	51.635
638.82	54.342
639.15	53.596
639.48	55.158
639.81	54.393
640.13	53.535
640.46	53.936
640.79	52.872
641.12	54.062
641.45	53.904
641.77	52.741
642.10	52.607
642.43	51.929
642.76	53.300
643.09	53.312
643.41	52.265
643.74	50.906
644.07	52.545
644.40	52.196
644.73	55.517
645.05	51.007
645.38	56.085
645.71	52.482
646.04	52.424
646.36	52.660
646.69	53.058
647.02	53.119
647.35	54.104
647.67	50.457
648.00	53.358
648.33	53.925
648.66	53.390
648.98	52.094
649.31	53.058
649.64	54.317
649.96	51.378
650.29	55.537
650.62	53.504
650.94	52.593
651.27	53.445
651.60	50.631
651.92	52.448
652.25	52.575
652.58	52.333
652.90	55.232
653.23	53.782
653.56	51.777
653.88	52.577
654.21	50.788
654.54	52.462
654.86	54.499
655.19	53.655
655.52	64.241
655.84	66.405
656.17	73.627
656.49	98.047
656.82	99.744
657.15	76.953
657.47	56.333
657.80	41.445
658.13	40.399
658.45	61.508
658.78	59.870
659.10	57.520
659.43	56.347
659.75	55.550
660.08	52.483
660.41	53.115
660.73	51.381
661.06	51.820
661.38	49.511
661.71	45.791
662.03	50.858
662.36	50.330
662.68	49.336
663.01	51.747
663.33	48.028
663.66	49.070
663.98	47.209
664.31	47.548
664.63	47.465
664.96	45.870
665.28	49.448
665.61	47.835
665.93	50.652
666.26	48.807
666.58	47.204
666.91	47.765
667.23	52.123
667.56	50.948
667.88	46.283
668.21	47.971
668.53	48.227
668.86	48.821
669.18	47.877
669.50	49.153
669.83	46.512
670.15	50.583
670.48	50.239
670.80	48.848
671.13	46.085
671.45	47.489
671.77	47.854
672.10	52.079
672.42	52.060
672.75	52.398
673.07	52.952
673.39	50.642
673.72	46.351
674.04	47.292
674.37	51.483
674.69	49.679
675.01	47.111
675.34	50.450
675.66	51.620
675.98	49.224
676.31	50.000
676.63	48.219
676.95	49.545
677.28	52.941
677.60	49.880
677.92	47.477
678.25	49.891
678.57	49.784
678.89	51.261
679.22	53.244
679.54	50.803
679.86	48.111
680.18	51.456
680.51	49.811
680.83	48.708
681.15	48.400
681.48	52.459
681.80	53.512
682.12	49.597
682.44	48.117
682.77	50.993
683.09	47.368
683.41	49.318
683.73	49.770
684.06	49.779
684.38	49.032
684.70	50.763
685.02	50.415
685.34	51.976
685.67	51.032
685.99	52.441
686.31	52.212
686.63	52.134
686.96	49.430
687.28	52.525
687.60	49.240
687.92	52.121
688.24	53.226
688.56	48.908
688.89	49.777
689.21	50.667
689.53	50.580
689.85	51.860
690.17	47.991
690.49	48.463
690.82	48.301
691.14	45.714
691.46	50.935
691.78	47.523
692.10	49.247
692.42	47.186
692.74	48.718
693.06	48.874
693.39	47.285
693.71	47.511
694.03	45.266
694.35	47.430
694.67	48.232
694.99	47.258
695.31	50.914
695.63	47.750
695.95	47.475
696.27	45.078
696.59	47.500
696.91	45.658
697.23	44.987
697.56	49.257
697.88	50.538
698.20	50.797
698.52	46.824
698.84	48.804
699.16	50.250
699.48	47.118
699.80	49.628
700.12	50.404
700.44	50.420
700.76	43.895
701.08	47.879
701.40	46.687
701.72	47.840
702.04	45.875
702.36	48.495
702.68	48.649
703.00	49.091
703.32	51.613
703.64	46.610
703.96	43.188
704.28	48.466
704.60	47.302
704.91	45.110
705.23	45.847
705.55	48.763
705.87	46.209
706.19	46.667
706.51	44.674
706.83	45.016
707.15	45.483
707.47	52.101
707.79	50.521
708.11	46.500
708.43	50.000
708.74	46.770
709.06	49.859
709.38	49.541
709.70	45.858
710.02	49.682
710.34	48.916
710.66	45.833
710.98	44.040
711.29	48.197
711.61	49.492
711.93	44.951
712.25	48.454
712.57	50.183
712.89	43.657
713.20	46.021
713.52	44.251
713.84	41.638
714.16	46.735
714.48	46.774
714.80	50.321
715.11	45.593
715.43	47.649
715.75	49.000
716.07	48.505
716.39	42.282
716.70	49.077
717.02	42.748
717.34	46.559
717.66	47.345
717.97	46.087
718.29	45.607
718.61	49.606
718.93	48.062
719.24	46.008
719.56	47.390
719.88	43.986
720.20	46.591
720.51	42.146
720.83	46.332
721.15	51.261
721.46	47.984
721.78	42.688
722.10	44.610
722.42	46.473
722.73	46.122
723.05	49.388
723.37	48.305
723.68	52.252
724.00	50.427
724.32	44.889
724.63	42.273
724.95	48.908
725.27	47.926
725.58	47.034
725.90	46.429
726.22	47.490
726.53	46.102
726.85	47.566
727.16	47.170
727.48	41.700
727.80	50.607
728.11	44.492
728.43	46.667
728.74	40.726
729.06	48.800
729.38	51.880
729.69	49.402
730.01	50.385
730.32	49.254
730.64	44.876
730.96	53.208
731.27	45.667
731.59	47.797
731.90	51.274
732.22	47.319
732.53	52.159
732.85	49.291
733.16	49.832
733.48	45.683
733.80	48.913
734.11	44.407
734.43	52.577
734.74	52.424
735.06	49.511
735.37	47.130
735.69	52.189
736.00	48.432
736.32	48.993
736.63	49.296
736.95	44.369
737.26	47.687
737.58	45.302
737.89	47.985
738.21	50.752
738.52	49.794
738.83	47.598
739.15	48.908
739.46	52.362
739.78	48.718
740.09	44.771
740.41	47.101
740.72	48.425
741.04	46.559
741.35	40.426
741.66	46.919
741.98	39.796
742.29	45.050
742.61	44.503
742.92	40.758
743.23	37.037
743.55	44.796
743.86	52.153
744.18	41.627
744.49	41.489
744.80	41.304
745.12	50.802
745.43	38.537
745.74	45.312
746.06	41.951
746.37	45.550
746.68	48.815
747.00	44.681
747.31	52.239
747.62	42.718
747.94	46.890
748.25	48.020
748.56	52.459
748.88	45.026
749.19	48.404
749.50	46.305
749.82	43.396
750.13	47.248
750.44	51.504
750.75	47.761
751.07	50.000
751.38	50.192
751.69	47.843
752.01	50.775
752.32	47.012
752.63	43.478
752.94	46.983
753.26	50.209
753.57	45.249
753.88	50.885
754.19	45.417
754.51	48.760
754.82	44.534
755.13	50.833
755.44	50.403
755.75	49.609
756.07	46.304
756.38	45.283
756.69	47.510
757.00	45.333
757.31	47.059
757.63	48.171
757.94	48.889
758.25	47.397
758.56	49.734
758.87	47.875
759.18	47.040
759.50	46.182
759.81	50.167
760.12	51.290
760.43	50.909
760.74	52.469
761.05	51.077
761.36	49.716
761.67	51.818
761.99	49.320
762.30	41.455
762.61	47.826
762.92	46.606
763.23	46.847
763.54	47.664
763.85	46.186
764.16	45.643
764.47	46.774
764.78	48.718
765.10	51.852
765.41	48.580
765.72	49.206
766.03	48.872
766.34	45.255
766.65	50.199
766.96	45.455
767.27	46.277
767.58	37.356
767.89	46.809
768.20	45.455
768.51	50.549
768.82	44.828
769.13	47.005
769.44	45.064
769.75	45.662
770.06	43.966
770.37	44.231
770.68	49.239
770.99	44.344
771.30	52.451
771.61	45.249
771.92	48.276
772.23	51.724
772.54	48.925
772.85	55.556
773.16	41.573
773.47	53.595
773.78	53.595
774.09	41.916
774.39	34.667
774.70	44.586
775.01	47.586
775.32	42.857
775.63	43.802
775.94	40.458
776.25	37.795
776.56	41.667
776.87	37.500
777.18	42.735
777.48	39.655
777.79	39.130
778.10	32.381
778.41	37.838
778.72	43.651
779.03	48.120
779.34	55.319
779.65	52.055
779.95	45.205
780.26	46.207
780.57	36.585
780.88	36.220
781.19	53.448
781.50	57.364
781.80	40.237
782.11	38.365
782.42	48.462
782.73	41.007
783.04	51.852
783.34	37.500
783.65	30.769
783.96	47.541
784.27	48.966
784.57	39.837
784.88	41.406
785.19	53.000
785.50	52.000
785.81	42.241
786.11	43.103
786.42	36.893
786.73	48.182
787.04	44.898
787.34	40.179
787.65	36.190
787.96	40.708
788.26	49.091
788.57	38.462
788.88	48.437
789.19	44.444
789.49	48.696
789.80	55.102
790.11	48.485
790.41	35.455
790.72	45.652
791.03	43.182
791.33	45.000
791.64	50.000
791.95	30.233
792.25	40.426
792.56	60.674
792.87	35.616
793.17	31.884
793.48	33.333
793.79	45.000
794.09	65.000
794.40	46.226
794.70	47.573
795.01	31.707
795.32	40.171
795.62	38.095
795.93	43.137
796.23	34.906
796.54	52.083
796.85	41.176
797.15	29.577
797.46	37.500
797.76	53.030
798.07	27.907
798.37	25.000
798.68	27.273
798.99	39.506
799.29	47.143
799.60	37.681
799.90	44.000
800.21	47.541
800.51	49.231
800.82	23.729
801.12	56.522
801.43	44.262
801.73	34.921
802.04	48.000
802.34	34.328
802.65	51.923
802.95	21.429
803.26	13.462
803.56	31.373
803.87	-15.217
804.17	30.667
804.48	50.794
804.78	31.481
805.09	41.304
805.39	42.222
805.70	51.852
806.00	24.561
806.30	28.169
806.61	42.857
806.91	30.556
807.22	38.158
807.52	49.333
807.83	20.000
808.13	38.889
808.43	47.059
808.74	29.851
809.04	25.424
809.35	38.462
809.65	43.750
809.95	48.649
810.26	9.091
810.56	38.356
810.86	28.571
811.17	46.000
811.47	40.816
811.77	26.316
812.08	38.636
812.38	22.642
812.69	27.500
812.99	57.576
813.29	39.474
813.59	0.000
813.90	31.818
814.20	58.974
814.50	63.462
814.81	43.396
815.11	12.766
815.41	38.983
815.72	42.857
816.02	41.176
816.32	18.750
816.62	31.707
816.93	29.730
817.23	25.714
817.53	35.417
817.84	13.043
818.14	44.231
818.44	28.947
818.74	60.870
819.04	5.000
819.35	37.838
819.65	26.471
819.95	8.333
820.25	16.667
820.56	60.000
820.86	6.897
821.16	60.000
821.46	44.681
821.76	60.000
822.07	11.628
822.37	0.000
822.67	18.750
822.97	47.619
823.27	-10.714
823.57	52.000
823.88	7.407
824.18	35.714
824.48	-2.941
824.78	19.355
825.08	17.391
825.38	21.212
825.69	37.500
825.99	26.316
826.29	30.556
826.59	53.333
826.89	14.286
827.19	41.304
827.49	60.000
827.79	51.429
828.09	7.143
828.39	54.545
828.70	51.351
829.00	50.000
829.30	9.524
829.60	46.667
829.90	31.250
830.20	15.789
830.50	33.333
830.80	17.391
831.10	0.000
831.40	51.515
831.70	29.032
832.00	61.905
832.30	14.286
832.60	41.667
832.90	10.345
833.20	0.000
833.50	33.333
833.80	33.333
834.10	15.385
834.40	50.000
834.70	55.556
835.00	26.316
835.30	42.308
835.60	60.000
835.90	38.710
836.20	59.091
836.50	50.000
836.80	-15.385
837.10	7.143
837.40	200.000
837.70	13.636
838.00	-36.364
838.30	21.739
838.60	7.692
838.90	4.545
839.19	3.571
839.49	26.667
839.79	-30.769
840.09	25.000
840.39	64.286
840.69	-21.429
840.99	11.538
841.29	31.579
841.59	0.000
841.88	36.364
842.18	110.000
842.48	81.250
842.78	6.667
843.08	11.111
843.38	-30.000
843.68	21.739
843.97	26.667
844.27	-20.000
844.57	30.000
844.87	88.889
845.17	76.190
845.47	73.333
845.76	-47.619
846.06	0.000
846.36	140.000
846.66	7.143
846.96	93.333
847.25	0.000
847.55	14.286
847.85	62.500
848.15	-22.727
848.44	100.000
848.74	35.000
849.04	25.926
849.34	36.364
849.63	33.333
849.93	100.000
850.23	0.000
850.53	140.000
850.82	7.692
851.12	11.111
851.42	53.333
851.71	19.231
852.01	7.143
852.31	50.000
852.61	-45.455
852.90	10.000
853.20	31.579
853.50	8.333
853.79	47.826
854.09	70.833
854.39	78.947
854.68	-20.833
854.98	51.613
855.28	46.154
855.57	0.000
855.87	72.222
856.17	33.333
856.46	121.429
856.76	13.333
857.05	77.778
857.35	32.000
857.65	0.000
857.94	-7.692
858.24	55.172
858.53	5.556
858.83	66.667
859.13	50.000
859.42	-8.696
859.72	25.000
860.01	-400.000
860.31	-12.000
860.60	23.810
860.90	-200.000
861.20	-13.333
861.49	-200.000
861.79	-26.667
862.08	5.000
862.38	80.000
862.67	-140.000
862.97	-50.000
863.26	-8.333
863.56	22.222
863.85	-233.333
864.15	66.667
864.44	80.000
864.74	92.857
865.03	350.000
865.33	40.000
865.62	166.667
865.92	200.000
866.21	-83.333
866.51	62.500
866.80	27.273
867.10	-200.000
867.39	75.000
867.69	0.000
867.98	0.000
868.27	-400.000
868.57	0.000
868.86	44.444
869.16	-84.615
869.45	93.333
869.75	-500.000
870.04	0.000
870.33	-128.571
870.63	38.095
870.92	266.667
871.22	-20.000
871.51	-600.000
871.80	133.333
872.10	266.667
>>>>>End Processed Spectral Data<<<<<
