SpectraSuite Data File
++++++++++++++++++++++++++++++++++++
Date: Fri May 15 17:24:57 PDT 2015
User: schluterlab
Dark Spectrum Present: Yes
Reference Spectrum Present: Yes
Number of Sampled Component Spectra: 1
Spectrometers: USB2E3373
Integration Time (usec): 3000 (USB2E3373)
Spectra Averaged: 3 (USB2E3373)
Boxcar Smoothing: 0 (USB2E3373)
Correct for Electrical Dark: No (USB2E3373)
Strobe/Lamp Enabled: No (USB2E3373)
Correct for Detector Non-linearity: No (USB2E3373)
Correct for Stray Light: No (USB2E3373)
Number of Pixels in Processed Spectrum: 2048
>>>>>Begin Processed Spectral Data<<<<<
178.53	0.000
178.91	0.000
179.29	75.000
179.67	-400.000
180.04	-71.429
180.42	175.000
180.80	0.000
181.18	200.000
181.56	250.000
181.94	100.000
182.31	900.000
182.69	60.000
183.07	-133.333
183.45	200.000
183.83	50.000
184.20	18.182
184.58	33.333
184.96	-250.000
185.34	-233.333
185.72	-100.000
186.09	92.308
186.47	-100.000
186.85	233.333
187.23	55.556
187.61	-400.000
187.98	-166.667
188.36	-22.222
188.74	33.333
189.12	58.824
189.49	16.667
189.87	0.000
190.25	121.429
190.63	850.000
191.00	0.000
191.38	78.947
191.76	250.000
192.14	200.000
192.51	-150.000
192.89	-11.111
193.27	-42.857
193.65	66.667
194.02	109.091
194.40	40.000
194.78	-125.000
195.15	-25.000
195.53	0.000
195.91	225.000
196.29	-75.000
196.66	84.615
197.04	57.143
197.42	-155.556
197.79	100.000
198.17	-23.077
198.55	100.000
198.92	-366.667
199.30	900.000
199.68	-40.000
200.05	-100.000
200.43	0.000
200.81	100.000
201.18	0.000
201.56	1200.000
201.94	250.000
202.31	-133.333
202.69	-20.000
203.07	250.000
203.44	1100.000
203.82	0.000
204.19	71.429
204.57	-333.333
204.95	-12.500
205.32	50.000
205.70	157.143
206.08	-25.000
206.45	211.111
206.83	107.143
207.20	-185.714
207.58	300.000
207.96	-133.333
208.33	-90.000
208.71	-325.000
209.08	-33.333
209.46	-100.000
209.84	80.000
210.21	-1000.000
210.59	214.286
210.96	0.000
211.34	50.000
211.71	73.333
212.09	-142.857
212.46	100.000
212.84	0.000
213.22	190.000
213.59	250.000
213.97	84.615
214.34	45.455
214.72	-50.000
215.09	475.000
215.47	46.154
215.84	45.455
216.22	-33.333
216.59	-50.000
216.97	150.000
217.34	0.000
217.72	-60.000
218.09	25.000
218.47	137.500
218.84	-500.000
219.22	11.111
219.59	-60.000
219.97	166.667
220.34	100.000
220.72	14.286
221.09	-175.000
221.47	-150.000
221.84	-650.000
222.22	-750.000
222.59	90.909
222.97	33.333
223.34	66.667
223.72	-28.571
224.09	28.571
224.46	28.571
224.84	133.333
225.21	70.000
225.59	46.667
225.96	-150.000
226.34	125.000
226.71	-114.286
227.08	-133.333
227.46	-25.000
227.83	-750.000
228.21	88.889
228.58	36.364
228.95	37.500
229.33	120.000
229.70	43.750
230.08	-50.000
230.45	14.286
230.82	-28.571
231.20	40.000
231.57	42.857
231.95	128.571
232.32	-30.000
232.69	57.143
233.07	266.667
233.44	80.000
233.81	0.000
234.19	44.444
234.56	52.941
234.93	-350.000
235.31	0.000
235.68	20.000
236.05	-30.769
236.43	50.000
236.80	70.588
237.17	56.250
237.55	70.000
237.92	48.148
238.29	44.444
238.67	83.333
239.04	55.882
239.41	9.756
239.79	66.667
240.16	87.805
240.53	65.789
240.91	50.000
241.28	61.905
241.65	66.071
242.02	53.425
242.40	56.667
242.77	57.627
243.14	60.606
243.51	65.000
243.89	79.310
244.26	58.621
244.63	53.571
245.00	56.701
245.38	60.825
245.75	68.539
246.12	53.448
246.49	61.983
246.87	70.192
247.24	50.420
247.61	63.158
247.98	65.041
248.36	55.000
248.73	62.500
249.10	57.143
249.47	63.924
249.84	63.399
250.22	61.765
250.59	67.974
250.96	55.399
251.33	59.302
251.70	71.176
252.08	57.868
252.45	61.881
252.82	66.834
253.19	65.438
253.56	56.075
253.94	62.613
254.31	58.696
254.68	65.351
255.05	57.480
255.42	64.192
255.79	55.598
256.16	58.755
256.54	61.194
256.91	60.456
257.28	62.082
257.65	61.798
258.02	58.511
258.39	61.279
258.76	69.231
259.14	60.133
259.51	58.252
259.88	62.543
260.25	59.150
260.62	65.625
260.99	63.729
261.36	61.644
261.73	66.139
262.10	62.918
262.47	67.178
262.85	62.069
263.22	61.231
263.59	60.436
263.96	65.528
264.33	66.364
264.70	63.393
265.07	59.524
265.44	63.739
265.81	65.819
266.18	60.929
266.55	60.925
266.92	59.067
267.29	63.708
267.66	59.847
268.03	61.518
268.40	61.619
268.77	63.636
269.14	56.595
269.51	62.982
269.88	58.603
270.25	60.459
270.62	57.073
270.99	59.591
271.36	60.391
271.73	59.624
272.10	60.341
272.47	60.047
272.84	59.653
273.21	59.629
273.58	62.651
273.95	61.556
274.32	57.275
274.69	53.846
275.06	63.839
275.43	61.224
275.80	60.044
276.17	57.241
276.54	59.529
276.91	57.895
277.28	56.987
277.65	60.744
278.02	58.723
278.39	60.394
278.76	60.377
279.13	55.187
279.50	58.613
279.87	60.475
280.23	59.355
280.60	57.700
280.97	57.576
281.34	55.385
281.71	59.138
282.08	55.419
282.45	56.164
282.82	55.792
283.19	55.706
283.56	57.803
283.92	56.736
284.29	53.846
284.66	56.008
285.03	56.189
285.40	56.522
285.77	52.197
286.14	54.874
286.51	58.856
286.87	53.016
287.24	54.328
287.61	53.086
287.98	52.982
288.35	53.899
288.72	54.116
289.08	53.993
289.45	54.833
289.82	51.748
290.19	51.706
290.56	50.943
290.93	52.357
291.29	48.690
291.66	48.819
292.03	48.644
292.40	51.290
292.77	49.601
293.13	47.565
293.50	46.434
293.87	47.786
294.24	47.295
294.60	47.690
294.97	45.089
295.34	48.466
295.71	46.051
296.08	43.049
296.44	42.390
296.81	44.028
297.18	45.507
297.55	45.257
297.91	43.836
298.28	43.799
298.65	41.520
299.02	43.396
299.38	40.219
299.75	44.138
300.12	41.230
300.48	41.370
300.85	42.205
301.22	41.558
301.59	41.184
301.95	42.152
302.32	42.542
302.69	41.045
303.05	40.965
303.42	38.481
303.79	40.304
304.15	40.143
304.52	38.763
304.89	38.480
305.25	39.952
305.62	39.323
305.99	38.596
306.35	39.538
306.72	37.795
307.09	38.198
307.45	38.347
307.82	39.005
308.19	40.999
308.55	38.059
308.92	38.998
309.29	38.212
309.65	37.460
310.02	38.504
310.38	38.749
310.75	40.109
311.12	38.751
311.48	36.691
311.85	38.010
312.22	36.076
312.58	38.747
312.95	36.606
313.31	38.613
313.68	36.649
314.05	37.245
314.41	37.113
314.78	36.186
315.14	38.438
315.51	38.406
315.87	37.398
316.24	37.614
316.61	37.106
316.97	36.508
317.34	36.230
317.70	36.520
318.07	36.154
318.43	36.471
318.80	36.837
319.16	37.988
319.53	35.992
319.89	36.220
320.26	35.931
320.62	36.810
320.99	34.864
321.35	36.074
321.72	37.072
322.08	36.153
322.45	37.259
322.81	35.462
323.18	35.623
323.54	36.486
323.91	34.761
324.27	35.840
324.64	36.891
325.00	34.945
325.37	36.364
325.73	34.542
326.10	36.876
326.46	35.874
326.83	36.133
327.19	35.222
327.56	35.361
327.92	35.651
328.29	35.000
328.65	35.094
329.01	35.846
329.38	34.931
329.74	33.333
330.11	34.291
330.47	33.859
330.84	34.423
331.20	37.357
331.56	33.981
331.93	33.699
332.29	36.389
332.66	33.756
333.02	34.015
333.38	33.822
333.75	33.883
334.11	33.572
334.48	33.636
334.84	33.516
335.20	32.662
335.57	31.641
335.93	33.424
336.29	33.425
336.66	34.060
337.02	32.993
337.38	32.500
337.75	33.364
338.11	33.814
338.47	33.212
338.84	34.196
339.20	32.084
339.56	33.853
339.93	33.930
340.29	33.945
340.65	34.050
341.02	33.954
341.38	32.920
341.74	31.802
342.11	31.889
342.47	32.829
342.83	32.266
343.20	32.056
343.56	33.826
343.92	32.684
344.28	33.134
344.65	33.506
345.01	33.103
345.37	32.717
345.73	33.138
346.10	31.665
346.46	32.885
346.82	31.669
347.19	30.840
347.55	32.331
347.91	32.362
348.27	31.609
348.63	32.453
349.00	30.845
349.36	31.920
349.72	31.841
350.08	31.639
350.45	32.482
350.81	30.814
351.17	29.642
351.53	32.163
351.89	30.140
352.26	31.760
352.62	31.694
352.98	30.924
353.34	31.884
353.70	32.362
354.07	31.129
354.43	30.825
354.79	31.049
355.15	32.460
355.51	31.725
355.87	31.472
356.24	30.179
356.60	30.719
356.96	32.222
357.32	31.709
357.68	29.945
358.04	30.291
358.40	30.627
358.77	31.021
359.13	30.985
359.49	30.277
359.85	30.421
360.21	29.665
360.57	29.763
360.93	30.408
361.29	29.532
361.66	30.329
362.02	31.212
362.38	30.769
362.74	30.431
363.10	31.001
363.46	30.393
363.82	30.278
364.18	29.889
364.54	30.147
364.90	29.606
365.26	29.549
365.62	31.825
365.98	30.425
366.35	30.808
366.71	30.820
367.07	31.132
367.43	29.475
367.79	29.611
368.15	29.576
368.51	31.100
368.87	29.576
369.23	29.170
369.59	29.373
369.95	30.205
370.31	29.841
370.67	31.791
371.03	29.052
371.39	29.540
371.75	29.670
372.11	29.458
372.47	29.956
372.83	29.170
373.19	29.244
373.55	28.664
373.91	30.022
374.27	28.774
374.63	29.720
374.99	28.865
375.35	29.875
375.71	29.301
376.07	29.213
376.42	27.891
376.78	30.671
377.14	29.655
377.50	29.814
377.86	29.050
378.22	29.547
378.58	29.487
378.94	29.490
379.30	29.382
379.66	29.655
380.02	28.510
380.38	28.789
380.74	28.127
381.09	28.896
381.45	28.563
381.81	28.192
382.17	28.744
382.53	27.920
382.89	28.751
383.25	29.185
383.61	28.963
383.97	29.206
384.32	29.143
384.68	30.155
385.04	27.696
385.40	27.940
385.76	30.000
386.12	29.172
386.48	29.310
386.83	28.218
387.19	27.961
387.55	28.858
387.91	28.301
388.27	28.999
388.62	28.320
388.98	29.527
389.34	29.232
389.70	28.776
390.06	27.942
390.42	29.339
390.77	29.823
391.13	29.004
391.49	29.172
391.85	29.435
392.20	28.437
392.56	28.862
392.92	28.949
393.28	29.245
393.64	29.129
393.99	30.219
394.35	28.336
394.71	28.672
395.07	28.536
395.42	27.869
395.78	27.752
396.14	28.562
396.50	29.550
396.85	29.427
397.21	28.697
397.57	28.527
397.92	29.059
398.28	29.023
398.64	27.410
399.00	29.289
399.35	27.652
399.71	29.294
400.07	28.537
400.42	27.846
400.78	29.761
401.14	28.978
401.49	28.350
401.85	28.519
402.21	28.735
402.57	29.063
402.92	28.795
403.28	29.449
403.63	29.508
403.99	28.189
404.35	28.982
404.70	27.738
405.06	28.026
405.42	28.527
405.77	27.833
406.13	27.881
406.49	28.064
406.84	29.645
407.20	29.561
407.55	28.075
407.91	28.610
408.27	28.744
408.62	28.615
408.98	28.527
409.34	28.625
409.69	27.778
410.05	28.571
410.40	28.395
410.76	28.106
411.11	29.500
411.47	28.797
411.83	28.123
412.18	27.735
412.54	27.965
412.89	28.079
413.25	28.099
413.60	28.571
413.96	27.669
414.31	28.537
414.67	28.672
415.03	27.963
415.38	28.329
415.74	29.055
416.09	28.021
416.45	28.764
416.80	27.693
417.16	28.936
417.51	29.114
417.87	28.292
418.22	28.368
418.58	27.759
418.93	29.091
419.29	26.312
419.64	28.516
420.00	29.723
420.35	27.701
420.71	29.283
421.06	27.931
421.42	28.486
421.77	28.382
422.12	27.696
422.48	28.316
422.83	28.364
423.19	28.386
423.54	27.160
423.90	28.092
424.25	27.899
424.61	28.519
424.96	27.294
425.31	28.712
425.67	28.286
426.02	29.976
426.38	28.929
426.73	28.208
427.09	29.177
427.44	28.647
427.79	28.698
428.15	28.883
428.50	29.255
428.85	28.010
429.21	28.127
429.56	29.003
429.92	28.557
430.27	27.769
430.62	27.287
430.98	27.601
431.33	27.918
431.68	27.525
432.04	28.172
432.39	27.268
432.74	27.420
433.10	29.540
433.45	27.658
433.80	27.684
434.16	27.922
434.51	28.387
434.86	27.526
435.22	28.323
435.57	28.509
435.92	28.922
436.28	27.788
436.63	28.180
436.98	27.636
437.34	28.494
437.69	28.145
438.04	28.547
438.39	28.345
438.75	28.962
439.10	28.014
439.45	28.241
439.81	27.584
440.16	28.444
440.51	28.776
440.86	29.607
441.22	28.281
441.57	28.918
441.92	29.224
442.27	28.936
442.63	28.908
442.98	28.949
443.33	28.381
443.68	28.117
444.03	28.167
444.39	27.939
444.74	28.484
445.09	28.396
445.44	28.604
445.79	29.758
446.15	28.414
446.50	28.674
446.85	28.162
447.20	28.102
447.55	29.185
447.91	29.047
448.26	29.482
448.61	29.246
448.96	29.030
449.31	28.497
449.66	29.094
450.02	28.637
450.37	28.394
450.72	29.038
451.07	29.114
451.42	28.652
451.77	28.933
452.12	27.632
452.47	28.590
452.83	29.152
453.18	28.400
453.53	29.014
453.88	28.840
454.23	29.010
454.58	29.660
454.93	29.381
455.28	28.444
455.63	28.456
455.98	28.443
456.34	28.799
456.69	29.987
457.04	29.868
457.39	28.979
457.74	28.114
458.09	28.546
458.44	29.081
458.79	28.908
459.14	30.034
459.49	29.851
459.84	29.949
460.19	28.883
460.54	30.562
460.89	29.830
461.24	29.006
461.59	29.276
461.94	28.428
462.29	29.071
462.64	29.435
462.99	30.196
463.34	28.790
463.69	29.601
464.04	28.995
464.39	28.987
464.74	28.466
465.09	29.944
465.44	29.660
465.79	28.118
466.14	29.418
466.49	28.292
466.84	29.506
467.19	28.974
467.54	28.608
467.89	28.427
468.24	29.380
468.59	30.159
468.94	28.381
469.29	29.639
469.64	29.392
469.99	30.273
470.34	28.464
470.68	30.201
471.03	29.441
471.38	29.315
471.73	29.482
472.08	29.172
472.43	28.591
472.78	29.815
473.13	29.864
473.48	28.730
473.83	29.577
474.17	30.570
474.52	28.845
474.87	29.333
475.22	30.079
475.57	28.515
475.92	30.060
476.27	29.395
476.61	29.340
476.96	28.723
477.31	30.124
477.66	28.202
478.01	29.590
478.36	29.684
478.70	30.941
479.05	29.780
479.40	28.829
479.75	29.510
480.10	30.005
480.45	29.400
480.79	29.960
481.14	30.072
481.49	28.768
481.84	29.585
482.19	29.233
482.53	29.448
482.88	29.308
483.23	28.935
483.58	30.047
483.92	29.380
484.27	28.806
484.62	29.269
484.97	29.602
485.31	29.408
485.66	28.694
486.01	28.403
486.36	28.092
486.70	28.252
487.05	28.434
487.40	28.516
487.75	28.310
488.09	28.059
488.44	28.680
488.79	28.988
489.13	29.728
489.48	28.730
489.83	29.058
490.17	29.169
490.52	29.053
490.87	29.477
491.22	29.417
491.56	29.886
491.91	29.398
492.26	29.655
492.60	29.031
492.95	30.152
493.30	29.018
493.64	30.206
493.99	29.903
494.34	28.932
494.68	29.667
495.03	29.051
495.37	29.980
495.72	30.187
496.07	29.854
496.41	28.821
496.76	29.065
497.11	28.691
497.45	29.881
497.80	30.424
498.14	30.303
498.49	29.609
498.84	29.741
499.18	29.769
499.53	29.762
499.87	29.523
500.22	28.833
500.56	30.408
500.91	29.970
501.26	28.819
501.60	28.578
501.95	29.743
502.29	30.751
502.64	29.392
502.98	30.538
503.33	29.059
503.67	28.964
504.02	29.374
504.36	29.589
504.71	29.495
505.06	29.643
505.40	28.985
505.75	30.979
506.09	29.853
506.44	30.339
506.78	30.051
507.13	30.196
507.47	29.452
507.82	29.274
508.16	29.583
508.51	29.486
508.85	29.513
509.19	29.537
509.54	29.866
509.88	29.504
510.23	30.124
510.57	29.717
510.92	29.104
511.26	29.078
511.61	29.703
511.95	30.356
512.30	29.712
512.64	30.106
512.98	30.488
513.33	29.603
513.67	29.676
514.02	31.236
514.36	30.971
514.70	30.711
515.05	30.729
515.39	30.224
515.74	31.437
516.08	30.723
516.42	31.095
516.77	31.129
517.11	30.682
517.46	30.401
517.80	30.870
518.14	31.598
518.49	30.829
518.83	30.134
519.17	30.018
519.52	29.899
519.86	31.032
520.20	30.377
520.55	29.206
520.89	30.803
521.23	30.716
521.58	30.662
521.92	32.115
522.26	31.360
522.61	30.260
522.95	31.457
523.29	31.258
523.64	31.576
523.98	30.201
524.32	30.799
524.66	30.922
525.01	30.909
525.35	30.914
525.69	31.178
526.04	30.622
526.38	31.712
526.72	30.281
527.06	29.767
527.41	31.530
527.75	29.155
528.09	30.764
528.43	31.938
528.78	30.891
529.12	32.129
529.46	31.384
529.80	29.386
530.15	31.089
530.49	31.044
530.83	32.011
531.17	30.222
531.51	32.285
531.86	30.795
532.20	31.733
532.54	30.633
532.88	30.801
533.22	31.653
533.57	31.324
533.91	30.548
534.25	31.966
534.59	30.083
534.93	29.138
535.27	28.934
535.62	30.979
535.96	31.050
536.30	30.607
536.64	31.013
536.98	31.777
537.32	31.508
537.66	32.749
538.01	30.839
538.35	30.929
538.69	31.158
539.03	30.144
539.37	30.283
539.71	31.288
540.05	31.365
540.39	30.817
540.73	30.823
541.07	31.354
541.42	30.981
541.76	30.695
542.10	31.315
542.44	31.550
542.78	29.456
543.12	30.220
543.46	31.154
543.80	30.951
544.14	29.840
544.48	31.379
544.82	29.665
545.16	30.260
545.50	30.107
545.84	30.949
546.18	31.631
546.52	29.993
546.86	31.991
547.20	30.901
547.54	30.883
547.88	31.318
548.22	29.323
548.56	29.683
548.90	30.997
549.24	30.234
549.58	29.760
549.92	30.021
550.26	30.256
550.60	30.483
550.94	30.919
551.28	30.371
551.62	32.077
551.96	30.451
552.30	32.310
552.64	30.395
552.98	31.083
553.32	30.100
553.66	29.753
554.00	29.927
554.34	30.871
554.68	29.720
555.02	31.548
555.36	30.516
555.69	30.696
556.03	29.836
556.37	30.391
556.71	31.191
557.05	30.872
557.39	30.037
557.73	30.435
558.07	31.750
558.41	30.322
558.75	31.255
559.08	30.733
559.42	30.952
559.76	31.705
560.10	30.428
560.44	30.231
560.78	31.189
561.12	30.536
561.45	31.131
561.79	30.672
562.13	30.021
562.47	29.712
562.81	30.476
563.15	30.606
563.48	30.905
563.82	31.572
564.16	30.014
564.50	29.662
564.84	30.187
565.17	29.980
565.51	30.806
565.85	30.316
566.19	30.172
566.52	31.032
566.86	30.270
567.20	30.573
567.54	30.231
567.88	31.342
568.21	30.769
568.55	29.891
568.89	30.749
569.23	30.573
569.56	29.597
569.90	29.963
570.24	29.103
570.57	28.873
570.91	29.278
571.25	29.069
571.59	28.652
571.92	28.119
572.26	28.684
572.60	28.403
572.93	28.302
573.27	28.245
573.61	28.073
573.95	28.209
574.28	28.416
574.62	28.172
574.96	28.073
575.29	27.839
575.63	27.131
575.97	27.433
576.30	27.832
576.64	27.099
576.98	28.237
577.31	28.189
577.65	28.372
577.98	27.303
578.32	27.466
578.66	27.122
578.99	27.000
579.33	27.155
579.67	27.378
580.00	27.722
580.34	27.463
580.67	27.671
581.01	28.026
581.35	27.606
581.68	27.888
582.02	27.400
582.35	27.577
582.69	27.990
583.02	27.280
583.36	27.797
583.70	27.985
584.03	28.274
584.37	29.136
584.70	27.692
585.04	27.720
585.37	27.985
585.71	27.919
586.04	27.383
586.38	27.207
586.72	28.092
587.05	28.163
587.39	28.320
587.72	28.950
588.06	28.065
588.39	28.710
588.73	28.510
589.06	29.093
589.40	28.655
589.73	29.171
590.07	28.625
590.40	28.909
590.73	29.283
591.07	29.347
591.40	29.163
591.74	29.005
592.07	29.406
592.41	29.859
592.74	28.634
593.08	28.362
593.41	28.797
593.75	28.459
594.08	28.321
594.41	29.112
594.75	28.244
595.08	29.247
595.42	28.892
595.75	29.328
596.09	29.398
596.42	29.599
596.75	29.041
597.09	28.428
597.42	28.726
597.75	29.363
598.09	29.289
598.42	28.700
598.76	28.614
599.09	29.207
599.42	27.965
599.76	27.728
600.09	29.148
600.42	28.961
600.76	28.269
601.09	27.977
601.42	28.515
601.76	28.583
602.09	28.837
602.42	30.076
602.76	28.226
603.09	28.571
603.42	30.017
603.76	28.710
604.09	28.392
604.42	29.526
604.76	29.684
605.09	28.748
605.42	29.436
605.75	28.546
606.09	28.450
606.42	27.857
606.75	29.351
607.09	29.626
607.42	29.331
607.75	28.552
608.08	28.077
608.42	28.598
608.75	29.783
609.08	29.148
609.41	29.086
609.75	28.679
610.08	29.755
610.41	29.179
610.74	28.376
611.07	29.251
611.41	28.905
611.74	30.064
612.07	28.640
612.40	28.939
612.73	29.492
613.07	29.528
613.40	30.306
613.73	29.267
614.06	29.104
614.39	29.272
614.72	29.244
615.06	29.888
615.39	28.275
615.72	28.902
616.05	29.721
616.38	28.547
616.71	29.113
617.05	29.339
617.38	29.667
617.71	29.623
618.04	29.841
618.37	30.328
618.70	30.033
619.03	30.972
619.36	29.957
619.69	30.629
620.03	30.898
620.36	29.542
620.69	30.764
621.02	31.040
621.35	30.871
621.68	30.102
622.01	31.000
622.34	30.726
622.67	31.230
623.00	29.556
623.33	29.726
623.66	30.441
623.99	29.501
624.32	29.962
624.65	29.774
624.99	30.474
625.32	29.416
625.65	30.793
625.98	31.185
626.31	29.842
626.64	31.716
626.97	30.366
627.30	31.524
627.63	31.282
627.96	30.997
628.29	31.452
628.62	31.170
628.95	31.864
629.28	31.351
629.61	31.206
629.94	31.769
630.26	30.632
630.59	33.611
630.92	30.769
631.25	30.564
631.58	32.159
631.91	31.031
632.24	31.995
632.57	30.682
632.90	32.147
633.23	32.824
633.56	30.605
633.89	33.785
634.22	33.827
634.55	33.037
634.88	33.461
635.20	32.692
635.53	32.800
635.86	31.599
636.19	33.635
636.52	32.015
636.85	30.645
637.18	31.698
637.51	31.069
637.83	32.194
638.16	36.016
638.49	31.880
638.82	34.342
639.15	33.514
639.48	32.737
639.81	33.333
640.13	34.199
640.46	33.673
640.79	31.664
641.12	31.462
641.45	33.333
641.77	32.148
642.10	35.071
642.43	32.797
642.76	34.158
643.09	31.987
643.41	32.848
643.74	31.631
644.07	32.020
644.40	34.797
644.73	34.851
645.05	33.054
645.38	31.922
645.71	34.397
646.04	34.829
646.36	33.511
646.69	34.173
647.02	34.594
647.35	34.701
647.67	33.090
648.00	35.634
648.33	34.642
648.66	32.712
648.98	31.658
649.31	31.901
649.64	32.339
649.96	31.605
650.29	32.368
650.62	36.068
650.94	34.815
651.27	32.216
651.60	35.315
651.92	33.741
652.25	32.149
652.58	33.833
652.90	35.506
653.23	32.437
653.56	32.826
653.88	31.787
654.21	31.349
654.54	31.409
654.86	35.484
655.19	30.263
655.52	30.650
655.84	27.529
656.17	30.418
656.49	41.047
656.82	42.445
657.15	32.163
657.47	23.959
657.80	17.698
658.13	17.395
658.45	26.775
658.78	26.939
659.10	26.543
659.43	26.727
659.75	28.515
660.08	28.000
660.41	28.907
660.73	30.663
661.06	33.622
661.38	31.507
661.71	31.211
662.03	34.764
662.36	33.187
662.68	33.628
663.01	33.624
663.33	35.267
663.66	29.767
663.98	34.419
664.31	33.475
664.63	34.562
664.96	31.522
665.28	31.567
665.61	33.766
665.93	33.478
666.26	36.009
666.58	32.886
666.91	34.353
667.23	34.434
667.56	35.782
667.88	36.211
668.21	34.606
668.53	35.697
668.86	34.434
669.18	33.255
669.50	33.898
669.83	33.023
670.15	33.800
670.48	34.928
670.80	34.793
671.13	32.215
671.45	32.877
671.77	33.262
672.10	33.069
672.42	32.022
672.75	32.682
673.07	32.916
673.39	34.128
673.72	29.191
674.04	28.125
674.37	31.568
674.69	33.405
675.01	34.222
675.34	34.459
675.66	35.185
675.98	35.033
676.31	34.174
676.63	31.829
676.95	32.727
677.28	34.824
677.60	36.145
677.92	32.798
678.25	32.166
678.57	32.251
678.89	34.034
679.22	35.794
679.54	29.920
679.86	32.406
680.18	32.427
680.51	31.439
680.83	30.616
681.15	33.200
681.48	31.967
681.80	34.298
682.12	31.855
682.44	32.845
682.77	34.879
683.09	34.783
683.41	32.500
683.73	32.488
684.06	34.513
684.38	32.258
684.70	35.730
685.02	32.988
685.34	29.051
685.67	31.895
685.99	31.646
686.31	30.619
686.63	32.282
686.96	31.559
687.28	30.101
687.60	31.179
687.92	32.727
688.24	35.685
688.56	33.624
688.89	31.250
689.21	33.556
689.53	30.626
689.85	30.698
690.17	32.812
690.49	33.806
690.82	32.039
691.14	33.571
691.46	31.542
691.78	31.081
692.10	32.688
692.42	33.766
692.74	31.197
693.06	31.306
693.39	30.769
693.71	30.090
694.03	29.099
694.35	30.607
694.67	33.838
694.99	28.198
695.31	34.987
695.63	32.250
695.95	31.566
696.27	29.793
696.59	36.944
696.91	34.174
697.23	34.190
697.56	33.911
697.88	31.613
698.20	29.385
698.52	34.588
698.84	29.904
699.16	30.500
699.48	30.827
699.80	29.280
700.12	32.075
700.44	31.373
700.76	31.105
701.08	32.424
701.40	30.120
701.72	36.111
702.04	34.323
702.36	36.789
702.68	32.432
703.00	33.030
703.32	34.018
703.64	33.616
703.96	32.754
704.28	32.515
704.60	33.968
704.91	32.177
705.23	30.897
705.55	34.276
705.87	33.574
706.19	36.296
706.51	30.584
706.83	36.977
707.15	28.972
707.47	34.174
707.79	28.646
708.11	35.250
708.43	30.500
708.74	32.300
709.06	33.521
709.38	33.028
709.70	29.290
710.02	29.618
710.34	31.579
710.66	25.962
710.98	31.126
711.29	31.803
711.61	28.475
711.93	36.156
712.25	33.333
712.57	32.601
712.89	30.970
713.20	33.910
713.52	36.585
713.84	34.130
714.16	29.897
714.48	29.355
714.80	34.295
715.11	30.395
715.43	28.840
715.75	28.667
716.07	29.236
716.39	35.235
716.70	31.365
717.02	30.916
717.34	32.794
717.66	31.416
717.97	30.435
718.29	30.962
718.61	36.220
718.93	33.333
719.24	33.460
719.56	36.145
719.88	32.990
720.20	35.606
720.51	29.885
720.83	33.591
721.15	32.773
721.46	35.484
721.78	22.134
722.10	30.112
722.42	29.461
722.73	31.429
723.05	35.510
723.37	33.898
723.68	36.486
724.00	29.487
724.32	33.333
724.63	34.545
724.95	31.441
725.27	32.719
725.58	31.780
725.90	30.159
726.22	30.116
726.53	32.203
726.85	31.461
727.16	35.472
727.48	30.769
727.80	31.579
728.11	30.508
728.43	29.412
728.74	27.016
729.06	33.200
729.38	31.579
729.69	32.669
730.01	28.462
730.32	32.463
730.64	30.389
730.96	31.321
731.27	27.667
731.59	32.203
731.90	33.758
732.22	31.861
732.53	33.223
732.85	28.014
733.16	39.057
733.48	28.777
733.80	32.246
734.11	25.763
734.43	28.522
734.74	29.394
735.06	28.339
735.37	31.420
735.69	31.650
736.00	31.359
736.32	31.208
736.63	29.930
736.95	30.717
737.26	29.537
737.58	27.517
737.89	30.037
738.21	33.835
738.52	31.687
738.83	31.878
739.15	34.061
739.46	28.346
739.78	29.304
740.09	29.739
740.41	27.174
740.72	28.740
741.04	33.603
741.35	33.617
741.66	28.436
741.98	29.082
742.29	32.178
742.61	29.843
742.92	27.014
743.23	28.704
743.55	29.864
743.86	34.928
744.18	31.579
744.49	31.383
744.80	30.435
745.12	41.711
745.43	26.829
745.74	32.812
746.06	32.195
746.37	34.555
746.68	34.597
747.00	32.447
747.31	32.836
747.62	29.612
747.94	33.493
748.25	31.188
748.56	32.240
748.88	34.031
749.19	37.766
749.50	29.064
749.82	27.830
750.13	29.358
750.44	34.586
750.75	33.955
751.07	32.117
751.38	30.651
751.69	28.235
752.01	26.357
752.32	27.888
752.63	26.877
752.94	33.190
753.26	36.820
753.57	31.674
753.88	26.991
754.19	29.583
754.51	27.686
754.82	29.555
755.13	32.917
755.44	33.468
755.75	36.328
756.07	28.794
756.38	29.811
756.69	29.502
757.00	29.667
757.31	29.739
757.63	28.049
757.94	27.500
758.25	27.123
758.56	24.734
758.87	26.062
759.18	29.907
759.50	29.455
759.81	29.766
760.12	30.000
760.43	26.667
760.74	31.173
761.05	25.538
761.36	29.261
761.67	30.303
761.99	33.333
762.30	26.909
762.61	27.273
762.92	25.792
763.23	34.234
763.54	29.439
763.85	35.593
764.16	29.461
764.47	27.419
764.78	30.403
765.10	30.640
765.41	25.237
765.72	29.841
766.03	23.308
766.34	27.372
766.65	30.677
766.96	28.283
767.27	26.064
767.58	32.184
767.89	34.043
768.20	31.818
768.51	31.319
768.82	27.094
769.13	28.111
769.44	26.180
769.75	21.918
770.06	31.466
770.37	29.808
770.68	32.487
770.99	28.054
771.30	33.333
771.61	27.602
771.92	31.897
772.23	33.005
772.54	32.258
772.85	30.864
773.16	28.652
773.47	37.255
773.78	32.026
774.09	31.737
774.39	31.333
774.70	23.567
775.01	35.172
775.32	30.000
775.63	26.446
775.94	30.534
776.25	31.496
776.56	31.667
776.87	32.692
777.18	23.932
777.48	38.793
777.79	25.217
778.10	18.095
778.41	32.432
778.72	22.222
779.03	31.579
779.34	32.624
779.65	26.712
779.95	30.822
780.26	38.621
780.57	21.951
780.88	29.134
781.19	23.276
781.50	33.333
781.80	27.811
782.11	21.384
782.42	34.615
782.73	28.058
783.04	31.852
783.34	24.306
783.65	17.949
783.96	28.689
784.27	31.724
784.57	31.707
784.88	28.906
785.19	35.000
785.50	48.000
785.81	32.759
786.11	25.862
786.42	27.184
786.73	40.000
787.04	29.592
787.34	29.464
787.65	31.429
787.96	25.664
788.26	23.636
788.57	30.769
788.88	34.375
789.19	23.810
789.49	33.913
789.80	37.755
790.11	30.303
790.41	37.273
790.72	39.130
791.03	34.091
791.33	42.500
791.64	23.750
791.95	20.930
792.25	34.043
792.56	31.461
792.87	16.438
793.17	13.043
793.48	24.000
793.79	31.250
794.09	42.500
794.40	16.038
794.70	28.155
795.01	27.642
795.32	31.624
795.62	35.238
795.93	25.490
796.23	35.849
796.54	35.417
796.85	23.529
797.15	39.437
797.46	34.722
797.76	43.939
798.07	25.581
798.37	23.684
798.68	22.727
798.99	18.519
799.29	45.714
799.60	40.580
799.90	38.667
800.21	22.951
800.51	43.077
800.82	32.203
801.12	39.130
801.43	36.066
801.73	46.032
802.04	26.000
802.34	20.896
802.65	42.308
802.95	35.714
803.26	26.923
803.56	23.529
803.87	30.435
804.17	32.000
804.48	57.143
804.78	37.037
805.09	41.304
805.39	46.667
805.70	40.741
806.00	10.526
806.30	33.803
806.61	44.286
806.91	16.667
807.22	30.263
807.52	41.333
807.83	16.364
808.13	27.778
808.43	41.176
808.74	31.343
809.04	25.424
809.35	38.462
809.65	23.437
809.95	10.811
810.26	0.000
810.56	26.027
810.86	23.810
811.17	50.000
811.47	34.694
811.77	-2.632
812.08	15.909
812.38	35.849
812.69	15.000
812.99	36.364
813.29	21.053
813.59	-5.714
813.90	31.818
814.20	33.333
814.50	34.615
814.81	32.075
815.11	23.404
815.41	35.593
815.72	40.476
816.02	31.373
816.32	41.667
816.62	21.951
816.93	18.919
817.23	17.143
817.53	43.750
817.84	17.391
818.14	26.923
818.44	5.263
818.74	13.043
819.04	2.500
819.35	18.919
819.65	26.471
819.95	5.556
820.25	16.667
820.56	45.000
820.86	27.586
821.16	82.500
821.46	27.660
821.76	17.500
822.07	37.209
822.37	29.730
822.67	31.250
822.97	40.476
823.27	35.714
823.57	28.000
823.88	33.333
824.18	82.143
824.48	29.412
824.78	12.903
825.08	47.826
825.38	33.333
825.69	37.500
825.99	5.263
826.29	38.889
826.59	13.333
826.89	9.524
827.19	45.652
827.49	17.500
827.79	34.286
828.09	21.429
828.39	51.515
828.70	40.541
829.00	25.000
829.30	14.286
829.60	16.667
829.90	46.875
830.20	18.421
830.50	25.926
830.80	8.696
831.10	45.455
831.40	42.424
831.70	29.032
832.00	76.190
832.30	19.048
832.60	-66.667
832.90	13.793
833.20	-5.000
833.50	54.545
833.80	25.926
834.10	73.077
834.40	43.750
834.70	66.667
835.00	0.000
835.30	57.692
835.60	53.333
835.90	35.484
836.20	59.091
836.50	42.857
836.80	23.077
837.10	25.000
837.40	-133.333
837.70	40.909
838.00	36.364
838.30	34.783
838.60	7.692
838.90	40.909
839.19	39.286
839.49	40.000
839.79	15.385
840.09	16.667
840.39	89.286
840.69	35.714
840.99	7.692
841.29	-42.105
841.59	-50.000
841.88	27.273
842.18	30.000
842.48	-6.250
842.78	26.667
843.08	48.148
843.38	-90.000
843.68	30.435
843.97	40.000
844.27	-20.000
844.57	15.000
844.87	105.556
845.17	9.524
845.47	86.667
845.76	-23.810
846.06	-5.882
846.36	70.000
846.66	21.429
846.96	20.000
847.25	-25.000
847.55	50.000
847.85	37.500
848.15	4.545
848.44	-500.000
848.74	55.000
849.04	48.148
849.34	-9.091
849.63	-83.333
849.93	-320.000
850.23	22.222
850.53	90.000
850.82	0.000
851.12	-11.111
851.42	40.000
851.71	19.231
852.01	78.571
852.31	150.000
852.61	81.818
852.90	40.000
853.20	47.368
853.50	41.667
853.79	52.174
854.09	54.167
854.39	-42.105
854.68	29.167
854.98	54.839
855.28	15.385
855.57	25.000
855.87	0.000
856.17	66.667
856.46	7.143
856.76	46.667
857.05	44.444
857.35	60.000
857.65	55.556
857.94	30.769
858.24	100.000
858.53	22.222
858.83	70.370
859.13	18.182
859.42	26.087
859.72	-50.000
860.01	-233.333
860.31	20.000
860.60	4.762
860.90	-33.333
861.20	-53.333
861.49	350.000
861.79	-20.000
862.08	35.000
862.38	66.667
862.67	80.000
862.97	0.000
863.26	66.667
863.56	44.444
863.85	-200.000
864.15	55.556
864.44	30.000
864.74	42.857
865.03	150.000
865.33	-20.000
865.62	216.667
865.92	-8.333
866.21	-33.333
866.51	81.250
866.80	-9.091
867.10	-850.000
867.39	150.000
867.69	0.000
867.98	38.462
868.27	-166.667
868.57	86.667
868.86	77.778
869.16	-15.385
869.45	73.333
869.75	-100.000
870.04	0.000
870.33	-28.571
870.63	52.381
870.92	233.333
871.22	-80.000
871.51	600.000
871.80	122.222
872.10	166.667
>>>>>End Processed Spectral Data<<<<<
