SpectraSuite Data File
++++++++++++++++++++++++++++++++++++
Date: Fri May 15 17:20:37 PDT 2015
User: schluterlab
Dark Spectrum Present: Yes
Reference Spectrum Present: Yes
Number of Sampled Component Spectra: 1
Spectrometers: USB2E3373
Integration Time (usec): 3000 (USB2E3373)
Spectra Averaged: 3 (USB2E3373)
Boxcar Smoothing: 0 (USB2E3373)
Correct for Electrical Dark: No (USB2E3373)
Strobe/Lamp Enabled: No (USB2E3373)
Correct for Detector Non-linearity: No (USB2E3373)
Correct for Stray Light: No (USB2E3373)
Number of Pixels in Processed Spectrum: 2048
>>>>>Begin Processed Spectral Data<<<<<
178.53	0.000
178.91	0.000
179.29	187.500
179.67	150.000
180.04	-114.286
180.42	225.000
180.80	-500.000
181.18	-233.333
181.56	150.000
181.94	400.000
182.31	200.000
182.69	120.000
183.07	-66.667
183.45	-100.000
183.83	166.667
184.20	109.091
184.58	88.889
184.96	-325.000
185.34	-66.667
185.72	50.000
186.09	53.846
186.47	600.000
186.85	116.667
187.23	-0.000
187.61	-1100.000
187.98	100.000
188.36	77.778
188.74	33.333
189.12	58.824
189.49	27.778
189.87	0.000
190.25	85.714
190.63	350.000
191.00	-100.000
191.38	52.632
191.76	1100.000
192.14	100.000
192.51	100.000
192.89	-11.111
193.27	-28.571
193.65	183.333
194.02	127.273
194.40	130.000
194.78	-50.000
195.15	66.667
195.53	12.500
195.91	25.000
196.29	50.000
196.66	84.615
197.04	42.857
197.42	55.556
197.79	-233.333
198.17	-92.308
198.55	-300.000
198.92	-533.333
199.30	200.000
199.68	-100.000
200.05	100.000
200.43	0.000
200.81	33.333
201.18	-33.333
201.56	-200.000
201.94	250.000
202.31	-133.333
202.69	0.000
203.07	150.000
203.44	700.000
203.82	0.000
204.19	121.429
204.57	100.000
204.95	75.000
205.32	140.000
205.70	114.286
206.08	125.000
206.45	322.222
206.83	135.714
207.20	85.714
207.58	-500.000
207.96	-133.333
208.33	-60.000
208.71	275.000
209.08	-133.333
209.46	300.000
209.84	-40.000
210.21	-500.000
210.59	71.429
210.96	200.000
211.34	50.000
211.71	86.667
212.09	85.714
212.46	-700.000
212.84	0.000
213.22	60.000
213.59	300.000
213.97	146.154
214.34	81.818
214.72	-16.667
215.09	175.000
215.47	-7.692
215.84	18.182
216.22	33.333
216.59	50.000
216.97	750.000
217.34	125.000
217.72	0.000
218.09	50.000
218.47	25.000
218.84	0.000
219.22	44.444
219.59	60.000
219.97	-100.000
220.34	25.000
220.72	57.143
221.09	50.000
221.47	-50.000
221.84	-200.000
222.22	-750.000
222.59	72.727
222.97	33.333
223.34	-166.667
223.72	0.000
224.09	9.524
224.46	25.000
224.84	333.333
225.21	70.000
225.59	40.000
225.96	250.000
226.34	-0.000
226.71	42.857
227.08	16.667
227.46	87.500
227.83	-400.000
228.21	100.000
228.58	72.727
228.95	37.500
229.33	60.000
229.70	81.250
230.08	-87.500
230.45	-100.000
230.82	100.000
231.20	33.333
231.57	35.714
231.95	28.571
232.32	-70.000
232.69	7.143
233.07	-200.000
233.44	140.000
233.81	-20.000
234.19	77.778
234.56	11.765
234.93	150.000
235.31	225.000
235.68	-60.000
236.05	-30.769
236.43	-10.000
236.80	64.706
237.17	9.375
237.55	20.000
237.92	-14.815
238.29	8.333
238.67	20.000
239.04	14.706
239.41	-12.195
239.79	-23.333
240.16	21.951
240.53	-2.632
240.91	10.870
241.28	3.175
241.65	17.857
242.02	21.918
242.40	1.667
242.77	3.390
243.14	9.091
243.51	12.500
243.89	17.241
244.26	9.195
244.63	7.143
245.00	10.309
245.38	4.124
245.75	1.124
246.12	4.310
246.49	9.917
246.87	4.808
247.24	-1.681
247.61	-4.386
247.98	5.691
248.36	4.375
248.73	13.158
249.10	5.844
249.47	5.063
249.84	9.804
250.22	8.235
250.59	5.229
250.96	9.859
251.33	-1.163
251.70	5.294
252.08	10.660
252.45	8.416
252.82	7.035
253.19	5.069
253.56	-1.402
253.94	5.405
254.31	4.783
254.68	8.333
255.05	4.331
255.42	7.424
255.79	7.336
256.16	6.615
256.54	5.597
256.91	2.662
257.28	4.461
257.65	2.996
258.02	3.901
258.39	8.418
258.76	6.593
259.14	6.312
259.51	5.502
259.88	3.093
260.25	0.980
260.62	4.167
260.99	1.695
261.36	4.110
261.73	3.797
262.10	5.167
262.47	3.067
262.85	1.567
263.22	3.077
263.59	4.361
263.96	5.901
264.33	4.848
264.70	5.357
265.07	0.298
265.44	4.816
265.81	4.802
266.18	6.831
266.55	5.141
266.92	6.477
267.29	3.394
267.66	2.302
268.03	6.021
268.40	5.744
268.77	6.952
269.14	5.036
269.51	7.969
269.88	3.491
270.25	2.296
270.62	1.951
270.99	2.558
271.36	3.912
271.73	4.930
272.10	3.650
272.47	3.310
272.84	2.970
273.21	6.961
273.58	3.133
273.95	5.492
274.32	3.926
274.69	2.489
275.06	6.696
275.43	5.442
275.80	3.974
276.17	2.529
276.54	4.925
276.91	3.728
277.28	1.965
277.65	3.306
278.02	3.830
278.39	2.407
278.76	2.306
279.13	-0.622
279.50	6.092
279.87	4.536
280.23	3.871
280.60	3.899
280.97	4.040
281.34	2.885
281.71	4.928
282.08	3.476
282.45	5.479
282.82	1.931
283.19	5.416
283.56	3.854
283.92	3.036
284.29	3.654
284.66	2.132
285.03	4.715
285.40	3.214
285.77	2.636
286.14	2.166
286.51	6.458
286.87	1.828
287.24	2.947
287.61	4.409
287.98	5.614
288.35	4.679
288.72	4.729
289.08	4.514
289.45	5.624
289.82	5.420
290.19	4.266
290.56	2.230
290.93	2.525
291.29	3.698
291.66	4.094
292.03	6.699
292.40	4.677
292.77	4.306
293.13	2.273
293.50	5.159
293.87	4.427
294.24	5.719
294.60	5.663
294.97	6.548
295.34	4.755
295.71	5.663
296.08	4.036
296.44	4.267
296.81	5.278
297.18	6.812
297.55	5.014
297.91	5.068
298.28	6.332
298.65	5.970
299.02	5.121
299.38	4.104
299.75	5.517
300.12	5.105
300.48	4.875
300.85	7.605
301.22	5.974
301.59	4.079
301.95	5.570
302.32	5.577
302.69	6.343
303.05	7.054
303.42	5.729
303.79	6.776
304.15	6.930
304.52	5.945
304.89	5.848
305.25	7.385
305.62	5.601
305.99	5.965
306.35	5.780
306.72	5.737
307.09	5.245
307.45	7.348
307.82	5.787
308.19	7.201
308.55	6.979
308.92	6.645
309.29	5.922
309.65	6.136
310.02	6.601
310.38	7.684
310.75	6.339
311.12	5.597
311.48	6.681
311.85	6.387
312.22	5.907
312.58	6.369
312.95	6.510
313.31	6.418
313.68	6.911
314.05	6.122
314.41	6.907
314.78	6.907
315.14	8.016
315.51	6.729
315.87	6.967
316.24	7.685
316.61	7.087
316.97	6.845
317.34	6.641
317.70	7.648
318.07	7.404
318.43	6.667
318.80	7.102
319.16	8.594
319.53	7.882
319.89	6.398
320.26	7.794
320.62	9.127
320.99	6.681
321.35	6.989
321.72	8.827
322.08	9.063
322.45	7.919
322.81	8.153
323.18	7.949
323.54	9.266
323.91	8.277
324.27	9.473
324.64	10.393
325.00	11.131
325.37	11.111
325.73	9.610
326.10	10.718
326.46	11.839
326.83	10.586
327.19	11.770
327.56	12.337
327.92	12.764
328.29	12.589
328.65	13.302
329.01	13.143
329.38	14.194
329.74	13.409
330.11	12.697
330.47	14.286
330.84	13.942
331.20	15.970
331.56	14.630
331.93	15.799
332.29	16.132
332.66	16.652
333.02	16.636
333.38	15.215
333.75	15.659
334.11	13.876
334.48	17.679
334.84	16.758
335.20	16.102
335.57	14.778
335.93	17.073
336.29	17.311
336.66	16.621
337.02	15.799
337.38	16.574
337.75	17.000
338.11	16.862
338.47	17.245
338.84	16.636
339.20	17.550
339.56	16.514
339.93	18.800
340.29	17.339
340.65	17.652
341.02	16.578
341.38	17.257
341.74	16.696
342.11	16.378
342.47	16.904
342.83	17.042
343.20	16.463
343.56	15.652
343.92	16.918
344.28	16.994
344.65	17.617
345.01	16.681
345.37	17.241
345.73	18.577
346.10	17.343
346.46	16.569
346.82	16.858
347.19	16.542
347.55	16.708
347.91	15.696
348.27	15.926
348.63	16.099
349.00	16.407
349.36	15.877
349.72	17.164
350.08	15.820
350.45	17.318
350.81	16.030
351.17	15.472
351.53	16.571
351.89	15.194
352.26	15.920
352.62	17.016
352.98	16.145
353.34	15.700
353.70	16.748
354.07	16.371
354.43	16.573
354.79	16.185
355.15	17.460
355.51	16.772
355.87	17.395
356.24	15.334
356.60	16.249
356.96	16.190
357.32	16.534
357.68	15.794
358.04	15.994
358.40	16.720
358.77	17.305
359.13	16.733
359.49	16.102
359.85	16.693
360.21	16.587
360.57	15.455
360.93	16.263
361.29	16.314
361.66	16.614
362.02	16.667
362.38	16.222
362.74	16.427
363.10	15.877
363.46	16.234
363.82	17.506
364.18	16.015
364.54	15.662
364.90	16.344
365.26	16.521
365.62	19.051
365.98	16.422
366.35	16.315
366.71	17.517
367.07	16.618
367.43	16.247
367.79	17.314
368.15	16.726
368.51	16.824
368.87	16.726
369.23	17.040
369.59	16.254
369.95	17.522
370.31	17.558
370.67	17.164
371.03	16.131
371.39	17.870
371.75	16.777
372.11	17.689
372.47	17.678
372.83	17.459
373.19	17.475
373.55	16.895
373.91	17.927
374.27	17.576
374.63	18.090
374.99	17.376
375.35	17.688
375.71	17.832
376.07	17.346
376.42	17.891
376.78	18.591
377.14	17.874
377.50	18.659
377.86	18.541
378.22	17.549
378.58	17.692
378.94	18.399
379.30	17.654
379.66	18.871
380.02	18.516
380.38	17.833
380.74	17.534
381.09	19.018
381.45	18.471
381.81	19.247
382.17	19.416
382.53	18.551
382.89	18.644
383.25	18.731
383.61	19.695
383.97	17.460
384.32	18.449
384.68	19.009
385.04	19.179
385.40	18.731
385.76	19.623
386.12	19.922
386.48	19.732
386.83	19.848
387.19	19.109
387.55	19.448
387.91	20.293
388.27	19.048
388.62	20.138
388.98	19.337
389.34	20.112
389.70	19.764
390.06	18.754
390.42	18.718
390.77	19.228
391.13	18.726
391.49	19.470
391.85	19.818
392.20	19.962
392.56	19.580
392.92	20.376
393.28	20.519
393.64	18.378
393.99	20.564
394.35	18.975
394.71	19.923
395.07	19.296
395.42	19.490
395.78	18.436
396.14	19.987
396.50	20.672
396.85	19.511
397.21	19.674
397.57	18.997
397.92	19.593
398.28	19.598
398.64	19.096
399.00	19.300
399.35	18.284
399.71	19.529
400.07	19.045
400.42	18.115
400.78	19.718
401.14	19.480
401.49	19.178
401.85	18.708
402.21	19.337
402.57	18.812
402.92	18.005
403.28	19.236
403.63	19.357
403.99	18.559
404.35	18.926
404.70	18.214
405.06	18.508
405.42	17.961
405.77	16.793
406.13	17.811
406.49	17.644
406.84	19.193
407.20	18.724
407.55	17.450
407.91	18.048
408.27	17.336
408.62	17.538
408.98	17.498
409.34	18.340
409.69	17.248
410.05	16.933
410.40	18.272
410.76	17.129
411.11	18.062
411.47	18.738
411.83	17.200
412.18	17.761
412.54	18.040
412.89	17.672
413.25	17.389
413.60	17.516
413.96	17.669
414.31	18.232
414.67	17.768
415.03	17.909
415.38	17.624
415.74	17.980
416.09	18.877
416.45	17.826
416.80	18.903
417.16	18.715
417.51	17.722
417.87	17.862
418.22	18.070
418.58	18.261
418.93	18.621
419.29	17.157
419.64	18.600
420.00	19.144
420.35	18.866
420.71	18.469
421.06	18.171
421.42	18.690
421.77	18.208
422.12	18.388
422.48	18.517
422.83	18.677
423.19	18.397
423.54	18.812
423.90	18.551
424.25	19.346
424.61	18.727
424.96	19.396
425.31	19.295
425.67	19.542
426.02	19.317
426.38	19.036
426.73	20.157
427.09	19.937
427.44	20.588
427.79	20.860
428.15	20.510
428.50	20.472
428.85	19.410
429.21	20.996
429.56	21.024
429.92	19.877
430.27	20.551
430.62	20.700
430.98	19.958
431.33	20.400
431.68	20.199
432.04	20.123
432.39	20.422
432.74	20.565
433.10	21.264
433.45	21.266
433.80	21.126
434.16	20.277
434.51	20.699
434.86	21.138
435.22	20.135
435.57	21.148
435.92	20.898
436.28	21.765
436.63	21.563
436.98	20.452
437.34	20.387
437.69	20.990
438.04	20.627
438.39	20.953
438.75	21.494
439.10	21.902
439.45	21.302
439.81	21.774
440.16	21.378
440.51	22.030
440.86	23.142
441.22	21.324
441.57	21.192
441.92	22.298
442.27	21.175
442.63	21.842
442.98	21.884
443.33	21.536
443.68	21.857
444.03	21.759
444.39	21.889
444.74	22.631
445.09	21.771
445.44	22.222
445.79	23.208
446.15	22.026
446.50	20.799
446.85	22.317
447.20	21.794
447.55	22.600
447.91	21.320
448.26	22.254
448.61	22.683
448.96	23.523
449.31	21.734
449.66	22.822
450.02	22.133
450.37	21.992
450.72	22.222
451.07	22.785
451.42	22.659
451.77	22.001
452.12	21.830
452.47	22.086
452.83	21.614
453.18	21.822
453.53	21.997
453.88	22.708
454.23	23.294
454.58	22.733
454.93	22.423
455.28	21.460
455.63	23.559
455.98	23.391
456.34	23.627
456.69	22.745
457.04	23.314
457.39	22.965
457.74	22.310
458.09	22.248
458.44	22.586
458.79	21.737
459.14	23.169
459.49	22.627
459.84	22.617
460.19	24.029
460.54	23.105
460.89	22.898
461.24	22.298
461.59	23.397
461.94	21.824
462.29	23.703
462.64	23.987
462.99	21.801
463.34	22.462
463.69	22.716
464.04	23.184
464.39	22.377
464.74	22.577
465.09	22.396
465.44	23.601
465.79	23.073
466.14	23.090
466.49	21.852
466.84	22.308
467.19	23.091
467.54	22.414
467.89	22.742
468.24	23.418
468.59	23.810
468.94	22.476
469.29	23.475
469.64	23.445
469.99	23.406
470.34	22.253
470.68	23.117
471.03	24.062
471.38	22.825
471.73	23.179
472.08	22.795
472.43	23.423
472.78	22.413
473.13	23.946
473.48	23.583
473.83	24.159
474.17	24.676
474.52	23.803
474.87	24.121
475.22	23.612
475.57	22.925
475.92	24.246
476.27	22.992
476.61	23.148
476.96	22.476
477.31	23.688
477.66	23.202
478.01	23.302
478.36	23.039
478.70	23.600
479.05	23.736
479.40	23.794
479.75	23.879
480.10	23.758
480.45	23.500
480.79	24.220
481.14	24.334
481.49	22.808
481.84	23.359
482.19	23.480
482.53	23.885
482.88	23.675
483.23	23.225
483.58	23.443
483.92	22.798
484.27	22.789
484.62	23.398
484.97	22.968
485.31	23.121
485.66	21.897
486.01	21.980
486.36	21.849
486.70	21.982
487.05	22.158
487.40	22.285
487.75	22.930
488.09	22.960
488.44	23.349
488.79	23.683
489.13	23.958
489.48	23.899
489.83	23.498
490.17	23.730
490.52	23.695
490.87	22.952
491.22	23.400
491.56	24.004
491.91	23.566
492.26	23.821
492.60	23.512
492.95	24.397
493.30	24.035
493.64	24.361
493.99	24.348
494.34	23.301
494.68	23.905
495.03	23.358
495.37	23.945
495.72	23.978
496.07	24.585
496.41	23.538
496.76	23.215
497.11	22.636
497.45	23.914
497.80	23.915
498.14	23.994
498.49	23.616
498.84	24.052
499.18	23.946
499.53	24.058
499.87	23.298
500.22	24.085
500.56	23.954
500.91	23.946
501.26	24.172
501.60	23.758
501.95	24.163
502.29	24.310
502.64	24.083
502.98	23.779
503.33	23.679
503.67	23.855
504.02	25.122
504.36	25.087
504.71	23.889
505.06	24.308
505.40	24.010
505.75	23.814
506.09	24.379
506.44	25.257
506.78	25.051
507.13	24.354
507.47	23.969
507.82	24.038
508.16	25.251
508.51	24.816
508.85	23.757
509.19	23.896
509.54	24.558
509.88	24.973
510.23	24.906
510.57	24.158
510.92	23.881
511.26	24.441
511.61	25.688
511.95	24.329
512.30	25.000
512.64	25.431
512.98	24.649
513.33	25.686
513.67	25.469
514.02	25.286
514.36	26.343
514.70	26.399
515.05	25.558
515.39	25.325
515.74	25.689
516.08	25.523
516.42	26.678
516.77	25.805
517.11	25.460
517.46	25.793
517.80	25.805
518.14	25.352
518.49	25.240
518.83	26.610
519.17	25.288
519.52	24.985
519.86	25.210
520.20	26.245
520.55	24.953
520.89	26.098
521.23	25.966
521.58	27.066
521.92	25.962
522.26	27.196
522.61	27.208
522.95	27.351
523.29	26.302
523.64	26.874
523.98	26.507
524.32	26.869
524.66	27.017
525.01	27.273
525.35	28.386
525.69	27.071
526.04	26.786
526.38	27.497
526.72	26.095
527.06	26.783
527.41	26.913
527.75	26.877
528.09	27.375
528.43	28.494
528.78	26.799
529.12	27.548
529.46	27.160
529.80	28.436
530.15	27.855
530.49	26.936
530.83	28.317
531.17	27.267
531.51	28.796
531.86	27.464
532.20	27.975
532.54	28.046
532.88	28.542
533.22	27.688
533.57	27.588
533.91	26.893
534.25	28.581
534.59	27.261
534.93	27.376
535.27	26.967
535.62	27.868
535.96	27.071
536.30	27.573
536.64	26.947
536.98	26.829
537.32	28.378
537.66	27.560
538.01	28.182
538.35	27.531
538.69	27.696
539.03	27.751
539.37	28.331
539.71	28.016
540.05	27.223
540.39	29.294
540.73	28.522
541.07	29.834
541.42	27.890
541.76	28.355
542.10	28.562
542.44	28.075
542.78	27.254
543.12	27.473
543.46	27.886
543.80	27.897
544.14	28.104
544.48	28.181
544.82	28.161
545.16	28.825
545.50	28.304
545.84	29.958
546.18	29.007
546.52	28.911
546.86	28.541
547.20	28.684
547.54	28.198
547.88	28.397
548.22	28.271
548.56	29.222
548.90	29.111
549.24	28.857
549.58	28.702
549.92	28.234
550.26	28.352
550.60	29.071
550.94	28.379
551.28	28.671
551.62	29.385
551.96	28.120
552.30	28.289
552.64	28.491
552.98	29.325
553.32	28.388
553.66	28.229
554.00	28.102
554.34	30.281
554.68	28.761
555.02	29.018
555.36	29.245
555.69	28.352
556.03	27.480
556.37	28.968
556.71	28.592
557.05	28.710
557.39	28.104
557.73	28.786
558.07	29.336
558.41	28.637
558.75	28.605
559.08	29.236
559.42	29.603
559.76	29.704
560.10	29.128
560.44	27.923
560.78	27.343
561.12	29.126
561.45	28.672
561.79	28.011
562.13	29.099
562.47	27.914
562.81	29.395
563.15	28.702
563.48	28.784
563.82	28.758
564.16	28.900
564.50	26.757
564.84	28.715
565.17	27.565
565.51	29.577
565.85	29.492
566.19	28.581
566.52	28.351
566.86	28.342
567.20	28.456
567.54	27.494
567.88	28.237
568.21	28.337
568.55	27.717
568.89	26.899
569.23	27.540
569.56	27.671
569.90	27.284
570.24	26.200
570.57	26.655
570.91	27.083
571.25	26.340
571.59	26.129
571.92	25.807
572.26	25.694
572.60	25.953
572.93	26.169
573.27	25.392
573.61	26.014
573.95	26.270
574.28	25.397
574.62	25.400
574.96	25.280
575.29	24.886
575.63	24.229
575.97	25.373
576.30	25.443
576.64	25.669
576.98	25.611
577.31	25.485
577.65	25.550
577.98	24.789
578.32	24.859
578.66	24.565
578.99	25.012
579.33	25.306
579.67	25.032
580.00	25.772
580.34	25.746
580.67	25.247
581.01	25.264
581.35	25.237
581.68	25.153
582.02	24.867
582.35	24.754
582.69	24.757
583.02	24.952
583.36	24.935
583.70	25.727
584.03	26.355
584.37	26.256
584.70	25.302
585.04	25.285
585.37	25.111
585.71	25.327
586.04	25.139
586.38	25.393
586.72	25.882
587.05	25.852
587.39	26.111
587.72	26.709
588.06	25.547
588.39	25.776
588.73	26.648
589.06	26.647
589.40	26.443
589.73	26.835
590.07	27.228
590.40	26.548
590.73	27.142
591.07	27.269
591.40	26.937
591.74	27.602
592.07	27.134
592.41	27.032
592.74	26.444
593.08	25.742
593.41	26.030
593.75	26.595
594.08	25.712
594.41	26.638
594.75	26.336
595.08	25.955
595.42	26.500
595.75	26.474
596.09	26.935
596.42	26.995
596.75	27.309
597.09	26.515
597.42	27.733
597.75	26.065
598.09	26.981
598.42	26.218
598.76	25.826
599.09	25.521
599.42	25.729
599.76	25.696
600.09	26.395
600.42	26.573
600.76	26.077
601.09	25.878
601.42	26.204
601.76	26.598
602.09	25.990
602.42	26.748
602.76	26.740
603.09	26.537
603.42	26.923
603.76	26.210
604.09	25.678
604.42	26.184
604.76	26.658
605.09	27.239
605.42	26.546
605.75	26.051
606.09	26.454
606.42	26.063
606.75	26.667
607.09	26.242
607.42	25.919
607.75	26.687
608.08	25.831
608.42	26.405
608.75	26.795
609.08	26.756
609.41	26.497
609.75	26.613
610.08	27.459
610.41	26.232
610.74	26.865
611.07	27.700
611.41	27.141
611.74	26.706
612.07	26.820
612.40	26.751
612.73	27.401
613.07	26.378
613.40	27.462
613.73	27.084
614.06	27.602
614.39	27.298
614.72	26.106
615.06	27.039
615.39	26.528
615.72	26.480
616.05	27.263
616.38	27.179
616.71	26.667
617.05	27.980
617.38	27.593
617.71	28.428
618.04	27.873
618.37	28.436
618.70	27.789
619.03	28.750
619.36	27.569
619.69	27.976
620.03	29.364
620.36	27.182
620.69	28.408
621.02	27.829
621.35	28.714
621.68	30.697
622.01	28.917
622.34	27.853
622.67	29.259
623.00	28.484
623.33	28.582
623.66	28.347
623.99	27.912
624.32	28.137
624.65	27.444
624.99	28.743
625.32	27.748
625.65	29.379
625.98	28.445
626.31	27.847
626.64	30.069
626.97	29.058
627.30	29.772
627.63	28.596
627.96	29.919
628.29	29.695
628.62	29.597
628.95	28.758
629.28	28.327
629.61	29.312
629.94	30.694
630.26	28.261
630.59	30.593
630.92	29.333
631.25	30.154
631.58	29.846
631.91	30.263
632.24	31.078
632.57	31.932
632.90	31.079
633.23	31.059
633.56	31.486
633.89	29.346
634.22	32.469
634.55	30.750
634.88	32.312
635.20	30.513
635.53	31.733
635.86	31.209
636.19	30.660
636.52	30.102
636.85	30.521
637.18	29.937
637.51	30.566
637.83	30.223
638.16	31.787
638.49	30.109
638.82	30.921
639.15	30.801
639.48	31.637
639.81	31.520
640.13	30.447
640.46	33.819
640.79	29.750
641.12	32.201
641.45	30.480
641.77	31.852
642.10	32.070
642.43	32.154
642.76	34.488
643.09	31.664
643.41	31.230
643.74	31.301
644.07	32.020
644.40	34.966
644.73	32.574
645.05	30.872
645.38	32.275
645.71	33.156
646.04	33.393
646.36	32.624
646.69	34.532
647.02	33.837
647.35	32.090
647.67	32.541
648.00	35.821
648.33	33.276
648.66	34.237
648.98	29.481
649.31	30.579
649.64	29.513
649.96	30.956
650.29	30.835
650.62	33.846
650.94	32.963
651.27	31.844
651.60	33.874
651.92	32.517
652.25	29.307
652.58	30.833
652.90	35.334
653.23	32.269
653.56	30.964
653.88	30.241
654.21	30.123
654.54	29.711
654.86	32.598
655.19	29.971
655.52	28.251
655.84	23.064
656.17	25.811
656.49	34.541
656.82	36.678
657.15	28.159
657.47	21.233
657.80	15.934
658.13	16.001
658.45	24.667
658.78	25.662
659.10	25.505
659.43	26.618
659.75	27.380
660.08	27.724
660.41	31.461
660.73	30.663
661.06	32.756
661.38	34.442
661.71	30.185
662.03	35.837
662.36	35.165
662.68	31.637
663.01	35.153
663.33	29.234
663.66	31.163
663.98	33.953
664.31	32.623
664.63	29.724
664.96	29.783
665.28	30.022
665.61	33.550
665.93	31.522
666.26	34.056
666.58	32.662
666.91	32.235
667.23	35.142
667.56	31.991
667.88	32.854
668.21	33.652
668.53	34.279
668.86	32.075
669.18	32.783
669.50	31.477
669.83	29.535
670.15	31.702
670.48	33.493
670.80	34.101
671.13	30.649
671.45	30.137
671.77	33.047
672.10	32.079
672.42	31.086
672.75	28.242
673.07	31.664
673.39	32.110
673.72	26.036
674.04	31.250
674.37	32.627
674.69	31.692
675.01	33.333
675.34	32.883
675.66	34.722
675.98	31.929
676.31	31.881
676.63	30.641
676.95	28.864
677.28	33.647
677.60	32.530
677.92	33.028
678.25	31.729
678.57	30.952
678.89	31.723
679.22	32.215
679.54	28.514
679.86	29.026
680.18	31.845
680.51	29.924
680.83	28.231
681.15	31.200
681.48	31.557
681.80	31.405
682.12	30.444
682.44	29.079
682.77	32.671
683.09	28.375
683.41	33.182
683.73	32.028
684.06	31.637
684.38	28.817
684.70	32.898
685.02	29.668
685.34	29.644
685.67	30.206
685.99	29.114
686.31	29.381
686.63	31.540
686.96	27.947
687.28	28.081
687.60	28.137
687.92	32.121
688.24	29.839
688.56	31.004
688.89	30.357
689.21	31.333
689.53	30.858
689.85	30.930
690.17	29.911
690.49	32.388
690.82	29.369
691.14	35.476
691.46	28.271
691.78	29.505
692.10	30.108
692.42	31.385
692.74	31.410
693.06	30.405
693.39	27.149
693.71	26.923
694.03	30.716
694.35	32.477
694.67	32.071
694.99	30.287
695.31	33.159
695.63	32.500
695.95	28.535
696.27	27.461
696.59	33.056
696.91	31.373
697.23	28.278
697.56	28.960
697.88	30.108
698.20	30.752
698.52	31.059
698.84	28.469
699.16	32.750
699.48	30.576
699.80	31.266
700.12	32.075
700.44	33.613
700.76	31.395
701.08	30.303
701.40	32.831
701.72	34.259
702.04	32.673
702.36	31.104
702.68	26.426
703.00	32.727
703.32	28.152
703.64	29.661
703.96	33.333
704.28	29.141
704.60	31.111
704.91	31.230
705.23	29.236
705.55	36.396
705.87	35.379
706.19	31.852
706.51	32.302
706.83	34.084
707.15	28.972
707.47	30.812
707.79	29.688
708.11	28.000
708.43	31.000
708.74	31.008
709.06	32.113
709.38	31.498
709.70	29.882
710.02	34.076
710.34	34.675
710.66	29.487
710.98	29.801
711.29	35.410
711.61	28.475
711.93	33.876
712.25	36.082
712.57	33.333
712.89	30.224
713.20	37.024
713.52	32.404
713.84	30.034
714.16	28.522
714.48	28.065
714.80	33.974
715.11	28.267
715.43	27.273
715.75	31.333
716.07	31.894
716.39	32.886
716.70	28.044
717.02	32.824
717.34	34.008
717.66	27.876
717.97	28.261
718.29	35.565
718.61	36.614
718.93	30.620
719.24	33.080
719.56	33.735
719.88	31.271
720.20	30.682
720.51	32.950
720.83	33.205
721.15	32.353
721.46	29.032
721.78	27.273
722.10	28.625
722.42	28.216
722.73	29.796
723.05	33.878
723.37	36.017
723.68	34.685
724.00	32.906
724.32	27.556
724.63	31.818
724.95	30.568
725.27	32.258
725.58	33.475
725.90	30.159
726.22	32.819
726.53	32.542
726.85	31.461
727.16	31.698
727.48	29.150
727.80	34.818
728.11	30.932
728.43	29.020
728.74	27.419
729.06	28.000
729.38	35.714
729.69	27.888
730.01	31.923
730.32	31.343
730.64	30.742
730.96	32.075
731.27	27.667
731.59	27.458
731.90	26.115
732.22	29.022
732.53	32.558
732.85	33.688
733.16	31.313
733.48	26.259
733.80	25.725
734.11	27.797
734.43	28.522
734.74	29.091
735.06	25.081
735.37	27.795
735.69	28.620
736.00	27.526
736.32	28.523
736.63	29.930
736.95	30.375
737.26	26.335
737.58	28.859
737.89	27.839
738.21	27.820
738.52	28.395
738.83	30.568
739.15	29.258
739.46	32.677
739.78	28.938
740.09	27.124
740.41	31.159
740.72	30.709
741.04	33.198
741.35	29.787
741.66	32.227
741.98	35.714
742.29	31.188
742.61	28.272
742.92	27.488
743.23	25.000
743.55	33.032
743.86	30.144
744.18	30.622
744.49	30.319
744.80	23.913
745.12	44.385
745.43	32.683
745.74	36.979
746.06	32.195
746.37	30.890
746.68	35.071
747.00	25.000
747.31	29.353
747.62	33.981
747.94	33.014
748.25	25.743
748.56	27.869
748.88	29.319
749.19	35.638
749.50	28.571
749.82	21.698
750.13	30.734
750.44	30.075
750.75	33.209
751.07	32.847
751.38	31.418
751.69	33.333
752.01	31.395
752.32	31.873
752.63	26.877
752.94	26.724
753.26	37.657
753.57	27.149
753.88	27.434
754.19	25.833
754.51	27.273
754.82	27.530
755.13	35.000
755.44	30.645
755.75	32.812
756.07	28.016
756.38	26.038
756.69	25.287
757.00	26.333
757.31	27.451
757.63	22.866
757.94	26.389
758.25	23.288
758.56	25.532
758.87	23.229
759.18	31.153
759.50	26.182
759.81	31.438
760.12	28.065
760.43	30.000
760.74	25.309
761.05	28.308
761.36	26.136
761.67	26.667
761.99	30.612
762.30	25.455
762.61	27.273
762.92	29.412
763.23	28.829
763.54	22.897
763.85	28.390
764.16	25.311
764.47	27.016
764.78	28.571
765.10	26.936
765.41	24.290
765.72	23.810
766.03	25.564
766.34	33.212
766.65	30.279
766.96	28.788
767.27	28.723
767.58	27.011
767.89	20.567
768.20	28.977
768.51	27.473
768.82	30.049
769.13	25.346
769.44	28.326
769.75	26.484
770.06	30.172
770.37	30.288
770.68	28.426
770.99	30.769
771.30	32.843
771.61	28.054
771.92	30.603
772.23	31.034
772.54	29.032
772.85	33.333
773.16	37.079
773.47	33.987
773.78	35.948
774.09	29.341
774.39	25.333
774.70	27.389
775.01	36.552
775.32	37.143
775.63	28.099
775.94	22.901
776.25	25.197
776.56	30.000
776.87	34.615
777.18	28.205
777.48	34.483
777.79	36.522
778.10	25.714
778.41	29.730
778.72	29.365
779.03	24.060
779.34	31.915
779.65	28.767
779.95	23.973
780.26	28.276
780.57	20.325
780.88	26.772
781.19	28.448
781.50	36.434
781.80	28.994
782.11	23.899
782.42	36.154
782.73	28.058
783.04	26.667
783.34	26.389
783.65	19.658
783.96	36.885
784.27	33.793
784.57	26.829
784.88	37.500
785.19	34.000
785.50	42.000
785.81	33.621
786.11	20.690
786.42	14.563
786.73	44.545
787.04	20.408
787.34	25.000
787.65	28.571
787.96	25.664
788.26	27.273
788.57	24.786
788.88	26.563
789.19	23.016
789.49	28.696
789.80	27.551
790.11	28.283
790.41	34.545
790.72	50.000
791.03	34.091
791.33	40.000
791.64	32.500
791.95	33.721
792.25	28.723
792.56	30.337
792.87	23.288
793.17	44.928
793.48	16.000
793.79	30.000
794.09	35.000
794.40	20.755
794.70	28.155
795.01	20.325
795.32	26.496
795.62	24.762
795.93	31.373
796.23	30.189
796.54	34.375
796.85	51.471
797.15	36.620
797.46	40.278
797.76	40.909
798.07	16.279
798.37	18.421
798.68	19.697
798.99	20.988
799.29	34.286
799.60	34.783
799.90	29.333
800.21	37.705
800.51	30.769
800.82	35.593
801.12	28.986
801.43	39.344
801.73	38.095
802.04	28.000
802.34	23.881
802.65	48.077
802.95	10.714
803.26	19.231
803.56	33.333
803.87	30.435
804.17	17.333
804.48	42.857
804.78	16.667
805.09	21.739
805.39	17.778
805.70	44.444
806.00	21.053
806.30	29.577
806.61	34.286
806.91	13.889
807.22	26.316
807.52	33.333
807.83	16.364
808.13	37.500
808.43	29.412
808.74	28.358
809.04	44.068
809.35	48.077
809.65	35.938
809.95	5.405
810.26	18.182
810.56	21.918
810.86	35.714
811.17	42.000
811.47	51.020
811.77	23.684
812.08	34.091
812.38	39.623
812.69	27.500
812.99	36.364
813.29	34.211
813.59	0.000
813.90	38.636
814.20	23.077
814.50	36.538
814.81	33.962
815.11	12.766
815.41	32.203
815.72	16.667
816.02	37.255
816.32	27.083
816.62	34.146
816.93	13.514
817.23	42.857
817.53	45.833
817.84	28.261
818.14	32.692
818.44	28.947
818.74	52.174
819.04	7.500
819.35	29.730
819.65	41.176
819.95	50.000
820.25	42.857
820.56	67.500
820.86	-20.690
821.16	62.500
821.46	14.894
821.76	42.500
822.07	20.930
822.37	0.000
822.67	50.000
822.97	54.762
823.27	17.857
823.57	52.000
823.88	25.926
824.18	39.286
824.48	58.824
824.78	29.032
825.08	56.522
825.38	42.424
825.69	20.833
825.99	55.263
826.29	22.222
826.59	-6.667
826.89	33.333
827.19	47.826
827.49	30.000
827.79	42.857
828.09	60.714
828.39	39.394
828.70	64.865
829.00	39.286
829.30	23.810
829.60	26.667
829.90	71.875
830.20	7.895
830.50	25.926
830.80	65.217
831.10	27.273
831.40	60.606
831.70	54.839
832.00	57.143
832.30	-42.857
832.60	33.333
832.90	10.345
833.20	-5.000
833.50	63.636
833.80	-22.222
834.10	30.769
834.40	62.500
834.70	100.000
835.00	21.053
835.30	65.385
835.60	113.333
835.90	12.903
836.20	50.000
836.50	21.429
836.80	3.846
837.10	28.571
837.40	233.333
837.70	18.182
838.00	27.273
838.30	47.826
838.60	53.846
838.90	50.000
839.19	50.000
839.49	20.000
839.79	53.846
840.09	-16.667
840.39	50.000
840.69	53.571
840.99	-3.846
841.29	-47.368
841.59	-60.000
841.88	100.000
842.18	60.000
842.48	18.750
842.78	86.667
843.08	70.370
843.38	40.000
843.68	82.609
843.97	153.333
844.27	-26.667
844.57	45.000
844.87	22.222
845.17	23.810
845.47	26.667
845.76	23.810
846.06	5.882
846.36	0.000
846.66	50.000
846.96	46.667
847.25	-37.500
847.55	85.714
847.85	25.000
848.15	22.727
848.44	-366.667
848.74	15.000
849.04	29.630
849.34	100.000
849.63	183.333
849.93	-120.000
850.23	55.556
850.53	200.000
850.82	-7.692
851.12	-33.333
851.42	53.333
851.71	30.769
852.01	114.286
852.31	-125.000
852.61	36.364
852.90	25.000
853.20	26.316
853.50	8.333
853.79	43.478
854.09	58.333
854.39	36.842
854.68	20.833
854.98	48.387
855.28	84.615
855.57	70.000
855.87	50.000
856.17	66.667
856.46	64.286
856.76	-40.000
857.05	22.222
857.35	68.000
857.65	0.000
857.94	15.385
858.24	100.000
858.53	66.667
858.83	51.852
859.13	36.364
859.42	43.478
859.72	125.000
860.01	0.000
860.31	64.000
860.60	19.048
860.90	200.000
861.20	-20.000
861.49	-300.000
861.79	-46.667
862.08	50.000
862.38	126.667
862.67	-120.000
862.97	150.000
863.26	58.333
863.56	83.333
863.85	-166.667
864.15	44.444
864.44	-40.000
864.74	14.286
865.03	300.000
865.33	40.000
865.62	150.000
865.92	50.000
866.21	150.000
866.51	112.500
866.80	36.364
867.10	-200.000
867.39	158.333
867.69	0.000
867.98	76.923
868.27	-166.667
868.57	26.667
868.86	77.778
869.16	-69.231
869.45	26.667
869.75	-500.000
870.04	0.000
870.33	-57.143
870.63	42.857
870.92	166.667
871.22	100.000
871.51	100.000
871.80	155.556
872.10	-133.333
>>>>>End Processed Spectral Data<<<<<
