SpectraSuite Data File
++++++++++++++++++++++++++++++++++++
Date: Fri May 15 20:14:39 PDT 2015
User: schluterlab
Dark Spectrum Present: Yes
Reference Spectrum Present: Yes
Number of Sampled Component Spectra: 1
Spectrometers: USB2E3373
Integration Time (usec): 3000 (USB2E3373)
Spectra Averaged: 3 (USB2E3373)
Boxcar Smoothing: 0 (USB2E3373)
Correct for Electrical Dark: No (USB2E3373)
Strobe/Lamp Enabled: No (USB2E3373)
Correct for Detector Non-linearity: No (USB2E3373)
Correct for Stray Light: No (USB2E3373)
Number of Pixels in Processed Spectrum: 2048
>>>>>Begin Processed Spectral Data<<<<<
178.53	0.000
178.91	0.000
179.29	25.000
179.67	0.000
180.04	-28.571
180.42	75.000
180.80	500.000
181.18	100.000
181.56	300.000
181.94	-250.000
182.31	-0.000
182.69	-80.000
183.07	-66.667
183.45	20.000
183.83	-16.667
184.20	-18.182
184.58	22.222
184.96	-100.000
185.34	-66.667
185.72	-400.000
186.09	46.154
186.47	-100.000
186.85	250.000
187.23	77.778
187.61	-600.000
187.98	-33.333
188.36	88.889
188.74	-33.333
189.12	29.412
189.49	33.333
189.87	0.000
190.25	64.286
190.63	200.000
191.00	266.667
191.38	-5.263
191.76	-100.000
192.14	-125.000
192.51	-50.000
192.89	133.333
193.27	-71.429
193.65	-0.000
194.02	109.091
194.40	30.000
194.78	-162.500
195.15	8.333
195.53	75.000
195.91	100.000
196.29	50.000
196.66	107.692
197.04	100.000
197.42	-33.333
197.79	-633.333
198.17	-76.923
198.55	900.000
198.92	0.000
199.30	100.000
199.68	20.000
200.05	-300.000
200.43	0.000
200.81	-100.000
201.18	-33.333
201.56	500.000
201.94	50.000
202.31	-333.333
202.69	-140.000
203.07	50.000
203.44	700.000
203.82	0.000
204.19	28.571
204.57	0.000
204.95	187.500
205.32	-20.000
205.70	114.286
206.08	50.000
206.45	144.444
206.83	100.000
207.20	14.286
207.58	300.000
207.96	100.000
208.33	-40.000
208.71	-50.000
209.08	-166.667
209.46	-700.000
209.84	100.000
210.21	-500.000
210.59	85.714
210.96	33.333
211.34	25.000
211.71	133.333
212.09	-14.286
212.46	-700.000
212.84	0.000
213.22	70.000
213.59	400.000
213.97	30.769
214.34	18.182
214.72	-83.333
215.09	375.000
215.47	23.077
215.84	-36.364
216.22	-300.000
216.59	-150.000
216.97	-50.000
217.34	-75.000
217.72	-100.000
218.09	25.000
218.47	275.000
218.84	600.000
219.22	-11.111
219.59	-20.000
219.97	-66.667
220.34	100.000
220.72	0.000
221.09	-225.000
221.47	300.000
221.84	-750.000
222.22	-350.000
222.59	63.636
222.97	-25.000
223.34	0.000
223.72	35.714
224.09	19.048
224.46	7.143
224.84	33.333
225.21	60.000
225.59	46.667
225.96	-300.000
226.34	400.000
226.71	-42.857
227.08	-33.333
227.46	0.000
227.83	-450.000
228.21	66.667
228.58	-9.091
228.95	-162.500
229.33	50.000
229.70	25.000
230.08	-125.000
230.45	-71.429
230.82	85.714
231.20	80.000
231.57	28.571
231.95	71.429
232.32	-10.000
232.69	92.857
233.07	233.333
233.44	-120.000
233.81	-150.000
234.19	-66.667
234.56	47.059
234.93	-0.000
235.31	150.000
235.68	-80.000
236.05	0.000
236.43	5.000
236.80	-11.765
237.17	28.125
237.55	25.000
237.92	7.407
238.29	5.556
238.67	3.333
239.04	38.235
239.41	-21.951
239.79	-23.333
240.16	-2.439
240.53	-13.158
240.91	-2.174
241.28	-1.587
241.65	12.500
242.02	9.589
242.40	5.000
242.77	-13.559
243.14	-13.636
243.51	6.250
243.89	16.092
244.26	-1.149
244.63	2.381
245.00	6.186
245.38	2.062
245.75	-13.483
246.12	-2.586
246.49	6.612
246.87	1.923
247.24	-8.403
247.61	-10.526
247.98	-8.130
248.36	1.875
248.73	-1.974
249.10	1.299
249.47	-0.633
249.84	-1.961
250.22	2.941
250.59	-3.268
250.96	7.981
251.33	-4.070
251.70	-3.529
252.08	-2.030
252.45	-1.485
252.82	1.508
253.19	5.530
253.56	-4.673
253.94	2.252
254.31	4.348
254.68	2.632
255.05	0.394
255.42	0.000
255.79	4.247
256.16	5.837
256.54	4.104
256.91	3.042
257.28	1.115
257.65	0.375
258.02	-1.064
258.39	1.684
258.76	4.029
259.14	1.993
259.51	4.854
259.88	-1.375
260.25	-0.980
260.62	0.347
260.99	-3.051
261.36	-1.027
261.73	1.582
262.10	1.520
262.47	-1.534
262.85	-0.627
263.22	1.846
263.59	1.246
263.96	4.037
264.33	2.424
264.70	0.893
265.07	-2.679
265.44	1.700
265.81	3.672
266.18	0.820
266.55	3.085
266.92	1.554
267.29	1.828
267.66	2.302
268.03	2.880
268.40	1.567
268.77	5.882
269.14	3.837
269.51	3.856
269.88	2.244
270.25	1.020
270.62	-0.976
270.99	-1.535
271.36	0.489
271.73	4.225
272.10	2.190
272.47	-0.709
272.84	1.980
273.21	5.800
273.58	1.928
273.95	2.288
274.32	0.462
274.69	-0.452
275.06	2.902
275.43	1.134
275.80	1.987
276.17	-1.149
276.54	1.499
276.91	2.632
277.28	0.437
277.65	1.860
278.02	0.851
278.39	-0.438
278.76	0.210
279.13	-2.490
279.50	2.521
279.87	0.648
280.23	0.430
280.60	3.119
280.97	0.404
281.34	1.154
281.71	4.312
282.08	0.204
282.45	0.196
282.82	-0.386
283.19	2.515
283.56	1.734
283.92	-0.759
284.29	1.731
284.66	-0.775
285.03	0.000
285.40	2.647
285.77	-1.230
286.14	1.805
286.51	2.583
286.87	0.548
287.24	1.105
287.61	0.353
287.98	3.684
288.35	-0.173
288.72	2.802
289.08	1.910
289.45	2.636
289.82	0.350
290.19	0.512
290.56	0.343
290.93	1.010
291.29	2.465
291.66	2.677
292.03	1.276
292.40	2.097
292.77	1.435
293.13	-0.649
293.50	1.517
293.87	3.359
294.24	2.937
294.60	0.894
294.97	2.976
295.34	1.840
295.71	2.235
296.08	-0.149
296.44	-0.853
296.81	1.806
297.18	0.725
297.55	3.117
297.91	1.370
298.28	3.430
298.65	1.764
299.02	2.426
299.38	0.547
299.75	0.828
300.12	2.749
300.48	0.791
300.85	2.281
301.22	1.558
301.59	0.658
301.95	2.405
302.32	5.058
302.69	0.622
303.05	1.485
303.42	1.619
303.79	2.687
304.15	2.389
304.52	0.713
304.89	1.754
305.25	1.816
305.62	1.867
305.99	2.924
306.35	1.965
306.72	1.912
307.09	2.851
307.45	2.755
307.82	2.083
308.19	3.484
308.55	4.035
308.92	4.139
309.29	1.564
309.65	3.660
310.02	3.190
310.38	4.501
310.75	4.044
311.12	4.090
311.48	3.287
311.85	4.921
312.22	4.852
312.58	5.626
312.95	5.123
313.31	4.762
313.68	4.921
314.05	6.531
314.41	6.186
314.78	5.567
315.14	7.400
315.51	6.211
315.87	7.787
316.24	8.392
316.61	7.776
316.97	7.242
317.34	6.836
317.70	8.222
318.07	9.038
318.43	8.529
318.80	8.049
319.16	8.887
319.53	10.541
319.89	8.760
320.26	10.729
320.62	11.635
320.99	10.125
321.35	10.380
321.72	12.253
322.08	12.085
322.45	12.690
322.81	12.967
323.18	14.524
323.54	15.058
323.91	15.579
324.27	16.113
324.64	18.071
325.00	18.339
325.37	18.916
325.73	18.948
326.10	21.253
326.46	22.691
326.83	23.885
327.19	24.935
327.56	26.238
327.92	26.849
328.29	26.875
328.65	29.057
329.01	29.412
329.38	30.415
329.74	31.350
330.11	30.862
330.47	31.262
330.84	33.654
331.20	35.361
331.56	34.259
331.93	36.164
332.29	36.480
332.66	35.023
333.02	36.431
333.38	36.755
333.75	38.095
334.11	35.631
334.48	38.441
334.84	38.736
335.20	39.250
335.57	38.803
335.93	39.115
336.29	40.239
336.66	40.145
337.02	39.033
337.38	39.537
337.75	39.182
338.11	40.848
338.47	41.971
338.84	41.128
339.20	42.139
339.56	41.651
339.93	41.092
340.29	41.743
340.65	42.473
341.02	40.603
341.38	39.823
341.74	39.576
342.11	39.428
342.47	41.904
342.83	42.215
343.20	40.941
343.56	41.478
343.92	41.275
344.28	42.101
344.65	41.623
345.01	41.573
345.37	40.454
345.73	41.925
346.10	42.105
346.46	40.706
346.82	41.080
347.19	39.651
347.55	41.437
347.91	40.372
348.27	40.582
348.63	41.397
349.00	40.689
349.36	40.815
349.72	41.459
350.08	41.475
350.45	41.181
350.81	41.362
351.17	41.368
351.53	42.122
351.89	40.462
352.26	40.400
352.62	42.177
352.98	41.124
353.34	41.143
353.70	40.210
354.07	40.968
354.43	40.833
354.79	42.692
355.15	41.111
355.51	41.377
355.87	41.505
356.24	41.272
356.60	42.684
356.96	41.270
357.32	42.252
357.68	40.500
358.04	40.145
358.40	41.318
358.77	42.903
359.13	41.473
359.49	41.988
359.85	42.668
360.21	40.989
360.57	40.933
360.93	41.831
361.29	41.314
361.66	42.006
362.02	42.500
362.38	43.641
362.74	42.165
363.10	43.341
363.46	42.772
363.82	44.478
364.18	41.993
364.54	40.882
364.90	42.796
365.26	42.504
365.62	42.993
365.98	43.109
366.35	44.064
366.71	43.163
367.07	43.106
367.43	43.063
367.79	42.191
368.15	43.503
368.51	43.190
368.87	44.508
369.23	43.538
369.59	44.534
369.95	44.282
370.31	44.292
370.67	43.507
371.03	43.615
371.39	43.910
371.75	43.443
372.11	44.294
372.47	44.083
372.83	44.074
373.19	43.367
373.55	44.549
373.91	44.564
374.27	45.074
374.63	45.226
374.99	43.759
375.35	45.613
375.71	45.734
376.07	43.610
376.42	45.442
376.78	44.832
377.14	46.107
377.50	45.883
377.86	45.984
378.22	45.118
378.58	46.346
378.94	44.865
379.30	45.976
379.66	47.085
380.02	46.168
380.38	46.500
380.74	45.961
381.09	47.239
381.45	46.116
381.81	46.761
382.17	47.398
382.53	47.408
382.89	46.642
383.25	48.164
383.61	47.805
383.97	46.476
384.32	46.779
384.68	48.483
385.04	47.059
385.40	47.418
385.76	48.679
386.12	48.189
386.48	48.914
386.83	48.890
387.19	47.924
387.55	48.996
387.91	48.778
388.27	48.718
388.62	49.276
388.98	48.250
389.34	48.470
389.70	48.975
390.06	48.206
390.42	48.251
390.77	49.444
391.13	48.487
391.49	50.129
391.85	49.903
392.20	49.027
392.56	48.506
392.92	48.268
393.28	49.057
393.64	49.129
393.99	49.781
394.35	49.526
394.71	49.936
395.07	49.214
395.42	48.452
395.78	48.860
396.14	48.361
396.50	50.856
396.85	50.547
397.21	49.311
397.57	48.589
397.92	48.772
398.28	49.828
398.64	47.892
399.00	50.113
399.35	49.266
399.71	49.282
400.07	49.395
400.42	49.327
400.78	49.969
401.14	48.094
401.49	48.719
401.85	49.604
402.21	49.759
402.57	49.687
402.92	47.491
403.28	49.937
403.63	49.874
403.99	49.554
404.35	50.531
404.70	47.440
405.06	49.236
405.42	48.912
405.77	49.448
406.13	49.360
406.49	48.727
406.84	49.572
407.20	49.488
407.55	48.487
407.91	49.733
408.27	48.438
408.62	49.600
408.98	48.306
409.34	48.823
409.69	46.964
410.05	48.276
410.40	49.198
410.76	49.276
411.11	48.937
411.47	49.244
411.83	48.462
412.18	49.936
412.54	47.690
412.89	47.845
413.25	49.639
413.60	50.124
413.96	48.589
414.31	48.171
414.67	49.519
415.03	48.269
415.38	48.238
415.74	50.033
416.09	49.249
416.45	49.426
416.80	49.240
417.16	50.691
417.51	49.300
417.87	48.761
418.22	50.777
418.58	49.565
418.93	49.843
419.29	48.720
419.64	50.551
420.00	50.567
420.35	49.493
420.71	49.453
421.06	50.031
421.42	50.120
421.77	50.636
422.12	50.227
422.48	49.432
422.83	50.464
423.19	50.000
423.54	50.676
423.90	49.823
424.25	50.861
424.61	50.551
424.96	49.535
425.31	51.069
425.67	50.880
426.02	51.413
426.38	52.160
426.73	51.090
427.09	52.089
427.44	52.176
427.79	52.328
428.15	50.607
428.50	52.453
428.85	51.290
429.21	51.839
429.56	52.830
429.92	51.104
430.27	50.677
430.62	50.810
430.98	53.025
431.33	52.313
431.68	51.125
432.04	52.264
432.39	52.139
432.74	51.293
433.10	52.414
433.45	52.987
433.80	52.409
434.16	51.690
434.51	51.720
434.86	53.310
435.22	52.496
435.57	53.899
435.92	53.832
436.28	52.355
436.63	53.337
436.98	51.564
437.34	52.632
437.69	53.846
438.04	52.308
438.39	52.779
438.75	55.009
439.10	53.424
439.45	54.230
439.81	52.966
440.16	54.572
440.51	54.269
440.86	56.012
441.22	53.790
441.57	53.753
441.92	55.404
442.27	54.601
442.63	54.443
442.98	54.624
443.33	53.200
443.68	53.581
444.03	54.098
444.39	53.812
444.74	54.404
445.09	54.844
445.44	54.872
445.79	55.802
446.15	54.956
446.50	54.742
446.85	54.623
447.20	53.910
447.55	54.743
447.91	54.540
448.26	55.777
448.61	55.440
448.96	56.512
449.31	55.491
449.66	54.472
450.02	54.877
450.37	55.602
450.72	55.326
451.07	55.570
451.42	54.806
451.77	56.178
452.12	54.844
452.47	55.763
452.83	56.419
453.18	55.218
453.53	56.068
453.88	55.981
454.23	56.484
454.58	56.738
454.93	56.443
455.28	54.730
455.63	55.797
455.98	56.645
456.34	55.428
456.69	57.116
457.04	55.135
457.39	55.832
457.74	56.651
458.09	54.797
458.44	55.178
458.79	55.182
459.14	56.751
459.49	57.493
459.84	55.048
460.19	56.189
460.54	57.029
460.89	56.250
461.24	56.460
461.59	56.651
461.94	54.906
462.29	55.911
462.64	56.213
462.99	56.804
463.34	56.050
463.69	56.113
464.04	56.719
464.39	55.609
464.74	56.380
465.09	57.080
465.44	56.607
465.79	55.442
466.14	56.842
466.49	56.987
466.84	55.800
467.19	56.758
467.54	55.109
467.89	57.423
468.24	57.360
468.59	59.175
468.94	57.333
469.29	57.443
469.64	57.075
469.99	59.425
470.34	58.703
470.68	58.016
471.03	59.236
471.38	57.917
471.73	58.403
472.08	57.259
472.43	57.718
472.78	57.162
473.13	58.231
473.48	57.459
473.83	57.036
474.17	58.873
474.52	58.073
474.87	58.424
475.22	57.840
475.57	57.199
475.92	57.488
476.27	58.091
476.61	59.028
476.96	58.003
477.31	58.031
477.66	58.539
478.01	58.843
478.36	57.516
478.70	59.978
479.05	58.901
479.40	58.453
479.75	58.290
480.10	57.757
480.45	59.450
480.79	58.560
481.14	59.887
481.49	58.571
481.84	58.687
482.19	58.653
482.53	58.705
482.88	57.804
483.23	57.821
483.58	58.679
483.92	57.793
484.27	57.748
484.62	58.539
484.97	57.670
485.31	57.189
485.66	55.159
486.01	56.060
486.36	55.199
486.70	56.739
487.05	56.600
487.40	57.161
487.75	57.042
488.09	56.706
488.44	57.875
488.79	58.312
489.13	58.413
489.48	60.068
489.83	59.417
490.17	58.562
490.52	59.538
490.87	58.815
491.22	60.029
491.56	59.630
491.91	58.078
492.26	60.039
492.60	59.933
492.95	61.485
493.30	58.867
493.64	60.314
493.99	59.324
494.34	59.320
494.68	59.810
495.03	59.805
495.37	60.206
495.72	60.777
496.07	60.976
496.41	59.387
496.76	59.788
497.11	59.711
497.45	60.000
497.80	61.049
498.14	59.513
498.49	60.589
498.84	59.930
499.18	60.793
499.53	60.714
499.87	59.436
500.22	60.584
500.56	61.271
500.91	59.789
501.26	60.208
501.60	60.157
501.95	60.456
502.29	60.339
502.64	60.618
502.98	60.237
503.33	59.558
503.67	60.964
504.02	61.193
504.36	61.801
504.71	61.919
505.06	59.940
505.40	61.777
505.75	61.959
506.09	60.517
506.44	62.218
506.78	61.429
507.13	61.944
507.47	60.731
507.82	61.645
508.16	61.701
508.51	61.962
508.85	61.329
509.19	63.119
509.54	62.574
509.88	61.003
510.23	63.260
510.57	62.159
510.92	60.928
511.26	61.593
511.61	62.431
511.95	60.932
512.30	62.472
512.64	61.046
512.98	63.897
513.33	63.850
513.67	62.820
514.02	64.016
514.36	64.286
514.70	64.685
515.05	65.394
515.39	64.168
515.74	65.030
516.08	64.435
516.42	64.900
516.77	64.014
517.11	66.291
517.46	64.632
517.80	64.958
518.14	65.279
518.49	65.325
518.83	65.128
519.17	64.645
519.52	63.706
519.86	65.786
520.20	65.978
520.55	64.916
520.89	65.119
521.23	64.915
521.58	65.741
521.92	65.897
522.26	66.168
522.61	67.727
522.95	68.411
523.29	65.375
523.64	65.629
523.98	67.401
524.32	66.688
524.66	65.685
525.01	66.429
525.35	65.781
525.69	67.542
526.04	66.204
526.38	68.936
526.72	66.056
527.06	66.861
527.41	66.359
527.75	66.019
528.09	66.379
528.43	69.345
528.78	67.723
529.12	67.226
529.46	67.251
529.80	65.358
530.15	66.865
530.49	67.340
530.83	68.673
531.17	66.622
531.51	67.921
531.86	66.485
532.20	67.015
532.54	67.801
532.88	67.967
533.22	68.212
533.57	67.300
533.91	68.538
534.25	68.490
534.59	66.902
534.93	65.387
535.27	66.180
535.62	67.855
535.96	66.145
536.30	66.623
536.64	67.126
536.98	67.038
537.32	69.132
537.66	70.477
538.01	68.811
538.35	67.892
538.69	66.312
539.03	66.917
539.37	67.766
539.71	67.007
540.05	67.481
540.39	67.729
540.73	67.573
541.07	70.580
541.42	66.398
541.76	67.378
542.10	68.823
542.44	68.381
542.78	66.001
543.12	68.407
543.46	66.690
543.80	67.661
544.14	66.222
544.48	68.155
544.82	67.601
545.16	69.467
545.50	66.889
545.84	68.201
546.18	69.504
546.52	68.133
546.86	69.015
547.20	68.741
547.54	66.784
547.88	67.120
548.22	66.798
548.56	66.755
548.90	69.003
549.24	68.457
549.58	68.265
549.92	67.763
550.26	68.278
550.60	68.848
550.94	68.932
551.28	70.556
551.62	70.231
551.96	69.098
552.30	69.298
552.64	67.913
552.98	68.214
553.32	68.188
553.66	68.868
554.00	69.854
554.34	70.384
554.68	68.437
555.02	69.196
555.36	70.307
555.69	67.692
556.03	68.166
556.37	68.327
556.71	68.736
557.05	70.022
557.39	68.327
557.73	68.066
558.07	70.362
558.41	70.980
558.75	70.928
559.08	69.898
559.42	70.556
559.76	71.017
560.10	70.872
560.44	68.950
560.78	68.112
561.12	70.663
561.45	69.852
561.79	69.188
562.13	69.056
562.47	70.216
562.81	68.804
563.15	68.336
563.48	69.590
563.82	69.115
564.16	69.011
564.50	66.824
564.84	69.009
565.17	68.209
565.51	71.926
565.85	71.056
566.19	68.966
566.52	69.906
566.86	69.023
567.20	67.870
567.54	68.856
567.88	68.014
568.21	67.986
568.55	68.152
568.89	67.094
569.23	67.020
569.56	65.893
569.90	66.504
570.24	63.975
570.57	65.345
570.91	64.936
571.25	63.795
571.59	62.504
571.92	62.104
572.26	62.832
572.60	63.225
572.93	63.006
573.27	62.508
573.61	64.141
573.95	62.125
574.28	62.791
574.62	61.734
574.96	61.730
575.29	61.560
575.63	60.793
575.97	61.941
576.30	61.934
576.64	61.483
576.98	62.651
577.31	62.325
577.65	61.995
577.98	62.130
578.32	61.564
578.66	60.112
578.99	61.488
579.33	61.154
579.67	60.913
580.00	61.797
580.34	61.144
580.67	61.375
581.01	62.512
581.35	61.111
581.68	61.484
582.02	60.874
582.35	61.300
582.69	61.375
583.02	60.863
583.36	61.438
583.70	62.980
584.03	63.497
584.37	63.721
584.70	63.269
585.04	61.865
585.37	61.523
585.71	62.108
586.04	62.254
586.38	61.536
586.72	61.923
587.05	63.229
587.39	63.070
587.72	63.313
588.06	62.773
588.39	63.116
588.73	63.309
589.06	63.633
589.40	63.291
589.73	64.111
590.07	65.030
590.40	64.125
590.73	65.486
591.07	64.122
591.40	64.826
591.74	66.199
592.07	65.770
592.41	65.018
592.74	64.675
593.08	63.220
593.41	63.822
593.75	63.723
594.08	62.788
594.41	63.137
594.75	64.275
595.08	63.678
595.42	64.336
595.75	64.739
596.09	64.777
596.42	64.448
596.75	65.409
597.09	64.738
597.42	65.086
597.75	65.598
598.09	64.373
598.42	65.117
598.76	64.865
599.09	64.062
599.42	63.054
599.76	62.942
600.09	63.122
600.42	63.798
600.76	62.779
601.09	63.282
601.42	63.220
601.76	63.835
602.09	64.563
602.42	66.091
602.76	64.856
603.09	65.490
603.42	66.639
603.76	63.911
604.09	63.953
604.42	64.171
604.76	65.732
605.09	64.671
605.42	64.876
605.75	62.916
606.09	63.907
606.42	63.553
606.75	64.329
607.09	63.165
607.42	63.934
607.75	63.721
608.08	63.073
608.42	62.860
608.75	65.060
609.08	65.022
609.41	65.736
609.75	65.978
610.08	65.951
610.41	64.106
610.74	64.798
611.07	65.891
611.41	65.906
611.74	66.684
612.07	66.006
612.40	65.700
612.73	65.989
613.07	66.648
613.40	66.302
613.73	65.753
614.06	66.110
614.39	67.061
614.72	64.482
615.06	65.922
615.39	64.083
615.72	64.909
616.05	66.592
616.38	63.533
616.71	67.462
617.05	68.499
617.38	65.431
617.71	66.792
618.04	68.254
618.37	68.663
618.70	69.637
619.03	68.750
619.36	68.524
619.69	70.735
620.03	70.343
620.36	69.599
620.69	68.522
621.02	69.113
621.35	71.701
621.68	71.684
622.01	71.917
622.34	70.870
622.67	69.874
623.00	70.138
623.33	68.064
623.66	68.586
623.99	67.625
624.32	69.430
624.65	69.023
624.99	69.977
625.32	67.930
625.65	72.035
625.98	71.475
626.31	68.412
626.64	69.671
626.97	71.728
627.30	70.228
627.63	70.277
627.96	72.597
628.29	72.340
628.62	72.763
628.95	72.645
629.28	76.714
629.61	71.984
629.94	72.923
630.26	72.036
630.59	73.881
630.92	73.128
631.25	71.077
631.58	76.872
631.91	72.807
632.24	76.720
632.57	74.091
632.90	74.259
633.23	73.176
633.56	77.582
633.89	75.956
634.22	77.778
634.55	76.112
634.88	74.074
635.20	76.923
635.53	78.800
635.86	74.382
636.19	78.913
636.52	75.000
636.85	73.821
637.18	74.843
637.51	74.717
637.83	74.901
638.16	77.080
638.49	75.477
638.82	75.526
639.15	75.034
639.48	75.241
639.81	74.895
640.13	75.325
640.46	75.219
640.79	76.436
641.12	75.480
641.45	80.030
641.77	78.074
642.10	78.831
642.43	77.010
642.76	79.208
643.09	78.514
643.41	76.861
643.74	77.100
644.07	81.117
644.40	79.054
644.73	80.035
645.05	76.678
645.38	80.423
645.71	80.851
646.04	80.610
646.36	81.383
646.69	79.856
647.02	80.907
647.35	81.530
647.67	80.987
648.00	81.903
648.33	80.546
648.66	78.644
648.98	77.052
649.31	79.008
649.64	71.743
649.96	75.041
650.29	79.216
650.62	77.949
650.94	79.074
651.27	79.330
651.60	78.559
651.92	79.196
652.25	76.732
652.58	75.667
652.90	80.617
653.23	74.286
653.56	72.758
653.88	76.632
654.21	74.431
654.54	74.194
654.86	77.929
655.19	73.099
655.52	68.034
655.84	60.031
656.17	63.962
656.49	85.377
656.82	88.135
657.15	68.527
657.47	51.827
657.80	39.102
658.13	38.445
658.45	61.329
658.78	61.170
659.10	60.915
659.43	61.193
659.75	63.345
660.08	62.690
660.41	68.131
660.73	70.442
661.06	74.870
661.38	75.734
661.71	75.359
662.03	82.403
662.36	80.000
662.68	80.310
663.01	80.786
663.33	81.903
663.66	81.395
663.98	80.465
664.31	76.333
664.63	79.724
664.96	74.348
665.28	75.055
665.61	80.519
665.93	81.087
666.26	80.260
666.58	77.405
666.91	82.588
667.23	82.547
667.56	83.175
667.88	81.295
668.21	80.907
668.53	83.215
668.86	77.830
669.18	77.594
669.50	80.872
669.83	81.395
670.15	80.420
670.48	81.818
670.80	78.802
671.13	73.826
671.45	76.941
671.77	76.609
672.10	75.446
672.42	73.783
672.75	74.067
673.07	74.776
673.39	77.248
673.72	72.584
674.04	75.833
674.37	78.390
674.69	74.732
675.01	78.444
675.34	77.703
675.66	79.861
675.98	75.831
676.31	79.358
676.63	78.147
676.95	74.318
677.28	85.176
677.60	79.036
677.92	78.899
678.25	76.368
678.57	74.026
678.89	76.050
679.22	80.089
679.54	74.297
679.86	76.740
680.18	76.311
680.51	72.727
680.83	71.968
681.15	73.800
681.48	74.590
681.80	73.554
682.12	74.597
682.44	71.967
682.77	76.159
683.09	74.371
683.41	75.455
683.73	74.654
684.06	71.903
684.38	72.903
684.70	78.867
685.02	73.029
685.34	71.344
685.67	72.233
685.99	71.248
686.31	72.566
686.63	70.872
686.96	69.582
687.28	73.333
687.60	70.722
687.92	76.566
688.24	71.371
688.56	75.546
688.89	75.893
689.21	73.333
689.53	73.782
689.85	76.279
690.17	73.437
690.49	72.340
690.82	73.544
691.14	75.000
691.46	74.299
691.78	73.198
692.10	73.978
692.42	74.459
692.74	67.521
693.06	72.748
693.39	73.077
693.71	67.647
694.03	72.979
694.35	73.131
694.67	76.010
694.99	73.629
695.31	75.979
695.63	72.250
695.95	71.717
696.27	72.021
696.59	78.889
696.91	73.669
697.23	75.064
697.56	72.030
697.88	66.882
698.20	73.121
698.52	69.176
698.84	70.335
699.16	72.500
699.48	73.935
699.80	68.734
700.12	73.585
700.44	75.630
700.76	69.767
701.08	72.727
701.40	73.494
701.72	80.247
702.04	77.558
702.36	77.926
702.68	75.976
703.00	76.667
703.32	72.727
703.64	68.362
703.96	72.464
704.28	73.620
704.60	79.365
704.91	70.978
705.23	75.415
705.55	82.332
705.87	81.227
706.19	79.630
706.51	73.883
706.83	75.884
707.15	71.340
707.47	73.109
707.79	71.615
708.11	71.250
708.43	71.500
708.74	70.801
709.06	74.366
709.38	76.147
709.70	72.189
710.02	73.248
710.34	72.136
710.66	71.795
710.98	76.159
711.29	75.738
711.61	71.864
711.93	72.964
712.25	78.007
712.57	75.092
712.89	72.761
713.20	68.166
713.52	74.913
713.84	70.307
714.16	71.134
714.48	74.194
714.80	73.077
715.11	70.517
715.43	69.906
715.75	74.000
716.07	67.774
716.39	68.121
716.70	74.539
717.02	76.718
717.34	74.089
717.66	76.549
717.97	78.696
718.29	74.895
718.61	70.472
718.93	72.093
719.24	71.483
719.56	71.084
719.88	67.354
720.20	70.455
720.51	68.582
720.83	74.903
721.15	76.471
721.46	76.210
721.78	70.356
722.10	65.428
722.42	69.295
722.73	70.204
723.05	73.878
723.37	77.966
723.68	85.135
724.00	72.222
724.32	69.778
724.63	72.727
724.95	70.742
725.27	79.724
725.58	75.000
725.90	66.270
726.22	71.429
726.53	68.136
726.85	73.034
727.16	72.830
727.48	69.231
727.80	66.397
728.11	68.644
728.43	68.627
728.74	66.935
729.06	68.000
729.38	68.797
729.69	67.729
730.01	65.000
730.32	69.030
730.64	69.258
730.96	67.547
731.27	64.333
731.59	70.508
731.90	62.739
732.22	65.300
732.53	66.113
732.85	68.440
733.16	66.330
733.48	64.388
733.80	64.855
734.11	63.390
734.43	69.072
734.74	63.939
735.06	63.844
735.37	61.631
735.69	68.013
736.00	62.369
736.32	61.409
736.63	66.901
736.95	66.553
737.26	64.057
737.58	59.396
737.89	68.864
738.21	65.038
738.52	66.255
738.83	68.996
739.15	67.249
739.46	69.291
739.78	60.073
740.09	58.824
740.41	59.783
740.72	62.598
741.04	71.660
741.35	68.085
741.66	64.929
741.98	68.878
742.29	73.267
742.61	69.634
742.92	63.033
743.23	63.426
743.55	65.158
743.86	71.292
744.18	63.636
744.49	71.809
744.80	64.674
745.12	77.540
745.43	63.902
745.74	73.438
746.06	68.780
746.37	67.539
746.68	68.720
747.00	68.085
747.31	70.149
747.62	63.107
747.94	69.856
748.25	69.802
748.56	68.852
748.88	69.110
749.19	70.213
749.50	63.547
749.82	61.792
750.13	63.303
750.44	63.910
750.75	68.284
751.07	61.314
751.38	65.517
751.69	61.176
752.01	67.054
752.32	66.932
752.63	62.451
752.94	64.224
753.26	69.038
753.57	63.348
753.88	64.159
754.19	63.333
754.51	62.397
754.82	61.943
755.13	68.333
755.44	65.726
755.75	62.891
756.07	61.868
756.38	60.377
756.69	63.602
757.00	57.000
757.31	61.111
757.63	57.317
757.94	53.889
758.25	54.521
758.56	55.851
758.87	52.408
759.18	56.386
759.50	55.636
759.81	61.204
760.12	58.710
760.43	56.970
760.74	58.333
761.05	57.231
761.36	56.818
761.67	61.515
761.99	61.905
762.30	53.818
762.61	58.103
762.92	62.896
763.23	61.712
763.54	65.888
763.85	63.136
764.16	56.432
764.47	58.468
764.78	54.945
765.10	59.596
765.41	55.205
765.72	59.048
766.03	51.504
766.34	56.934
766.65	58.964
766.96	61.111
767.27	67.021
767.58	59.195
767.89	69.504
768.20	55.114
768.51	56.593
768.82	58.621
769.13	57.143
769.44	56.223
769.75	59.817
770.06	54.741
770.37	64.904
770.68	57.868
770.99	57.919
771.30	60.294
771.61	53.846
771.92	56.466
772.23	64.039
772.54	60.215
772.85	56.790
773.16	60.674
773.47	65.359
773.78	61.438
774.09	63.473
774.39	53.333
774.70	57.325
775.01	69.655
775.32	60.000
775.63	60.331
775.94	66.412
776.25	66.142
776.56	71.667
776.87	66.346
777.18	54.701
777.48	68.103
777.79	51.304
778.10	50.476
778.41	67.568
778.72	61.905
779.03	62.406
779.34	61.702
779.65	61.644
779.95	50.000
780.26	60.690
780.57	50.407
780.88	61.417
781.19	57.759
781.50	63.566
781.80	52.071
782.11	52.830
782.42	70.000
782.73	59.712
783.04	57.037
783.34	54.861
783.65	57.265
783.96	58.197
784.27	61.379
784.57	62.602
784.88	57.813
785.19	59.000
785.50	81.000
785.81	53.448
786.11	57.759
786.42	65.049
786.73	69.091
787.04	58.163
787.34	51.786
787.65	60.000
787.96	51.327
788.26	56.364
788.57	63.248
788.88	50.781
789.19	54.762
789.49	56.522
789.80	59.184
790.11	50.505
790.41	53.636
790.72	70.652
791.03	62.500
791.33	72.500
791.64	51.250
791.95	56.977
792.25	54.255
792.56	57.303
792.87	53.425
793.17	69.565
793.48	49.333
793.79	50.000
794.09	72.500
794.40	52.830
794.70	53.398
795.01	34.959
795.32	52.991
795.62	40.000
795.93	61.765
796.23	51.887
796.54	57.292
796.85	63.235
797.15	53.521
797.46	59.722
797.76	71.212
798.07	45.349
798.37	46.053
798.68	36.364
798.99	60.494
799.29	67.143
799.60	57.971
799.90	52.000
800.21	60.656
800.51	55.385
800.82	54.237
801.12	59.420
801.43	62.295
801.73	58.730
802.04	58.000
802.34	41.791
802.65	73.077
802.95	35.714
803.26	44.231
803.56	78.431
803.87	43.478
804.17	44.000
804.48	58.730
804.78	59.259
805.09	65.217
805.39	62.222
805.70	68.519
806.00	47.368
806.30	43.662
806.61	54.286
806.91	59.722
807.22	55.263
807.52	54.667
807.83	58.182
808.13	36.111
808.43	57.353
808.74	58.209
809.04	61.017
809.35	46.154
809.65	62.500
809.95	-5.405
810.26	54.545
810.56	35.616
810.86	47.619
811.17	50.000
811.47	59.184
811.77	52.632
812.08	77.273
812.38	28.302
812.69	65.000
812.99	60.606
813.29	55.263
813.59	2.857
813.90	61.364
814.20	33.333
814.50	40.385
814.81	71.698
815.11	42.553
815.41	61.017
815.72	59.524
816.02	66.667
816.32	56.250
816.62	41.463
816.93	43.243
817.23	34.286
817.53	45.833
817.84	47.826
818.14	40.385
818.44	18.421
818.74	41.304
819.04	10.000
819.35	29.730
819.65	50.000
819.95	-2.778
820.25	54.762
820.56	80.000
820.86	37.931
821.16	80.000
821.46	51.064
821.76	62.500
822.07	55.814
822.37	32.432
822.67	62.500
822.97	52.381
823.27	28.571
823.57	28.000
823.88	3.704
824.18	42.857
824.48	47.059
824.78	74.194
825.08	47.826
825.38	30.303
825.69	25.000
825.99	47.368
826.29	16.667
826.59	53.333
826.89	23.810
827.19	58.696
827.49	55.000
827.79	45.714
828.09	71.429
828.39	24.242
828.70	83.784
829.00	53.571
829.30	85.714
829.60	56.667
829.90	50.000
830.20	47.368
830.50	18.519
830.80	17.391
831.10	59.091
831.40	69.697
831.70	41.935
832.00	9.524
832.30	28.571
832.60	58.333
832.90	58.621
833.20	-5.000
833.50	45.455
833.80	59.259
834.10	19.231
834.40	46.875
834.70	-33.333
835.00	5.263
835.30	46.154
835.60	93.333
835.90	48.387
836.20	36.364
836.50	60.714
836.80	-11.538
837.10	60.714
837.40	166.667
837.70	63.636
838.00	0.000
838.30	52.174
838.60	69.231
838.90	45.455
839.19	35.714
839.49	46.667
839.79	15.385
840.09	33.333
840.39	82.143
840.69	32.143
840.99	15.385
841.29	5.263
841.59	10.000
841.88	9.091
842.18	60.000
842.48	68.750
842.78	80.000
843.08	33.333
843.38	-70.000
843.68	56.522
843.97	73.333
844.27	-46.667
844.57	50.000
844.87	44.444
845.17	9.524
845.47	80.000
845.76	19.048
846.06	23.529
846.36	10.000
846.66	42.857
846.96	66.667
847.25	25.000
847.55	100.000
847.85	25.000
848.15	27.273
848.44	-400.000
848.74	85.000
849.04	70.370
849.34	18.182
849.63	16.667
849.93	-40.000
850.23	-11.111
850.53	50.000
850.82	30.769
851.12	88.889
851.42	26.667
851.71	42.308
852.01	71.429
852.31	75.000
852.61	54.545
852.90	-5.000
853.20	68.421
853.50	8.333
853.79	60.870
854.09	58.333
854.39	68.421
854.68	4.167
854.98	38.710
855.28	30.769
855.57	60.000
855.87	83.333
856.17	66.667
856.46	14.286
856.76	-20.000
857.05	11.111
857.35	40.000
857.65	83.333
857.94	38.462
858.24	44.828
858.53	61.111
858.83	55.556
859.13	31.818
859.42	13.043
859.72	150.000
860.01	-166.667
860.31	40.000
860.60	28.571
860.90	100.000
861.20	-60.000
861.49	-300.000
861.79	40.000
862.08	35.000
862.38	33.333
862.67	120.000
862.97	-33.333
863.26	0.000
863.56	38.889
863.85	-266.667
864.15	33.333
864.44	120.000
864.74	92.857
865.03	-100.000
865.33	-120.000
865.62	66.667
865.92	-8.333
866.21	-100.000
866.51	87.500
866.80	0.000
867.10	-150.000
867.39	83.333
867.69	0.000
867.98	15.385
868.27	100.000
868.57	66.667
868.86	55.556
869.16	-23.077
869.45	13.333
869.75	-1300.000
870.04	0.000
870.33	-57.143
870.63	47.619
870.92	200.000
871.22	-100.000
871.51	1100.000
871.80	122.222
872.10	266.667
>>>>>End Processed Spectral Data<<<<<
