SpectraSuite Data File
++++++++++++++++++++++++++++++++++++
Date: Fri May 15 17:19:05 PDT 2015
User: schluterlab
Dark Spectrum Present: Yes
Reference Spectrum Present: Yes
Number of Sampled Component Spectra: 1
Spectrometers: USB2E3373
Integration Time (usec): 3000 (USB2E3373)
Spectra Averaged: 3 (USB2E3373)
Boxcar Smoothing: 0 (USB2E3373)
Correct for Electrical Dark: No (USB2E3373)
Strobe/Lamp Enabled: No (USB2E3373)
Correct for Detector Non-linearity: No (USB2E3373)
Correct for Stray Light: No (USB2E3373)
Number of Pixels in Processed Spectrum: 2048
>>>>>Begin Processed Spectral Data<<<<<
178.53	0.000
178.91	0.000
179.29	100.000
179.67	-200.000
180.04	-214.286
180.42	350.000
180.80	100.000
181.18	-133.333
181.56	-300.000
181.94	100.000
182.31	-200.000
182.69	200.000
183.07	0.000
183.45	120.000
183.83	33.333
184.20	45.455
184.58	-44.444
184.96	-175.000
185.34	-166.667
185.72	250.000
186.09	46.154
186.47	1000.000
186.85	50.000
187.23	-55.556
187.61	-1300.000
187.98	200.000
188.36	33.333
188.74	300.000
189.12	47.059
189.49	55.556
189.87	0.000
190.25	92.857
190.63	550.000
191.00	466.667
191.38	78.947
191.76	250.000
192.14	50.000
192.51	650.000
192.89	44.444
193.27	-14.286
193.65	100.000
194.02	27.273
194.40	170.000
194.78	-12.500
195.15	-33.333
195.53	175.000
195.91	75.000
196.29	25.000
196.66	46.154
197.04	-14.286
197.42	-44.444
197.79	66.667
198.17	-23.077
198.55	200.000
198.92	-100.000
199.30	300.000
199.68	-40.000
200.05	133.333
200.43	0.000
200.81	300.000
201.18	233.333
201.56	500.000
201.94	50.000
202.31	-433.333
202.69	200.000
203.07	-50.000
203.44	800.000
203.82	0.000
204.19	57.143
204.57	-133.333
204.95	75.000
205.32	40.000
205.70	57.143
206.08	300.000
206.45	155.556
206.83	78.571
207.20	0.000
207.58	200.000
207.96	333.333
208.33	70.000
208.71	0.000
209.08	100.000
209.46	200.000
209.84	0.000
210.21	900.000
210.59	228.571
210.96	183.333
211.34	275.000
211.71	86.667
212.09	28.571
212.46	-400.000
212.84	0.000
213.22	110.000
213.59	150.000
213.97	130.769
214.34	45.455
214.72	166.667
215.09	275.000
215.47	61.538
215.84	90.909
216.22	133.333
216.59	112.500
216.97	650.000
217.34	250.000
217.72	40.000
218.09	62.500
218.47	25.000
218.84	-200.000
219.22	11.111
219.59	-40.000
219.97	-33.333
220.34	50.000
220.72	57.143
221.09	100.000
221.47	300.000
221.84	-450.000
222.22	-100.000
222.59	81.818
222.97	116.667
223.34	200.000
223.72	50.000
224.09	28.571
224.46	17.857
224.84	-233.333
225.21	100.000
225.59	40.000
225.96	-450.000
226.34	100.000
226.71	57.143
227.08	100.000
227.46	112.500
227.83	-100.000
228.21	133.333
228.58	36.364
228.95	37.500
229.33	60.000
229.70	56.250
230.08	37.500
230.45	14.286
230.82	200.000
231.20	80.000
231.57	100.000
231.95	57.143
232.32	-30.000
232.69	64.286
233.07	533.333
233.44	60.000
233.81	60.000
234.19	100.000
234.56	29.412
234.93	450.000
235.31	225.000
235.68	-120.000
236.05	46.154
236.43	35.000
236.80	70.588
237.17	68.750
237.55	95.000
237.92	55.556
238.29	55.556
238.67	60.000
239.04	23.529
239.41	7.317
239.79	23.333
240.16	48.780
240.53	52.632
240.91	26.087
241.28	38.095
241.65	42.857
242.02	50.685
242.40	41.667
242.77	27.119
243.14	42.424
243.51	46.250
243.89	49.425
244.26	54.023
244.63	32.143
245.00	31.959
245.38	43.299
245.75	41.573
246.12	18.966
246.49	36.364
246.87	43.269
247.24	30.252
247.61	29.825
247.98	39.024
248.36	35.625
248.73	38.158
249.10	41.558
249.47	36.076
249.84	40.523
250.22	34.706
250.59	32.680
250.96	35.211
251.33	38.372
251.70	35.882
252.08	40.609
252.45	34.653
252.82	41.206
253.19	38.710
253.56	36.449
253.94	34.685
254.31	34.783
254.68	41.667
255.05	31.496
255.42	38.865
255.79	37.838
256.16	33.852
256.54	34.701
256.91	34.601
257.28	34.572
257.65	29.588
258.02	38.298
258.39	38.047
258.76	39.194
259.14	39.203
259.51	32.686
259.88	34.021
260.25	35.948
260.62	37.153
260.99	36.271
261.36	33.219
261.73	34.810
262.10	34.347
262.47	38.037
262.85	37.618
263.22	36.615
263.59	37.383
263.96	37.578
264.33	34.545
264.70	38.393
265.07	35.119
265.44	37.677
265.81	36.158
266.18	33.880
266.55	36.761
266.92	35.492
267.29	35.248
267.66	32.992
268.03	35.079
268.40	34.987
268.77	40.642
269.14	35.731
269.51	37.789
269.88	36.160
270.25	34.949
270.62	37.073
270.99	36.829
271.36	34.474
271.73	35.446
272.10	35.523
272.47	36.643
272.84	35.644
273.21	33.643
273.58	35.422
273.95	35.011
274.32	33.718
274.69	35.520
275.06	37.500
275.43	34.467
275.80	32.230
276.17	32.644
276.54	32.762
276.91	34.430
277.28	33.624
277.65	33.884
278.02	32.553
278.39	35.886
278.76	34.801
279.13	33.402
279.50	37.395
279.87	31.533
280.23	32.258
280.60	32.749
280.97	34.343
281.34	31.731
281.71	33.060
282.08	32.924
282.45	33.072
282.82	32.046
283.19	31.721
283.56	34.104
283.92	33.586
284.29	30.577
284.66	32.752
285.03	32.809
285.40	31.569
285.77	30.053
286.14	32.491
286.51	34.502
286.87	30.165
287.24	31.492
287.61	28.219
287.98	32.982
288.35	31.369
288.72	31.349
289.08	29.861
289.45	31.459
289.82	29.196
290.19	26.792
290.56	26.415
290.93	31.313
291.29	28.043
291.66	27.402
292.03	30.303
292.40	28.065
292.77	26.954
293.13	25.649
293.50	24.734
293.87	27.176
294.24	26.739
294.60	26.975
294.97	25.149
295.34	25.460
295.71	26.379
296.08	25.859
296.44	22.191
296.81	24.861
297.18	23.478
297.55	28.184
297.91	23.836
298.28	24.011
298.65	25.780
299.02	23.315
299.38	23.256
299.75	24.552
300.12	23.560
300.48	23.715
300.85	23.067
301.22	22.468
301.59	22.500
301.95	24.810
302.32	23.346
302.69	23.383
303.05	22.896
303.42	23.786
303.79	23.481
304.15	23.775
304.52	21.998
304.89	21.287
305.25	22.276
305.62	21.004
305.99	22.339
306.35	22.197
306.72	21.597
307.09	23.261
307.45	22.618
307.82	22.106
308.19	23.693
308.55	22.683
308.92	22.876
309.29	22.011
309.65	22.713
310.02	21.562
310.38	22.503
310.75	21.639
311.12	22.713
311.48	22.375
311.85	21.152
312.22	21.835
312.58	21.231
312.95	20.598
313.31	21.222
313.68	22.199
314.05	23.367
314.41	22.680
314.78	21.856
315.14	23.638
315.51	23.499
315.87	22.848
316.24	25.683
316.61	24.803
316.97	24.306
317.34	23.633
317.70	24.665
318.07	23.846
318.43	23.922
318.80	24.811
319.16	25.977
319.53	26.211
319.89	25.394
320.26	27.126
320.62	28.586
320.99	26.827
321.35	27.338
321.72	29.699
322.08	28.802
322.45	27.513
322.81	29.175
323.18	28.852
323.54	30.309
323.91	30.769
324.27	32.422
324.64	32.397
325.00	33.850
325.37	35.629
325.73	32.638
326.10	35.604
326.46	36.502
326.83	37.533
327.19	36.443
327.56	38.228
327.92	38.644
328.29	39.732
328.65	40.472
329.01	39.890
329.38	42.581
329.74	42.021
330.11	43.373
330.47	42.857
330.84	43.654
331.20	46.388
331.56	43.704
331.93	45.205
332.29	46.746
332.66	45.792
333.02	47.770
333.38	46.746
333.75	48.718
334.11	48.612
334.48	48.776
334.84	48.168
335.20	49.131
335.57	49.592
335.93	50.587
336.29	49.540
336.66	50.500
337.02	51.673
337.38	48.519
337.75	50.727
338.11	50.135
338.47	52.281
338.84	52.403
339.20	52.377
339.56	52.569
339.93	51.119
340.29	53.119
340.65	52.599
341.02	51.862
341.38	52.478
341.74	52.650
342.11	51.300
342.47	52.224
342.83	53.547
343.20	53.223
343.56	54.174
343.92	53.144
344.28	51.836
344.65	53.454
345.01	52.377
345.37	51.388
345.73	53.305
346.10	54.961
346.46	52.397
346.82	53.191
347.19	54.364
347.55	52.966
347.91	53.236
348.27	53.032
348.63	53.833
349.00	53.979
349.36	52.702
349.72	54.561
350.08	52.705
350.45	53.312
350.81	54.070
351.17	52.443
351.53	53.633
351.89	52.931
352.26	53.840
352.62	53.710
352.98	53.815
353.34	52.415
353.70	54.612
354.07	53.306
354.43	52.842
354.79	54.831
355.15	54.127
355.51	53.323
355.87	53.560
356.24	55.465
356.60	52.951
356.96	53.889
357.32	54.792
357.68	53.792
358.04	53.796
358.40	54.019
358.77	55.423
359.13	56.045
359.49	54.006
359.85	54.836
360.21	55.662
360.57	54.017
360.93	54.463
361.29	53.550
361.66	55.408
362.02	54.621
362.38	55.598
362.74	56.851
363.10	55.831
363.46	55.004
363.82	55.297
364.18	54.391
364.54	55.000
364.90	55.341
365.26	56.696
365.62	56.715
365.98	57.331
366.35	57.101
366.71	56.615
367.07	56.459
367.43	56.362
367.79	55.760
368.15	55.276
368.51	55.936
368.87	56.425
369.23	54.585
369.59	56.924
369.95	58.578
370.31	57.370
370.67	58.582
371.03	55.489
371.39	57.403
371.75	56.777
372.11	56.633
372.47	57.914
372.83	57.771
373.19	57.418
373.55	57.112
373.91	57.379
374.27	58.753
374.63	57.071
374.99	57.376
375.35	58.287
375.71	59.021
376.07	58.287
376.42	59.796
376.78	59.396
377.14	58.429
377.50	60.093
377.86	60.107
378.22	60.370
378.58	60.641
378.94	61.500
379.30	59.638
379.66	60.063
380.02	58.308
380.38	59.586
380.74	59.725
381.09	60.491
381.45	59.266
381.81	60.950
382.17	60.025
382.53	61.212
382.89	61.456
383.25	60.734
383.61	61.220
383.97	60.825
384.32	59.787
384.68	61.858
385.04	60.172
385.40	60.859
385.76	63.019
386.12	61.966
386.48	61.558
386.83	62.524
387.19	61.722
387.55	63.551
387.91	62.286
388.27	60.623
388.62	63.499
388.98	61.572
389.34	62.898
389.70	63.891
390.06	61.611
390.42	61.399
390.77	62.786
391.13	62.358
391.49	62.549
391.85	63.743
392.20	61.519
392.56	63.382
392.92	62.067
393.28	62.972
393.64	62.222
393.99	63.386
394.35	63.251
394.71	62.963
395.07	60.779
395.42	62.295
395.78	63.127
396.14	63.052
396.50	61.953
396.85	62.524
397.21	62.970
397.57	63.574
397.92	63.751
398.28	63.276
398.64	62.349
399.00	62.923
399.35	60.835
399.71	61.631
400.07	62.394
400.42	60.710
400.78	62.339
401.14	60.920
401.49	61.882
401.85	60.938
402.21	61.627
402.57	62.250
402.92	60.853
403.28	61.404
403.63	62.799
403.99	61.607
404.35	61.836
404.70	60.238
405.06	60.811
405.42	61.094
405.77	61.185
406.13	61.409
406.49	60.509
406.84	60.880
407.20	61.048
407.55	60.592
407.91	60.762
408.27	60.803
408.62	60.923
408.98	61.368
409.34	60.471
409.69	60.207
410.05	59.175
410.40	61.852
410.76	61.279
411.11	61.062
411.47	60.487
411.83	60.264
412.18	62.484
412.54	60.237
412.89	58.621
413.25	59.747
413.60	60.994
413.96	60.184
414.31	60.671
414.67	60.167
415.03	59.920
415.38	59.530
415.74	59.805
416.09	61.267
416.45	60.702
416.80	59.484
417.16	62.776
417.51	60.027
417.87	59.452
418.22	61.723
418.58	61.538
418.93	61.003
419.29	59.155
419.64	61.568
420.00	62.091
420.35	60.478
420.71	63.062
421.06	61.449
421.42	61.538
421.77	62.948
422.12	61.407
422.48	61.830
422.83	61.717
423.19	60.948
423.54	61.964
423.90	62.191
424.25	61.768
424.61	62.362
424.96	62.602
425.31	62.969
425.67	63.850
426.02	62.898
426.38	65.059
426.73	63.923
427.09	65.443
427.44	64.529
427.79	64.172
428.15	65.049
428.50	65.657
428.85	64.558
429.21	63.384
429.56	65.714
429.92	64.510
430.27	64.962
430.62	62.729
430.98	64.915
431.33	64.721
431.68	63.579
432.04	65.064
432.39	63.776
432.74	64.702
433.10	65.402
433.45	65.651
433.80	66.570
434.16	66.482
434.51	65.968
434.86	66.667
435.22	66.517
435.57	67.187
435.92	66.587
436.28	65.355
436.63	66.971
436.98	66.686
437.34	65.941
437.69	68.456
438.04	67.009
438.39	66.219
438.75	68.002
439.10	67.233
439.45	68.777
439.81	67.951
440.16	68.290
440.51	68.358
440.86	70.876
441.22	66.968
441.57	69.426
441.92	68.940
442.27	70.067
442.63	70.503
442.98	70.936
443.33	70.006
443.68	70.080
444.03	70.442
444.39	69.208
444.74	71.795
445.09	70.323
445.44	70.883
445.79	71.893
446.15	70.264
446.50	69.495
446.85	71.095
447.20	69.187
447.55	72.154
447.91	70.502
448.26	71.485
448.61	71.042
448.96	72.174
449.31	72.717
449.66	71.487
450.02	70.451
450.37	72.258
450.72	70.504
451.07	71.519
451.42	70.911
451.77	71.730
452.12	70.335
452.47	72.247
452.83	71.201
453.18	71.853
453.53	72.566
453.88	71.524
454.23	71.235
454.58	72.607
454.93	72.552
455.28	69.651
455.63	73.528
455.98	72.700
456.34	71.584
456.69	73.698
457.04	72.464
457.39	72.357
457.74	73.640
458.09	72.219
458.44	73.610
458.79	72.213
459.14	72.826
459.49	73.433
459.84	71.912
460.19	74.575
460.54	73.716
460.89	73.011
461.24	73.416
461.59	72.387
461.94	71.824
462.29	73.281
462.64	73.821
462.99	72.647
463.34	73.366
463.69	72.394
464.04	74.758
464.39	73.742
464.74	72.883
465.09	73.612
465.44	74.437
465.79	72.109
466.14	73.774
466.49	72.915
466.84	73.528
467.19	73.467
467.54	72.669
467.89	73.215
468.24	72.810
468.59	74.540
468.94	73.397
469.29	74.033
469.64	75.051
469.99	74.422
470.34	73.379
470.68	75.690
471.03	75.372
471.38	74.536
471.73	75.070
472.08	73.474
472.43	75.973
472.78	74.914
473.13	74.558
473.48	75.049
473.83	74.720
474.17	74.417
474.52	74.856
474.87	74.909
475.22	76.815
475.57	74.704
475.92	74.328
476.27	73.574
476.61	74.884
476.96	71.668
477.31	74.527
477.66	73.933
478.01	74.789
478.36	73.638
478.70	75.367
479.05	75.385
479.40	74.616
479.75	73.723
480.10	75.269
480.45	75.850
480.79	74.824
481.14	76.178
481.49	73.596
481.84	76.544
482.19	74.602
482.53	75.492
482.88	74.558
483.23	74.136
483.58	74.670
483.92	74.105
484.27	74.886
484.62	74.585
484.97	74.876
485.31	74.711
485.66	75.121
486.01	76.684
486.36	74.929
486.70	75.063
487.05	74.335
487.40	73.914
487.75	73.944
488.09	73.671
488.44	72.558
488.79	73.851
489.13	74.559
489.48	74.647
489.83	74.260
490.17	74.787
490.52	75.012
490.87	74.364
491.22	75.645
491.56	74.668
491.91	73.470
492.26	74.915
492.60	74.280
492.95	74.865
493.30	74.060
493.64	75.835
493.99	75.314
494.34	74.951
494.68	75.762
495.03	75.036
495.37	76.055
495.72	76.325
496.07	76.000
496.41	74.953
496.76	76.048
497.11	74.336
497.45	73.604
497.80	75.681
498.14	73.174
498.49	75.368
498.84	75.399
499.18	77.008
499.53	75.248
499.87	74.951
500.22	74.926
500.56	75.088
500.91	75.201
501.26	73.406
501.60	76.291
501.95	75.303
502.29	74.964
502.64	75.241
502.98	76.122
503.33	73.727
503.67	75.133
504.02	75.855
504.36	76.051
504.71	75.152
505.06	74.484
505.40	73.959
505.75	77.320
506.09	73.847
506.44	76.951
506.78	75.918
507.13	76.319
507.47	74.151
507.82	75.694
508.16	74.485
508.51	76.180
508.85	76.923
509.19	76.104
509.54	75.657
509.88	76.052
510.23	76.977
510.57	76.590
510.92	74.094
511.26	76.214
511.61	76.898
511.95	76.274
512.30	75.499
512.64	76.739
512.98	76.137
513.33	77.057
513.67	75.554
514.02	77.860
514.36	77.200
514.70	77.564
515.05	77.673
515.39	77.745
515.74	78.263
516.08	77.764
516.42	76.855
516.77	77.823
517.11	78.932
517.46	76.721
517.80	76.996
518.14	77.281
518.49	75.120
518.83	78.007
519.17	76.713
519.52	75.666
519.86	77.011
520.20	77.643
520.55	76.673
520.89	77.541
521.23	76.947
521.58	77.918
521.92	77.500
522.26	78.204
522.61	77.857
522.95	78.742
523.29	77.128
523.64	77.700
523.98	78.808
524.32	77.320
524.66	77.209
525.01	77.792
525.35	78.483
525.69	78.586
526.04	77.050
526.38	79.248
526.72	78.090
527.06	77.237
527.41	80.277
527.75	78.150
528.09	77.807
528.43	80.621
528.78	77.822
529.12	77.806
529.46	78.947
529.80	77.581
530.15	78.350
530.49	79.798
530.83	79.617
531.17	78.173
531.51	79.959
531.86	77.226
532.20	78.010
532.54	77.536
532.88	79.671
533.22	79.167
533.57	78.375
533.91	80.157
534.25	79.167
534.59	77.678
534.93	76.463
535.27	77.792
535.62	77.706
535.96	78.735
536.30	77.704
536.64	78.704
536.98	77.909
537.32	79.516
537.66	79.593
538.01	77.552
538.35	78.363
538.69	78.029
539.03	77.580
539.37	78.533
539.71	78.937
540.05	78.072
540.39	78.116
540.73	79.010
541.07	80.110
541.42	77.823
541.76	78.183
542.10	77.357
542.44	79.013
542.78	76.944
543.12	78.091
543.46	78.164
543.80	79.320
544.14	76.836
544.48	77.548
544.82	78.674
545.16	77.869
545.50	78.371
545.84	80.099
546.18	78.156
546.52	79.308
546.86	76.995
547.20	77.825
547.54	77.244
547.88	79.552
548.22	78.172
548.56	78.232
548.90	78.774
549.24	76.928
549.58	77.010
549.92	76.054
550.26	79.414
550.60	78.587
550.94	79.313
551.28	79.521
551.62	79.154
551.96	78.947
552.30	79.094
552.64	77.715
552.98	77.637
553.32	79.173
553.66	78.737
554.00	79.854
554.34	81.019
554.68	76.401
555.02	78.943
555.36	79.432
555.69	79.780
556.03	77.373
556.37	79.573
556.71	79.567
557.05	79.120
557.39	76.729
557.73	78.486
558.07	79.336
558.41	80.092
558.75	79.813
559.08	79.905
559.42	78.889
559.76	79.984
560.10	79.969
560.44	79.747
560.78	77.552
561.12	79.408
561.45	81.026
561.79	80.182
562.13	79.631
562.47	79.856
562.81	79.035
563.15	77.080
563.48	78.925
563.82	80.165
564.16	79.875
564.50	78.243
564.84	79.183
565.17	77.666
565.51	81.967
565.85	81.413
566.19	79.509
566.52	79.759
566.86	78.856
567.20	78.394
567.54	80.170
567.88	80.902
568.21	80.430
568.55	80.163
568.89	82.033
569.23	80.597
569.56	81.743
569.90	81.567
570.24	80.052
570.57	81.418
570.91	81.318
571.25	79.908
571.59	78.636
571.92	78.637
572.26	78.955
572.60	79.101
572.93	77.722
573.27	78.025
573.61	78.640
573.95	79.164
574.28	78.946
574.62	77.956
574.96	78.085
575.29	78.874
575.63	76.341
575.97	77.962
576.30	77.790
576.64	77.960
576.98	79.974
577.31	79.332
577.65	79.427
577.98	78.677
578.32	78.874
578.66	77.864
578.99	78.170
579.33	77.767
579.67	76.684
580.00	78.456
580.34	78.657
580.67	77.374
581.01	78.290
581.35	79.113
581.68	79.394
582.02	79.354
582.35	79.406
582.69	79.198
583.02	79.107
583.36	79.134
583.70	79.154
584.03	79.761
584.37	80.632
584.70	78.571
585.04	77.798
585.37	78.600
585.71	79.388
586.04	79.198
586.38	77.567
586.72	79.225
587.05	80.214
587.39	80.179
587.72	82.121
588.06	80.542
588.39	78.952
588.73	79.609
589.06	79.876
589.40	79.018
589.73	80.869
590.07	80.098
590.40	80.070
590.73	81.384
591.07	79.856
591.40	80.677
591.74	80.860
592.07	80.427
592.41	80.698
592.74	79.490
593.08	78.903
593.41	81.087
593.75	80.242
594.08	78.647
594.41	79.039
594.75	79.504
595.08	80.590
595.42	80.640
595.75	81.337
596.09	80.649
596.42	80.074
596.75	79.440
597.09	79.362
597.42	79.313
597.75	80.806
598.09	78.769
598.42	78.655
598.76	79.580
599.09	80.970
599.42	79.500
599.76	79.383
600.09	79.751
600.42	78.734
600.76	79.086
601.09	78.435
601.42	78.888
601.76	79.674
602.09	79.002
602.42	80.876
602.76	79.796
603.09	82.517
603.42	81.020
603.76	80.605
604.09	80.356
604.42	80.161
604.76	79.172
605.09	78.748
605.42	79.368
605.75	80.210
606.09	80.000
606.42	79.399
606.75	78.788
607.09	78.813
607.42	79.575
607.75	79.130
608.08	78.976
608.42	77.844
608.75	80.241
609.08	80.120
609.41	79.239
609.75	79.133
610.08	81.078
610.41	78.213
610.74	78.986
611.07	81.344
611.41	81.889
611.74	81.023
612.07	79.818
612.40	80.416
612.73	81.073
613.07	79.865
613.40	80.525
613.73	80.526
614.06	78.965
614.39	79.075
614.72	79.664
615.06	79.721
615.39	79.203
615.72	79.386
616.05	78.827
616.38	78.917
616.71	80.489
617.05	80.482
617.38	80.515
617.71	81.195
618.04	81.206
618.37	81.211
618.70	81.122
619.03	82.292
619.36	80.029
619.69	81.274
620.03	81.081
620.36	82.260
620.69	81.014
621.02	80.352
621.35	80.415
621.68	81.973
622.01	81.750
622.34	81.006
622.67	79.732
623.00	79.403
623.33	81.555
623.66	80.105
623.99	79.349
624.32	81.749
624.65	79.850
624.99	81.114
625.32	77.938
625.65	82.247
625.98	81.950
626.31	80.798
626.64	82.756
626.97	80.454
627.30	81.261
627.63	80.243
627.96	81.491
628.29	80.296
628.62	79.744
628.95	78.257
629.28	82.560
629.61	81.555
629.94	80.841
630.26	80.237
630.59	83.351
630.92	82.051
631.25	80.821
631.58	82.379
631.91	79.605
632.24	80.390
632.57	81.818
632.90	80.427
633.23	80.706
633.56	82.494
633.89	82.244
634.22	83.951
634.55	81.067
634.88	79.183
635.20	80.897
635.53	83.733
635.86	81.534
636.19	83.312
636.52	82.270
636.85	79.653
637.18	80.881
637.51	82.767
637.83	80.420
638.16	84.447
638.49	81.063
638.82	81.447
639.15	79.376
639.48	83.081
639.81	79.777
640.13	83.117
640.46	83.090
640.79	80.854
641.12	81.536
641.45	80.030
641.77	81.778
642.10	83.886
642.43	82.315
642.76	83.333
643.09	81.422
643.41	82.362
643.74	81.549
644.07	80.952
644.40	82.264
644.73	84.588
645.05	78.859
645.38	82.540
645.71	81.028
646.04	84.381
646.36	81.738
646.69	82.014
647.02	85.444
647.35	85.634
647.67	80.622
648.00	84.515
648.33	82.082
648.66	83.051
648.98	82.412
649.31	82.479
649.64	78.964
649.96	79.092
650.29	83.475
650.62	84.444
650.94	83.519
651.27	81.564
651.60	81.982
651.92	80.245
652.25	82.416
652.58	80.333
652.90	82.676
653.23	81.849
653.56	77.834
653.88	82.474
654.21	79.685
654.54	80.306
654.86	82.513
655.19	82.310
655.52	81.966
655.84	81.663
656.17	91.484
656.49	100.000
656.82	100.000
657.15	100.000
657.47	100.000
657.80	56.919
658.13	51.130
658.45	78.894
658.78	77.357
659.10	76.543
659.43	74.828
659.75	77.750
660.08	77.103
660.41	78.754
660.73	78.729
661.06	83.016
661.38	78.082
661.71	78.439
662.03	82.403
662.36	80.879
662.68	81.195
663.01	80.568
663.33	83.991
663.66	78.605
663.98	81.860
664.31	81.237
664.63	82.719
664.96	77.609
665.28	80.795
665.61	80.303
665.93	83.696
666.26	79.610
666.58	79.866
666.91	87.529
667.23	83.255
667.56	77.488
667.88	83.693
668.21	81.384
668.53	82.506
668.86	83.019
669.18	78.302
669.50	79.177
669.83	79.302
670.15	83.683
670.48	84.450
670.80	82.488
671.13	78.523
671.45	80.822
671.77	80.687
672.10	80.000
672.42	78.652
672.75	81.350
673.07	83.363
673.39	82.385
673.72	78.895
674.04	80.417
674.37	79.237
674.69	78.801
675.01	80.667
675.34	80.405
675.66	79.861
675.98	77.162
676.31	82.339
676.63	80.048
676.95	77.727
677.28	87.294
677.60	83.855
677.92	81.651
678.25	80.525
678.57	81.602
678.89	82.563
679.22	85.906
679.54	78.916
679.86	76.143
680.18	80.971
680.51	80.492
680.83	77.535
681.15	78.800
681.48	80.738
681.80	82.438
682.12	80.847
682.44	81.172
682.77	82.781
683.09	77.574
683.41	76.591
683.73	79.263
684.06	79.204
684.38	76.989
684.70	85.621
685.02	79.046
685.34	79.249
685.67	80.863
685.99	81.917
686.31	79.292
686.63	79.592
686.96	79.278
687.28	79.192
687.60	76.426
687.92	81.212
688.24	77.419
688.56	80.568
688.89	79.241
689.21	79.778
689.53	80.974
689.85	81.163
690.17	80.580
690.49	80.615
690.82	80.097
691.14	79.762
691.46	80.841
691.78	77.928
692.10	80.215
692.42	80.303
692.74	80.128
693.06	79.730
693.39	78.507
693.71	79.186
694.03	80.139
694.35	81.776
694.67	80.808
694.99	74.674
695.31	81.462
695.63	81.500
695.95	76.263
696.27	80.570
696.59	79.722
696.91	76.751
697.23	76.607
697.56	82.673
697.88	78.280
698.20	80.866
698.52	81.647
698.84	77.033
699.16	78.500
699.48	80.702
699.80	79.901
700.12	81.941
700.44	80.672
700.76	79.651
701.08	76.061
701.40	79.819
701.72	83.333
702.04	80.858
702.36	84.615
702.68	75.375
703.00	81.212
703.32	80.938
703.64	74.294
703.96	76.522
704.28	82.515
704.60	80.952
704.91	77.918
705.23	80.066
705.55	83.039
705.87	83.032
706.19	81.481
706.51	75.945
706.83	81.994
707.15	82.555
707.47	84.034
707.79	80.208
708.11	82.750
708.43	77.250
708.74	75.711
709.06	80.563
709.38	84.098
709.70	77.811
710.02	81.210
710.34	79.876
710.66	76.923
710.98	79.801
711.29	83.279
711.61	82.034
711.93	81.433
712.25	81.787
712.57	84.615
712.89	79.851
713.20	80.623
713.52	81.882
713.84	77.474
714.16	83.505
714.48	80.645
714.80	81.090
715.11	79.939
715.43	79.624
715.75	85.333
716.07	81.728
716.39	79.195
716.70	81.181
717.02	76.718
717.34	77.733
717.66	87.611
717.97	86.522
718.29	81.172
718.61	82.283
718.93	78.682
719.24	80.989
719.56	82.329
719.88	78.351
720.20	76.515
720.51	78.927
720.83	79.537
721.15	85.294
721.46	82.258
721.78	80.632
722.10	75.093
722.42	75.104
722.73	80.816
723.05	82.449
723.37	82.203
723.68	86.036
724.00	79.487
724.32	78.667
724.63	76.364
724.95	81.659
725.27	86.175
725.58	83.475
725.90	76.984
726.22	82.625
726.53	75.254
726.85	80.524
727.16	78.868
727.48	81.781
727.80	77.733
728.11	80.508
728.43	79.216
728.74	78.629
729.06	80.800
729.38	80.451
729.69	80.080
730.01	75.769
730.32	81.716
730.64	81.625
730.96	81.887
731.27	75.667
731.59	78.644
731.90	80.255
732.22	80.126
732.53	78.738
732.85	81.560
733.16	81.481
733.48	81.655
733.80	81.159
734.11	76.271
734.43	81.100
734.74	81.515
735.06	81.433
735.37	74.622
735.69	82.155
736.00	81.185
736.32	81.208
736.63	83.803
736.95	77.474
737.26	77.936
737.58	73.490
737.89	79.853
738.21	82.707
738.52	81.070
738.83	86.026
739.15	84.279
739.46	79.134
739.78	79.487
740.09	69.935
740.41	79.348
740.72	79.134
741.04	80.972
741.35	76.170
741.66	80.095
741.98	78.571
742.29	81.188
742.61	79.058
742.92	69.668
743.23	76.852
743.55	81.448
743.86	79.904
744.18	74.641
744.49	79.787
744.80	76.087
745.12	86.631
745.43	74.146
745.74	84.896
746.06	78.537
746.37	87.958
746.68	75.355
747.00	80.851
747.31	80.597
747.62	75.243
747.94	78.947
748.25	81.188
748.56	84.699
748.88	83.770
749.19	88.298
749.50	76.847
749.82	80.660
750.13	79.358
750.44	83.083
750.75	82.463
751.07	85.401
751.38	80.460
751.69	78.431
752.01	79.845
752.32	80.876
752.63	81.423
752.94	79.310
753.26	85.774
753.57	80.995
753.88	80.531
754.19	72.917
754.51	77.273
754.82	74.494
755.13	83.333
755.44	83.871
755.75	83.984
756.07	80.934
756.38	74.717
756.69	83.142
757.00	76.333
757.31	77.124
757.63	75.610
757.94	77.222
758.25	80.000
758.56	74.202
758.87	72.238
759.18	70.093
759.50	78.182
759.81	77.592
760.12	78.065
760.43	73.939
760.74	83.333
761.05	77.846
761.36	72.159
761.67	76.970
761.99	79.592
762.30	75.636
762.61	74.704
762.92	82.805
763.23	79.279
763.54	72.897
763.85	83.051
764.16	75.519
764.47	77.016
764.78	71.429
765.10	81.145
765.41	78.233
765.72	77.778
766.03	77.068
766.34	75.912
766.65	77.291
766.96	80.808
767.27	82.979
767.58	77.011
767.89	87.234
768.20	73.864
768.51	75.824
768.82	75.369
769.13	76.959
769.44	72.532
769.75	72.603
770.06	70.690
770.37	72.596
770.68	83.249
770.99	71.946
771.30	85.294
771.61	83.258
771.92	82.328
772.23	80.788
772.54	78.495
772.85	82.716
773.16	73.034
773.47	92.157
773.78	83.660
774.09	75.449
774.39	80.667
774.70	76.433
775.01	84.828
775.32	81.429
775.63	78.512
775.94	74.046
776.25	81.890
776.56	82.500
776.87	96.154
777.18	82.051
777.48	85.345
777.79	85.217
778.10	79.048
778.41	84.685
778.72	76.984
779.03	72.932
779.34	75.887
779.65	82.877
779.95	78.767
780.26	78.621
780.57	73.171
780.88	78.740
781.19	73.276
781.50	85.271
781.80	75.740
782.11	71.069
782.42	87.692
782.73	73.381
783.04	82.222
783.34	72.917
783.65	76.923
783.96	86.066
784.27	67.586
784.57	84.553
784.88	67.969
785.19	83.000
785.50	83.000
785.81	75.000
786.11	70.690
786.42	69.903
786.73	76.364
787.04	74.490
787.34	69.643
787.65	77.143
787.96	77.876
788.26	78.182
788.57	74.359
788.88	79.688
789.19	73.810
789.49	74.783
789.80	83.673
790.11	78.788
790.41	60.909
790.72	88.043
791.03	73.864
791.33	95.000
791.64	76.250
791.95	73.256
792.25	67.021
792.56	69.663
792.87	87.671
793.17	84.058
793.48	57.333
793.79	70.000
794.09	83.750
794.40	72.642
794.70	69.903
795.01	70.732
795.32	73.504
795.62	73.333
795.93	77.451
796.23	82.075
796.54	77.083
796.85	88.235
797.15	77.465
797.46	83.333
797.76	90.909
798.07	68.605
798.37	72.368
798.68	69.697
798.99	66.667
799.29	85.714
799.60	78.261
799.90	78.667
800.21	88.525
800.51	92.308
800.82	79.661
801.12	72.464
801.43	80.328
801.73	68.254
802.04	88.000
802.34	83.582
802.65	71.154
802.95	48.214
803.26	65.385
803.56	90.196
803.87	76.087
804.17	74.667
804.48	71.429
804.78	79.630
805.09	95.652
805.39	86.667
805.70	79.630
806.00	56.140
806.30	71.831
806.61	78.571
806.91	66.667
807.22	86.842
807.52	76.000
807.83	80.000
808.13	54.167
808.43	66.176
808.74	61.194
809.04	79.661
809.35	86.538
809.65	75.000
809.95	97.297
810.26	59.091
810.56	57.534
810.86	66.667
811.17	72.000
811.47	69.388
811.77	73.684
812.08	68.182
812.38	73.585
812.69	85.000
812.99	81.818
813.29	63.158
813.59	68.571
813.90	90.909
814.20	64.103
814.50	57.692
814.81	96.226
815.11	57.447
815.41	71.186
815.72	54.762
816.02	78.431
816.32	64.583
816.62	63.415
816.93	70.270
817.23	54.286
817.53	89.583
817.84	36.957
818.14	84.615
818.44	39.474
818.74	67.391
819.04	47.500
819.35	83.784
819.65	79.412
819.95	88.889
820.25	47.619
820.56	100.000
820.86	24.138
821.16	125.000
821.46	55.319
821.76	90.000
822.07	76.744
822.37	59.459
822.67	93.750
822.97	66.667
823.27	71.429
823.57	92.000
823.88	74.074
824.18	92.857
824.48	91.176
824.78	51.613
825.08	78.261
825.38	93.939
825.69	100.000
825.99	44.737
826.29	61.111
826.59	213.333
826.89	42.857
827.19	86.957
827.49	55.000
827.79	108.571
828.09	89.286
828.39	81.818
828.70	113.514
829.00	78.571
829.30	66.667
829.60	90.000
829.90	84.375
830.20	55.263
830.50	62.963
830.80	65.217
831.10	72.727
831.40	112.121
831.70	48.387
832.00	128.571
832.30	61.905
832.60	108.333
832.90	48.276
833.20	15.000
833.50	112.121
833.80	48.148
834.10	73.077
834.40	106.250
834.70	100.000
835.00	68.421
835.30	107.692
835.60	140.000
835.90	74.194
836.20	90.909
836.50	103.571
836.80	42.308
837.10	53.571
837.40	133.333
837.70	36.364
838.00	72.727
838.30	82.609
838.60	138.462
838.90	63.636
839.19	67.857
839.49	70.000
839.79	76.923
840.09	50.000
840.39	110.714
840.69	42.857
840.99	34.615
841.29	42.105
841.59	80.000
841.88	90.909
842.18	130.000
842.48	125.000
842.78	73.333
843.08	48.148
843.38	30.000
843.68	73.913
843.97	86.667
844.27	0.000
844.57	70.000
844.87	55.556
845.17	23.810
845.47	133.333
845.76	33.333
846.06	58.824
846.36	140.000
846.66	78.571
846.96	173.333
847.25	162.500
847.55	114.286
847.85	87.500
848.15	77.273
848.44	-233.333
848.74	80.000
849.04	51.852
849.34	63.636
849.63	50.000
849.93	180.000
850.23	72.222
850.53	210.000
850.82	-7.692
851.12	155.556
851.42	146.667
851.71	42.308
852.01	128.571
852.31	100.000
852.61	72.727
852.90	40.000
853.20	131.579
853.50	125.000
853.79	69.565
854.09	75.000
854.39	100.000
854.68	37.500
854.98	90.323
855.28	53.846
855.57	40.000
855.87	88.889
856.17	85.185
856.46	142.857
856.76	73.333
857.05	166.667
857.35	64.000
857.65	88.889
857.94	92.308
858.24	27.586
858.53	55.556
858.83	103.704
859.13	81.818
859.42	-4.348
859.72	375.000
860.01	133.333
860.31	92.000
860.60	76.190
860.90	133.333
861.20	40.000
861.49	50.000
861.79	26.667
862.08	100.000
862.38	133.333
862.67	-140.000
862.97	283.333
863.26	50.000
863.56	88.889
863.85	-33.333
864.15	122.222
864.44	20.000
864.74	135.714
865.03	100.000
865.33	-20.000
865.62	100.000
865.92	100.000
866.21	-83.333
866.51	106.250
866.80	0.000
867.10	-50.000
867.39	108.333
867.69	0.000
867.98	61.538
868.27	433.333
868.57	80.000
868.86	66.667
869.16	15.385
869.45	106.667
869.75	300.000
870.04	0.000
870.33	128.571
870.63	42.857
870.92	-100.000
871.22	100.000
871.51	900.000
871.80	255.556
872.10	-33.333
>>>>>End Processed Spectral Data<<<<<
