SpectraSuite Data File
++++++++++++++++++++++++++++++++++++
Date: Fri May 15 20:05:52 PDT 2015
User: schluterlab
Dark Spectrum Present: Yes
Reference Spectrum Present: Yes
Number of Sampled Component Spectra: 1
Spectrometers: USB2E3373
Integration Time (usec): 3000 (USB2E3373)
Spectra Averaged: 3 (USB2E3373)
Boxcar Smoothing: 0 (USB2E3373)
Correct for Electrical Dark: No (USB2E3373)
Strobe/Lamp Enabled: No (USB2E3373)
Correct for Detector Non-linearity: No (USB2E3373)
Correct for Stray Light: No (USB2E3373)
Number of Pixels in Processed Spectrum: 2048
>>>>>Begin Processed Spectral Data<<<<<
178.53	0.000
178.91	0.000
179.29	-12.500
179.67	-400.000
180.04	-28.571
180.42	175.000
180.80	-600.000
181.18	166.667
181.56	550.000
181.94	-50.000
182.31	400.000
182.69	-140.000
183.07	-300.000
183.45	0.000
183.83	83.333
184.20	-9.091
184.58	-0.000
184.96	175.000
185.34	100.000
185.72	-350.000
186.09	30.769
186.47	-400.000
186.85	133.333
187.23	77.778
187.61	500.000
187.98	-433.333
188.36	44.444
188.74	-233.333
189.12	100.000
189.49	100.000
189.87	0.000
190.25	-14.286
190.63	50.000
191.00	200.000
191.38	-10.526
191.76	400.000
192.14	-225.000
192.51	0.000
192.89	22.222
193.27	-171.429
193.65	66.667
194.02	90.909
194.40	0.000
194.78	-300.000
195.15	-83.333
195.53	-37.500
195.91	50.000
196.29	-200.000
196.66	115.385
197.04	100.000
197.42	-55.556
197.79	-400.000
198.17	-53.846
198.55	1300.000
198.92	-133.333
199.30	0.000
199.68	0.000
200.05	-666.667
200.43	0.000
200.81	-33.333
201.18	233.333
201.56	400.000
201.94	50.000
202.31	-66.667
202.69	-140.000
203.07	50.000
203.44	-500.000
203.82	0.000
204.19	71.429
204.57	-333.333
204.95	62.500
205.32	10.000
205.70	-114.286
206.08	125.000
206.45	177.778
206.83	85.714
207.20	-242.857
207.58	-1000.000
207.96	-266.667
208.33	-90.000
208.71	-175.000
209.08	-33.333
209.46	-1000.000
209.84	-80.000
210.21	-100.000
210.59	14.286
210.96	133.333
211.34	-25.000
211.71	13.333
212.09	-85.714
212.46	-1800.000
212.84	0.000
213.22	100.000
213.59	300.000
213.97	-15.385
214.34	9.091
214.72	-50.000
215.09	275.000
215.47	15.385
215.84	45.455
216.22	-200.000
216.59	-75.000
216.97	0.000
217.34	125.000
217.72	-220.000
218.09	75.000
218.47	100.000
218.84	-600.000
219.22	-44.444
219.59	-200.000
219.97	366.667
220.34	250.000
220.72	-71.429
221.09	-250.000
221.47	-150.000
221.84	-550.000
222.22	-700.000
222.59	-18.182
222.97	-16.667
223.34	166.667
223.72	-7.143
224.09	42.857
224.46	21.429
224.84	333.333
225.21	-40.000
225.59	-6.667
225.96	0.000
226.34	150.000
226.71	14.286
227.08	0.000
227.46	-25.000
227.83	-350.000
228.21	-44.444
228.58	72.727
228.95	50.000
229.33	110.000
229.70	12.500
230.08	-50.000
230.45	-142.857
230.82	142.857
231.20	-6.667
231.57	114.286
231.95	-71.429
232.32	-130.000
232.69	-21.429
233.07	66.667
233.44	40.000
233.81	-30.000
234.19	22.222
234.56	-23.529
234.93	500.000
235.31	100.000
235.68	-300.000
236.05	-30.769
236.43	-85.000
236.80	11.765
237.17	3.125
237.55	-5.000
237.92	-7.407
238.29	-5.556
238.67	40.000
239.04	5.882
239.41	-24.390
239.79	-33.333
240.16	14.634
240.53	13.158
240.91	-4.348
241.28	1.587
241.65	17.857
242.02	9.589
242.40	40.000
242.77	6.780
243.14	-7.576
243.51	8.750
243.89	5.747
244.26	5.747
244.63	2.381
245.00	8.247
245.38	1.031
245.75	-8.989
246.12	-3.448
246.49	5.785
246.87	8.654
247.24	5.882
247.61	5.263
247.98	3.252
248.36	6.250
248.73	9.211
249.10	2.597
249.47	5.063
249.84	1.307
250.22	8.824
250.59	10.458
250.96	12.676
251.33	4.070
251.70	4.706
252.08	5.584
252.45	5.941
252.82	1.508
253.19	4.608
253.56	0.935
253.94	8.108
254.31	8.261
254.68	7.018
255.05	2.362
255.42	7.860
255.79	5.019
256.16	9.339
256.54	9.701
256.91	4.563
257.28	5.576
257.65	0.749
258.02	1.418
258.39	6.061
258.76	8.425
259.14	4.319
259.51	5.825
259.88	3.436
260.25	1.634
260.62	8.333
260.99	3.051
261.36	1.027
261.73	6.013
262.10	5.775
262.47	4.601
262.85	2.194
263.22	7.077
263.59	7.477
263.96	8.385
264.33	4.848
264.70	7.143
265.07	3.571
265.44	7.082
265.81	5.085
266.18	3.552
266.55	6.684
266.92	4.663
267.29	5.483
267.66	7.417
268.03	3.665
268.40	1.305
268.77	9.091
269.14	6.715
269.51	6.941
269.88	1.247
270.25	3.061
270.62	3.415
270.99	3.325
271.36	3.912
271.73	6.103
272.10	4.136
272.47	4.728
272.84	6.436
273.21	5.336
273.58	4.096
273.95	6.407
274.32	5.774
274.69	4.072
275.06	6.473
275.43	4.082
275.80	5.740
276.17	4.598
276.54	7.495
276.91	9.211
277.28	3.712
277.65	7.231
278.02	5.957
278.39	5.252
278.76	6.709
279.13	2.905
279.50	7.563
279.87	6.048
280.23	5.806
280.60	7.602
280.97	5.657
281.34	5.000
281.71	5.749
282.08	2.658
282.45	4.892
282.82	4.826
283.19	6.383
283.56	6.166
283.92	4.744
284.29	5.192
284.66	6.589
285.03	5.501
285.40	6.616
285.77	4.569
286.14	5.054
286.51	6.827
286.87	4.022
287.24	3.131
287.61	4.233
287.98	6.491
288.35	3.986
288.72	5.954
289.08	5.208
289.45	5.975
289.82	5.420
290.19	4.096
290.56	5.832
290.93	6.902
291.29	5.547
291.66	6.299
292.03	6.220
292.40	4.839
292.77	4.785
293.13	3.896
293.50	3.187
293.87	5.191
294.24	5.873
294.60	6.557
294.97	6.250
295.34	5.061
295.71	6.110
296.08	3.737
296.44	1.422
296.81	3.750
297.18	4.058
297.55	5.691
297.91	4.521
298.28	5.277
298.65	5.156
299.02	4.852
299.38	4.241
299.75	3.586
300.12	3.534
300.48	4.480
300.85	6.084
301.22	3.636
301.59	5.132
301.95	5.570
302.32	7.004
302.69	4.975
303.05	3.960
303.42	4.608
303.79	4.790
304.15	5.854
304.52	3.448
304.89	4.211
305.25	3.995
305.62	5.018
305.99	5.029
306.35	4.393
306.72	3.712
307.09	5.245
307.45	5.166
307.82	3.704
308.19	5.459
308.55	5.125
308.92	5.664
309.29	4.693
309.65	4.306
310.02	5.501
310.38	4.720
310.75	5.137
311.12	6.136
311.48	6.469
311.85	6.283
312.22	5.485
312.58	5.945
312.95	5.443
313.31	5.590
313.68	5.236
314.05	5.816
314.41	7.526
314.78	5.773
315.14	7.503
315.51	6.832
315.87	6.865
316.24	6.977
316.61	8.366
316.97	8.730
317.34	6.641
317.70	6.979
318.07	7.692
318.43	8.235
318.80	7.670
319.16	8.203
319.53	9.782
319.89	7.874
320.26	9.413
320.62	9.629
320.99	8.559
321.35	9.661
321.72	9.969
322.08	9.265
322.45	9.848
322.81	11.690
323.18	10.304
323.54	11.004
323.91	11.782
324.27	11.426
324.64	10.581
325.00	12.409
325.37	13.315
325.73	12.330
326.10	13.261
326.46	13.363
326.83	13.123
327.19	13.252
327.56	15.639
327.92	14.261
328.29	13.750
328.65	14.811
329.01	15.349
329.38	14.931
329.74	15.297
330.11	16.219
330.47	14.750
330.84	15.865
331.20	17.015
331.56	15.370
331.93	15.160
332.29	16.315
332.66	16.109
333.02	16.450
333.38	16.315
333.75	16.300
334.11	15.488
334.48	17.588
334.84	15.934
335.20	17.749
335.57	15.322
335.93	15.447
336.29	16.114
336.66	15.622
337.02	15.149
337.38	14.630
337.75	15.364
338.11	15.780
338.47	16.697
338.84	16.451
339.20	17.093
339.56	16.606
339.93	16.920
340.29	15.872
340.65	17.025
341.02	16.135
341.38	15.929
341.74	15.194
342.11	15.511
342.47	15.391
342.83	16.176
343.20	15.854
343.56	16.609
343.92	16.563
344.28	16.909
344.65	16.667
345.01	15.385
345.37	15.223
345.73	16.653
346.10	15.962
346.46	15.223
346.82	15.303
347.19	14.963
347.55	16.625
347.91	16.424
348.27	15.926
348.63	16.525
349.00	14.356
349.36	16.126
349.72	16.584
350.08	16.311
350.45	16.600
350.81	14.867
351.17	16.531
351.53	15.755
351.89	16.020
352.26	15.600
352.62	16.371
352.98	15.904
353.34	15.298
353.70	16.019
354.07	15.484
354.43	14.972
354.79	16.928
355.15	16.349
355.51	16.060
355.87	15.777
356.24	15.090
356.60	16.572
356.96	16.349
357.32	16.054
357.68	16.028
358.04	16.559
358.40	15.113
358.77	17.305
359.13	15.773
359.49	16.410
359.85	16.459
360.21	15.949
360.57	16.526
360.93	16.566
361.29	15.483
361.66	17.320
362.02	17.197
362.38	17.136
362.74	16.881
363.10	17.231
363.46	16.976
363.82	17.881
364.18	16.900
364.54	15.588
364.90	17.061
365.26	16.594
365.62	17.810
365.98	16.276
366.35	18.208
366.71	17.738
367.07	18.070
367.43	16.751
367.79	17.527
368.15	17.301
368.51	17.698
368.87	17.301
369.23	17.690
369.59	17.857
369.95	17.962
370.31	17.630
370.67	17.836
371.03	17.700
371.39	18.016
371.75	18.242
372.11	18.260
372.47	19.083
372.83	17.672
373.19	18.331
373.55	17.329
373.91	18.143
374.27	18.994
374.63	18.593
374.99	18.156
375.35	18.942
375.71	18.951
376.07	18.399
376.42	18.776
376.78	17.987
377.14	19.702
377.50	19.788
377.86	19.344
378.22	19.528
378.58	19.744
378.94	19.660
379.30	19.963
379.66	20.313
380.02	19.926
380.38	20.390
380.74	20.347
381.09	20.368
381.45	19.388
381.81	20.234
382.17	21.320
382.53	20.675
382.89	20.213
383.25	20.784
383.61	20.610
383.97	21.016
384.32	20.951
384.68	21.424
385.04	21.201
385.40	21.344
385.76	21.509
386.12	22.316
386.48	21.584
386.83	22.448
387.19	22.222
387.55	23.212
387.91	22.555
388.27	22.222
388.62	22.089
388.98	22.529
389.34	23.735
389.70	22.498
390.06	22.026
390.42	22.927
390.77	22.237
391.13	21.753
391.49	22.445
391.85	22.352
392.20	22.787
392.56	22.250
392.92	23.664
393.28	23.054
393.64	22.523
393.99	23.448
394.35	21.885
394.71	23.308
395.07	21.810
395.42	22.040
395.78	22.671
396.14	23.329
396.50	23.335
396.85	23.245
397.21	22.870
397.57	23.197
397.92	22.768
398.28	22.529
398.64	22.169
399.00	23.138
399.35	21.558
399.71	22.631
400.07	22.672
400.42	22.093
400.78	22.229
401.14	22.384
401.49	23.109
401.85	21.633
402.21	22.470
402.57	22.188
402.92	20.954
403.28	22.368
403.63	22.636
403.99	21.429
404.35	22.423
404.70	21.548
405.06	21.915
405.42	21.007
405.77	21.732
406.13	21.420
406.49	21.374
406.84	22.188
407.20	21.915
407.55	20.992
407.91	21.524
408.27	20.969
408.62	21.477
408.98	21.010
409.34	22.305
409.69	21.382
410.05	20.567
410.40	21.049
410.76	21.653
411.11	21.500
411.47	21.893
411.83	20.716
412.18	21.236
412.54	21.598
412.89	20.443
413.25	22.563
413.60	21.677
413.96	20.920
414.31	21.585
414.67	21.232
415.03	21.305
415.38	20.822
415.74	20.912
416.09	22.142
416.45	21.404
416.80	21.216
417.16	21.409
417.51	21.985
417.87	21.252
418.22	21.567
418.58	21.070
418.93	22.571
419.29	20.679
419.64	21.646
420.00	22.985
420.35	21.731
420.71	22.600
421.06	21.977
421.42	23.017
421.77	22.428
422.12	21.907
422.48	22.144
422.83	22.564
423.19	23.138
423.54	22.105
423.90	22.909
424.25	22.962
424.61	23.807
424.96	22.880
425.31	24.206
425.67	23.650
426.02	23.616
426.38	23.795
426.73	24.274
427.09	23.924
427.44	24.412
427.79	23.100
428.15	24.697
428.50	25.197
428.85	24.263
429.21	24.505
429.56	24.313
429.92	24.807
430.27	24.561
430.62	24.464
430.98	24.204
431.33	25.605
431.68	24.699
432.04	25.545
432.39	25.100
432.74	25.075
433.10	26.207
433.45	26.105
433.80	25.711
434.16	25.374
434.51	25.968
434.86	26.423
435.22	26.304
435.57	26.388
435.92	25.629
436.28	26.058
436.63	26.868
436.98	26.419
437.34	26.376
437.69	27.013
438.04	27.350
438.39	26.451
438.75	26.958
439.10	27.278
439.45	27.815
439.81	26.667
440.16	28.147
440.51	28.537
440.86	29.426
441.22	26.980
441.57	28.201
441.92	28.279
442.27	28.326
442.63	29.122
442.98	28.317
443.33	27.101
443.68	28.170
444.03	28.515
444.39	27.742
444.74	29.097
445.09	29.566
445.44	28.946
445.79	28.881
446.15	28.304
446.50	28.397
446.85	28.640
447.20	28.989
447.55	30.134
447.91	28.257
448.26	29.368
448.61	28.325
448.96	29.375
449.31	29.249
449.66	29.210
450.02	29.093
450.37	28.690
450.72	28.866
451.07	30.380
451.42	29.526
451.77	29.656
452.12	29.246
452.47	28.976
452.83	29.682
453.18	30.044
453.53	30.152
453.88	29.387
454.23	30.301
454.58	30.353
454.93	30.863
455.28	29.524
455.63	30.316
455.98	29.405
456.34	30.843
456.69	29.797
457.04	31.758
457.39	28.615
457.74	30.109
458.09	29.253
458.44	30.018
458.79	29.468
459.14	30.092
459.49	31.104
459.84	29.836
460.19	31.250
460.54	29.951
460.89	31.250
461.24	29.814
461.59	30.463
461.94	29.119
462.29	31.423
462.64	30.831
462.99	30.873
463.34	29.764
463.69	29.665
464.04	30.327
464.39	30.564
464.74	29.877
465.09	30.942
465.44	31.275
465.79	29.762
466.14	31.528
466.49	30.765
466.84	30.458
467.19	30.288
467.54	29.757
467.89	29.690
468.24	29.562
468.59	31.175
468.94	31.238
469.29	31.869
469.64	31.647
469.99	31.254
470.34	30.512
470.68	31.916
471.03	31.139
471.38	31.526
471.73	31.443
472.08	31.275
472.43	30.671
472.78	30.569
473.13	30.340
473.48	30.879
473.83	30.760
474.17	30.959
474.52	30.887
474.87	30.909
475.22	30.506
475.57	31.508
475.92	30.993
476.27	31.839
476.61	31.829
476.96	30.508
477.31	30.503
477.66	31.067
478.01	31.162
478.36	30.283
478.70	32.246
479.05	32.088
479.40	31.849
479.75	30.709
480.10	31.592
480.45	30.600
480.79	32.931
481.14	30.686
481.49	30.739
481.84	31.371
482.19	30.589
482.53	31.703
482.88	31.599
483.23	30.710
483.58	30.849
483.92	30.639
484.27	30.492
484.62	30.973
484.97	30.058
485.31	31.214
485.66	30.091
486.01	31.074
486.36	31.213
486.70	31.622
487.05	32.075
487.40	31.101
487.75	30.761
488.09	30.810
488.44	30.433
488.79	31.304
489.13	31.090
489.48	30.526
489.83	30.717
490.17	30.247
490.52	30.439
490.87	29.708
491.22	30.946
491.56	30.740
491.91	30.880
492.26	30.919
492.60	30.422
492.95	31.530
493.30	30.630
493.64	31.532
493.99	30.676
494.34	30.340
494.68	31.143
495.03	30.706
495.37	30.128
495.72	30.692
496.07	31.122
496.41	30.613
496.76	30.723
497.11	31.160
497.45	31.074
497.80	31.534
498.14	29.806
498.49	31.234
498.84	30.739
499.18	30.873
499.53	30.605
499.87	31.128
500.22	30.514
500.56	32.577
500.91	31.727
501.26	30.203
501.60	30.251
501.95	30.713
502.29	30.944
502.64	31.998
502.98	30.636
503.33	30.548
503.67	30.602
504.02	32.014
504.36	30.876
504.71	30.657
505.06	30.347
505.40	30.406
505.75	31.289
506.09	30.512
506.44	31.263
506.78	30.510
507.13	30.765
507.47	29.608
507.82	30.182
508.16	30.481
508.51	30.483
508.85	30.141
509.19	29.963
509.54	30.724
509.88	30.744
510.23	30.877
510.57	31.694
510.92	29.957
511.26	30.551
511.61	30.308
511.95	30.521
512.30	30.876
512.64	29.939
512.98	30.208
513.33	30.778
513.67	30.529
514.02	31.236
514.36	31.486
514.70	31.527
515.05	31.492
515.39	30.874
515.74	31.856
516.08	31.022
516.42	30.801
516.77	31.422
517.11	30.801
517.46	30.940
517.80	30.334
518.14	30.680
518.49	30.589
518.83	30.680
519.17	30.321
519.52	30.432
519.86	30.192
520.20	29.769
520.55	30.019
520.89	30.740
521.23	30.272
521.58	31.041
521.92	29.744
522.26	30.254
522.61	30.649
522.95	31.589
523.29	30.813
523.64	29.924
523.98	31.367
524.32	30.606
524.66	31.178
525.01	30.065
525.35	31.821
525.69	29.966
526.04	29.828
526.38	30.869
526.72	30.608
527.06	29.118
527.41	31.530
527.75	29.826
528.09	29.967
528.43	32.073
528.78	29.835
529.12	30.516
529.46	29.695
529.80	30.019
530.15	30.957
530.49	30.034
530.83	30.506
531.17	30.289
531.51	31.395
531.86	30.252
532.20	30.271
532.54	30.429
532.88	29.911
533.22	30.040
533.57	30.210
533.91	29.830
534.25	30.273
534.59	29.185
534.93	29.201
535.27	29.315
535.62	29.423
535.96	29.811
536.30	29.288
536.64	30.531
536.98	29.268
537.32	30.939
537.66	30.365
538.01	30.420
538.35	29.334
538.69	28.961
539.03	29.528
539.37	30.081
539.71	30.061
540.05	29.667
540.39	30.055
540.73	28.870
541.07	30.249
541.42	30.847
541.76	30.902
542.10	29.800
542.44	30.438
542.78	28.699
543.12	29.121
543.46	29.833
543.80	29.355
544.14	29.573
544.48	29.247
544.82	29.323
545.16	30.055
545.50	30.507
545.84	30.382
546.18	30.071
546.52	29.200
546.86	29.260
547.20	28.970
547.54	29.187
547.88	29.959
548.22	29.389
548.56	28.562
548.90	30.256
549.24	29.683
549.58	29.831
549.92	28.949
550.26	29.231
550.60	30.186
550.94	30.246
551.28	30.062
551.62	30.000
551.96	30.376
552.30	30.409
552.64	29.408
552.98	30.591
553.32	29.173
553.66	28.737
554.00	29.854
554.34	31.684
554.68	29.351
555.02	30.060
555.36	31.339
555.69	29.377
556.03	30.193
556.37	29.680
556.71	29.314
557.05	30.425
557.39	29.071
557.73	30.810
558.07	30.468
558.41	29.556
558.75	30.320
559.08	29.078
559.42	30.000
559.76	30.905
560.10	30.352
560.44	30.827
560.78	30.350
561.12	30.324
561.45	31.553
561.79	29.902
562.13	30.944
562.47	30.432
562.81	30.403
563.15	29.831
563.48	31.117
563.82	30.679
564.16	30.432
564.50	29.662
564.84	29.987
565.17	29.913
565.51	31.352
565.85	30.658
566.19	29.509
566.52	30.496
566.86	31.491
567.20	30.075
567.54	30.839
567.88	31.166
568.21	30.939
568.55	30.707
568.89	30.749
569.23	30.477
569.56	30.604
569.90	30.694
570.24	30.257
570.57	31.055
570.91	31.021
571.25	30.385
571.59	30.302
571.92	30.074
572.26	30.254
572.60	29.953
572.93	30.060
573.27	29.749
573.61	30.072
573.95	30.202
574.28	29.820
574.62	29.748
574.96	29.993
575.29	30.262
575.63	29.308
575.97	29.032
576.30	29.604
576.64	29.192
576.98	30.785
577.31	30.622
577.65	30.344
577.98	30.135
578.32	29.864
578.66	29.809
578.99	29.855
579.33	29.378
579.67	29.246
580.00	29.494
580.34	30.199
580.67	30.242
581.01	30.091
581.35	29.974
581.68	30.466
582.02	30.941
582.35	30.362
582.69	30.347
583.02	30.464
583.36	30.968
583.70	30.789
584.03	31.248
584.37	31.451
584.70	30.714
585.04	29.819
585.37	31.450
585.71	31.400
586.04	31.039
586.38	30.835
586.72	31.650
587.05	31.456
587.39	31.758
587.72	31.903
588.06	31.608
588.39	31.473
588.73	31.746
589.06	31.670
589.40	31.835
589.73	31.763
590.07	32.477
590.40	32.469
590.73	32.661
591.07	31.807
591.40	31.790
591.74	32.534
592.07	32.931
592.41	32.906
592.74	31.701
593.08	32.169
593.41	31.928
593.75	31.469
594.08	32.269
594.41	32.569
594.75	32.481
595.08	33.068
595.42	32.389
595.75	33.383
596.09	33.385
596.42	32.823
596.75	33.970
597.09	32.528
597.42	32.836
597.75	32.203
598.09	32.187
598.42	32.175
598.76	31.918
599.09	32.973
599.42	32.550
599.76	32.957
600.09	32.428
600.42	33.283
600.76	32.467
601.09	32.786
601.42	32.119
601.76	32.275
602.09	32.467
602.42	33.614
602.76	32.767
603.09	33.389
603.42	33.570
603.76	33.306
604.09	32.645
604.42	32.445
604.76	33.289
605.09	33.592
605.42	32.551
605.75	32.137
606.09	33.588
606.42	32.652
606.75	32.857
607.09	33.319
607.42	32.477
607.75	32.860
608.08	31.626
608.42	32.252
608.75	33.349
609.08	33.632
609.41	33.096
609.75	32.006
610.08	32.701
610.41	33.478
610.74	32.569
611.07	33.127
611.41	33.939
611.74	34.062
612.07	32.120
612.40	33.479
612.73	33.051
613.07	33.521
613.40	33.589
613.73	32.960
614.06	33.111
614.39	32.995
614.72	32.885
615.06	32.737
615.39	32.041
615.72	32.454
616.05	33.017
616.38	32.479
616.71	31.865
617.05	33.292
617.38	33.878
617.71	33.145
618.04	33.524
618.37	33.733
618.70	33.729
619.03	34.097
619.36	32.489
619.69	33.889
620.03	33.893
620.36	32.833
620.69	32.405
621.02	32.645
621.35	34.274
621.68	34.184
622.01	32.833
622.34	32.721
622.67	33.675
623.00	32.848
623.33	32.165
623.66	33.283
623.99	32.526
624.32	34.373
624.65	32.782
624.99	32.957
625.32	32.752
625.65	32.836
625.98	32.393
626.31	33.167
626.64	32.929
626.97	33.159
627.30	32.312
627.63	34.402
627.96	33.603
628.29	34.413
628.62	32.842
628.95	30.862
629.28	32.460
629.61	32.901
629.94	34.311
630.26	33.202
630.59	34.339
630.92	33.436
631.25	32.718
631.58	34.031
631.91	33.114
632.24	32.225
632.57	34.318
632.90	32.147
633.23	32.118
633.56	33.375
633.89	33.292
634.22	32.963
634.55	33.291
634.88	33.333
635.20	32.051
635.53	33.600
635.86	31.599
636.19	32.730
636.52	32.270
636.85	32.258
637.18	33.082
637.51	34.340
637.83	32.457
638.16	33.288
638.49	32.698
638.82	35.263
639.15	32.429
639.48	32.875
639.81	34.031
640.13	32.323
640.46	34.840
640.79	30.928
641.12	33.973
641.45	33.183
641.77	32.444
642.10	32.859
642.43	34.727
642.76	33.003
643.09	34.895
643.41	31.553
643.74	32.290
644.07	34.319
644.40	30.743
644.73	35.552
645.05	32.047
645.38	34.568
645.71	34.220
646.04	35.009
646.36	33.156
646.69	32.374
647.02	33.270
647.35	33.769
647.67	32.724
648.00	32.463
648.33	34.130
648.66	31.695
648.98	30.821
649.31	31.901
649.64	32.967
649.96	32.091
650.29	34.753
650.62	33.333
650.94	33.889
651.27	33.520
651.60	32.072
651.92	33.566
652.25	32.504
652.58	32.333
652.90	34.477
653.23	33.613
653.56	31.641
653.88	32.990
654.21	29.247
654.54	32.258
654.86	33.277
655.19	33.918
655.52	35.526
655.84	33.811
656.17	38.176
656.49	51.458
656.82	53.101
657.15	40.573
657.47	30.398
657.80	22.359
658.13	21.821
658.45	33.957
658.78	33.488
659.10	32.969
659.43	32.839
659.75	33.054
660.08	32.966
660.41	32.074
660.73	32.044
661.06	31.716
661.38	33.659
661.71	31.211
662.03	34.120
662.36	32.967
662.68	32.743
663.01	33.624
663.33	32.251
663.66	30.465
663.98	33.023
664.31	31.983
664.63	31.106
664.96	28.913
665.28	32.671
665.61	31.169
665.93	30.652
666.26	31.670
666.58	32.215
666.91	31.529
667.23	33.491
667.56	32.701
667.88	32.854
668.21	34.606
668.53	34.752
668.86	32.311
669.18	30.660
669.50	29.782
669.83	30.930
670.15	35.198
670.48	30.383
670.80	30.645
671.13	30.425
671.45	30.594
671.77	34.120
672.10	32.475
672.42	30.337
672.75	31.794
673.07	32.558
673.39	33.211
673.72	31.164
674.04	30.000
674.37	32.839
674.69	32.548
675.01	30.667
675.34	34.910
675.66	33.565
675.98	32.816
676.31	31.422
676.63	29.929
676.95	31.364
677.28	34.118
677.60	31.084
677.92	31.651
678.25	34.792
678.57	31.169
678.89	30.462
679.22	32.662
679.54	30.522
679.86	30.815
680.18	32.816
680.51	32.386
680.83	30.616
681.15	31.000
681.48	35.041
681.80	32.851
682.12	33.669
682.44	33.054
682.77	33.554
683.09	32.494
683.41	31.136
683.73	32.258
684.06	31.858
684.38	28.817
684.70	33.769
685.02	31.950
685.34	30.830
685.67	32.270
685.99	31.826
686.31	35.398
686.63	31.725
686.96	31.179
687.28	30.303
687.60	31.179
687.92	35.960
688.24	31.452
688.56	32.096
688.89	31.250
689.21	33.111
689.53	31.090
689.85	32.791
690.17	34.598
690.49	32.624
690.82	32.282
691.14	30.238
691.46	33.178
691.78	31.982
692.10	33.118
692.42	31.602
692.74	32.692
693.06	30.180
693.39	32.353
693.71	29.864
694.03	30.947
694.35	31.075
694.67	34.596
694.99	29.243
695.31	32.115
695.63	30.250
695.95	30.556
696.27	32.902
696.59	31.111
696.91	30.532
697.23	29.820
697.56	31.931
697.88	30.968
698.20	30.752
698.52	31.294
698.84	28.947
699.16	32.750
699.48	29.574
699.80	33.002
700.12	30.997
700.44	29.412
700.76	28.198
701.08	29.394
701.40	26.205
701.72	34.877
702.04	33.003
702.36	34.114
702.68	29.730
703.00	31.818
703.32	28.446
703.64	31.073
703.96	31.304
704.28	32.515
704.60	31.111
704.91	27.445
705.23	29.568
705.55	34.629
705.87	32.491
706.19	30.000
706.51	31.615
706.83	31.833
707.15	28.349
707.47	30.812
707.79	30.729
708.11	31.250
708.43	30.000
708.74	32.817
709.06	33.521
709.38	34.251
709.70	35.207
710.02	34.076
710.34	35.604
710.66	27.564
710.98	31.457
711.29	32.131
711.61	33.220
711.93	31.596
712.25	37.457
712.57	32.601
712.89	33.209
713.20	30.796
713.52	29.617
713.84	33.106
714.16	29.210
714.48	29.355
714.80	31.090
715.11	29.483
715.43	30.721
715.75	25.667
716.07	29.900
716.39	30.537
716.70	28.782
717.02	24.809
717.34	35.223
717.66	34.071
717.97	29.130
718.29	32.636
718.61	32.677
718.93	32.558
719.24	32.700
719.56	33.735
719.88	32.302
720.20	32.576
720.51	26.820
720.83	30.888
721.15	32.773
721.46	30.645
721.78	26.877
722.10	32.342
722.42	29.876
722.73	30.612
723.05	32.653
723.37	32.627
723.68	32.883
724.00	29.060
724.32	31.556
724.63	26.364
724.95	28.384
725.27	36.406
725.58	31.780
725.90	28.571
726.22	32.819
726.53	33.898
726.85	31.835
727.16	32.453
727.48	30.769
727.80	27.935
728.11	30.508
728.43	29.020
728.74	29.435
729.06	30.800
729.38	33.459
729.69	25.498
730.01	33.077
730.32	38.806
730.64	31.095
730.96	31.698
731.27	31.000
731.59	35.254
731.90	31.210
732.22	30.599
732.53	34.219
732.85	33.688
733.16	37.374
733.48	26.259
733.80	30.072
734.11	31.186
734.43	33.333
734.74	33.030
735.06	29.316
735.37	33.837
735.69	35.354
736.00	29.965
736.32	29.530
736.63	32.394
736.95	30.375
737.26	30.605
737.58	29.195
737.89	32.601
738.21	26.316
738.52	32.922
738.83	33.188
739.15	27.074
739.46	33.071
739.78	24.176
740.09	33.007
740.41	30.435
740.72	29.528
741.04	31.984
741.35	26.383
741.66	33.175
741.98	32.143
742.29	27.723
742.61	32.461
742.92	26.066
743.23	28.241
743.55	32.579
743.86	28.708
744.18	30.144
744.49	34.043
744.80	28.261
745.12	39.037
745.43	26.829
745.74	33.854
746.06	25.854
746.37	35.079
746.68	28.436
747.00	28.723
747.31	34.826
747.62	32.524
747.94	25.359
748.25	30.693
748.56	28.962
748.88	32.984
749.19	33.511
749.50	30.542
749.82	33.962
750.13	26.606
750.44	36.466
750.75	34.328
751.07	35.766
751.38	31.801
751.69	30.980
752.01	34.109
752.32	30.279
752.63	30.435
752.94	25.862
753.26	38.075
753.57	29.864
753.88	28.761
754.19	30.000
754.51	32.645
754.82	34.413
755.13	35.417
755.44	33.468
755.75	29.687
756.07	30.739
756.38	28.679
756.69	34.483
757.00	32.667
757.31	30.392
757.63	31.707
757.94	32.778
758.25	26.575
758.56	30.851
758.87	26.912
759.18	28.349
759.50	31.273
759.81	33.110
760.12	32.581
760.43	30.000
760.74	34.877
761.05	32.000
761.36	30.114
761.67	35.152
761.99	32.653
762.30	25.818
762.61	35.968
762.92	28.959
763.23	26.577
763.54	30.841
763.85	30.508
764.16	26.556
764.47	29.032
764.78	27.106
765.10	30.303
765.41	30.915
765.72	27.937
766.03	25.564
766.34	29.562
766.65	31.474
766.96	30.808
767.27	22.872
767.58	26.437
767.89	32.624
768.20	26.705
768.51	34.615
768.82	28.079
769.13	28.111
769.44	28.326
769.75	31.507
770.06	27.586
770.37	27.404
770.68	26.396
770.99	29.864
771.30	34.804
771.61	29.864
771.92	28.879
772.23	32.512
772.54	32.796
772.85	31.481
773.16	34.270
773.47	33.987
773.78	35.294
774.09	26.946
774.39	23.333
774.70	24.841
775.01	35.862
775.32	25.000
775.63	25.620
775.94	30.534
776.25	35.433
776.56	28.333
776.87	34.615
777.18	21.368
777.48	25.000
777.79	28.696
778.10	33.333
778.41	31.532
778.72	38.889
779.03	29.323
779.34	33.333
779.65	30.137
779.95	30.137
780.26	24.828
780.57	23.577
780.88	35.433
781.19	28.448
781.50	27.907
781.80	23.077
782.11	28.931
782.42	28.462
782.73	37.410
783.04	31.852
783.34	29.861
783.65	24.786
783.96	30.328
784.27	33.793
784.57	26.016
784.88	24.219
785.19	47.000
785.50	32.000
785.81	26.724
786.11	24.138
786.42	14.563
786.73	36.364
787.04	24.490
787.34	18.750
787.65	22.857
787.96	25.664
788.26	32.727
788.57	20.513
788.88	25.781
789.19	35.714
789.49	18.261
789.80	31.633
790.11	32.323
790.41	23.636
790.72	31.522
791.03	18.182
791.33	32.500
791.64	20.000
791.95	24.419
792.25	20.213
792.56	30.337
792.87	19.178
793.17	20.290
793.48	16.000
793.79	18.750
794.09	40.000
794.40	31.132
794.70	24.272
795.01	23.577
795.32	20.513
795.62	30.476
795.93	29.412
796.23	34.906
796.54	23.958
796.85	29.412
797.15	36.620
797.46	41.667
797.76	39.394
798.07	25.581
798.37	23.684
798.68	24.242
798.99	27.160
799.29	17.143
799.60	23.188
799.90	30.667
800.21	39.344
800.51	18.462
800.82	23.729
801.12	31.884
801.43	37.705
801.73	31.746
802.04	16.000
802.34	16.418
802.65	25.000
802.95	17.857
803.26	11.538
803.56	43.137
803.87	17.391
804.17	34.667
804.48	42.857
804.78	27.778
805.09	23.913
805.39	26.667
805.70	20.370
806.00	-7.018
806.30	30.986
806.61	15.714
806.91	5.556
807.22	35.526
807.52	37.333
807.83	10.909
808.13	19.444
808.43	32.353
808.74	35.821
809.04	23.729
809.35	19.231
809.65	23.437
809.95	-5.405
810.26	56.818
810.56	17.808
810.86	9.524
811.17	26.000
811.47	26.531
811.77	-7.895
812.08	29.545
812.38	15.094
812.69	5.000
812.99	36.364
813.29	34.211
813.59	-14.286
813.90	36.364
814.20	17.949
814.50	21.154
814.81	18.868
815.11	6.383
815.41	27.119
815.72	35.714
816.02	29.412
816.32	6.250
816.62	17.073
816.93	16.216
817.23	25.714
817.53	58.333
817.84	0.000
818.14	36.538
818.44	5.263
818.74	26.087
819.04	0.000
819.35	32.432
819.65	5.882
819.95	27.778
820.25	-2.381
820.56	20.000
820.86	-10.345
821.16	45.000
821.46	46.809
821.76	57.500
822.07	30.233
822.37	-13.514
822.67	0.000
822.97	33.333
823.27	-53.571
823.57	16.000
823.88	37.037
824.18	17.857
824.48	23.529
824.78	-3.226
825.08	-26.087
825.38	27.273
825.69	25.000
825.99	13.158
826.29	27.778
826.59	6.667
826.89	-9.524
827.19	50.000
827.49	40.000
827.79	0.000
828.09	32.143
828.39	30.303
828.70	51.351
829.00	-35.714
829.30	-28.571
829.60	-16.667
829.90	21.875
830.20	18.421
830.50	14.815
830.80	-4.348
831.10	-4.545
831.40	48.485
831.70	-6.452
832.00	52.381
832.30	-23.810
832.60	0.000
832.90	10.345
833.20	30.000
833.50	6.061
833.80	25.926
834.10	-19.231
834.40	40.625
834.70	55.556
835.00	-5.263
835.30	34.615
835.60	26.667
835.90	35.484
836.20	-4.545
836.50	42.857
836.80	-15.385
837.10	17.857
837.40	-233.333
837.70	13.636
838.00	-72.727
838.30	13.043
838.60	53.846
838.90	0.000
839.19	7.143
839.49	26.667
839.79	46.154
840.09	-41.667
840.39	17.857
840.69	10.714
840.99	0.000
841.29	-31.579
841.59	-100.000
841.88	18.182
842.18	30.000
842.48	0.000
842.78	-26.667
843.08	-7.407
843.38	-50.000
843.68	34.783
843.97	53.333
844.27	-13.333
844.57	5.000
844.87	-11.111
845.17	4.762
845.47	0.000
845.76	-19.048
846.06	11.765
846.36	-10.000
846.66	-14.286
846.96	-20.000
847.25	-137.500
847.55	28.571
847.85	12.500
848.15	-27.273
848.44	-633.333
848.74	-10.000
849.04	44.444
849.34	0.000
849.63	-100.000
849.93	-180.000
850.23	-22.222
850.53	-40.000
850.82	-30.769
851.12	-77.778
851.42	6.667
851.71	-15.385
852.01	35.714
852.31	-250.000
852.61	-18.182
852.90	15.000
853.20	10.526
853.50	-16.667
853.79	13.043
854.09	25.000
854.39	-5.263
854.68	12.500
854.98	16.129
855.28	50.000
855.57	-35.000
855.87	50.000
856.17	33.333
856.46	14.286
856.76	-33.333
857.05	88.889
857.35	24.000
857.65	-16.667
857.94	-38.462
858.24	27.586
858.53	33.333
858.83	3.704
859.13	59.091
859.42	17.391
859.72	-300.000
860.01	-333.333
860.31	16.000
860.60	-14.286
860.90	-433.333
861.20	-6.667
861.49	-700.000
861.79	-53.333
862.08	-15.000
862.38	66.667
862.67	-60.000
862.97	-16.667
863.26	0.000
863.56	0.000
863.85	-166.667
864.15	-16.667
864.44	40.000
864.74	142.857
865.03	-0.000
865.33	-180.000
865.62	16.667
865.92	16.667
866.21	0.000
866.51	75.000
866.80	-127.273
867.10	-350.000
867.39	100.000
867.69	0.000
867.98	-30.769
868.27	-266.667
868.57	13.333
868.86	33.333
869.16	15.385
869.45	86.667
869.75	-1500.000
870.04	0.000
870.33	-114.286
870.63	19.048
870.92	300.000
871.22	-180.000
871.51	-100.000
871.80	0.000
872.10	266.667
>>>>>End Processed Spectral Data<<<<<
