SpectraSuite Data File
++++++++++++++++++++++++++++++++++++
Date: Fri May 15 20:10:43 PDT 2015
User: schluterlab
Dark Spectrum Present: Yes
Reference Spectrum Present: Yes
Number of Sampled Component Spectra: 1
Spectrometers: USB2E3373
Integration Time (usec): 3000 (USB2E3373)
Spectra Averaged: 3 (USB2E3373)
Boxcar Smoothing: 0 (USB2E3373)
Correct for Electrical Dark: No (USB2E3373)
Strobe/Lamp Enabled: No (USB2E3373)
Correct for Detector Non-linearity: No (USB2E3373)
Correct for Stray Light: No (USB2E3373)
Number of Pixels in Processed Spectrum: 2048
>>>>>Begin Processed Spectral Data<<<<<
178.53	0.000
178.91	0.000
179.29	37.500
179.67	0.000
180.04	14.286
180.42	-25.000
180.80	-800.000
181.18	100.000
181.56	-50.000
181.94	-100.000
182.31	100.000
182.69	60.000
183.07	-133.333
183.45	-60.000
183.83	16.667
184.20	9.091
184.58	133.333
184.96	-25.000
185.34	-266.667
185.72	-50.000
186.09	100.000
186.47	0.000
186.85	33.333
187.23	133.333
187.61	-0.000
187.98	166.667
188.36	33.333
188.74	-133.333
189.12	52.941
189.49	44.444
189.87	0.000
190.25	100.000
190.63	700.000
191.00	0.000
191.38	42.105
191.76	450.000
192.14	-0.000
192.51	650.000
192.89	166.667
193.27	-71.429
193.65	83.333
194.02	45.455
194.40	60.000
194.78	-37.500
195.15	50.000
195.53	-87.500
195.91	350.000
196.29	100.000
196.66	53.846
197.04	57.143
197.42	11.111
197.79	-300.000
198.17	7.692
198.55	700.000
198.92	-200.000
199.30	1100.000
199.68	40.000
200.05	-133.333
200.43	0.000
200.81	200.000
201.18	200.000
201.56	800.000
201.94	50.000
202.31	-66.667
202.69	-60.000
203.07	125.000
203.44	200.000
203.82	0.000
204.19	78.571
204.57	-500.000
204.95	37.500
205.32	-40.000
205.70	-85.714
206.08	0.000
206.45	166.667
206.83	85.714
207.20	-14.286
207.58	600.000
207.96	-66.667
208.33	-90.000
208.71	100.000
209.08	-50.000
209.46	-300.000
209.84	0.000
210.21	-500.000
210.59	114.286
210.96	250.000
211.34	225.000
211.71	66.667
212.09	-28.571
212.46	-900.000
212.84	0.000
213.22	20.000
213.59	100.000
213.97	38.462
214.34	118.182
214.72	233.333
215.09	225.000
215.47	30.769
215.84	-36.364
216.22	-66.667
216.59	25.000
216.97	450.000
217.34	175.000
217.72	40.000
218.09	50.000
218.47	75.000
218.84	200.000
219.22	0.000
219.59	120.000
219.97	333.333
220.34	50.000
220.72	-14.286
221.09	50.000
221.47	0.000
221.84	-350.000
222.22	-350.000
222.59	-18.182
222.97	-41.667
223.34	-400.000
223.72	71.429
224.09	52.381
224.46	21.429
224.84	33.333
225.21	0.000
225.59	13.333
225.96	100.000
226.34	200.000
226.71	-14.286
227.08	-83.333
227.46	-62.500
227.83	-100.000
228.21	-11.111
228.58	63.636
228.95	0.000
229.33	110.000
229.70	18.750
230.08	12.500
230.45	28.571
230.82	14.286
231.20	-33.333
231.57	92.857
231.95	42.857
232.32	-70.000
232.69	71.429
233.07	33.333
233.44	0.000
233.81	-20.000
234.19	22.222
234.56	17.647
234.93	200.000
235.31	-25.000
235.68	-260.000
236.05	30.769
236.43	-15.000
236.80	0.000
237.17	21.875
237.55	-5.000
237.92	7.407
238.29	8.333
238.67	23.333
239.04	-8.824
239.41	4.878
239.79	20.000
240.16	17.073
240.53	-15.789
240.91	-2.174
241.28	25.397
241.65	32.143
242.02	15.068
242.40	15.000
242.77	1.695
243.14	10.606
243.51	18.750
243.89	33.333
244.26	8.046
244.63	23.810
245.00	9.278
245.38	21.649
245.75	13.483
246.12	13.793
246.49	16.529
246.87	22.115
247.24	15.126
247.61	2.632
247.98	11.382
248.36	7.500
248.73	20.395
249.10	9.091
249.47	13.924
249.84	16.340
250.22	12.941
250.59	11.765
250.96	13.615
251.33	12.791
251.70	17.059
252.08	11.675
252.45	15.842
252.82	13.568
253.19	18.894
253.56	10.748
253.94	13.063
254.31	19.130
254.68	17.544
255.05	10.630
255.42	11.790
255.79	15.058
256.16	14.008
256.54	18.657
256.91	13.688
257.28	14.126
257.65	17.228
258.02	13.475
258.39	15.152
258.76	19.048
259.14	11.628
259.51	15.534
259.88	15.120
260.25	11.438
260.62	14.931
260.99	11.525
261.36	10.616
261.73	11.076
262.10	13.374
262.47	12.883
262.85	12.853
263.22	14.154
263.59	16.822
263.96	16.460
264.33	15.152
264.70	13.095
265.07	15.476
265.44	14.448
265.81	14.124
266.18	12.568
266.55	17.224
266.92	16.321
267.29	17.755
267.66	16.368
268.03	13.874
268.40	14.621
268.77	17.914
269.14	14.388
269.51	15.167
269.88	12.219
270.25	14.286
270.62	10.244
270.99	10.997
271.36	12.958
271.73	15.493
272.10	11.679
272.47	15.839
272.84	13.861
273.21	12.993
273.58	13.494
273.95	15.103
274.32	11.085
274.69	10.633
275.06	12.500
275.43	13.379
275.80	14.128
276.17	14.253
276.54	15.632
276.91	14.035
277.28	12.664
277.65	15.496
278.02	14.468
278.39	11.379
278.76	14.675
279.13	12.033
279.50	11.765
279.87	15.335
280.23	11.828
280.60	14.035
280.97	16.768
281.34	11.731
281.71	16.016
282.08	11.452
282.45	12.524
282.82	10.425
283.19	13.346
283.56	15.029
283.92	11.765
284.29	12.308
284.66	13.760
285.03	12.967
285.40	13.611
285.77	13.884
286.14	12.274
286.51	14.207
286.87	13.163
287.24	13.260
287.61	11.993
287.98	13.333
288.35	11.265
288.72	12.609
289.08	10.938
289.45	15.466
289.82	12.937
290.19	11.604
290.56	11.321
290.93	12.121
291.29	10.015
291.66	13.858
292.03	12.121
292.40	12.742
292.77	12.919
293.13	10.065
293.50	12.140
293.87	13.435
294.24	9.892
294.60	10.730
294.97	12.054
295.34	11.196
295.71	10.134
296.08	11.360
296.44	10.669
296.81	11.111
297.18	12.464
297.55	13.550
297.91	12.466
298.28	12.665
298.65	10.176
299.02	12.399
299.38	9.439
299.75	11.310
300.12	10.340
300.48	10.672
300.85	11.660
301.22	11.558
301.59	11.579
301.95	12.152
302.32	13.748
302.69	12.189
303.05	11.881
303.42	11.831
303.79	13.084
304.15	13.023
304.52	11.772
304.89	12.281
305.25	12.833
305.62	11.435
305.99	11.813
306.35	11.098
306.72	12.148
307.09	12.201
307.45	13.892
307.82	13.542
308.19	13.589
308.55	12.214
308.92	13.290
309.29	12.961
309.65	13.886
310.02	13.421
310.38	14.599
310.75	13.989
311.12	14.639
311.48	13.468
311.85	14.974
312.22	13.608
312.58	15.393
312.95	15.688
313.31	14.803
313.68	16.335
314.05	15.714
314.41	15.155
314.78	16.701
315.14	17.369
315.51	18.634
315.87	17.725
316.24	20.425
316.61	18.209
316.97	19.643
317.34	19.922
317.70	20.363
318.07	21.635
318.43	21.863
318.80	20.549
319.16	22.168
319.53	21.842
319.89	22.047
320.26	23.077
320.62	23.470
320.99	22.860
321.35	24.255
321.72	26.376
322.08	27.190
322.45	26.497
322.81	27.407
323.18	26.202
323.54	27.703
323.91	31.353
324.27	31.836
324.64	33.521
325.00	34.854
325.37	35.904
325.73	34.633
326.10	36.966
326.46	39.283
326.83	39.458
327.19	40.715
327.56	42.398
327.92	43.310
328.29	43.214
328.65	46.415
329.01	46.140
329.38	46.544
329.74	47.875
330.11	47.915
330.47	48.980
330.84	48.077
331.20	51.521
331.56	48.704
331.93	50.137
332.29	52.612
332.66	50.226
333.02	51.301
333.38	51.787
333.75	53.205
334.11	51.209
334.48	54.125
334.84	52.564
335.20	52.973
335.57	53.309
335.93	54.743
336.29	54.512
336.66	55.132
337.02	54.182
337.38	54.167
337.75	56.818
338.11	55.455
338.47	54.471
338.84	56.100
339.20	54.753
339.56	55.780
339.93	57.028
340.29	56.697
340.65	56.272
341.02	56.294
341.38	55.221
341.74	55.654
342.11	55.719
342.47	56.851
342.83	56.055
343.20	54.965
343.56	57.043
343.92	56.953
344.28	56.960
344.65	57.772
345.01	56.871
345.37	55.509
345.73	57.238
346.10	57.808
346.46	55.425
346.82	55.646
347.19	53.948
347.55	57.644
347.91	56.068
348.27	56.346
348.63	58.518
349.00	56.194
349.36	57.357
349.72	57.629
350.08	57.377
350.45	54.749
350.81	57.143
351.17	56.026
351.53	58.204
351.89	56.482
352.26	57.200
352.62	56.935
352.98	56.867
353.34	55.878
353.70	57.929
354.07	57.903
354.43	56.926
354.79	58.877
355.15	57.857
355.51	58.228
355.87	58.981
356.24	57.830
356.60	58.690
356.96	59.524
357.32	57.188
357.68	58.718
358.04	58.239
358.40	59.566
358.77	58.852
359.13	59.648
359.49	58.783
359.85	58.814
360.21	59.569
360.57	58.072
360.93	59.985
361.29	58.459
361.66	61.207
362.02	60.076
362.38	61.615
362.74	60.560
363.10	60.948
363.46	61.749
363.82	60.481
364.18	59.410
364.54	60.294
364.90	59.355
365.26	60.335
365.62	62.555
365.98	60.264
366.35	61.908
366.71	62.897
367.07	62.119
367.43	60.748
367.79	61.060
368.15	61.665
368.51	62.928
368.87	62.670
369.23	61.083
369.59	63.776
369.95	61.877
370.31	63.584
370.67	63.582
371.03	62.285
371.39	62.582
371.75	64.029
372.11	62.696
372.47	63.388
372.83	63.520
373.19	62.839
373.55	61.949
373.91	63.931
374.27	65.131
374.63	64.250
374.99	64.468
375.35	63.928
375.71	67.413
376.07	66.081
376.42	65.714
376.78	65.436
377.14	65.267
377.50	64.675
377.86	65.328
378.22	65.348
378.58	66.474
378.94	66.667
379.30	66.313
379.66	67.837
380.02	68.056
380.38	67.620
380.74	67.804
381.09	68.589
381.45	67.768
381.81	68.538
382.17	68.020
382.53	66.833
382.89	69.303
383.25	69.508
383.61	69.085
383.97	69.651
384.32	68.543
384.68	69.598
385.04	68.015
385.40	69.757
385.76	71.258
386.12	69.858
386.48	71.264
386.83	70.514
387.19	71.429
387.55	70.828
387.91	71.210
388.27	70.024
388.62	71.366
388.98	70.043
389.34	69.831
389.70	72.032
390.06	70.170
390.42	72.345
390.77	71.223
391.13	70.996
391.49	70.828
391.85	72.710
392.20	70.747
392.56	71.710
392.92	72.343
393.28	72.288
393.64	71.351
393.99	73.229
394.35	72.043
394.71	72.286
395.07	70.522
395.42	71.524
395.78	71.726
396.14	71.564
396.50	72.099
396.85	73.084
397.21	72.744
397.57	71.787
397.92	71.839
398.28	72.414
398.64	70.060
399.00	71.953
399.35	71.219
399.71	70.994
400.07	72.430
400.42	72.705
400.78	73.056
401.14	72.716
401.49	71.531
401.85	71.237
402.21	71.145
402.57	72.313
402.92	70.577
403.28	73.371
403.63	72.509
403.99	73.533
404.35	72.455
404.70	71.190
405.06	70.799
405.42	69.546
405.77	69.320
406.13	72.584
406.49	71.226
406.84	72.922
407.20	72.125
407.55	71.861
407.91	71.524
408.27	71.893
408.62	72.492
408.98	70.980
409.34	70.570
409.69	69.897
410.05	70.135
410.40	71.975
410.76	71.049
411.11	71.875
411.47	71.598
411.83	70.182
412.18	72.008
412.54	71.598
412.89	70.320
413.25	71.600
413.60	69.752
413.96	69.325
414.31	70.549
414.67	69.596
415.03	71.105
415.38	70.300
415.74	72.052
416.09	71.326
416.45	72.248
416.80	69.531
417.16	72.997
417.51	71.819
417.87	71.252
418.22	71.762
418.58	72.241
418.93	71.411
419.29	70.294
419.64	71.484
420.00	73.300
420.35	71.403
420.71	72.114
421.06	71.087
421.42	70.913
421.77	72.370
422.12	71.510
422.48	71.251
422.83	71.578
423.19	70.598
423.54	71.723
423.90	71.790
424.25	71.183
424.61	74.051
424.96	71.370
425.31	74.581
425.67	72.535
426.02	73.263
426.38	74.828
426.73	74.516
427.09	74.304
427.44	72.824
427.79	74.720
428.15	74.697
428.50	74.500
428.85	74.017
429.21	73.231
429.56	74.933
429.92	73.241
430.27	71.880
430.62	73.340
430.98	73.036
431.33	73.659
431.68	71.743
432.04	73.337
432.39	72.904
432.74	73.301
433.10	74.885
433.45	74.014
433.80	74.927
434.16	73.684
434.51	74.677
434.86	75.842
435.22	73.808
435.57	75.546
435.92	74.132
436.28	75.194
436.63	73.531
436.98	73.754
437.34	73.503
437.69	75.552
438.04	74.302
438.39	72.938
438.75	76.867
439.10	75.495
439.45	76.750
439.81	75.107
440.16	76.425
440.51	76.597
440.86	76.737
441.22	74.717
441.57	75.993
441.92	76.390
442.27	76.940
442.63	76.606
442.98	76.163
443.33	75.014
443.68	74.111
444.03	75.658
444.39	75.996
444.74	76.700
445.09	77.116
445.44	77.550
445.79	77.102
446.15	75.551
446.50	75.707
446.85	77.152
447.20	75.443
447.55	76.897
447.91	77.101
448.26	77.291
448.61	76.626
448.96	77.567
449.31	77.572
449.66	75.494
450.02	77.296
450.37	76.111
450.72	77.663
451.07	78.608
451.42	76.592
451.77	76.733
452.12	75.000
452.47	77.527
452.83	76.266
453.18	76.787
453.53	77.876
453.88	77.353
454.23	77.259
454.58	77.834
454.93	76.933
455.28	75.556
455.63	78.425
455.98	78.172
456.34	78.161
456.69	77.637
457.04	77.505
457.39	77.278
457.74	78.718
458.09	77.516
458.44	78.291
458.79	76.190
459.14	78.661
459.49	77.433
459.84	77.270
460.19	76.942
460.54	77.812
460.89	78.068
461.24	78.261
461.59	79.157
461.94	77.296
462.29	77.925
462.64	78.073
462.99	78.470
463.34	78.025
463.69	77.671
464.04	77.542
464.39	77.865
464.74	77.117
465.09	78.478
465.44	78.130
465.79	76.644
466.14	77.423
466.49	76.768
466.84	76.681
467.19	77.222
467.54	79.502
467.89	78.080
468.24	78.041
468.59	79.365
468.94	79.429
469.29	78.689
469.64	79.289
469.99	81.289
470.34	77.884
470.68	79.418
471.03	80.750
471.38	79.458
471.73	80.042
472.08	79.579
472.43	80.000
472.78	79.849
473.13	80.000
473.48	80.651
473.83	78.767
474.17	79.275
474.52	79.387
474.87	78.788
475.22	79.622
475.57	79.390
475.92	79.265
476.27	81.083
476.61	80.498
476.96	77.747
477.31	79.178
477.66	77.640
478.01	80.797
478.36	79.139
478.70	80.370
479.05	80.879
479.40	80.127
479.75	78.571
480.10	79.570
480.45	79.650
480.79	80.765
481.14	81.148
481.49	78.916
481.84	80.405
482.19	79.560
482.53	79.952
482.88	78.807
483.23	78.887
483.58	79.670
483.92	79.719
484.27	78.077
484.62	79.740
484.97	78.690
485.31	77.601
485.66	75.819
486.01	75.800
486.36	74.862
486.70	75.063
487.05	75.430
487.40	75.672
487.75	76.141
488.09	76.298
488.44	76.547
488.79	77.923
489.13	79.006
489.48	79.008
489.83	79.910
490.17	79.865
490.52	80.046
490.87	78.714
491.22	80.946
491.56	80.503
491.91	79.589
492.26	81.964
492.60	80.470
492.95	83.030
493.30	81.045
493.64	81.434
493.99	81.401
494.34	80.631
494.68	81.667
495.03	80.876
495.37	82.483
495.72	82.585
496.07	80.878
496.41	81.415
496.76	81.253
497.11	79.972
497.45	81.098
497.80	82.240
498.14	80.576
498.49	81.971
498.84	80.888
499.18	81.978
499.53	81.994
499.87	79.864
500.22	81.998
500.56	83.006
500.91	81.275
501.26	81.315
501.60	81.997
501.95	81.417
502.29	82.276
502.64	82.819
502.98	82.338
503.33	80.403
503.67	80.145
504.02	82.405
504.36	81.841
504.71	81.566
505.06	81.580
505.40	82.284
505.75	82.268
506.09	82.514
506.44	84.600
506.78	82.296
507.13	82.058
507.47	81.880
507.82	84.295
508.16	82.937
508.51	83.683
508.85	83.359
509.19	84.194
509.54	83.003
509.88	83.172
510.23	84.346
510.57	84.340
510.92	83.262
511.26	85.215
511.61	84.048
511.95	83.507
512.30	86.530
512.64	83.862
512.98	83.661
513.33	85.618
513.67	84.594
514.02	85.927
514.36	85.714
514.70	87.587
515.05	87.544
515.39	85.360
515.74	86.886
516.08	87.687
516.42	87.397
516.77	86.132
517.11	87.656
517.46	85.757
517.80	87.366
518.14	86.957
518.49	87.260
518.83	87.363
519.17	85.324
519.52	86.501
519.86	87.275
520.20	86.877
520.55	86.679
520.89	87.139
521.23	88.157
521.58	88.391
521.92	88.269
522.26	87.248
522.61	88.247
522.95	91.192
523.29	86.912
523.64	87.548
523.98	90.279
524.32	88.080
524.66	89.245
525.01	90.000
525.35	88.334
525.69	90.034
526.04	88.360
526.38	90.208
526.72	87.377
527.06	88.262
527.41	90.172
527.75	88.405
528.09	88.638
528.43	90.682
528.78	88.515
529.12	88.968
529.46	89.344
529.80	87.270
530.15	89.901
530.49	89.832
530.83	91.587
531.17	88.650
531.51	90.082
531.86	89.123
532.20	89.353
532.54	89.176
532.88	88.569
533.22	88.575
533.57	87.746
533.91	87.990
534.25	91.146
534.59	87.492
534.93	85.903
535.27	87.690
535.62	88.075
535.96	87.802
536.30	89.644
536.64	90.903
536.98	89.199
537.32	90.541
537.66	89.762
538.01	90.490
538.35	88.627
538.69	87.483
539.03	87.902
539.37	88.560
539.71	88.548
540.05	87.373
540.39	87.950
540.73	89.261
541.07	88.950
541.42	88.172
541.76	90.434
542.10	88.369
542.44	89.090
542.78	85.134
543.12	88.324
543.46	87.969
543.80	89.382
544.14	85.581
544.48	88.807
544.82	87.081
545.16	89.481
545.50	86.115
545.84	88.810
546.18	89.362
546.52	89.906
546.86	88.713
547.20	88.197
547.54	87.420
547.88	87.772
548.22	86.917
548.56	87.269
548.90	89.353
549.24	87.121
549.58	87.659
549.92	87.348
550.26	88.938
550.60	89.888
550.94	90.515
551.28	91.190
551.62	91.538
551.96	90.977
552.30	89.693
552.64	88.434
552.98	87.342
553.32	89.087
553.66	87.518
554.00	90.730
554.34	90.473
554.68	88.569
555.02	87.946
555.36	90.352
555.69	89.670
556.03	87.723
556.37	88.256
556.71	89.603
557.05	90.679
557.39	88.401
557.73	90.780
558.07	90.875
558.41	90.965
558.75	90.179
559.08	91.095
559.42	91.032
559.76	91.673
560.10	90.749
560.44	89.873
560.78	88.322
561.12	88.999
561.45	90.935
561.79	89.986
562.13	89.709
562.47	90.000
562.81	89.049
563.15	87.800
563.48	89.958
563.82	89.224
564.16	89.276
564.50	88.919
564.84	88.286
565.17	88.129
565.51	91.189
565.85	90.604
566.19	89.456
566.52	89.142
566.86	87.853
567.20	88.481
567.54	88.200
567.88	89.397
568.21	88.179
568.55	86.848
568.89	86.499
569.23	85.749
569.56	84.019
569.90	85.059
570.24	81.429
570.57	83.127
570.91	82.956
571.25	81.059
571.59	79.259
571.92	79.259
572.26	79.831
572.60	79.163
572.93	79.636
573.27	79.561
573.61	80.609
573.95	79.383
574.28	78.549
574.62	77.651
574.96	76.764
575.29	76.754
575.63	76.160
575.97	77.582
576.30	78.184
576.64	76.795
576.98	78.687
577.31	78.226
577.65	78.028
577.98	77.494
578.32	77.268
578.66	75.586
578.99	76.275
579.33	76.867
579.67	76.962
580.00	77.722
580.34	77.114
580.67	77.226
581.01	77.402
581.35	76.852
581.68	76.107
582.02	76.234
582.35	76.490
582.69	75.945
583.02	75.988
583.36	77.076
583.70	77.778
584.03	79.928
584.37	79.249
584.70	77.830
585.04	76.813
585.37	77.641
585.71	77.536
586.04	77.534
586.38	76.927
586.72	78.795
587.05	79.203
587.39	78.613
587.72	79.442
588.06	78.218
588.39	77.585
588.73	78.388
589.06	80.170
589.40	79.364
589.73	81.015
590.07	80.929
590.40	82.005
590.73	82.949
591.07	81.298
591.40	82.057
591.74	83.303
592.07	83.024
592.41	82.906
592.74	81.163
593.08	78.624
593.41	80.362
593.75	79.457
594.08	78.853
594.41	79.148
594.75	79.924
595.08	81.120
595.42	80.125
595.75	81.262
596.09	81.079
596.42	81.108
596.75	81.883
597.09	81.321
597.42	82.972
597.75	83.738
598.09	81.621
598.42	81.588
598.76	81.081
599.09	80.970
599.42	80.258
599.76	78.555
600.09	78.544
600.42	78.848
600.76	79.569
601.09	78.855
601.42	79.710
601.76	80.945
602.09	81.064
602.42	81.297
602.76	81.621
603.09	81.603
603.42	83.278
603.76	80.565
604.09	80.842
604.42	81.768
604.76	82.287
605.09	81.810
605.42	82.212
605.75	81.874
606.09	81.783
606.42	81.026
606.75	82.511
607.09	81.802
607.42	81.613
607.75	81.128
608.08	81.132
608.42	79.306
608.75	82.169
609.08	83.059
609.41	83.198
609.75	82.208
610.08	83.874
610.41	81.836
610.74	82.545
611.07	83.876
611.41	82.979
611.74	84.062
612.07	82.495
612.40	85.284
612.73	84.181
613.07	83.746
613.40	84.190
613.73	83.884
614.06	84.085
614.39	83.587
614.72	82.241
615.06	83.575
615.39	80.459
615.72	82.131
616.05	83.240
616.38	80.912
616.71	85.199
617.05	85.361
617.38	85.229
617.71	85.535
618.04	87.937
618.37	86.570
618.70	87.789
619.03	87.569
619.36	87.844
619.69	90.220
620.03	87.144
620.36	88.340
620.69	87.794
621.02	87.080
621.35	90.871
621.68	90.391
622.01	90.667
622.34	88.508
622.67	89.748
623.00	87.289
623.33	88.643
623.66	86.911
623.99	88.427
624.32	90.114
624.65	87.293
624.99	87.961
625.32	86.960
625.65	89.474
625.98	90.492
626.31	87.947
626.64	91.161
626.97	91.623
627.30	91.419
627.63	90.728
627.96	94.250
628.29	92.969
628.62	93.215
628.95	94.689
629.28	95.363
629.61	93.021
629.94	94.624
630.26	91.601
630.59	95.734
630.92	95.897
631.25	90.974
631.58	96.256
631.91	95.833
632.24	97.592
632.57	97.955
632.90	98.339
633.23	95.059
633.56	99.874
633.89	98.150
634.22	97.778
634.55	101.906
634.88	99.745
635.20	99.231
635.53	101.733
635.86	100.390
636.19	99.871
636.52	102.423
636.85	98.015
637.18	94.843
637.51	98.491
637.83	98.160
638.16	100.136
638.49	98.229
638.82	98.421
639.15	99.729
639.48	99.175
639.81	100.000
640.13	101.299
640.46	102.041
640.79	101.031
641.12	98.375
641.45	101.952
641.77	98.667
642.10	102.370
642.43	104.180
642.76	103.960
643.09	105.493
643.41	100.809
643.74	104.778
644.07	102.135
644.40	105.236
644.73	104.378
645.05	99.832
645.38	105.467
645.71	103.014
646.04	106.822
646.36	103.369
646.69	106.295
647.02	109.074
647.35	110.075
647.67	102.377
648.00	109.328
648.33	102.048
648.66	102.203
648.98	102.513
649.31	101.818
649.64	98.430
649.96	96.596
650.29	103.748
650.62	101.197
650.94	107.407
651.27	104.283
651.60	106.667
651.92	100.699
652.25	103.908
652.58	100.500
652.90	104.803
653.23	101.681
653.56	97.631
653.88	100.172
654.21	100.350
654.54	97.453
654.86	98.981
655.19	96.491
655.52	86.533
655.84	74.719
656.17	80.073
656.49	98.286
656.82	99.157
657.15	88.847
657.47	70.624
657.80	46.455
658.13	45.870
658.45	71.136
658.78	71.157
659.10	70.370
659.43	71.718
659.75	76.270
660.08	78.138
660.41	84.270
660.73	90.746
661.06	97.574
661.38	102.935
661.71	99.384
662.03	103.004
662.36	103.516
662.68	103.761
663.01	102.838
663.33	104.640
663.66	107.674
663.98	106.744
664.31	100.426
664.63	104.378
664.96	98.478
665.28	102.649
665.61	103.896
665.93	102.174
666.26	104.338
666.58	101.566
666.91	105.412
667.23	106.604
667.56	105.213
667.88	107.434
668.21	106.444
668.53	106.856
668.86	103.538
669.18	101.651
669.50	103.390
669.83	102.558
670.15	102.331
670.48	106.220
670.80	102.535
671.13	98.210
671.45	99.315
671.77	100.429
672.10	97.228
672.42	96.816
672.75	94.494
673.07	95.349
673.39	95.780
673.72	97.633
674.04	98.333
674.37	101.059
674.69	100.214
675.01	99.556
675.34	99.550
675.66	102.546
675.98	101.109
676.31	101.147
676.63	101.188
676.95	99.318
677.28	104.000
677.60	99.759
677.92	97.936
678.25	100.219
678.57	99.351
678.89	98.319
679.22	102.685
679.54	94.779
679.86	93.241
680.18	96.893
680.51	90.909
680.83	95.626
681.15	96.400
681.48	97.131
681.80	97.934
682.12	96.169
682.44	95.397
682.77	97.130
683.09	99.085
683.41	95.682
683.73	95.622
684.06	96.903
684.38	93.763
684.70	101.525
685.02	95.228
685.34	92.885
685.67	93.433
685.99	93.490
686.31	90.442
686.63	90.909
686.96	90.494
687.28	91.313
687.60	89.354
687.92	98.586
688.24	92.137
688.56	95.415
688.89	95.312
689.21	97.778
689.53	96.984
689.85	97.209
690.17	95.536
690.49	99.054
690.82	95.146
691.14	91.190
691.46	96.729
691.78	96.847
692.10	93.548
692.42	94.372
692.74	92.094
693.06	92.793
693.39	88.462
693.71	90.045
694.03	89.607
694.35	92.056
694.67	93.434
694.99	97.650
695.31	96.345
695.63	95.000
695.95	92.172
696.27	95.337
696.59	99.722
696.91	98.039
697.23	99.486
697.56	95.297
697.88	91.183
698.20	89.749
698.52	93.176
698.84	90.431
699.16	93.750
699.48	92.481
699.80	93.797
700.12	91.105
700.44	97.479
700.76	93.314
701.08	94.242
701.40	96.687
701.72	104.938
702.04	99.340
702.36	108.361
702.68	96.997
703.00	97.879
703.32	92.082
703.64	85.311
703.96	91.884
704.28	94.172
704.60	95.873
704.91	90.852
705.23	95.349
705.55	104.240
705.87	104.332
706.19	107.407
706.51	100.687
706.83	97.749
707.15	87.539
707.47	91.317
707.79	87.240
708.11	86.750
708.43	88.500
708.74	93.023
709.06	93.239
709.38	96.636
709.70	91.124
710.02	91.083
710.34	94.737
710.66	91.667
710.98	95.364
711.29	95.738
711.61	98.983
711.93	94.137
712.25	96.907
712.57	97.436
712.89	94.776
713.20	94.118
713.52	87.805
713.84	94.539
714.16	94.502
714.48	90.645
714.80	93.590
715.11	88.450
715.43	86.520
715.75	94.333
716.07	91.694
716.39	87.584
716.70	91.882
717.02	95.802
717.34	101.215
717.66	103.097
717.97	100.000
718.29	95.816
718.61	98.425
718.93	96.512
719.24	97.719
719.56	98.795
719.88	86.598
720.20	94.697
720.51	92.720
720.83	93.436
721.15	102.521
721.46	97.177
721.78	85.375
722.10	83.271
722.42	93.776
722.73	88.163
723.05	96.735
723.37	97.034
723.68	97.748
724.00	94.017
724.32	89.778
724.63	97.273
724.95	92.140
725.27	96.313
725.58	92.797
725.90	90.079
726.22	92.664
726.53	83.051
726.85	90.262
727.16	92.453
727.48	89.879
727.80	87.449
728.11	87.712
728.43	90.196
728.74	87.500
729.06	90.400
729.38	90.977
729.69	87.251
730.01	83.077
730.32	86.940
730.64	78.445
730.96	91.698
731.27	75.000
731.59	84.068
731.90	81.529
732.22	78.549
732.53	84.385
732.85	84.043
733.16	84.848
733.48	79.496
733.80	88.768
734.11	79.661
734.43	89.003
734.74	81.818
735.06	82.736
735.37	81.571
735.69	84.848
736.00	82.927
736.32	79.530
736.63	81.338
736.95	83.959
737.26	81.851
737.58	76.846
737.89	80.952
738.21	83.835
738.52	86.008
738.83	87.336
739.15	85.153
739.46	81.890
739.78	76.923
740.09	78.758
740.41	84.058
740.72	74.803
741.04	81.377
741.35	78.723
741.66	80.095
741.98	95.408
742.29	79.703
742.61	92.670
742.92	82.464
743.23	84.722
743.55	84.615
743.86	90.431
744.18	83.732
744.49	87.766
744.80	85.326
745.12	97.326
745.43	88.293
745.74	92.708
746.06	87.805
746.37	98.953
746.68	86.256
747.00	91.489
747.31	91.542
747.62	85.437
747.94	81.340
748.25	86.634
748.56	98.907
748.88	84.817
749.19	92.021
749.50	91.133
749.82	90.566
750.13	81.193
750.44	82.707
750.75	83.582
751.07	81.752
751.38	74.330
751.69	77.255
752.01	85.271
752.32	77.689
752.63	82.213
752.94	82.759
753.26	87.448
753.57	83.258
753.88	84.071
754.19	82.500
754.51	83.058
754.82	77.733
755.13	84.583
755.44	78.629
755.75	78.125
756.07	80.545
756.38	76.226
756.69	80.460
757.00	77.000
757.31	73.203
757.63	72.866
757.94	71.944
758.25	72.877
758.56	67.287
758.87	63.739
759.18	68.224
759.50	80.364
759.81	74.916
760.12	74.839
760.43	72.121
760.74	68.519
761.05	72.308
761.36	71.023
761.67	76.364
761.99	77.211
762.30	70.182
762.61	69.960
762.92	77.828
763.23	77.928
763.54	80.841
763.85	82.203
764.16	72.199
764.47	71.774
764.78	71.795
765.10	74.074
765.41	71.609
765.72	71.746
766.03	70.677
766.34	68.248
766.65	74.502
766.96	80.808
767.27	76.064
767.58	78.161
767.89	86.525
768.20	75.000
768.51	81.319
768.82	73.892
769.13	76.037
769.44	66.953
769.75	74.886
770.06	69.828
770.37	73.558
770.68	72.589
770.99	70.588
771.30	84.314
771.61	73.756
771.92	75.862
772.23	73.399
772.54	75.806
772.85	76.543
773.16	72.472
773.47	84.314
773.78	86.275
774.09	70.659
774.39	77.333
774.70	75.159
775.01	78.621
775.32	72.143
775.63	81.818
775.94	80.916
776.25	88.976
776.56	78.333
776.87	89.423
777.18	78.632
777.48	82.759
777.79	85.217
778.10	75.238
778.41	81.081
778.72	71.429
779.03	76.692
779.34	81.560
779.65	77.397
779.95	76.027
780.26	80.000
780.57	70.732
780.88	74.803
781.19	79.310
781.50	80.620
781.80	66.272
782.11	63.522
782.42	84.615
782.73	66.187
783.04	83.704
783.34	65.278
783.65	68.376
783.96	85.246
784.27	77.241
784.57	74.797
784.88	65.625
785.19	84.000
785.50	90.000
785.81	79.310
786.11	67.241
786.42	77.670
786.73	88.182
787.04	77.551
787.34	71.429
787.65	77.143
787.96	62.832
788.26	89.091
788.57	71.795
788.88	64.844
789.19	68.254
789.49	77.391
789.80	63.265
790.11	82.828
790.41	55.455
790.72	77.174
791.03	70.455
791.33	82.500
791.64	86.250
791.95	72.093
792.25	70.213
792.56	82.022
792.87	80.822
793.17	75.362
793.48	58.667
793.79	65.000
794.09	78.750
794.40	70.755
794.70	71.845
795.01	59.350
795.32	71.795
795.62	64.762
795.93	66.667
796.23	81.132
796.54	68.750
796.85	83.824
797.15	71.831
797.46	80.556
797.76	81.818
798.07	59.302
798.37	64.474
798.68	56.061
798.99	76.543
799.29	88.571
799.60	81.159
799.90	82.667
800.21	85.246
800.51	67.692
800.82	59.322
801.12	82.609
801.43	83.607
801.73	71.429
802.04	86.000
802.34	76.119
802.65	76.923
802.95	66.071
803.26	71.154
803.56	70.588
803.87	58.696
804.17	41.333
804.48	84.127
804.78	72.222
805.09	82.609
805.39	88.889
805.70	79.630
806.00	56.140
806.30	66.197
806.61	68.571
806.91	63.889
807.22	75.000
807.52	76.000
807.83	60.000
808.13	69.444
808.43	79.412
808.74	41.791
809.04	66.102
809.35	71.154
809.65	68.750
809.95	45.946
810.26	77.273
810.56	50.685
810.86	80.952
811.17	56.000
811.47	85.714
811.77	100.000
812.08	70.455
812.38	69.811
812.69	85.000
812.99	87.879
813.29	57.895
813.59	65.714
813.90	81.818
814.20	43.590
814.50	69.231
814.81	73.585
815.11	63.830
815.41	79.661
815.72	83.333
816.02	64.706
816.32	60.417
816.62	51.220
816.93	70.270
817.23	57.143
817.53	79.167
817.84	54.348
818.14	67.308
818.44	68.421
818.74	78.261
819.04	35.000
819.35	62.162
819.65	79.412
819.95	69.444
820.25	47.619
820.56	65.000
820.86	72.414
821.16	87.500
821.46	74.468
821.76	67.500
822.07	58.140
822.37	48.649
822.67	68.750
822.97	73.810
823.27	53.571
823.57	52.000
823.88	40.741
824.18	71.429
824.48	70.588
824.78	29.032
825.08	95.652
825.38	96.970
825.69	79.167
825.99	52.632
826.29	52.778
826.59	120.000
826.89	57.143
827.19	34.783
827.49	67.500
827.79	85.714
828.09	82.143
828.39	72.727
828.70	97.297
829.00	46.429
829.30	76.190
829.60	43.333
829.90	96.875
830.20	39.474
830.50	44.444
830.80	69.565
831.10	36.364
831.40	87.879
831.70	48.387
832.00	90.476
832.30	71.429
832.60	108.333
832.90	65.517
833.20	25.000
833.50	57.576
833.80	40.741
834.10	53.846
834.40	87.500
834.70	88.889
835.00	63.158
835.30	92.308
835.60	106.667
835.90	48.387
836.20	45.455
836.50	100.000
836.80	0.000
837.10	39.286
837.40	200.000
837.70	31.818
838.00	45.455
838.30	60.870
838.60	100.000
838.90	59.091
839.19	39.286
839.49	70.000
839.79	46.154
840.09	33.333
840.39	82.143
840.69	17.857
840.99	69.231
841.29	47.368
841.59	50.000
841.88	72.727
842.18	50.000
842.48	68.750
842.78	73.333
843.08	55.556
843.38	50.000
843.68	69.565
843.97	93.333
844.27	66.667
844.57	40.000
844.87	66.667
845.17	66.667
845.47	86.667
845.76	80.952
846.06	94.118
846.36	90.000
846.66	71.429
846.96	80.000
847.25	-37.500
847.55	92.857
847.85	87.500
848.15	50.000
848.44	133.333
848.74	60.000
849.04	77.778
849.34	90.909
849.63	16.667
849.93	160.000
850.23	66.667
850.53	90.000
850.82	7.692
851.12	33.333
851.42	33.333
851.71	26.923
852.01	50.000
852.31	-75.000
852.61	9.091
852.90	40.000
853.20	68.421
853.50	100.000
853.79	78.261
854.09	54.167
854.39	31.579
854.68	41.667
854.98	67.742
855.28	76.923
855.57	80.000
855.87	72.222
856.17	74.074
856.46	35.714
856.76	80.000
857.05	122.222
857.35	68.000
857.65	105.556
857.94	30.769
858.24	44.828
858.53	116.667
858.83	51.852
859.13	13.636
859.42	43.478
859.72	125.000
860.01	366.667
860.31	52.000
860.60	47.619
860.90	-300.000
861.20	46.667
861.49	-200.000
861.79	-33.333
862.08	25.000
862.38	93.333
862.67	0.000
862.97	150.000
863.26	116.667
863.56	83.333
863.85	-233.333
864.15	105.556
864.44	80.000
864.74	171.429
865.03	-250.000
865.33	-60.000
865.62	150.000
865.92	8.333
866.21	133.333
866.51	50.000
866.80	63.636
867.10	100.000
867.39	50.000
867.69	0.000
867.98	7.692
868.27	-100.000
868.57	6.667
868.86	105.556
869.16	23.077
869.45	120.000
869.75	0.000
870.04	0.000
870.33	0.000
870.63	66.667
870.92	366.667
871.22	-120.000
871.51	-600.000
871.80	22.222
872.10	266.667
>>>>>End Processed Spectral Data<<<<<
