SpectraSuite Data File
++++++++++++++++++++++++++++++++++++
Date: Fri May 15 20:00:10 PDT 2015
User: schluterlab
Dark Spectrum Present: Yes
Reference Spectrum Present: Yes
Number of Sampled Component Spectra: 1
Spectrometers: USB2E3373
Integration Time (usec): 3000 (USB2E3373)
Spectra Averaged: 3 (USB2E3373)
Boxcar Smoothing: 0 (USB2E3373)
Correct for Electrical Dark: No (USB2E3373)
Strobe/Lamp Enabled: No (USB2E3373)
Correct for Detector Non-linearity: No (USB2E3373)
Correct for Stray Light: No (USB2E3373)
Number of Pixels in Processed Spectrum: 2048
>>>>>Begin Processed Spectral Data<<<<<
178.53	0.000
178.91	0.000
179.29	187.500
179.67	-250.000
180.04	42.857
180.42	-125.000
180.80	900.000
181.18	-0.000
181.56	500.000
181.94	200.000
182.31	-300.000
182.69	160.000
183.07	-166.667
183.45	0.000
183.83	-150.000
184.20	-18.182
184.58	-44.444
184.96	-200.000
185.34	-266.667
185.72	-200.000
186.09	53.846
186.47	-500.000
186.85	166.667
187.23	77.778
187.61	600.000
187.98	-166.667
188.36	77.778
188.74	-166.667
189.12	29.412
189.49	22.222
189.87	0.000
190.25	71.429
190.63	300.000
191.00	200.000
191.38	0.000
191.76	300.000
192.14	-125.000
192.51	150.000
192.89	44.444
193.27	-171.429
193.65	116.667
194.02	190.909
194.40	80.000
194.78	-100.000
195.15	66.667
195.53	0.000
195.91	-75.000
196.29	-25.000
196.66	30.769
197.04	171.429
197.42	11.111
197.79	-300.000
198.17	-53.846
198.55	800.000
198.92	-200.000
199.30	800.000
199.68	-40.000
200.05	-133.333
200.43	0.000
200.81	200.000
201.18	-100.000
201.56	1100.000
201.94	-350.000
202.31	-333.333
202.69	-80.000
203.07	-100.000
203.44	400.000
203.82	0.000
204.19	71.429
204.57	-266.667
204.95	-75.000
205.32	80.000
205.70	0.000
206.08	-50.000
206.45	155.556
206.83	64.286
207.20	-28.571
207.58	-1100.000
207.96	-200.000
208.33	60.000
208.71	0.000
209.08	-33.333
209.46	500.000
209.84	120.000
210.21	0.000
210.59	71.429
210.96	0.000
211.34	175.000
211.71	60.000
212.09	-85.714
212.46	-400.000
212.84	0.000
213.22	140.000
213.59	50.000
213.97	46.154
214.34	45.455
214.72	66.667
215.09	150.000
215.47	-23.077
215.84	9.091
216.22	-100.000
216.59	12.500
216.97	500.000
217.34	175.000
217.72	-100.000
218.09	75.000
218.47	62.500
218.84	400.000
219.22	11.111
219.59	120.000
219.97	233.333
220.34	375.000
220.72	128.571
221.09	75.000
221.47	200.000
221.84	-450.000
222.22	0.000
222.59	18.182
222.97	50.000
223.34	-200.000
223.72	7.143
224.09	23.810
224.46	53.571
224.84	266.667
225.21	20.000
225.59	100.000
225.96	250.000
226.34	325.000
226.71	0.000
227.08	33.333
227.46	25.000
227.83	-250.000
228.21	77.778
228.58	90.909
228.95	37.500
229.33	110.000
229.70	12.500
230.08	25.000
230.45	0.000
230.82	171.429
231.20	6.667
231.57	100.000
231.95	-71.429
232.32	0.000
232.69	142.857
233.07	100.000
233.44	160.000
233.81	30.000
234.19	88.889
234.56	23.529
234.93	-0.000
235.31	475.000
235.68	-240.000
236.05	-23.077
236.43	30.000
236.80	94.118
237.17	28.125
237.55	0.000
237.92	18.519
238.29	72.222
238.67	36.667
239.04	20.588
239.41	24.390
239.79	33.333
240.16	26.829
240.53	23.684
240.91	32.609
241.28	44.444
241.65	39.286
242.02	43.836
242.40	40.000
242.77	37.288
243.14	21.212
243.51	36.250
243.89	41.379
244.26	22.989
244.63	47.619
245.00	36.082
245.38	43.299
245.75	25.843
246.12	37.069
246.49	33.058
246.87	44.231
247.24	33.613
247.61	26.316
247.98	32.520
248.36	35.625
248.73	34.211
249.10	37.013
249.47	37.975
249.84	34.641
250.22	29.412
250.59	41.830
250.96	37.559
251.33	35.465
251.70	40.588
252.08	32.487
252.45	38.119
252.82	33.166
253.19	38.710
253.56	33.178
253.94	34.685
254.31	30.870
254.68	37.719
255.05	34.252
255.42	42.795
255.79	36.293
256.16	37.743
256.54	37.313
256.91	34.981
257.28	36.059
257.65	29.588
258.02	31.560
258.39	34.343
258.76	34.432
259.14	34.219
259.51	31.392
259.88	39.175
260.25	33.987
260.62	38.542
260.99	33.220
261.36	32.877
261.73	35.759
262.10	33.435
262.47	32.822
262.85	29.781
263.22	35.077
263.59	34.579
263.96	35.093
264.33	34.848
264.70	32.143
265.07	35.714
265.44	37.677
265.81	36.441
266.18	34.973
266.55	35.219
266.92	35.492
267.29	38.120
267.66	34.783
268.03	35.079
268.40	33.681
268.77	36.631
269.14	36.211
269.51	35.476
269.88	32.170
270.25	32.653
270.62	29.512
270.99	35.038
271.36	32.274
271.73	33.803
272.10	34.063
272.47	32.624
272.84	30.693
273.21	32.947
273.58	32.771
273.95	34.554
274.32	32.564
274.69	30.317
275.06	33.929
275.43	31.519
275.80	31.126
276.17	33.793
276.54	32.120
276.91	33.553
277.28	32.096
277.65	33.264
278.02	30.638
278.39	35.011
278.76	33.333
279.13	29.876
279.50	33.403
279.87	34.341
280.23	33.118
280.60	31.774
280.97	30.303
281.34	30.962
281.71	33.881
282.08	28.834
282.45	29.746
282.82	29.344
283.19	31.721
283.56	32.370
283.92	29.791
284.29	31.346
284.66	29.845
285.03	29.077
285.40	30.435
285.77	29.525
286.14	30.325
286.51	31.365
286.87	28.154
287.24	29.098
287.61	28.571
287.98	28.772
288.35	28.250
288.72	29.072
289.08	27.951
289.45	28.998
289.82	30.245
290.19	27.816
290.56	28.302
290.93	27.946
291.29	24.345
291.66	25.039
292.03	26.475
292.40	25.323
292.77	26.475
293.13	24.188
293.50	23.217
293.87	25.954
294.24	25.966
294.60	22.355
294.97	22.917
295.34	24.387
295.71	25.484
296.08	23.169
296.44	21.906
296.81	21.667
297.18	23.333
297.55	24.797
297.91	23.425
298.28	24.670
298.65	22.252
299.02	21.024
299.38	19.152
299.75	22.207
300.12	22.775
300.48	21.739
300.85	21.166
301.22	21.688
301.59	21.184
301.95	22.152
302.32	21.790
302.69	22.264
303.05	20.545
303.42	22.291
303.79	21.495
304.15	22.700
304.52	20.690
304.89	20.702
305.25	20.460
305.62	19.603
305.99	20.936
306.35	20.231
306.72	20.022
307.09	20.753
307.45	20.551
307.82	20.602
308.19	22.067
308.55	20.065
308.92	21.351
309.29	19.665
309.65	18.730
310.02	18.922
310.38	20.746
310.75	20.109
311.12	19.160
311.48	18.770
311.85	18.743
312.22	19.198
312.58	18.259
312.95	17.076
313.31	18.427
313.68	17.382
314.05	17.959
314.41	20.619
314.78	18.557
315.14	20.041
315.51	19.669
315.87	18.340
316.24	21.537
316.61	19.882
316.97	18.651
317.34	20.215
317.70	19.598
318.07	18.654
318.43	19.902
318.80	19.223
319.16	20.508
319.53	20.608
319.89	20.866
320.26	20.142
320.62	20.662
320.99	19.833
321.35	19.938
321.72	22.118
322.08	21.047
322.45	21.117
322.81	18.664
323.18	20.707
323.54	19.402
323.91	20.643
324.27	21.387
324.64	22.004
325.00	22.172
325.37	22.865
325.73	21.396
326.10	22.343
326.46	22.511
326.83	22.397
327.19	22.842
327.56	22.937
327.92	24.208
328.29	22.679
328.65	22.925
329.01	22.886
329.38	22.949
329.74	23.513
330.11	24.745
330.47	22.820
330.84	25.481
331.20	25.760
331.56	22.685
331.93	24.658
332.29	24.198
332.66	23.529
333.02	23.420
333.38	24.656
333.75	25.641
334.11	24.082
334.48	24.660
334.84	25.916
335.20	24.977
335.57	25.295
335.93	25.113
336.29	25.506
336.66	22.979
337.02	24.071
337.38	24.352
337.75	24.000
338.11	25.699
338.47	25.365
338.84	24.861
339.20	25.229
339.56	25.413
339.93	26.052
340.29	25.138
340.65	24.642
341.02	24.468
341.38	25.575
341.74	23.410
342.11	24.610
342.47	25.000
342.83	25.260
343.20	25.174
343.56	24.957
343.92	25.509
344.28	25.021
344.65	25.216
345.01	24.201
345.37	25.315
345.73	26.276
346.10	26.488
346.46	26.325
346.82	24.468
347.19	25.436
347.55	25.982
347.91	26.375
348.27	24.980
348.63	24.872
349.00	24.774
349.36	24.938
349.72	26.119
350.08	24.672
350.45	25.219
350.81	23.920
351.17	25.163
351.53	24.898
351.89	25.021
352.26	24.000
352.62	25.806
352.98	25.301
353.34	24.879
353.70	25.728
354.07	25.081
354.43	25.220
354.79	24.938
355.15	25.556
355.51	24.921
355.87	24.676
356.24	25.285
356.60	25.061
356.96	26.429
357.32	25.719
357.68	24.003
358.04	25.283
358.40	25.322
358.77	25.598
359.13	24.980
359.49	25.347
359.85	24.961
360.21	25.518
360.57	25.555
360.93	26.324
361.29	25.453
361.66	26.254
362.02	25.606
362.38	26.047
362.74	26.192
363.10	26.411
363.46	26.464
363.82	26.221
364.18	26.642
364.54	25.074
364.90	26.165
365.26	25.910
365.62	26.861
365.98	25.880
366.35	26.803
366.71	27.347
367.07	27.286
367.43	24.802
367.79	25.654
368.15	25.915
368.51	26.366
368.87	26.274
369.23	26.137
369.59	27.041
369.95	27.713
370.31	27.168
370.67	26.269
371.03	25.243
371.39	26.842
371.75	26.960
372.11	26.320
372.47	28.328
372.83	27.324
373.19	26.748
373.55	25.993
373.91	26.998
374.27	26.435
374.63	28.069
374.99	26.312
375.35	27.577
375.71	27.832
376.07	27.037
376.42	26.803
376.78	27.584
377.14	27.014
377.50	26.693
377.86	26.975
378.22	26.548
378.58	27.885
378.94	26.843
379.30	27.948
379.66	28.401
380.02	27.590
380.38	27.389
380.74	27.708
381.09	28.282
381.45	28.012
381.81	28.748
382.17	28.109
382.53	27.108
382.89	27.809
383.25	28.874
383.61	28.902
383.97	28.508
384.32	27.517
384.68	27.368
385.04	27.390
385.40	28.749
385.76	29.748
386.12	29.560
386.48	29.055
386.83	29.233
387.19	28.999
387.55	29.486
387.91	28.729
388.27	29.304
388.62	30.019
388.98	28.729
389.34	29.669
389.70	29.894
390.06	27.942
390.42	29.145
390.77	28.058
391.13	27.806
391.49	29.431
391.85	29.500
392.20	29.818
392.56	29.561
392.92	30.652
393.28	29.422
393.64	28.889
393.99	30.219
394.35	28.906
394.71	30.524
395.07	29.038
395.42	29.751
395.78	29.837
396.14	29.634
396.50	29.740
396.85	29.684
397.21	30.451
397.57	29.843
397.92	29.179
398.28	30.057
398.64	30.422
399.00	31.038
399.35	29.233
399.71	29.408
400.07	30.713
400.42	30.967
400.78	29.639
401.14	29.704
401.49	30.435
401.85	28.519
402.21	30.301
402.57	30.375
402.92	29.360
403.28	30.326
403.63	31.021
403.99	29.783
404.35	29.981
404.70	29.107
405.06	29.083
405.42	30.702
405.77	29.460
406.13	29.627
406.49	29.959
406.84	30.257
407.20	29.621
407.55	29.813
407.91	29.144
408.27	28.936
408.62	30.092
408.98	29.513
409.34	30.173
409.69	30.039
410.05	29.249
410.40	29.753
410.76	30.157
411.11	28.937
411.47	29.783
411.83	28.876
412.18	30.373
412.54	28.777
412.89	30.111
413.25	30.566
413.60	29.938
413.96	29.202
414.31	30.000
414.67	29.634
415.03	29.827
415.38	29.830
415.74	29.121
416.09	29.915
416.45	29.710
416.80	29.742
417.16	31.354
417.51	29.447
417.87	29.791
418.22	30.311
418.58	29.699
418.93	30.721
419.29	29.321
419.64	29.358
420.00	31.549
420.35	30.090
420.71	29.587
421.06	30.510
421.42	29.988
421.77	30.173
422.12	30.023
422.48	31.240
422.83	30.278
423.19	29.797
423.54	29.453
423.90	30.212
424.25	30.310
424.61	30.355
424.96	29.559
425.31	31.485
425.67	30.575
426.02	31.331
426.38	30.933
426.73	30.872
427.09	31.392
427.44	31.529
427.79	30.819
428.15	31.129
428.50	30.345
428.85	30.958
429.21	31.353
429.56	32.884
429.92	31.536
430.27	31.278
430.62	30.371
430.98	31.051
431.33	31.073
431.68	31.763
432.04	31.694
432.39	30.576
432.74	30.728
433.10	31.494
433.45	31.362
433.80	30.992
434.16	31.191
434.51	31.237
434.86	31.940
435.22	30.791
435.57	30.318
435.92	31.198
436.28	30.650
436.63	31.090
436.98	31.228
437.34	31.095
437.69	32.141
438.04	30.826
438.39	30.910
438.75	31.573
439.10	31.183
439.45	31.771
439.81	30.887
440.16	31.591
440.51	31.642
440.86	32.085
441.22	30.204
441.57	31.954
441.92	32.057
442.27	31.208
442.63	30.782
442.98	32.855
443.33	31.107
443.68	31.034
444.03	31.297
444.39	31.677
444.74	31.773
445.09	32.127
445.44	31.909
445.79	32.439
446.15	30.947
446.50	31.392
446.85	30.978
447.20	31.543
447.55	31.362
447.91	31.472
448.26	31.816
448.61	31.376
448.96	30.924
449.31	31.734
449.66	31.591
450.02	31.204
450.37	31.476
450.72	31.558
451.07	31.709
451.42	29.963
451.77	31.163
452.12	30.383
452.47	31.165
452.83	30.860
453.18	31.626
453.53	31.922
453.88	32.058
454.23	31.039
454.58	31.045
454.93	31.443
455.28	29.778
455.63	30.998
455.98	31.569
456.34	30.651
456.69	31.766
457.04	31.569
457.39	30.680
457.74	30.774
458.09	30.135
458.44	31.071
458.79	29.692
459.14	31.350
459.49	31.224
459.84	30.795
460.19	32.282
460.54	31.540
460.89	31.534
461.24	31.056
461.59	30.701
461.94	30.126
462.29	30.277
462.64	30.963
462.99	30.061
463.34	29.555
463.69	29.537
464.04	30.145
464.39	30.625
464.74	31.840
465.09	31.254
465.44	31.679
465.79	30.215
466.14	31.414
466.49	30.362
466.84	32.481
467.19	31.352
467.54	31.481
467.89	29.690
468.24	30.353
468.59	31.111
468.94	30.222
469.29	29.508
469.64	30.007
469.99	30.974
470.34	29.898
470.68	31.096
471.03	30.290
471.38	29.315
471.73	29.902
472.08	29.783
472.43	29.396
472.78	28.924
473.13	30.816
473.48	29.772
473.83	28.954
474.17	29.858
474.52	30.377
474.87	30.061
475.22	30.445
475.57	30.096
475.92	31.322
476.27	29.511
476.61	30.440
476.96	29.894
477.31	29.638
477.66	29.438
478.01	30.264
478.36	29.684
478.70	30.234
479.05	30.165
479.40	30.366
479.75	28.728
480.10	30.415
480.45	30.100
480.79	30.665
481.14	29.969
481.49	29.852
481.84	30.164
482.19	29.560
482.53	30.791
482.88	29.403
483.23	29.894
483.58	29.245
483.92	28.945
484.27	30.310
484.62	29.718
484.97	30.307
485.31	30.780
485.66	31.757
486.01	33.549
486.36	33.484
486.70	33.207
487.05	32.455
487.40	31.593
487.75	31.296
488.09	30.346
488.44	30.021
488.79	29.735
489.13	29.687
489.48	28.858
489.83	29.148
490.17	28.944
490.52	29.792
490.87	28.366
491.22	29.943
491.56	28.748
491.91	29.159
492.26	30.044
492.60	29.223
492.95	29.267
493.30	28.334
493.64	29.519
493.99	29.614
494.34	28.835
494.68	30.095
495.03	28.467
495.37	28.656
495.72	29.127
496.07	28.878
496.41	29.481
496.76	29.572
497.11	28.878
497.45	29.499
497.80	29.314
498.14	29.061
498.49	28.746
498.84	28.293
499.18	28.665
499.53	28.671
499.87	27.675
500.22	29.130
500.56	28.744
500.91	28.012
501.26	28.275
501.60	28.923
501.95	28.336
502.29	29.104
502.64	29.778
502.98	28.712
503.33	28.242
503.67	29.349
504.02	29.130
504.36	28.402
504.71	28.636
505.06	27.730
505.40	27.817
505.75	29.175
506.09	28.028
506.44	29.363
506.78	28.929
507.13	28.077
507.47	27.520
507.82	27.885
508.16	28.473
508.51	28.122
508.85	28.781
509.19	27.142
509.54	28.043
509.88	27.724
510.23	29.048
510.57	27.472
510.92	26.386
511.26	28.205
511.61	27.338
511.95	28.219
512.30	28.160
512.64	27.713
512.98	27.793
513.33	28.428
513.67	27.402
514.02	28.146
514.36	28.286
514.70	26.807
515.05	28.026
515.39	26.623
515.74	28.623
516.08	27.436
516.42	28.151
516.77	27.560
517.11	27.537
517.46	27.289
517.80	27.771
518.14	27.250
518.49	27.464
518.83	26.974
519.17	26.804
519.52	27.176
519.86	26.531
520.20	27.704
520.55	25.891
520.89	26.474
521.23	26.156
521.58	27.950
521.92	26.859
522.26	26.871
522.61	27.078
522.95	26.887
523.29	26.874
523.64	27.573
523.98	28.127
524.32	26.224
524.66	27.849
525.01	26.169
525.35	27.544
525.69	26.263
526.04	25.860
526.38	27.302
526.72	25.376
527.06	27.302
527.41	27.441
527.75	26.408
528.09	26.910
528.43	27.954
528.78	27.525
529.12	26.710
529.46	26.641
529.80	28.119
530.15	28.383
530.49	27.071
530.83	28.728
531.17	26.662
531.51	27.291
531.86	26.241
532.20	27.418
532.54	27.297
532.88	27.515
533.22	27.285
533.57	28.309
533.91	26.501
534.25	29.102
534.59	28.031
534.93	27.376
535.27	27.665
535.62	28.451
535.96	27.462
536.30	28.100
536.64	27.567
536.98	26.899
537.32	27.809
537.66	27.630
538.01	27.552
538.35	27.462
538.69	27.164
539.03	26.863
539.37	28.331
539.71	27.607
540.05	27.631
540.39	27.632
540.73	27.406
541.07	27.279
541.42	28.629
541.76	28.975
542.10	27.185
542.44	27.450
542.78	26.428
543.12	27.679
543.46	28.651
543.80	28.799
544.14	27.637
544.48	28.914
544.82	27.478
545.16	28.962
545.50	27.570
545.84	28.399
546.18	28.582
546.52	27.686
546.86	27.103
547.20	27.325
547.54	27.279
547.88	27.921
548.22	28.600
548.56	27.639
548.90	29.380
549.24	26.997
549.58	28.279
549.92	26.519
550.26	27.326
550.60	27.212
550.94	27.110
551.28	26.198
551.62	27.923
551.96	27.669
552.30	27.412
552.64	27.997
552.98	28.692
553.32	27.817
553.66	27.794
554.00	28.102
554.34	27.400
554.68	27.434
555.02	27.753
555.36	27.300
555.69	26.813
556.03	28.123
556.37	27.900
556.71	27.220
557.05	28.188
557.39	26.543
557.73	26.912
558.07	27.225
558.41	25.651
558.75	26.578
559.08	25.926
559.42	27.460
559.76	27.302
560.10	27.446
560.44	26.806
560.78	28.042
561.12	29.055
561.45	28.461
561.79	28.361
562.13	27.395
562.47	27.338
562.81	28.386
563.15	27.292
563.48	27.652
563.82	29.170
564.16	28.621
564.50	28.108
564.84	28.581
565.17	28.035
565.51	29.986
565.85	30.521
566.19	28.647
566.52	29.088
566.86	29.884
567.20	29.763
567.54	30.049
567.88	30.697
568.21	30.826
568.55	30.217
568.89	31.314
569.23	31.632
569.56	31.173
569.90	33.861
570.24	32.527
570.57	34.000
570.91	33.949
571.25	32.424
571.59	33.323
571.92	32.444
572.26	33.333
572.60	33.612
572.93	33.448
573.27	32.602
573.61	33.532
573.95	33.697
574.28	33.607
574.62	33.715
574.96	33.458
575.29	33.847
575.63	33.791
575.97	33.098
576.30	33.596
576.64	33.483
576.98	33.874
577.31	33.890
577.65	34.931
577.98	34.045
578.32	34.724
578.66	34.236
578.99	33.973
579.33	33.950
579.67	33.409
580.00	33.646
580.34	34.303
580.67	34.026
581.01	34.150
581.35	34.733
581.68	35.072
582.02	35.438
582.35	35.042
582.69	34.710
583.02	34.544
583.36	33.665
583.70	33.515
584.03	34.418
584.37	33.597
584.70	33.132
585.04	33.446
585.37	34.595
585.71	34.707
586.04	34.241
586.38	33.502
586.72	34.491
587.05	33.940
587.39	33.464
587.72	34.636
588.06	34.016
588.39	34.150
588.73	33.608
589.06	34.018
589.40	33.426
589.73	33.479
590.07	32.779
590.40	33.127
590.73	33.855
591.07	33.206
591.40	31.968
591.74	31.900
592.07	33.395
592.41	32.951
592.74	33.851
593.08	33.007
593.41	34.794
593.75	33.955
594.08	33.333
594.41	33.661
594.75	32.748
595.08	33.220
595.42	33.272
595.75	34.172
596.09	33.581
596.42	33.196
596.75	33.259
597.09	32.255
597.42	33.153
597.75	34.173
598.09	33.273
598.42	32.220
598.76	32.904
599.09	33.133
599.42	33.611
599.76	33.446
600.09	33.560
600.42	33.851
600.76	32.987
601.09	34.046
601.42	33.608
601.76	33.426
602.09	33.457
602.42	34.330
602.76	33.234
603.09	33.846
603.42	34.532
603.76	32.984
604.09	33.819
604.42	34.052
604.76	34.001
605.09	34.186
605.42	32.686
605.75	33.538
606.09	33.333
606.42	32.861
606.75	31.948
607.09	33.055
607.42	33.186
607.75	33.837
608.08	32.435
608.42	33.212
608.75	33.253
609.08	33.632
609.41	32.538
609.75	32.812
610.08	33.050
610.41	33.043
610.74	32.131
611.07	34.160
611.41	32.953
611.74	32.729
612.07	31.317
612.40	33.315
612.73	32.203
613.07	33.071
613.40	32.276
613.73	32.345
614.06	32.610
614.39	32.769
614.72	32.437
615.06	32.458
615.39	31.823
615.72	32.400
616.05	32.402
616.38	31.282
616.71	31.988
617.05	31.624
617.38	31.113
617.71	32.453
618.04	31.429
618.37	32.535
618.70	32.211
619.03	32.569
619.36	30.825
619.69	30.629
620.03	32.652
620.36	31.259
620.69	30.764
621.02	30.887
621.35	31.867
621.68	30.782
622.01	29.250
622.34	30.168
622.67	31.388
623.00	31.317
623.33	30.869
623.66	30.591
623.99	30.333
624.32	31.331
624.65	30.451
624.99	31.226
625.32	30.629
625.65	31.029
625.98	31.104
626.31	28.013
626.64	29.983
626.97	29.843
627.30	28.634
627.63	30.069
627.96	29.290
628.29	29.510
628.62	29.400
628.95	29.860
629.28	28.125
629.61	29.113
629.94	27.859
630.26	28.854
630.59	30.385
630.92	28.308
631.25	28.308
631.58	28.634
631.91	26.096
632.24	26.835
632.57	26.818
632.90	27.046
633.23	25.882
633.56	26.700
633.89	27.127
634.22	28.148
634.55	27.573
634.88	27.842
635.20	25.128
635.53	27.467
635.86	26.788
636.19	27.038
636.52	26.531
636.85	25.434
637.18	27.925
637.51	27.044
637.83	26.018
638.16	27.149
638.49	26.294
638.82	26.711
639.15	25.509
639.48	26.960
639.81	27.057
640.13	26.263
640.46	26.385
640.79	26.068
641.12	25.554
641.45	25.826
641.77	26.519
642.10	26.066
642.43	26.206
642.76	25.908
643.09	26.010
643.41	26.699
643.74	23.723
644.07	24.631
644.40	25.338
644.73	25.569
645.05	23.490
645.38	25.044
645.71	24.291
646.04	24.776
646.36	24.291
646.69	25.899
647.02	24.575
647.35	24.627
647.67	24.314
648.00	25.746
648.33	26.962
648.66	25.424
648.98	26.633
649.31	24.959
649.64	27.943
649.96	27.715
650.29	27.257
650.62	27.521
650.94	25.000
651.27	26.071
651.60	26.847
651.92	28.497
652.25	27.531
652.58	26.500
652.90	27.273
653.23	25.378
653.56	24.196
653.88	25.601
654.21	23.468
654.54	26.486
654.86	26.995
655.19	29.094
655.52	35.913
655.84	40.046
656.17	44.989
656.49	60.991
656.82	62.496
657.15	46.477
657.47	34.094
657.80	24.966
658.13	24.187
658.45	36.344
658.78	35.903
659.10	33.614
659.43	33.237
659.75	33.300
660.08	30.828
660.41	30.848
660.73	26.381
661.06	25.477
661.38	23.288
661.71	23.614
662.03	25.966
662.36	25.495
662.68	23.673
663.01	24.672
663.33	22.274
663.66	20.465
663.98	19.767
664.31	23.667
664.63	20.968
664.96	25.652
665.28	25.607
665.61	24.026
665.93	25.435
666.26	24.946
666.58	24.609
666.91	23.529
667.23	23.349
667.56	22.986
667.88	22.062
668.21	24.105
668.53	26.950
668.86	26.179
669.18	23.349
669.50	22.034
669.83	25.349
670.15	22.378
670.48	23.684
670.80	24.654
671.13	25.503
671.45	24.658
671.77	25.966
672.10	27.129
672.42	28.652
672.75	29.130
673.07	28.980
673.39	27.339
673.72	24.458
674.04	24.583
674.37	27.542
674.69	25.482
675.01	28.444
675.34	25.000
675.66	27.315
675.98	25.721
676.31	26.147
676.63	24.228
676.95	22.045
677.28	27.765
677.60	26.265
677.92	25.229
678.25	26.258
678.57	23.810
678.89	27.941
679.22	27.964
679.54	26.707
679.86	24.652
680.18	28.155
680.51	27.841
680.83	25.646
681.15	26.600
681.48	26.434
681.80	26.653
682.12	25.403
682.44	26.360
682.77	27.152
683.09	24.027
683.41	23.864
683.73	25.576
684.06	26.549
684.38	26.022
684.70	28.976
685.02	30.498
685.34	26.087
685.67	29.456
685.99	29.295
686.31	27.788
686.63	30.983
686.96	28.327
687.28	26.465
687.60	29.468
687.92	29.899
688.24	27.823
688.56	28.166
688.89	29.241
689.21	26.667
689.53	26.914
689.85	27.674
690.17	27.679
690.49	29.787
690.82	27.184
691.14	26.190
691.46	26.869
691.78	27.477
692.10	28.172
692.42	29.870
692.74	27.991
693.06	25.676
693.39	26.244
693.71	26.923
694.03	27.252
694.35	26.402
694.67	27.273
694.99	26.371
695.31	27.154
695.63	26.000
695.95	28.283
696.27	26.425
696.59	27.778
696.91	24.650
697.23	26.221
697.56	31.931
697.88	32.688
698.20	27.335
698.52	28.706
698.84	28.230
699.16	25.750
699.48	28.571
699.80	28.784
700.12	27.224
700.44	25.210
700.76	22.093
701.08	27.576
701.40	25.602
701.72	27.469
702.04	27.393
702.36	33.779
702.68	29.730
703.00	27.879
703.32	29.032
703.64	23.446
703.96	31.304
704.28	26.074
704.60	26.032
704.91	23.975
705.23	25.249
705.55	32.509
705.87	25.993
706.19	27.407
706.51	24.399
706.83	26.688
707.15	28.037
707.47	28.852
707.79	28.646
708.11	28.250
708.43	27.750
708.74	29.716
709.06	31.831
709.38	29.358
709.70	27.515
710.02	28.662
710.34	29.102
710.66	20.833
710.98	29.801
711.29	32.459
711.61	26.102
711.93	25.733
712.25	29.897
712.57	29.304
712.89	24.627
713.20	29.066
713.52	27.178
713.84	29.010
714.16	29.897
714.48	28.387
714.80	28.846
715.11	30.091
715.43	27.273
715.75	25.667
716.07	25.914
716.39	28.188
716.70	26.199
717.02	21.374
717.34	29.555
717.66	24.779
717.97	30.000
718.29	28.870
718.61	28.346
718.93	29.070
719.24	29.658
719.56	29.719
719.88	29.897
720.20	30.682
720.51	28.352
720.83	26.255
721.15	25.210
721.46	26.613
721.78	26.877
722.10	25.279
722.42	22.822
722.73	24.898
723.05	33.469
723.37	29.661
723.68	26.577
724.00	26.923
724.32	33.333
724.63	23.636
724.95	24.891
725.27	29.493
725.58	30.932
725.90	25.794
726.22	33.591
726.53	27.458
726.85	31.461
727.16	31.321
727.48	25.101
727.80	31.579
728.11	29.661
728.43	28.235
728.74	23.790
729.06	29.200
729.38	34.962
729.69	25.498
730.01	28.462
730.32	31.716
730.64	28.975
730.96	32.830
731.27	29.667
731.59	33.559
731.90	31.210
732.22	36.278
732.53	33.887
732.85	33.333
733.16	35.690
733.48	28.777
733.80	32.609
734.11	29.831
734.43	35.052
734.74	35.758
735.06	32.899
735.37	33.535
735.69	34.007
736.00	29.617
736.32	32.215
736.63	32.746
736.95	29.352
737.26	33.096
737.58	33.893
737.89	30.769
738.21	30.451
738.52	31.687
738.83	28.821
739.15	30.131
739.46	34.252
739.78	30.403
740.09	33.333
740.41	33.696
740.72	30.709
741.04	29.960
741.35	29.362
741.66	26.066
741.98	25.510
742.29	26.238
742.61	30.366
742.92	26.540
743.23	26.852
743.55	31.222
743.86	35.407
744.18	28.708
744.49	26.596
744.80	28.261
745.12	31.551
745.43	28.780
745.74	31.771
746.06	26.829
746.37	20.942
746.68	27.488
747.00	31.915
747.31	30.846
747.62	27.670
747.94	33.971
748.25	26.733
748.56	31.694
748.88	24.084
749.19	30.851
749.50	30.049
749.82	29.245
750.13	34.404
750.44	31.579
750.75	33.955
751.07	34.672
751.38	32.950
751.69	32.157
752.01	31.395
752.32	29.880
752.63	32.806
752.94	33.190
753.26	35.146
753.57	33.032
753.88	31.858
754.19	33.333
754.51	31.818
754.82	34.413
755.13	35.000
755.44	28.629
755.75	32.812
756.07	32.685
756.38	35.094
756.69	33.716
757.00	32.000
757.31	33.660
757.63	30.183
757.94	35.556
758.25	30.959
758.56	34.574
758.87	31.161
759.18	32.087
759.50	34.545
759.81	32.107
760.12	33.548
760.43	37.273
760.74	36.111
761.05	34.462
761.36	34.943
761.67	36.667
761.99	31.973
762.30	30.545
762.61	32.016
762.92	33.032
763.23	29.730
763.54	33.178
763.85	34.746
764.16	31.950
764.47	33.468
764.78	31.868
765.10	36.027
765.41	32.492
765.72	40.635
766.03	33.835
766.34	34.307
766.65	37.052
766.96	30.808
767.27	35.638
767.58	25.862
767.89	22.695
768.20	29.545
768.51	30.220
768.82	29.557
769.13	32.258
769.44	33.906
769.75	30.137
770.06	35.776
770.37	28.365
770.68	30.457
770.99	33.484
771.30	37.255
771.61	31.674
771.92	35.345
772.23	36.453
772.54	33.871
772.85	32.716
773.16	33.146
773.47	41.830
773.78	30.065
774.09	30.539
774.39	38.000
774.70	28.025
775.01	35.862
775.32	23.571
775.63	24.793
775.94	29.008
776.25	22.047
776.56	35.833
776.87	36.538
777.18	34.188
777.48	21.552
777.79	26.957
778.10	24.762
778.41	30.631
778.72	34.127
779.03	32.331
779.34	43.262
779.65	37.671
779.95	28.767
780.26	32.414
780.57	20.325
780.88	22.047
781.19	31.034
781.50	37.209
781.80	32.544
782.11	28.931
782.42	37.692
782.73	40.288
783.04	34.815
783.34	26.389
783.65	19.658
783.96	31.148
784.27	33.103
784.57	37.398
784.88	28.906
785.19	32.000
785.50	46.000
785.81	35.345
786.11	33.621
786.42	30.097
786.73	38.182
787.04	38.776
787.34	31.250
787.65	34.286
787.96	30.088
788.26	39.091
788.57	40.171
788.88	36.719
789.19	25.397
789.49	35.652
789.80	36.735
790.11	37.374
790.41	29.091
790.72	31.522
791.03	26.136
791.33	47.500
791.64	38.750
791.95	33.721
792.25	24.468
792.56	42.697
792.87	27.397
793.17	30.435
793.48	14.667
793.79	21.250
794.09	35.000
794.40	34.906
794.70	36.893
795.01	38.211
795.32	41.026
795.62	39.048
795.93	41.176
796.23	27.358
796.54	34.375
796.85	32.353
797.15	28.169
797.46	34.722
797.76	31.818
798.07	36.047
798.37	26.316
798.68	22.727
798.99	25.926
799.29	40.000
799.60	23.188
799.90	25.333
800.21	32.787
800.51	27.692
800.82	38.983
801.12	27.536
801.43	24.590
801.73	46.032
802.04	30.000
802.34	19.403
802.65	23.077
802.95	17.857
803.26	40.385
803.56	19.608
803.87	17.391
804.17	26.667
804.48	49.206
804.78	25.926
805.09	4.348
805.39	24.444
805.70	16.667
806.00	10.526
806.30	23.944
806.61	34.286
806.91	26.389
807.22	42.105
807.52	42.667
807.83	20.000
808.13	38.889
808.43	39.706
808.74	16.418
809.04	32.203
809.35	50.000
809.65	35.938
809.95	-10.811
810.26	47.727
810.56	24.658
810.86	33.333
811.17	42.000
811.47	46.939
811.77	31.579
812.08	18.182
812.38	30.189
812.69	57.500
812.99	12.121
813.29	34.211
813.59	20.000
813.90	22.727
814.20	15.385
814.50	32.692
814.81	28.302
815.11	21.277
815.41	38.983
815.72	26.190
816.02	41.176
816.32	29.167
816.62	9.756
816.93	43.243
817.23	34.286
817.53	45.833
817.84	8.696
818.14	13.462
818.44	34.211
818.74	52.174
819.04	-27.500
819.35	45.946
819.65	38.235
819.95	8.333
820.25	30.952
820.56	57.500
820.86	10.345
821.16	45.000
821.46	34.043
821.76	20.000
822.07	20.930
822.37	8.108
822.67	31.250
822.97	47.619
823.27	32.143
823.57	-8.000
823.88	-18.519
824.18	32.143
824.48	11.765
824.78	19.355
825.08	21.739
825.38	36.364
825.69	16.667
825.99	26.316
826.29	22.222
826.59	86.667
826.89	4.762
827.19	34.783
827.49	27.500
827.79	28.571
828.09	28.571
828.39	39.394
828.70	56.757
829.00	39.286
829.30	14.286
829.60	46.667
829.90	40.625
830.20	2.632
830.50	14.815
830.80	-17.391
831.10	68.182
831.40	45.455
831.70	51.613
832.00	61.905
832.30	-9.524
832.60	33.333
832.90	20.690
833.20	15.000
833.50	9.091
833.80	25.926
834.10	23.077
834.40	40.625
834.70	55.556
835.00	-5.263
835.30	76.923
835.60	73.333
835.90	54.839
836.20	72.727
836.50	53.571
836.80	-23.077
837.10	-14.286
837.40	-200.000
837.70	13.636
838.00	-27.273
838.30	60.870
838.60	76.923
838.90	50.000
839.19	10.714
839.49	33.333
839.79	61.538
840.09	-16.667
840.39	50.000
840.69	28.571
840.99	3.846
841.29	0.000
841.59	-70.000
841.88	-9.091
842.18	-30.000
842.48	18.750
842.78	46.667
843.08	29.630
843.38	-30.000
843.68	39.130
843.97	40.000
844.27	40.000
844.57	20.000
844.87	61.111
845.17	23.810
845.47	46.667
845.76	23.810
846.06	70.588
846.36	20.000
846.66	21.429
846.96	66.667
847.25	-37.500
847.55	14.286
847.85	12.500
848.15	0.000
848.44	-400.000
848.74	20.000
849.04	66.667
849.34	45.455
849.63	-166.667
849.93	-180.000
850.23	38.889
850.53	170.000
850.82	30.769
851.12	-33.333
851.42	106.667
851.71	23.077
852.01	21.429
852.31	-275.000
852.61	-9.091
852.90	25.000
853.20	26.316
853.50	25.000
853.79	17.391
854.09	70.833
854.39	68.421
854.68	54.167
854.98	70.968
855.28	69.231
855.57	50.000
855.87	27.778
856.17	74.074
856.46	57.143
856.76	33.333
857.05	33.333
857.35	40.000
857.65	61.111
857.94	7.692
858.24	24.138
858.53	44.444
858.83	55.556
859.13	36.364
859.42	-21.739
859.72	-25.000
860.01	-400.000
860.31	20.000
860.60	9.524
860.90	233.333
861.20	-20.000
861.49	-300.000
861.79	-6.667
862.08	0.000
862.38	106.667
862.67	-320.000
862.97	33.333
863.26	50.000
863.56	55.556
863.85	33.333
864.15	33.333
864.44	10.000
864.74	92.857
865.03	25.000
865.33	-120.000
865.62	150.000
865.92	41.667
866.21	-50.000
866.51	37.500
866.80	-63.636
867.10	200.000
867.39	91.667
867.69	0.000
867.98	46.154
868.27	100.000
868.57	66.667
868.86	66.667
869.16	-53.846
869.45	46.667
869.75	-300.000
870.04	0.000
870.33	-14.286
870.63	9.524
870.92	266.667
871.22	-180.000
871.51	-1200.000
871.80	33.333
872.10	266.667
>>>>>End Processed Spectral Data<<<<<
