SpectraSuite Data File
++++++++++++++++++++++++++++++++++++
Date: Fri May 15 17:29:58 PDT 2015
User: schluterlab
Dark Spectrum Present: Yes
Reference Spectrum Present: Yes
Number of Sampled Component Spectra: 1
Spectrometers: USB2E3373
Integration Time (usec): 3000 (USB2E3373)
Spectra Averaged: 3 (USB2E3373)
Boxcar Smoothing: 0 (USB2E3373)
Correct for Electrical Dark: No (USB2E3373)
Strobe/Lamp Enabled: No (USB2E3373)
Correct for Detector Non-linearity: No (USB2E3373)
Correct for Stray Light: No (USB2E3373)
Number of Pixels in Processed Spectrum: 2048
>>>>>Begin Processed Spectral Data<<<<<
178.53	0.000
178.91	0.000
179.29	-25.000
179.67	-250.000
180.04	-128.571
180.42	475.000
180.80	700.000
181.18	-0.000
181.56	650.000
181.94	200.000
182.31	-200.000
182.69	20.000
183.07	-233.333
183.45	-120.000
183.83	166.667
184.20	-9.091
184.58	77.778
184.96	-75.000
185.34	-0.000
185.72	-50.000
186.09	92.308
186.47	-700.000
186.85	116.667
187.23	88.889
187.61	-500.000
187.98	-100.000
188.36	44.444
188.74	-266.667
189.12	23.529
189.49	77.778
189.87	0.000
190.25	71.429
190.63	100.000
191.00	-266.667
191.38	-26.316
191.76	300.000
192.14	-150.000
192.51	250.000
192.89	22.222
193.27	-71.429
193.65	66.667
194.02	100.000
194.40	110.000
194.78	-87.500
195.15	41.667
195.53	50.000
195.91	175.000
196.29	-50.000
196.66	-15.385
197.04	57.143
197.42	-33.333
197.79	-366.667
198.17	-107.692
198.55	500.000
198.92	-266.667
199.30	-300.000
199.68	60.000
200.05	-300.000
200.43	0.000
200.81	133.333
201.18	266.667
201.56	-0.000
201.94	-50.000
202.31	33.333
202.69	-320.000
203.07	150.000
203.44	400.000
203.82	0.000
204.19	85.714
204.57	-433.333
204.95	112.500
205.32	0.000
205.70	57.143
206.08	75.000
206.45	244.444
206.83	78.571
207.20	-28.571
207.58	100.000
207.96	200.000
208.33	0.000
208.71	-75.000
209.08	-166.667
209.46	-1100.000
209.84	-100.000
210.21	-800.000
210.59	28.571
210.96	-50.000
211.34	100.000
211.71	20.000
212.09	-57.143
212.46	-600.000
212.84	0.000
213.22	130.000
213.59	400.000
213.97	146.154
214.34	54.545
214.72	16.667
215.09	225.000
215.47	23.077
215.84	-27.273
216.22	-100.000
216.59	100.000
216.97	300.000
217.34	-25.000
217.72	-140.000
218.09	137.500
218.47	62.500
218.84	-1100.000
219.22	0.000
219.59	-20.000
219.97	-33.333
220.34	125.000
220.72	128.571
221.09	-125.000
221.47	50.000
221.84	-100.000
222.22	-650.000
222.59	118.182
222.97	83.333
223.34	333.333
223.72	35.714
224.09	-4.762
224.46	7.143
224.84	433.333
225.21	90.000
225.59	100.000
225.96	150.000
226.34	175.000
226.71	42.857
227.08	50.000
227.46	0.000
227.83	0.000
228.21	100.000
228.58	81.818
228.95	75.000
229.33	120.000
229.70	0.000
230.08	-50.000
230.45	57.143
230.82	57.143
231.20	26.667
231.57	92.857
231.95	185.714
232.32	-60.000
232.69	35.714
233.07	333.333
233.44	20.000
233.81	80.000
234.19	33.333
234.56	17.647
234.93	-150.000
235.31	125.000
235.68	-100.000
236.05	7.692
236.43	-5.000
236.80	64.706
237.17	65.625
237.55	60.000
237.92	29.630
238.29	25.000
238.67	46.667
239.04	17.647
239.41	-9.756
239.79	16.667
240.16	56.098
240.53	23.684
240.91	41.304
241.28	41.270
241.65	57.143
242.02	50.685
242.40	45.000
242.77	32.203
243.14	28.788
243.51	48.750
243.89	56.322
244.26	28.736
244.63	38.095
245.00	43.299
245.38	40.206
245.75	39.326
246.12	37.931
246.49	49.587
246.87	46.154
247.24	42.857
247.61	42.105
247.98	42.276
248.36	36.875
248.73	41.447
249.10	43.506
249.47	41.772
249.84	45.098
250.22	40.000
250.59	41.176
250.96	36.150
251.33	36.047
251.70	41.176
252.08	41.624
252.45	41.089
252.82	37.186
253.19	44.240
253.56	39.720
253.94	40.090
254.31	42.609
254.68	46.930
255.05	38.189
255.42	43.231
255.79	40.154
256.16	41.245
256.54	39.552
256.91	40.304
257.28	43.123
257.65	35.955
258.02	39.007
258.39	37.037
258.76	42.491
259.14	41.528
259.51	39.159
259.88	40.206
260.25	40.523
260.62	42.361
260.99	37.288
261.36	39.726
261.73	39.557
262.10	43.465
262.47	42.331
262.85	36.050
263.22	41.231
263.59	40.810
263.96	41.925
264.33	41.818
264.70	42.262
265.07	38.393
265.44	42.210
265.81	40.678
266.18	40.437
266.55	37.275
266.92	39.637
267.29	39.687
267.66	41.944
268.03	40.314
268.40	41.253
268.77	41.711
269.14	37.650
269.51	38.303
269.88	39.651
270.25	37.755
270.62	36.585
270.99	35.038
271.36	38.631
271.73	39.202
272.10	41.363
272.47	39.480
272.84	39.109
273.21	37.587
273.58	38.554
273.95	39.359
274.32	37.413
274.69	38.688
275.06	40.402
275.43	38.322
275.80	35.541
276.17	37.471
276.54	34.475
276.91	39.693
277.28	35.153
277.65	35.950
278.02	37.021
278.39	36.105
278.76	37.736
279.13	31.743
279.50	37.605
279.87	35.421
280.23	36.344
280.60	35.088
280.97	37.172
281.34	34.423
281.71	38.193
282.08	33.538
282.45	37.182
282.82	36.100
283.19	35.977
283.56	36.994
283.92	35.104
284.29	35.192
284.66	34.496
285.03	33.988
285.40	35.350
285.77	33.568
286.14	34.657
286.51	38.561
286.87	33.638
287.24	36.096
287.61	34.568
287.98	35.263
288.35	34.489
288.72	33.625
289.08	31.944
289.45	32.865
289.82	31.643
290.19	33.788
290.56	34.305
290.93	30.640
291.29	28.505
291.66	34.646
292.03	30.463
292.40	30.000
292.77	29.027
293.13	27.435
293.50	28.225
293.87	30.992
294.24	30.448
294.60	28.167
294.97	29.315
295.34	27.914
295.71	29.210
296.08	26.906
296.44	24.609
296.81	26.250
297.18	28.116
297.55	26.152
297.91	26.712
298.28	27.177
298.65	25.645
299.02	26.954
299.38	24.213
299.75	26.069
300.12	25.785
300.48	25.428
300.85	24.968
301.22	26.883
301.59	25.000
301.95	25.063
302.32	26.329
302.69	24.129
303.05	24.010
303.42	24.658
303.79	24.416
304.15	24.492
304.52	23.543
304.89	23.626
305.25	25.182
305.62	22.987
305.99	23.275
306.35	23.237
306.72	23.397
307.09	22.349
307.45	23.536
307.82	23.727
308.19	23.345
308.55	22.246
308.92	24.837
309.29	23.128
309.65	21.636
310.02	23.542
310.38	23.710
310.75	25.574
311.12	22.067
311.48	21.845
311.85	23.979
312.22	22.785
312.58	22.081
312.95	21.558
313.31	21.843
313.68	22.827
314.05	22.857
314.41	25.052
314.78	23.402
315.14	23.638
315.51	24.120
315.87	23.668
316.24	24.065
316.61	24.409
316.97	23.810
317.34	23.730
317.70	24.665
318.07	24.615
318.43	24.706
318.80	24.621
319.16	25.098
319.53	26.781
319.89	26.280
320.26	25.709
320.62	26.078
320.99	26.200
321.35	25.797
321.72	25.441
322.08	24.572
322.45	26.396
322.81	26.817
323.18	25.613
323.54	27.124
323.91	27.459
324.27	27.637
324.64	29.775
325.00	29.380
325.37	31.313
325.73	28.830
326.10	29.791
326.46	29.776
326.83	30.709
327.19	30.602
327.56	32.059
327.92	31.866
328.29	32.143
328.65	32.830
329.01	33.272
329.38	32.811
329.74	32.106
330.11	35.496
330.47	33.395
330.84	34.327
331.20	36.217
331.56	33.981
331.93	36.530
332.29	35.564
332.66	36.018
333.02	34.108
333.38	33.731
333.75	36.996
334.11	35.004
334.48	36.083
334.84	36.081
335.20	35.773
335.57	35.902
335.93	36.134
336.29	37.017
336.66	36.240
337.02	35.409
337.38	34.815
337.75	37.364
338.11	36.790
338.47	37.135
338.84	37.985
339.20	36.746
339.56	36.697
339.93	37.153
340.29	37.431
340.65	35.932
341.02	36.791
341.38	35.664
341.74	35.954
342.11	36.222
342.47	36.744
342.83	35.900
343.20	35.714
343.56	37.739
343.92	36.315
344.28	38.429
344.65	37.133
345.01	36.906
345.37	35.240
345.73	36.820
346.10	38.913
346.46	37.511
346.82	36.170
347.19	37.074
347.55	36.675
347.91	37.540
348.27	37.268
348.63	37.053
349.00	37.244
349.36	37.490
349.72	38.308
350.08	37.131
350.45	38.228
350.81	37.542
351.17	37.134
351.53	38.449
351.89	36.746
352.26	36.960
352.62	37.581
352.98	37.108
353.34	35.185
353.70	37.540
354.07	37.177
354.43	37.390
354.79	37.407
355.15	37.937
355.51	38.370
355.87	37.298
356.24	37.113
356.60	36.863
356.96	38.016
357.32	37.380
357.68	36.278
358.04	37.399
358.40	36.736
358.77	37.400
359.13	37.550
359.49	36.672
359.85	37.676
360.21	39.394
360.57	37.567
360.93	37.897
361.29	38.293
361.66	39.107
362.02	38.485
362.38	38.233
362.74	37.472
363.10	39.127
363.46	37.954
363.82	39.594
364.18	38.229
364.54	39.412
364.90	39.355
365.26	37.773
365.62	40.803
365.98	39.150
366.35	39.913
366.71	40.724
367.07	39.768
367.43	39.540
367.79	39.223
368.15	38.765
368.51	39.403
368.87	39.196
369.23	40.722
369.59	40.816
369.95	40.396
370.31	39.090
370.67	41.045
371.03	39.731
371.39	40.190
371.75	40.000
372.11	40.585
372.47	40.533
372.83	40.312
373.19	40.942
373.55	39.422
373.91	40.821
374.27	40.609
374.63	41.350
374.99	41.844
375.35	42.201
375.71	42.797
376.07	42.135
376.42	42.721
376.78	43.356
377.14	41.638
377.50	43.426
377.86	43.240
378.22	42.055
378.58	44.487
378.94	44.171
379.30	43.543
379.66	44.263
380.02	43.164
380.38	43.518
380.74	43.627
381.09	45.706
381.45	44.771
381.81	44.664
382.17	44.289
382.53	44.597
382.89	44.821
383.25	46.920
383.61	45.793
383.97	45.460
384.32	45.904
384.68	45.944
385.04	44.730
385.40	45.986
385.76	46.918
386.12	47.025
386.48	45.147
386.83	45.593
387.19	46.032
387.55	46.738
387.91	46.149
388.27	47.497
388.62	46.948
388.98	46.470
389.34	46.221
389.70	47.234
390.06	47.451
390.42	47.215
390.77	47.220
391.13	46.280
391.49	47.736
391.85	48.018
392.20	47.772
392.56	48.188
392.92	48.679
393.28	47.406
393.64	48.228
393.99	48.150
394.35	48.324
394.71	47.829
395.07	48.649
395.42	48.087
395.78	47.948
396.14	48.613
396.50	48.637
396.85	48.809
397.21	47.744
397.57	47.649
397.92	48.053
398.28	49.425
398.64	47.771
399.00	48.420
399.35	47.460
399.71	48.708
400.07	48.972
400.42	47.246
400.78	49.357
401.14	48.820
401.49	48.719
401.85	48.263
402.21	48.193
402.57	48.375
402.92	48.181
403.28	48.622
403.63	48.361
403.99	48.214
404.35	49.032
404.70	47.976
405.06	48.472
405.42	48.291
405.77	47.356
406.13	47.963
406.49	47.898
406.84	49.022
407.20	48.766
407.55	47.972
407.91	46.591
408.27	48.757
408.62	49.046
408.98	47.135
409.34	47.646
409.69	47.610
410.05	49.261
410.40	48.333
410.76	47.407
411.11	47.750
411.47	47.732
411.83	47.583
412.18	49.292
412.54	47.191
412.89	45.998
413.25	48.135
413.60	47.516
413.96	47.055
414.31	48.293
414.67	45.991
415.03	47.004
415.38	46.475
415.74	48.404
416.09	48.334
416.45	47.873
416.80	46.530
417.16	49.240
417.51	47.235
417.87	47.653
418.22	48.834
418.58	48.094
418.93	47.085
419.29	46.351
419.64	48.088
420.00	49.244
420.35	47.821
420.71	48.663
421.06	47.268
421.42	48.197
421.77	47.919
422.12	50.170
422.48	49.486
422.83	47.796
423.19	49.266
423.54	47.972
423.90	48.174
424.25	49.656
424.61	48.042
424.96	49.013
425.31	48.931
425.67	49.002
426.02	48.999
426.38	49.405
426.73	50.363
427.09	48.734
427.44	49.353
427.79	49.028
428.15	47.998
428.50	49.849
428.85	49.509
429.21	49.519
429.56	49.380
429.92	50.026
430.27	48.170
430.62	48.772
430.98	49.628
431.33	49.264
431.68	48.352
432.04	49.245
432.39	48.146
432.74	47.986
433.10	49.253
433.45	48.148
433.80	50.087
434.16	49.197
434.51	49.570
434.86	48.722
435.22	49.243
435.57	49.532
435.92	49.820
436.28	50.030
436.63	49.857
436.98	49.015
437.34	49.183
437.69	49.434
438.04	49.573
438.39	48.992
438.75	49.362
439.10	49.576
439.45	50.030
439.81	49.113
440.16	51.485
440.51	49.731
440.86	51.420
441.22	49.434
441.57	50.110
441.92	52.099
442.27	50.942
442.63	51.071
442.98	50.775
443.33	48.915
443.68	49.443
444.03	50.323
444.39	50.123
444.74	50.948
445.09	51.782
445.44	50.883
445.79	50.903
446.15	49.504
446.50	48.974
446.85	51.063
447.20	49.583
447.55	51.116
447.91	49.915
448.26	50.256
448.61	50.720
448.96	50.488
449.31	50.231
449.66	49.477
450.02	50.029
450.37	50.267
450.72	51.031
451.07	48.354
451.42	48.252
451.77	49.910
452.12	49.940
452.47	49.968
452.83	48.999
453.18	49.715
453.53	50.000
453.88	48.998
454.23	49.355
454.58	49.181
454.93	50.515
455.28	47.937
455.63	49.597
455.98	50.271
456.34	50.128
456.69	48.856
457.04	49.212
457.39	49.149
457.74	48.912
458.09	48.911
458.44	50.205
458.79	48.627
459.14	50.400
459.49	49.134
459.84	49.069
460.19	49.333
460.54	49.817
460.89	48.920
461.24	48.882
461.59	48.694
461.94	49.119
462.29	48.794
462.64	48.173
462.99	48.747
463.34	48.679
463.69	46.782
464.04	48.426
464.39	47.968
464.74	48.712
465.09	48.659
465.44	49.221
465.79	49.376
466.14	49.544
466.49	48.591
466.84	48.840
467.19	47.872
467.54	47.765
467.89	48.010
468.24	46.594
468.59	48.317
468.94	46.984
469.29	48.590
469.64	47.642
469.99	48.353
470.34	46.962
470.68	48.024
471.03	47.700
471.38	47.432
471.73	46.569
472.08	46.811
472.43	46.309
472.78	46.333
473.13	47.007
473.48	46.710
473.83	45.205
474.17	47.345
474.52	46.586
474.87	46.727
475.22	48.688
475.57	48.447
475.92	48.491
476.27	47.322
476.61	48.553
476.96	46.682
477.31	47.485
477.66	46.180
478.01	46.940
478.36	46.405
478.70	47.363
479.05	48.022
479.40	47.165
479.75	45.151
480.10	47.158
480.45	47.250
480.79	47.382
481.14	47.797
481.49	47.537
481.84	47.635
482.19	46.118
482.53	47.818
482.88	45.823
483.23	46.305
483.58	45.849
483.92	45.983
484.27	45.898
484.62	46.033
484.97	46.808
485.31	47.327
485.66	50.081
486.01	51.974
486.36	51.060
486.70	50.054
487.05	48.760
487.40	47.337
487.75	46.507
488.09	45.272
488.44	45.323
488.79	44.677
489.13	44.712
489.48	44.292
489.83	44.798
490.17	45.079
490.52	44.758
490.87	44.563
491.22	44.413
491.56	44.639
491.91	44.025
492.26	44.920
492.60	44.482
492.95	45.007
493.30	44.651
493.64	44.794
493.99	44.734
494.34	44.757
494.68	44.238
495.03	44.915
495.37	43.670
495.72	45.331
496.07	45.073
496.41	45.094
496.76	44.864
497.11	44.714
497.45	44.153
497.80	44.753
498.14	43.567
498.49	43.728
498.84	43.513
499.18	43.926
499.53	43.948
499.87	44.358
500.22	44.510
500.56	44.881
500.91	43.373
501.26	43.994
501.60	44.220
501.95	45.318
502.29	45.375
502.64	44.257
502.98	44.055
503.33	43.276
503.67	44.048
504.02	44.624
504.36	44.087
504.71	43.232
505.06	44.389
505.40	43.858
505.75	43.454
506.09	43.082
506.44	43.583
506.78	44.031
507.13	44.261
507.47	42.507
507.82	43.697
508.16	43.265
508.51	44.544
508.85	43.904
509.19	42.789
509.54	43.056
509.88	42.179
510.23	42.227
510.57	44.361
510.92	41.418
511.26	43.426
511.61	42.904
511.95	42.685
512.30	42.406
512.64	42.905
512.98	41.494
513.33	43.145
513.67	43.491
514.02	42.963
514.36	43.143
514.70	42.716
515.05	42.538
515.39	42.916
515.74	43.473
516.08	43.036
516.42	43.286
516.77	43.651
517.11	42.374
517.46	43.327
517.80	42.491
518.14	41.947
518.49	41.526
518.83	42.102
519.17	41.298
519.52	42.688
519.86	42.617
520.20	40.826
520.55	41.463
520.89	42.284
521.23	41.165
521.58	42.208
521.92	41.731
522.26	41.965
522.61	41.753
522.95	43.179
523.29	40.851
523.64	40.978
523.98	42.191
524.32	41.237
524.66	43.406
525.01	42.078
525.35	42.191
525.69	41.549
526.04	41.071
526.38	41.958
526.72	41.727
527.06	41.180
527.41	41.359
527.75	42.493
528.09	40.598
528.43	42.134
528.78	41.782
529.12	41.548
529.46	42.365
529.80	41.799
530.15	42.310
530.49	41.684
530.83	41.997
531.17	42.377
531.51	41.450
531.86	42.352
532.20	41.754
532.54	40.708
532.88	42.094
533.22	42.137
533.57	41.612
533.91	41.188
534.25	43.750
534.59	41.629
534.93	41.787
535.27	42.195
535.62	42.579
535.96	42.140
536.30	41.557
536.64	42.591
536.98	40.627
537.32	42.603
537.66	42.567
538.01	41.888
538.35	41.331
538.69	42.943
539.03	40.465
539.37	41.857
539.71	43.149
540.05	41.684
540.39	40.859
540.73	42.259
541.07	42.749
541.42	41.465
541.76	41.776
542.10	42.464
542.44	41.974
542.78	40.399
543.12	42.239
543.46	42.768
543.80	42.054
544.14	41.455
544.48	41.572
544.82	42.037
545.16	43.033
545.50	41.255
545.84	43.555
546.18	42.908
546.52	41.024
546.86	42.344
547.20	43.276
547.54	40.848
547.88	42.527
548.22	42.012
548.56	42.348
548.90	43.261
549.24	42.355
549.58	42.031
549.92	41.458
550.26	40.952
550.60	41.636
550.94	42.569
551.28	41.267
551.62	42.154
551.96	41.955
552.30	42.471
552.64	42.102
552.98	41.210
553.32	41.940
553.66	41.364
554.00	42.482
554.34	41.728
554.68	41.077
555.02	42.857
555.36	42.034
555.69	41.026
556.03	42.327
556.37	43.060
556.71	42.094
557.05	42.655
557.39	40.967
557.73	42.204
558.07	42.459
558.41	40.965
558.75	42.401
559.08	41.450
559.42	40.476
559.76	41.633
560.10	41.208
560.44	40.655
560.78	43.706
561.12	43.230
561.45	43.500
561.79	43.277
562.13	43.222
562.47	42.086
562.81	42.579
563.15	41.890
563.48	43.140
563.82	43.308
564.16	43.872
564.50	42.027
564.84	43.106
565.17	43.125
565.51	44.672
565.85	44.376
566.19	43.369
566.52	44.638
566.86	45.373
567.20	44.396
567.54	45.985
567.88	46.514
568.21	45.814
568.55	46.304
568.89	47.177
569.23	47.520
569.56	47.942
569.90	50.142
570.24	48.567
570.57	49.055
570.91	49.564
571.25	48.734
571.59	49.050
571.92	47.941
572.26	48.551
572.60	48.155
572.93	47.443
573.27	47.837
573.61	49.135
573.95	48.689
574.28	48.994
574.62	48.945
574.96	49.265
575.29	48.132
575.63	47.422
575.97	47.465
576.30	47.849
576.64	48.530
576.98	49.369
577.31	49.545
577.65	50.138
577.98	50.676
578.32	50.448
578.66	49.108
578.99	48.807
579.33	47.764
579.67	47.161
580.00	48.633
580.34	49.030
580.67	48.467
581.01	49.256
581.35	50.022
581.68	50.797
582.02	51.643
582.35	50.789
582.69	50.195
583.02	49.541
583.36	48.711
583.70	49.091
584.03	48.513
584.37	49.209
584.70	47.830
585.04	47.642
585.37	49.877
585.71	50.185
586.04	48.865
586.38	48.626
586.72	49.498
587.05	50.000
587.39	50.014
587.72	50.601
588.06	49.571
588.39	49.302
588.73	49.206
589.06	48.532
589.40	48.496
589.73	49.069
590.07	49.245
590.40	48.297
590.73	48.435
591.07	47.922
591.40	47.818
591.74	48.507
592.07	48.098
592.41	48.322
592.74	48.984
593.08	48.865
593.41	50.708
593.75	49.984
594.08	49.846
594.41	48.617
594.75	48.779
595.08	49.830
595.42	49.393
595.75	49.756
596.09	49.101
596.42	48.905
596.75	47.735
597.09	47.426
597.42	47.922
597.75	49.061
598.09	47.306
598.42	46.796
598.76	48.863
599.09	50.080
599.42	49.337
599.76	49.737
600.09	50.000
600.42	49.242
600.76	48.960
601.09	48.702
601.42	48.492
601.76	48.670
602.09	48.680
602.42	50.674
602.76	49.363
603.09	49.917
603.42	51.087
603.76	49.153
604.09	48.076
604.42	49.492
604.76	48.598
605.09	48.537
605.42	48.533
605.75	49.869
606.09	49.342
606.42	49.541
606.75	49.134
607.09	48.527
607.42	47.895
607.75	48.623
608.08	47.305
608.42	47.602
608.75	49.542
609.08	48.929
609.41	48.376
609.75	47.883
610.08	48.827
610.41	48.213
610.74	48.757
611.07	49.302
611.41	47.794
611.74	48.934
612.07	48.715
612.40	48.906
612.73	48.531
613.07	48.088
613.40	47.484
613.73	48.181
614.06	48.024
614.39	49.464
614.72	48.179
615.06	47.821
615.39	47.271
615.72	48.278
616.05	47.430
616.38	47.066
616.71	47.034
617.05	47.498
617.38	47.832
617.71	48.868
618.04	49.460
618.37	48.424
618.70	47.723
619.03	47.639
619.36	45.803
619.69	47.915
620.03	47.261
620.36	47.210
620.69	47.395
621.02	46.865
621.35	46.639
621.68	46.684
622.01	46.167
622.34	46.608
622.67	46.609
623.00	46.784
623.33	48.018
623.66	46.597
623.99	46.142
624.32	48.213
624.65	48.195
624.99	48.683
625.32	46.550
625.65	46.583
625.98	46.656
626.31	44.888
626.64	46.794
626.97	47.295
627.30	45.271
627.63	47.314
627.96	46.271
628.29	45.236
628.62	44.936
628.95	44.589
629.28	44.355
629.61	44.865
629.94	45.064
630.26	45.257
630.59	46.514
630.92	44.205
631.25	43.077
631.58	44.824
631.91	43.640
632.24	42.775
632.57	44.659
632.90	43.535
633.23	42.941
633.56	44.207
633.89	43.280
634.22	45.062
634.55	44.854
634.88	43.167
635.20	42.692
635.53	42.933
635.86	43.693
636.19	43.338
636.52	42.985
636.85	43.672
637.18	42.767
637.51	41.258
637.83	40.867
638.16	44.475
638.49	43.188
638.82	44.737
639.15	42.062
639.48	44.979
639.81	42.538
640.13	43.723
640.46	44.023
640.79	41.973
641.12	40.177
641.45	42.943
641.77	41.630
642.10	43.128
642.43	42.444
642.76	42.079
643.09	42.165
643.41	40.129
643.74	42.010
644.07	41.544
644.40	42.736
644.73	42.032
645.05	40.772
645.38	43.210
645.71	41.135
646.04	42.011
646.36	42.021
646.69	43.345
647.02	39.887
647.35	41.231
647.67	37.660
648.00	41.231
648.33	39.420
648.66	40.678
648.98	39.698
649.31	41.983
649.64	44.113
649.96	41.977
650.29	42.589
650.62	41.368
650.94	42.037
651.27	41.713
651.60	43.063
651.92	42.483
652.25	40.853
652.58	42.833
652.90	45.283
653.23	43.025
653.56	41.286
653.88	43.643
654.21	44.483
654.54	40.238
654.86	44.143
655.19	44.737
655.52	55.418
655.84	62.309
656.17	69.863
656.49	92.573
656.82	92.521
657.15	67.811
657.47	49.178
657.80	35.881
658.13	34.358
658.45	50.010
658.78	47.608
659.10	44.893
659.43	44.304
659.75	45.338
660.08	43.034
660.41	43.922
660.73	41.575
661.06	40.208
661.38	40.509
661.71	38.604
662.03	43.562
662.36	40.000
662.68	40.487
663.01	39.956
663.33	40.371
663.66	40.233
663.98	38.140
664.31	41.791
664.63	38.479
664.96	38.913
665.28	38.631
665.61	38.095
665.93	43.261
666.26	42.950
666.58	41.163
666.91	40.471
667.23	42.689
667.56	40.521
667.88	41.007
668.21	40.334
668.53	43.262
668.86	43.160
669.18	39.151
669.50	40.194
669.83	42.558
670.15	43.590
670.48	41.148
670.80	44.700
671.13	40.940
671.45	36.301
671.77	46.137
672.10	44.356
672.42	44.944
672.75	46.892
673.07	47.406
673.39	44.954
673.72	39.842
674.04	40.833
674.37	43.220
674.69	39.829
675.01	43.111
675.34	41.216
675.66	43.056
675.98	42.794
676.31	43.807
676.63	41.568
676.95	41.364
677.28	41.647
677.60	43.614
677.92	42.202
678.25	42.451
678.57	43.939
678.89	44.118
679.22	46.085
679.54	43.976
679.86	42.545
680.18	44.854
680.51	45.644
680.83	43.340
681.15	44.400
681.48	47.131
681.80	44.421
682.12	43.750
682.44	42.259
682.77	47.241
683.09	42.792
683.41	43.409
683.73	44.470
684.06	43.142
684.38	43.656
684.70	47.277
685.02	43.568
685.34	45.652
685.67	46.904
685.99	49.005
686.31	48.673
686.63	44.712
686.96	44.106
687.28	40.606
687.60	44.867
687.92	46.465
688.24	45.968
688.56	45.415
688.89	45.536
689.21	43.111
689.53	43.155
689.85	43.256
690.17	44.643
690.49	43.026
690.82	45.146
691.14	43.810
691.46	46.262
691.78	47.748
692.10	46.667
692.42	43.939
692.74	47.863
693.06	43.243
693.39	43.665
693.71	45.023
694.03	45.958
694.35	45.093
694.67	39.899
694.99	43.342
695.31	45.170
695.63	44.000
695.95	40.657
696.27	41.451
696.59	43.333
696.91	43.697
697.23	43.702
697.56	45.297
697.88	47.527
698.20	46.241
698.52	47.294
698.84	41.866
699.16	46.250
699.48	46.366
699.80	45.658
700.12	45.822
700.44	44.258
700.76	42.733
701.08	43.333
701.40	40.663
701.72	46.914
702.04	43.564
702.36	45.151
702.68	42.342
703.00	47.576
703.32	43.109
703.64	42.655
703.96	42.609
704.28	46.319
704.60	39.683
704.91	38.801
705.23	44.518
705.55	44.170
705.87	40.794
706.19	41.111
706.51	40.206
706.83	45.981
707.15	42.679
707.47	48.459
707.79	48.698
708.11	47.000
708.43	48.000
708.74	48.062
709.06	48.732
709.38	45.260
709.70	47.041
710.02	48.408
710.34	47.988
710.66	47.115
710.98	44.040
711.29	47.213
711.61	46.102
711.93	44.951
712.25	46.048
712.57	45.788
712.89	39.179
713.20	44.637
713.52	43.554
713.84	43.345
714.16	46.392
714.48	47.419
714.80	56.090
715.11	48.632
715.43	44.201
715.75	49.000
716.07	39.867
716.39	40.268
716.70	44.649
717.02	40.076
717.34	42.915
717.66	42.035
717.97	43.913
718.29	41.841
718.61	44.094
718.93	44.186
719.24	45.627
719.56	48.193
719.88	42.955
720.20	47.348
720.51	46.360
720.83	43.629
721.15	50.000
721.46	43.952
721.78	45.455
722.10	46.840
722.42	42.324
722.73	45.714
723.05	49.388
723.37	50.424
723.68	51.351
724.00	45.726
724.32	44.000
724.63	43.636
724.95	41.485
725.27	50.691
725.58	47.034
725.90	46.429
726.22	47.490
726.53	47.797
726.85	48.315
727.16	52.453
727.48	48.988
727.80	50.607
728.11	45.763
728.43	42.745
728.74	47.177
729.06	48.800
729.38	51.504
729.69	45.418
730.01	47.308
730.32	49.627
730.64	49.823
730.96	52.830
731.27	50.000
731.59	52.203
731.90	47.134
732.22	53.943
732.53	49.834
732.85	47.518
733.16	50.842
733.48	48.561
733.80	54.348
734.11	51.525
734.43	51.890
734.74	52.727
735.06	53.420
735.37	52.266
735.69	56.229
736.00	48.780
736.32	49.664
736.63	50.352
736.95	50.512
737.26	48.399
737.58	42.617
737.89	50.916
738.21	52.256
738.52	48.560
738.83	49.345
739.15	51.965
739.46	48.819
739.78	50.183
740.09	49.020
740.41	50.725
740.72	49.606
741.04	50.202
741.35	48.511
741.66	47.393
741.98	54.592
742.29	45.545
742.61	43.455
742.92	42.180
743.23	43.981
743.55	51.584
743.86	44.976
744.18	45.455
744.49	39.894
744.80	46.196
745.12	49.198
745.43	40.000
745.74	51.042
746.06	44.390
746.37	49.738
746.68	45.498
747.00	45.745
747.31	53.234
747.62	48.544
747.94	51.675
748.25	42.574
748.56	49.180
748.88	44.503
749.19	52.128
749.50	46.798
749.82	44.811
750.13	54.587
750.44	55.639
750.75	57.090
751.07	54.380
751.38	50.192
751.69	49.020
752.01	50.388
752.32	53.386
752.63	52.569
752.94	49.569
753.26	50.628
753.57	45.249
753.88	47.345
754.19	50.000
754.51	50.413
754.82	50.202
755.13	53.333
755.44	48.387
755.75	52.734
756.07	52.140
756.38	45.283
756.69	51.341
757.00	50.667
757.31	46.405
757.63	52.134
757.94	51.111
758.25	51.233
758.56	50.798
758.87	48.159
759.18	49.844
759.50	48.000
759.81	53.512
760.12	54.839
760.43	50.000
760.74	54.321
761.05	56.615
761.36	52.841
761.67	51.515
761.99	52.721
762.30	45.455
762.61	48.617
762.92	49.321
763.23	45.495
763.54	44.860
763.85	50.847
764.16	48.548
764.47	52.016
764.78	50.183
765.10	51.515
765.41	53.943
765.72	51.746
766.03	50.376
766.34	49.270
766.65	47.809
766.96	52.020
767.27	47.872
767.58	48.851
767.89	48.936
768.20	44.318
768.51	46.154
768.82	45.320
769.13	46.083
769.44	47.639
769.75	52.511
770.06	46.983
770.37	49.519
770.68	55.330
770.99	50.226
771.30	60.294
771.61	57.466
771.92	54.310
772.23	53.202
772.54	45.699
772.85	58.642
773.16	47.191
773.47	55.556
773.78	50.327
774.09	44.311
774.39	52.667
774.70	42.038
775.01	47.586
775.32	45.714
775.63	39.669
775.94	38.168
776.25	44.094
776.56	37.500
776.87	49.038
777.18	41.880
777.48	51.724
777.79	46.087
778.10	32.381
778.41	29.730
778.72	54.762
779.03	45.113
779.34	50.355
779.65	49.315
779.95	44.521
780.26	51.034
780.57	34.959
780.88	54.331
781.19	50.862
781.50	55.039
781.80	46.154
782.11	48.428
782.42	62.308
782.73	56.115
783.04	48.889
783.34	43.056
783.65	35.897
783.96	44.262
784.27	47.586
784.57	43.902
784.88	41.406
785.19	47.000
785.50	50.000
785.81	40.517
786.11	42.241
786.42	43.689
786.73	55.455
787.04	42.857
787.34	39.286
787.65	44.762
787.96	49.558
788.26	54.545
788.57	46.154
788.88	42.969
789.19	41.270
789.49	46.957
789.80	46.939
790.11	35.354
790.41	33.636
790.72	46.739
791.03	57.955
791.33	56.250
791.64	42.500
791.95	48.837
792.25	42.553
792.56	39.326
792.87	27.397
793.17	43.478
793.48	32.000
793.79	40.000
794.09	55.000
794.40	47.170
794.70	55.340
795.01	55.285
795.32	49.573
795.62	47.619
795.93	55.882
796.23	50.943
796.54	37.500
796.85	60.294
797.15	46.479
797.46	43.056
797.76	54.545
798.07	43.023
798.37	47.368
798.68	36.364
798.99	32.099
799.29	58.571
799.60	30.435
799.90	33.333
800.21	57.377
800.51	43.077
800.82	38.983
801.12	37.681
801.43	54.098
801.73	42.857
802.04	54.000
802.34	38.806
802.65	50.000
802.95	44.643
803.26	36.538
803.56	45.098
803.87	30.435
804.17	50.667
804.48	58.730
804.78	46.296
805.09	45.652
805.39	35.556
805.70	51.852
806.00	28.070
806.30	43.662
806.61	38.571
806.91	40.278
807.22	60.526
807.52	50.667
807.83	30.909
808.13	38.889
808.43	54.412
808.74	52.239
809.04	35.593
809.35	38.462
809.65	29.688
809.95	21.622
810.26	27.273
810.56	32.877
810.86	42.857
811.17	44.000
811.47	57.143
811.77	39.474
812.08	31.818
812.38	33.962
812.69	17.500
812.99	45.455
813.29	65.789
813.59	2.857
813.90	40.909
814.20	17.949
814.50	32.692
814.81	45.283
815.11	17.021
815.41	54.237
815.72	38.095
816.02	29.412
816.32	50.000
816.62	26.829
816.93	40.541
817.23	68.571
817.53	35.417
817.84	23.913
818.14	46.154
818.44	31.579
818.74	21.739
819.04	22.500
819.35	48.649
819.65	38.235
819.95	11.111
820.25	30.952
820.56	57.500
820.86	10.345
821.16	72.500
821.46	42.553
821.76	47.500
822.07	37.209
822.37	5.405
822.67	25.000
822.97	38.095
823.27	39.286
823.57	20.000
823.88	37.037
824.18	53.571
824.48	32.353
824.78	41.935
825.08	69.565
825.38	30.303
825.69	-4.167
825.99	23.684
826.29	55.556
826.59	-13.333
826.89	38.095
827.19	47.826
827.49	25.000
827.79	51.429
828.09	67.857
828.39	30.303
828.70	62.162
829.00	39.286
829.30	23.810
829.60	36.667
829.90	28.125
830.20	7.895
830.50	18.519
830.80	34.783
831.10	40.909
831.40	72.727
831.70	19.355
832.00	33.333
832.30	23.810
832.60	58.333
832.90	13.793
833.20	35.000
833.50	45.455
833.80	25.926
834.10	57.692
834.40	40.625
834.70	-22.222
835.00	10.526
835.30	92.308
835.60	106.667
835.90	29.032
836.20	77.273
836.50	100.000
836.80	-3.846
837.10	42.857
837.40	133.333
837.70	-13.636
838.00	27.273
838.30	30.435
838.60	61.538
838.90	31.818
839.19	35.714
839.49	46.667
839.79	84.615
840.09	41.667
840.39	39.286
840.69	28.571
840.99	23.077
841.29	0.000
841.59	-50.000
841.88	109.091
842.18	-40.000
842.48	93.750
842.78	-6.667
843.08	66.667
843.38	-60.000
843.68	-17.391
843.97	26.667
844.27	46.667
844.57	40.000
844.87	33.333
845.17	33.333
845.47	66.667
845.76	52.381
846.06	17.647
846.36	30.000
846.66	7.143
846.96	20.000
847.25	-25.000
847.55	0.000
847.85	12.500
848.15	9.091
848.44	-466.667
848.74	15.000
849.04	55.556
849.34	90.909
849.63	16.667
849.93	-280.000
850.23	11.111
850.53	130.000
850.82	-7.692
851.12	55.556
851.42	106.667
851.71	38.462
852.01	57.143
852.31	-100.000
852.61	72.727
852.90	10.000
853.20	-10.526
853.50	83.333
853.79	56.522
854.09	66.667
854.39	73.684
854.68	25.000
854.98	32.258
855.28	50.000
855.57	60.000
855.87	55.556
856.17	74.074
856.46	7.143
856.76	-6.667
857.05	66.667
857.35	44.000
857.65	66.667
857.94	15.385
858.24	51.724
858.53	61.111
858.83	77.778
859.13	27.273
859.42	39.130
859.72	-75.000
860.01	-166.667
860.31	32.000
860.60	52.381
860.90	33.333
861.20	13.333
861.49	0.000
861.79	13.333
862.08	55.000
862.38	133.333
862.67	-40.000
862.97	0.000
863.26	58.333
863.56	55.556
863.85	-300.000
864.15	38.889
864.44	-20.000
864.74	0.000
865.03	300.000
865.33	60.000
865.62	50.000
865.92	50.000
866.21	-16.667
866.51	68.750
866.80	-45.455
867.10	-500.000
867.39	41.667
867.69	0.000
867.98	-38.462
868.27	-166.667
868.57	-6.667
868.86	38.889
869.16	-7.692
869.45	40.000
869.75	0.000
870.04	0.000
870.33	42.857
870.63	23.810
870.92	233.333
871.22	-220.000
871.51	300.000
871.80	111.111
872.10	233.333
>>>>>End Processed Spectral Data<<<<<
