SpectraSuite Data File
++++++++++++++++++++++++++++++++++++
Date: Fri May 15 17:07:44 PDT 2015
User: schluterlab
Dark Spectrum Present: Yes
Reference Spectrum Present: Yes
Number of Sampled Component Spectra: 1
Spectrometers: USB2E3373
Integration Time (usec): 3000 (USB2E3373)
Spectra Averaged: 3 (USB2E3373)
Boxcar Smoothing: 0 (USB2E3373)
Correct for Electrical Dark: No (USB2E3373)
Strobe/Lamp Enabled: No (USB2E3373)
Correct for Detector Non-linearity: No (USB2E3373)
Correct for Stray Light: No (USB2E3373)
Number of Pixels in Processed Spectrum: 2048
>>>>>Begin Processed Spectral Data<<<<<
178.53	0.000
178.91	0.000
179.29	37.500
179.67	100.000
180.04	-128.571
180.42	375.000
180.80	700.000
181.18	-33.333
181.56	-100.000
181.94	150.000
182.31	-200.000
182.69	180.000
183.07	66.667
183.45	40.000
183.83	-150.000
184.20	36.364
184.58	66.667
184.96	-275.000
185.34	-466.667
185.72	-50.000
186.09	-76.923
186.47	700.000
186.85	-83.333
187.23	22.222
187.61	-600.000
187.98	133.333
188.36	155.556
188.74	133.333
189.12	35.294
189.49	66.667
189.87	0.000
190.25	64.286
190.63	850.000
191.00	166.667
191.38	94.737
191.76	600.000
192.14	-200.000
192.51	800.000
192.89	-44.444
193.27	71.429
193.65	-16.667
194.02	36.364
194.40	130.000
194.78	0.000
195.15	16.667
195.53	12.500
195.91	75.000
196.29	150.000
196.66	46.154
197.04	114.286
197.42	88.889
197.79	-366.667
198.17	-76.923
198.55	400.000
198.92	-66.667
199.30	500.000
199.68	40.000
200.05	-133.333
200.43	0.000
200.81	133.333
201.18	200.000
201.56	-400.000
201.94	-50.000
202.31	-66.667
202.69	-20.000
203.07	-150.000
203.44	2400.000
203.82	0.000
204.19	142.857
204.57	-166.667
204.95	25.000
205.32	130.000
205.70	85.714
206.08	200.000
206.45	288.889
206.83	78.571
207.20	128.571
207.58	-300.000
207.96	100.000
208.33	80.000
208.71	250.000
209.08	-66.667
209.46	300.000
209.84	120.000
210.21	1200.000
210.59	185.714
210.96	166.667
211.34	100.000
211.71	0.000
212.09	-28.571
212.46	-400.000
212.84	0.000
213.22	80.000
213.59	-400.000
213.97	76.923
214.34	90.909
214.72	116.667
215.09	25.000
215.47	53.846
215.84	-18.182
216.22	-133.333
216.59	62.500
216.97	400.000
217.34	225.000
217.72	60.000
218.09	50.000
218.47	-62.500
218.84	1100.000
219.22	-44.444
219.59	80.000
219.97	166.667
220.34	-0.000
220.72	0.000
221.09	175.000
221.47	200.000
221.84	250.000
222.22	-250.000
222.59	109.091
222.97	116.667
223.34	-233.333
223.72	50.000
224.09	23.810
224.46	71.429
224.84	300.000
225.21	60.000
225.59	106.667
225.96	550.000
226.34	200.000
226.71	128.571
227.08	116.667
227.46	100.000
227.83	-50.000
228.21	88.889
228.58	63.636
228.95	-12.500
229.33	-20.000
229.70	37.500
230.08	-125.000
230.45	-14.286
230.82	71.429
231.20	106.667
231.57	71.429
231.95	28.571
232.32	20.000
232.69	78.571
233.07	200.000
233.44	240.000
233.81	-30.000
234.19	144.444
234.56	129.412
234.93	150.000
235.31	175.000
235.68	-180.000
236.05	0.000
236.43	35.000
236.80	47.059
237.17	34.375
237.55	65.000
237.92	7.407
238.29	22.222
238.67	50.000
239.04	17.647
239.41	-4.878
239.79	40.000
240.16	34.146
240.53	21.053
240.91	32.609
241.28	25.397
241.65	28.571
242.02	39.726
242.40	23.333
242.77	16.949
243.14	15.152
243.51	30.000
243.89	34.483
244.26	14.943
244.63	25.000
245.00	18.557
245.38	26.804
245.75	20.225
246.12	15.517
246.49	27.273
246.87	32.692
247.24	26.891
247.61	21.930
247.98	24.390
248.36	20.625
248.73	23.026
249.10	22.078
249.47	25.949
249.84	26.144
250.22	27.647
250.59	27.451
250.96	25.822
251.33	21.512
251.70	22.353
252.08	25.888
252.45	21.782
252.82	24.623
253.19	27.650
253.56	18.692
253.94	27.027
254.31	23.043
254.68	26.754
255.05	23.622
255.42	20.524
255.79	20.077
256.16	26.459
256.54	25.000
256.91	21.673
257.28	21.561
257.65	20.974
258.02	20.213
258.39	22.222
258.76	27.839
259.14	19.601
259.51	24.919
259.88	25.773
260.25	22.222
260.62	24.653
260.99	18.983
261.36	20.548
261.73	16.456
262.10	20.365
262.47	19.018
262.85	22.571
263.22	21.538
263.59	19.626
263.96	20.186
264.33	24.545
264.70	19.048
265.07	19.940
265.44	22.663
265.81	23.729
266.18	21.038
266.55	21.594
266.92	23.575
267.29	21.671
267.66	21.228
268.03	21.204
268.40	18.799
268.77	25.936
269.14	21.823
269.51	21.080
269.88	19.451
270.25	19.133
270.62	17.073
270.99	20.716
271.36	20.293
271.73	21.831
272.10	20.438
272.47	21.277
272.84	20.297
273.21	22.042
273.58	21.205
273.95	22.883
274.32	19.400
274.69	21.946
275.06	21.652
275.43	21.315
275.80	20.309
276.17	18.391
276.54	20.343
276.91	21.930
277.28	21.179
277.65	21.281
278.02	19.574
278.39	20.788
278.76	19.916
279.13	17.220
279.50	21.008
279.87	20.950
280.23	19.785
280.60	21.832
280.97	20.202
281.34	18.846
281.71	21.766
282.08	19.427
282.45	18.591
282.82	19.112
283.19	19.149
283.56	18.882
283.92	18.027
284.29	19.808
284.66	18.798
285.03	19.450
285.40	19.282
285.77	18.629
286.14	17.690
286.51	21.033
286.87	18.464
287.24	19.521
287.61	18.695
287.98	18.596
288.35	17.158
288.72	19.089
289.08	16.146
289.45	20.738
289.82	19.056
290.19	17.747
290.56	18.182
290.93	15.993
291.29	16.487
291.66	18.425
292.03	18.341
292.40	15.968
292.77	18.501
293.13	15.747
293.50	15.630
293.87	15.878
294.24	16.692
294.60	16.692
294.97	16.518
295.34	15.798
295.71	16.841
296.08	17.190
296.44	13.656
296.81	15.417
297.18	15.072
297.55	16.802
297.91	14.521
298.28	15.567
298.65	15.875
299.02	15.499
299.38	12.038
299.75	14.621
300.12	12.958
300.48	14.625
300.85	14.956
301.22	13.636
301.59	13.289
301.95	14.177
302.32	16.213
302.69	14.428
303.05	12.995
303.42	14.819
303.79	14.019
304.15	15.771
304.52	13.317
304.89	11.930
305.25	13.438
305.62	13.186
305.99	12.865
306.35	13.295
306.72	12.711
307.09	12.885
307.45	13.433
307.82	12.847
308.19	14.286
308.55	12.759
308.92	13.725
309.29	13.408
309.65	13.348
310.02	12.651
310.38	13.172
310.75	12.678
311.12	12.917
311.48	13.362
311.85	14.031
312.22	12.025
312.58	13.057
312.95	12.060
313.31	13.354
313.68	12.880
314.05	13.776
314.41	13.299
314.78	14.021
315.14	12.641
315.51	13.561
315.87	12.807
316.24	14.560
316.61	15.157
316.97	14.782
317.34	14.063
317.70	14.436
318.07	13.462
318.43	15.098
318.80	14.962
319.16	15.527
319.53	15.005
319.89	16.339
320.26	15.385
320.62	17.051
320.99	15.866
321.35	16.341
321.72	16.926
322.08	18.328
322.45	17.360
322.81	18.664
323.18	18.155
323.54	19.112
323.91	18.793
324.27	20.801
324.64	20.787
325.00	20.255
325.37	23.049
325.73	21.578
326.10	22.616
326.46	23.587
326.83	24.059
327.19	24.673
327.56	24.587
327.92	27.025
328.29	25.357
328.65	27.170
329.01	28.309
329.38	27.926
329.74	28.234
330.11	29.101
330.47	28.850
330.84	31.058
331.20	32.605
331.56	30.556
331.93	32.603
332.29	34.005
332.66	32.489
333.02	32.528
333.38	33.364
333.75	34.615
334.11	34.199
334.48	34.995
334.84	35.897
335.20	36.048
335.57	35.267
335.93	35.682
336.29	37.109
336.66	36.421
337.02	36.431
337.38	35.648
337.75	36.182
338.11	38.052
338.47	36.770
338.84	38.447
339.20	39.031
339.56	37.798
339.93	39.033
340.29	38.807
340.65	38.082
341.02	36.879
341.38	38.761
341.74	37.279
342.11	37.002
342.47	38.523
342.83	39.273
343.20	37.544
343.56	39.565
343.92	38.973
344.28	39.112
344.65	38.169
345.01	38.375
345.37	38.267
345.73	38.410
346.10	39.776
346.46	38.015
346.82	38.789
347.19	38.404
347.55	38.931
347.91	38.916
348.27	38.480
348.63	39.438
349.00	39.459
349.36	37.905
349.72	39.635
350.08	39.508
350.45	38.707
350.81	38.787
351.17	39.577
351.53	39.102
351.89	38.811
352.26	38.560
352.62	40.081
352.98	38.313
353.34	38.567
353.70	39.482
354.07	38.790
354.43	37.950
354.79	39.389
355.15	39.841
355.51	40.032
355.87	40.291
356.24	40.538
356.60	38.076
356.96	39.127
357.32	39.377
357.68	39.719
358.04	38.611
358.40	39.791
358.77	39.793
359.13	41.233
359.49	38.829
359.85	39.470
360.21	39.633
360.57	39.786
360.93	40.242
361.29	39.728
361.66	40.987
362.02	41.288
362.38	40.061
362.74	41.484
363.10	42.363
363.46	40.326
363.82	41.623
364.18	40.590
364.54	39.706
364.90	42.151
365.26	41.121
365.62	41.314
365.98	40.689
366.35	41.588
366.71	42.203
367.07	41.872
367.43	40.762
367.79	41.484
368.15	41.924
368.51	41.879
368.87	41.278
369.23	41.300
369.59	43.149
369.95	42.595
370.31	42.124
370.67	42.015
371.03	42.196
371.39	41.867
371.75	43.004
372.11	42.939
372.47	43.195
372.83	43.577
373.19	43.224
373.55	42.310
373.91	43.197
374.27	44.862
374.63	44.652
374.99	43.050
375.35	44.150
375.71	44.126
376.07	43.890
376.42	44.354
376.78	44.094
377.14	43.873
377.50	43.825
377.86	43.507
378.22	44.288
378.58	44.872
378.94	43.793
379.30	45.165
379.66	46.144
380.02	45.739
380.38	44.796
380.74	43.746
381.09	45.583
381.45	45.505
381.81	45.466
382.17	44.797
382.53	47.595
382.89	46.767
383.25	45.986
383.61	46.402
383.97	45.968
384.32	45.278
384.68	46.316
385.04	45.650
385.40	45.426
385.76	48.050
386.12	46.895
386.48	47.510
386.83	47.178
387.19	46.825
387.55	47.302
387.91	47.677
388.27	46.154
388.62	47.955
388.98	47.514
389.34	48.407
389.70	47.732
390.06	46.507
390.42	47.863
390.77	47.351
391.13	47.226
391.49	47.995
391.85	48.408
392.20	48.274
392.56	48.315
392.92	48.503
393.28	49.175
393.64	47.447
393.99	47.962
394.35	49.526
394.71	48.212
395.07	48.020
395.42	47.845
395.78	49.251
396.14	48.676
396.50	49.905
396.85	48.873
397.21	48.308
397.57	48.088
397.92	47.513
398.28	48.908
398.64	47.410
399.00	49.718
399.35	47.686
399.71	48.306
400.07	47.703
400.42	47.491
400.78	48.561
401.14	48.760
401.49	47.647
401.85	48.080
402.21	47.349
402.57	48.625
402.92	48.055
403.28	49.499
403.63	48.739
403.99	47.832
404.35	50.156
404.70	47.738
405.06	47.239
405.42	47.980
405.77	47.472
406.13	47.905
406.49	47.069
406.84	48.778
407.20	48.525
407.55	46.491
407.91	47.460
408.27	47.674
408.62	48.246
408.98	46.272
409.34	48.575
409.69	47.804
410.05	47.352
410.40	46.914
410.76	47.648
411.11	48.000
411.47	48.389
411.83	48.023
412.18	48.649
412.54	47.253
412.89	46.921
413.25	48.255
413.60	47.888
413.96	46.564
414.31	47.805
414.67	48.108
415.03	47.936
415.38	47.128
415.74	47.036
416.09	47.616
416.45	48.076
416.80	47.918
417.16	49.655
417.51	48.168
417.87	47.523
418.22	49.547
418.58	48.896
418.93	48.903
419.29	47.567
419.64	48.736
420.00	49.307
420.35	50.090
420.71	48.906
421.06	48.864
421.42	49.339
421.77	49.249
422.12	50.114
422.48	49.053
422.83	48.666
423.19	49.379
423.54	48.795
423.90	48.999
424.25	49.828
424.61	50.184
424.96	49.768
425.31	50.664
425.67	51.526
426.02	51.237
426.38	51.284
426.73	51.392
427.09	51.456
427.44	51.471
427.79	50.147
428.15	52.124
428.50	51.302
428.85	50.921
429.21	52.009
429.56	52.453
429.92	51.002
430.27	50.677
430.62	51.647
430.98	51.964
431.33	52.103
431.68	51.544
432.04	52.208
432.39	51.797
432.74	51.714
433.10	52.989
433.45	52.330
433.80	52.583
434.16	52.853
434.51	52.097
434.86	53.020
435.22	52.832
435.57	53.712
435.92	53.593
436.28	52.236
436.63	53.736
436.98	51.564
437.34	53.237
437.69	55.098
438.04	53.732
438.39	54.856
438.75	55.313
439.10	54.386
439.45	55.143
439.81	54.862
440.16	55.048
440.51	55.284
440.86	55.529
441.22	54.977
441.57	56.236
441.92	56.453
442.27	56.707
442.63	56.531
442.98	55.887
443.33	55.036
443.68	57.082
444.03	56.284
444.39	55.632
444.74	56.355
445.09	56.125
445.44	56.410
445.79	58.845
446.15	55.452
446.50	55.574
446.85	57.014
447.20	57.091
447.55	57.757
447.91	57.135
448.26	59.363
448.61	57.398
448.96	57.258
449.31	58.324
449.66	57.317
450.02	57.330
450.37	57.795
450.72	57.617
451.07	58.608
451.42	57.678
451.77	58.228
452.12	57.237
452.47	57.502
452.83	57.833
453.18	58.824
453.53	58.217
453.88	58.409
454.23	58.082
454.58	59.509
454.93	58.827
455.28	57.778
455.63	59.516
455.98	59.651
456.34	59.068
456.69	58.386
457.04	59.672
457.39	58.870
457.74	59.250
458.09	57.563
458.44	58.455
458.79	58.039
459.14	60.126
459.49	60.239
459.84	59.278
460.19	59.648
460.54	59.352
460.89	60.170
461.24	60.311
461.59	58.373
461.94	59.371
462.29	60.072
462.64	59.734
462.99	60.799
463.34	60.431
463.69	59.073
464.04	60.654
464.39	59.612
464.74	60.184
465.09	60.823
465.44	60.819
465.79	59.070
466.14	60.091
466.49	60.035
466.84	60.262
467.19	60.576
467.54	60.409
467.89	60.265
468.24	60.462
468.59	61.587
468.94	60.190
469.29	61.246
469.64	61.176
469.99	61.948
470.34	60.751
470.68	62.789
471.03	62.137
471.38	60.913
471.73	60.994
472.08	61.805
472.43	61.879
472.78	59.767
473.13	61.020
473.48	61.368
473.83	60.772
474.17	61.917
474.52	60.434
474.87	60.364
475.22	61.562
475.57	61.434
475.92	61.986
476.27	61.932
476.61	62.500
476.96	59.955
477.31	61.493
477.66	62.079
478.01	61.819
478.36	61.438
478.70	62.915
479.05	61.538
479.40	62.215
479.75	61.262
480.10	62.519
480.45	62.000
480.79	63.142
481.14	62.398
481.49	61.872
481.84	62.452
482.19	61.319
482.53	62.398
482.88	61.289
483.23	62.188
483.58	60.660
483.92	61.375
484.27	61.121
484.62	62.349
484.97	61.774
485.31	62.139
485.66	60.908
486.01	60.519
486.36	60.107
486.70	59.910
487.05	60.085
487.40	60.031
487.75	60.479
488.09	60.136
488.44	60.385
488.79	61.636
489.13	61.779
489.48	62.505
489.83	61.928
490.17	62.337
490.52	62.956
490.87	61.453
491.22	63.515
491.56	63.140
491.91	61.568
492.26	63.539
492.60	62.092
492.95	64.830
493.30	61.847
493.64	63.802
493.99	62.754
494.34	62.864
494.68	63.333
495.03	62.238
495.37	63.886
495.72	63.150
496.07	64.439
496.41	62.783
496.76	64.763
497.11	62.320
497.45	63.055
497.80	63.774
498.14	64.133
498.49	65.008
498.84	62.675
499.18	63.153
499.53	64.435
499.87	64.056
500.22	63.699
500.56	64.801
500.91	63.404
501.26	63.322
501.60	63.896
501.95	63.028
502.29	64.068
502.64	63.948
502.98	64.430
503.33	63.641
503.67	64.337
504.02	65.152
504.36	64.176
504.71	63.081
505.06	63.060
505.40	64.975
505.75	64.124
506.09	64.521
506.44	65.503
506.78	65.612
507.13	64.426
507.47	63.238
507.82	64.904
508.16	65.346
508.51	64.953
508.85	65.254
509.19	64.662
509.54	64.772
509.88	64.347
510.23	65.250
510.57	65.152
510.92	64.232
511.26	64.648
511.61	64.466
511.95	66.575
512.30	65.299
512.64	65.109
512.98	65.357
513.33	65.249
513.67	66.174
514.02	66.533
514.36	67.029
514.70	66.958
515.05	67.098
515.39	66.470
515.74	67.485
516.08	67.484
516.42	67.786
516.77	66.706
517.11	68.131
517.46	66.727
517.80	67.878
518.14	67.483
518.49	66.887
518.83	67.618
519.17	66.161
519.52	67.200
519.86	67.767
520.20	67.254
520.55	66.979
520.89	66.813
521.23	66.814
521.58	68.517
521.92	67.885
522.26	68.900
522.61	68.506
522.95	69.934
523.29	66.836
523.64	68.933
523.98	68.957
524.32	69.201
524.66	69.398
525.01	69.805
525.35	68.179
525.69	68.687
526.04	67.923
526.38	69.326
526.72	67.168
527.06	68.742
527.41	68.734
527.75	67.493
528.09	67.708
528.43	69.953
528.78	69.703
529.12	68.968
529.46	68.486
529.80	66.561
530.15	69.769
530.49	68.687
530.83	69.083
531.17	68.435
531.51	69.494
531.86	68.797
532.20	68.337
532.54	68.550
532.88	69.610
533.22	67.675
533.57	67.890
533.91	68.016
534.25	68.164
534.59	69.468
534.93	66.268
535.27	68.655
535.62	67.920
535.96	68.493
536.30	68.206
536.64	69.400
536.98	68.014
537.32	70.199
537.66	69.705
538.01	69.930
538.35	69.903
538.69	68.775
539.03	68.148
539.37	68.102
539.71	68.371
540.05	68.771
540.39	69.183
540.73	69.247
541.07	69.751
541.42	67.742
541.76	70.406
542.10	69.511
542.44	69.632
542.78	67.860
543.12	67.788
543.46	68.985
543.80	69.535
544.14	67.824
544.48	68.821
544.82	68.831
545.16	70.150
545.50	68.892
545.84	70.042
546.18	70.142
546.52	68.493
546.86	69.734
547.20	68.813
547.54	67.845
547.88	69.361
548.22	68.179
548.56	68.206
548.90	68.935
549.24	68.871
549.58	67.913
549.92	68.620
550.26	68.278
550.60	71.078
550.94	70.202
551.28	69.706
551.62	70.231
551.96	70.226
552.30	69.664
552.64	69.111
552.98	70.042
553.32	69.044
553.66	69.521
554.00	69.562
554.34	70.089
554.68	69.764
555.02	70.908
555.36	69.409
555.69	69.963
556.03	69.450
556.37	70.249
556.71	70.181
557.05	71.439
557.39	71.301
557.73	70.165
558.07	70.513
558.41	70.750
558.75	70.070
559.08	71.474
559.42	70.159
559.76	72.458
560.10	71.177
560.44	69.918
560.78	70.210
561.12	71.650
561.45	71.609
561.79	70.658
562.13	72.037
562.47	70.935
562.81	70.677
563.15	70.592
563.48	70.297
563.82	69.801
564.16	70.474
564.50	69.527
564.84	70.147
565.17	69.081
565.51	71.175
565.85	71.331
566.19	70.491
566.52	71.649
566.86	70.501
567.20	67.808
567.54	70.316
567.88	70.592
568.21	71.324
568.55	69.837
568.89	69.507
569.23	69.812
569.56	68.389
569.90	68.859
570.24	66.654
570.57	67.782
570.91	67.201
571.25	66.426
571.59	66.397
571.92	64.770
572.26	66.727
572.60	66.605
572.93	66.081
573.27	65.705
573.61	66.199
573.95	66.466
574.28	65.413
574.62	65.624
574.96	64.872
575.29	64.891
575.63	64.317
575.97	64.570
576.30	65.224
576.64	64.874
576.98	65.380
577.31	65.913
577.65	66.216
577.98	65.617
578.32	64.651
578.66	64.088
578.99	64.483
579.33	64.027
579.67	64.547
580.00	64.608
580.34	65.398
580.67	64.639
581.01	65.874
581.35	65.052
581.68	65.833
582.02	65.663
582.35	64.847
582.69	63.907
583.02	65.029
583.36	65.910
583.70	66.771
584.03	67.584
584.37	67.645
584.70	65.934
585.04	65.337
585.37	65.307
585.71	66.379
586.04	65.961
586.38	65.031
586.72	67.231
587.05	67.273
587.39	66.760
587.72	68.152
588.06	67.368
588.39	66.192
588.73	67.918
589.06	67.939
589.40	67.058
589.73	67.981
590.07	68.769
590.40	69.582
590.73	69.769
591.07	68.660
591.40	68.923
591.74	69.231
592.07	69.434
592.41	69.876
592.74	67.861
593.08	65.980
593.41	68.040
593.75	67.386
594.08	67.422
594.41	68.523
594.75	68.092
595.08	69.542
595.42	69.010
595.75	69.245
596.09	68.256
596.42	68.913
596.75	70.204
597.09	69.795
597.42	69.015
597.75	69.400
598.09	68.674
598.42	69.359
598.76	68.897
599.09	67.869
599.42	68.283
599.76	69.112
600.09	67.873
600.42	68.234
600.76	67.311
601.09	68.397
601.42	67.450
601.76	68.599
602.09	67.987
602.42	69.545
602.76	68.463
603.09	68.854
603.42	71.572
603.76	69.274
604.09	69.502
604.42	69.797
604.76	69.426
605.09	68.784
605.42	69.255
605.75	69.177
606.09	69.469
606.42	68.515
606.75	68.831
607.09	68.440
607.42	68.631
607.75	69.316
608.08	68.958
608.42	68.113
608.75	70.410
609.08	70.752
609.41	69.036
609.75	71.069
610.08	71.593
610.41	69.565
610.74	70.648
611.07	70.543
611.41	70.109
611.74	71.855
612.07	70.343
612.40	70.350
612.73	70.960
613.07	69.348
613.40	70.678
613.73	71.461
614.06	70.840
614.39	71.461
614.72	70.700
615.06	71.229
615.39	68.450
615.72	69.699
616.05	71.285
616.38	69.972
616.71	71.437
617.05	71.649
617.38	72.659
617.71	71.824
618.04	72.825
618.37	73.644
618.70	73.531
619.03	73.194
619.36	72.431
619.69	73.389
620.03	74.726
620.36	73.677
620.69	71.734
621.02	73.471
621.35	77.178
621.68	76.020
622.01	74.000
622.34	74.621
622.67	74.211
623.00	73.890
623.33	73.018
623.66	72.177
623.99	73.298
624.32	73.764
624.65	74.361
624.99	74.342
625.32	72.176
625.65	75.020
625.98	75.262
626.31	74.480
626.64	74.957
626.97	74.258
627.30	76.182
627.63	73.917
627.96	77.089
628.29	75.301
628.62	76.401
628.95	76.453
629.28	78.528
629.61	77.368
629.94	76.246
630.26	76.285
630.59	80.541
630.92	75.795
631.25	75.385
631.58	79.075
631.91	79.057
632.24	79.243
632.57	78.636
632.90	78.766
633.23	77.294
633.56	80.982
633.89	80.148
634.22	80.741
634.55	81.449
634.88	80.077
635.20	79.744
635.53	82.267
635.86	79.584
636.19	79.043
636.52	79.592
636.85	79.901
637.18	77.358
637.51	79.748
637.83	80.815
638.16	81.173
638.49	76.158
638.82	78.421
639.15	80.190
639.48	81.018
639.81	80.195
640.13	79.798
640.46	77.988
640.79	79.234
641.12	81.832
641.45	81.381
641.77	81.185
642.10	84.044
642.43	79.100
642.76	81.683
643.09	81.745
643.41	80.421
643.74	82.372
644.07	82.102
644.40	84.966
644.73	82.837
645.05	80.537
645.38	85.362
645.71	83.333
646.04	84.201
646.36	82.801
646.69	84.173
647.02	83.554
647.35	83.396
647.67	83.181
648.00	84.328
648.33	82.594
648.66	83.220
648.98	81.407
649.31	81.983
649.64	81.005
649.96	79.579
650.29	84.497
650.62	79.316
650.94	83.333
651.27	84.358
651.60	83.243
651.92	81.993
652.25	82.238
652.58	81.500
652.90	81.475
653.23	80.336
653.56	80.372
653.88	79.725
654.21	81.436
654.54	82.852
654.86	83.701
655.19	77.339
655.52	73.529
655.84	67.698
656.17	74.521
656.49	99.019
656.82	100.000
657.15	82.619
657.47	59.245
657.80	44.666
658.13	43.959
658.45	68.271
658.78	68.137
659.10	67.088
659.43	68.644
659.75	70.202
660.08	72.897
660.41	75.587
660.73	76.519
661.06	83.709
661.38	81.996
661.71	79.055
662.03	85.622
662.36	86.154
662.68	80.752
663.01	84.498
663.33	85.383
663.66	81.163
663.98	83.488
664.31	79.318
664.63	85.253
664.96	80.000
665.28	82.340
665.61	84.199
665.93	84.348
666.26	86.551
666.58	82.998
666.91	87.529
667.23	84.906
667.56	82.464
667.88	86.571
668.21	85.680
668.53	87.943
668.86	85.613
669.18	83.255
669.50	85.230
669.83	84.651
670.15	84.848
670.48	82.297
670.80	80.876
671.13	81.655
671.45	78.767
671.77	83.906
672.10	79.802
672.42	80.337
672.75	78.686
673.07	81.038
673.39	79.266
673.72	75.345
674.04	82.708
674.37	82.415
674.69	82.227
675.01	82.444
675.34	79.730
675.66	85.417
675.98	82.927
676.31	80.963
676.63	86.461
676.95	81.591
677.28	83.294
677.60	88.193
677.92	83.945
678.25	81.182
678.57	81.385
678.89	82.143
679.22	88.814
679.54	80.522
679.86	79.722
680.18	79.806
680.51	78.030
680.83	80.517
681.15	80.800
681.48	84.221
681.80	80.165
682.12	81.048
682.44	82.427
682.77	86.976
683.09	81.465
683.41	79.545
683.73	81.336
684.06	79.646
684.38	81.290
684.70	84.749
685.02	80.498
685.34	79.644
685.67	78.799
685.99	77.577
686.31	78.407
686.63	79.221
686.96	78.137
687.28	80.606
687.60	76.996
687.92	82.424
688.24	80.645
688.56	80.786
688.89	81.920
689.21	84.000
689.53	80.974
689.85	83.256
690.17	79.911
690.49	79.196
690.82	83.738
691.14	81.190
691.46	79.439
691.78	81.532
692.10	80.215
692.42	81.385
692.74	78.419
693.06	80.180
693.39	76.471
693.71	77.376
694.03	81.524
694.35	79.907
694.67	79.798
694.99	79.896
695.31	81.462
695.63	82.250
695.95	78.030
696.27	82.642
696.59	80.000
696.91	81.513
697.23	78.920
697.56	80.941
697.88	75.699
698.20	83.827
698.52	81.176
698.84	77.033
699.16	82.750
699.48	81.454
699.80	77.171
700.12	83.558
700.44	79.832
700.76	82.267
701.08	83.030
701.40	81.024
701.72	83.025
702.04	80.858
702.36	90.970
702.68	87.988
703.00	85.758
703.32	83.871
703.64	79.379
703.96	76.812
704.28	78.834
704.60	83.175
704.91	79.811
705.23	87.043
705.55	89.046
705.87	85.560
706.19	84.815
706.51	82.131
706.83	82.315
707.15	77.570
707.47	80.952
707.79	76.823
708.11	78.750
708.43	76.000
708.74	77.003
709.06	85.070
709.38	82.263
709.70	82.544
710.02	79.618
710.34	80.805
710.66	82.051
710.98	83.113
711.29	85.902
711.61	83.729
711.93	79.479
712.25	87.285
712.57	84.615
712.89	83.209
713.20	80.623
713.52	80.836
713.84	77.816
714.16	78.351
714.48	80.323
714.80	83.013
715.11	78.419
715.43	75.549
715.75	80.333
716.07	79.734
716.39	80.201
716.70	78.229
717.02	79.771
717.34	82.186
717.66	82.301
717.97	86.957
718.29	80.335
718.61	78.740
718.93	78.295
719.24	83.270
719.56	85.141
719.88	76.632
720.20	82.576
720.51	77.778
720.83	82.239
721.15	85.714
721.46	85.484
721.78	81.423
722.10	77.695
722.42	81.328
722.73	87.347
723.05	83.673
723.37	87.712
723.68	87.838
724.00	82.479
724.32	80.444
724.63	82.727
724.95	83.843
725.27	83.410
725.58	83.898
725.90	75.397
726.22	85.714
726.53	77.627
726.85	81.648
727.16	80.000
727.48	74.089
727.80	83.806
728.11	80.508
728.43	78.431
728.74	75.000
729.06	82.000
729.38	81.579
729.69	80.080
730.01	75.385
730.32	80.970
730.64	80.212
730.96	83.774
731.27	74.667
731.59	82.034
731.90	78.344
732.22	79.180
732.53	78.405
732.85	76.596
733.16	77.778
733.48	78.058
733.80	80.435
734.11	76.610
734.43	81.787
734.74	75.455
735.06	76.873
735.37	74.018
735.69	81.145
736.00	77.003
736.32	76.174
736.63	77.113
736.95	78.840
737.26	79.004
737.58	71.477
737.89	76.190
738.21	72.556
738.52	81.481
738.83	79.913
739.15	86.026
739.46	77.559
739.78	78.388
740.09	72.876
740.41	74.638
740.72	71.260
741.04	80.162
741.35	77.021
741.66	72.986
741.98	74.490
742.29	81.188
742.61	79.581
742.92	74.408
743.23	73.611
743.55	78.281
743.86	77.033
744.18	78.469
744.49	83.511
744.80	82.065
745.12	96.257
745.43	70.732
745.74	85.417
746.06	78.049
746.37	87.435
746.68	76.303
747.00	82.979
747.31	87.065
747.62	81.553
747.94	78.469
748.25	75.248
748.56	85.246
748.88	80.628
749.19	86.170
749.50	78.325
749.82	74.057
750.13	79.817
750.44	77.068
750.75	75.000
751.07	76.642
751.38	77.395
751.69	74.510
752.01	76.744
752.32	76.096
752.63	73.123
752.94	79.310
753.26	79.079
753.57	76.471
753.88	75.664
754.19	72.917
754.51	76.446
754.82	74.494
755.13	78.750
755.44	76.613
755.75	76.172
756.07	79.377
756.38	74.717
756.69	77.395
757.00	71.667
757.31	72.549
757.63	69.817
757.94	65.278
758.25	67.123
758.56	71.011
758.87	66.289
759.18	67.601
759.50	77.455
759.81	72.241
760.12	75.806
760.43	74.545
760.74	73.148
761.05	72.615
761.36	67.614
761.67	73.333
761.99	75.850
762.30	66.182
762.61	71.937
762.92	83.710
763.23	73.874
763.54	73.832
763.85	68.644
764.16	71.369
764.47	74.194
764.78	69.231
765.10	74.074
765.41	68.454
765.72	74.286
766.03	75.940
766.34	69.708
766.65	74.900
766.96	85.859
767.27	81.383
767.58	70.690
767.89	80.851
768.20	76.136
768.51	75.275
768.82	73.892
769.13	67.742
769.44	70.815
769.75	69.406
770.06	68.534
770.37	68.750
770.68	78.680
770.99	71.946
771.30	79.902
771.61	75.113
771.92	75.431
772.23	78.325
772.54	76.344
772.85	75.926
773.16	71.348
773.47	86.275
773.78	84.314
774.09	70.659
774.39	81.333
774.70	66.242
775.01	82.069
775.32	75.000
775.63	80.992
775.94	74.809
776.25	78.740
776.56	78.333
776.87	84.615
777.18	76.923
777.48	88.793
777.79	80.870
778.10	75.238
778.41	81.081
778.72	71.429
779.03	78.947
779.34	68.794
779.65	80.137
779.95	70.548
780.26	80.000
780.57	69.106
780.88	74.803
781.19	78.448
781.50	78.295
781.80	70.414
782.11	71.069
782.42	78.462
782.73	74.820
783.04	71.111
783.34	65.278
783.65	77.778
783.96	71.311
784.27	74.483
784.57	73.171
784.88	64.844
785.19	85.000
785.50	95.000
785.81	77.586
786.11	68.966
786.42	78.641
786.73	73.636
787.04	72.449
787.34	67.857
787.65	74.286
787.96	66.372
788.26	85.455
788.57	62.393
788.88	70.313
789.19	74.603
789.49	68.696
789.80	71.429
790.11	76.768
790.41	68.182
790.72	82.609
791.03	68.182
791.33	78.750
791.64	86.250
791.95	80.233
792.25	64.894
792.56	82.022
792.87	79.452
793.17	92.754
793.48	64.000
793.79	80.000
794.09	81.250
794.40	70.755
794.70	74.757
795.01	62.602
795.32	63.248
795.62	80.952
795.93	62.745
796.23	70.755
796.54	71.875
796.85	86.765
797.15	69.014
797.46	72.222
797.76	74.242
798.07	66.279
798.37	57.895
798.68	75.758
798.99	64.198
799.29	91.429
799.60	71.014
799.90	90.667
800.21	78.689
800.51	64.615
800.82	93.220
801.12	65.217
801.43	75.410
801.73	76.190
802.04	100.000
802.34	58.209
802.65	88.462
802.95	75.000
803.26	78.846
803.56	103.922
803.87	71.739
804.17	70.667
804.48	76.190
804.78	66.667
805.09	78.261
805.39	53.333
805.70	70.370
806.00	59.649
806.30	70.423
806.61	78.571
806.91	59.722
807.22	76.316
807.52	77.333
807.83	67.273
808.13	58.333
808.43	85.294
808.74	65.672
809.04	66.102
809.35	92.308
809.65	71.875
809.95	64.865
810.26	79.545
810.56	64.384
810.86	88.095
811.17	76.000
811.47	55.102
811.77	52.632
812.08	70.455
812.38	67.925
812.69	90.000
812.99	81.818
813.29	94.737
813.59	74.286
813.90	81.818
814.20	66.667
814.50	67.308
814.81	75.472
815.11	70.213
815.41	66.102
815.72	69.048
816.02	86.275
816.32	56.250
816.62	80.488
816.93	54.054
817.23	102.857
817.53	83.333
817.84	63.043
818.14	63.462
818.44	63.158
818.74	102.174
819.04	45.000
819.35	40.541
819.65	82.353
819.95	77.778
820.25	69.048
820.56	107.500
820.86	51.724
821.16	110.000
821.46	61.702
821.76	92.500
822.07	55.814
822.37	45.946
822.67	56.250
822.97	90.476
823.27	57.143
823.57	128.000
823.88	25.926
824.18	85.714
824.48	79.412
824.78	96.774
825.08	86.957
825.38	78.788
825.69	87.500
825.99	73.684
826.29	83.333
826.59	120.000
826.89	80.952
827.19	67.391
827.49	85.000
827.79	77.143
828.09	85.714
828.39	93.939
828.70	116.216
829.00	60.714
829.30	71.429
829.60	90.000
829.90	56.250
830.20	60.526
830.50	85.185
830.80	86.957
831.10	63.636
831.40	96.970
831.70	77.419
832.00	95.238
832.30	76.190
832.60	191.667
832.90	48.276
833.20	40.000
833.50	72.727
833.80	92.593
834.10	80.769
834.40	68.750
834.70	222.222
835.00	68.421
835.30	84.615
835.60	173.333
835.90	54.839
836.20	68.182
836.50	71.429
836.80	57.692
837.10	82.143
837.40	133.333
837.70	63.636
838.00	109.091
838.30	108.696
838.60	107.692
838.90	68.182
839.19	46.429
839.49	93.333
839.79	61.538
840.09	125.000
840.39	139.286
840.69	103.571
840.99	61.538
841.29	94.737
841.59	20.000
841.88	118.182
842.18	140.000
842.48	106.250
842.78	86.667
843.08	70.370
843.38	10.000
843.68	95.652
843.97	93.333
844.27	46.667
844.57	65.000
844.87	100.000
845.17	33.333
845.47	120.000
845.76	52.381
846.06	129.412
846.36	150.000
846.66	64.286
846.96	133.333
847.25	12.500
847.55	71.429
847.85	75.000
848.15	90.909
848.44	233.333
848.74	115.000
849.04	66.667
849.34	181.818
849.63	83.333
849.93	160.000
850.23	94.444
850.53	170.000
850.82	123.077
851.12	33.333
851.42	66.667
851.71	11.538
852.01	135.714
852.31	200.000
852.61	-18.182
852.90	45.000
853.20	68.421
853.50	75.000
853.79	65.217
854.09	100.000
854.39	89.474
854.68	70.833
854.98	64.516
855.28	103.846
855.57	80.000
855.87	122.222
856.17	85.185
856.46	35.714
856.76	86.667
857.05	111.111
857.35	80.000
857.65	83.333
857.94	92.308
858.24	100.000
858.53	133.333
858.83	55.556
859.13	95.455
859.42	69.565
859.72	375.000
860.01	-33.333
860.31	100.000
860.60	85.714
860.90	-66.667
861.20	93.333
861.49	-150.000
861.79	20.000
862.08	70.000
862.38	120.000
862.67	120.000
862.97	200.000
863.26	133.333
863.56	33.333
863.85	0.000
864.15	138.889
864.44	130.000
864.74	142.857
865.03	-150.000
865.33	0.000
865.62	183.333
865.92	100.000
866.21	116.667
866.51	6.250
866.80	90.909
867.10	100.000
867.39	133.333
867.69	0.000
867.98	146.154
868.27	233.333
868.57	73.333
868.86	55.556
869.16	76.923
869.45	133.333
869.75	0.000
870.04	0.000
870.33	100.000
870.63	76.190
870.92	100.000
871.22	-80.000
871.51	500.000
871.80	200.000
872.10	-400.000
>>>>>End Processed Spectral Data<<<<<
