SpectraSuite Data File
++++++++++++++++++++++++++++++++++++
Date: Fri May 15 17:07:18 PDT 2015
User: schluterlab
Dark Spectrum Present: Yes
Reference Spectrum Present: Yes
Number of Sampled Component Spectra: 1
Spectrometers: USB2E3373
Integration Time (usec): 3000 (USB2E3373)
Spectra Averaged: 3 (USB2E3373)
Boxcar Smoothing: 0 (USB2E3373)
Correct for Electrical Dark: No (USB2E3373)
Strobe/Lamp Enabled: No (USB2E3373)
Correct for Detector Non-linearity: No (USB2E3373)
Correct for Stray Light: No (USB2E3373)
Number of Pixels in Processed Spectrum: 2048
>>>>>Begin Processed Spectral Data<<<<<
178.53	0.000
178.91	0.000
179.29	212.500
179.67	250.000
180.04	-57.143
180.42	375.000
180.80	1100.000
181.18	-433.333
181.56	-0.000
181.94	150.000
182.31	-600.000
182.69	0.000
183.07	-66.667
183.45	160.000
183.83	33.333
184.20	36.364
184.58	33.333
184.96	-350.000
185.34	-0.000
185.72	0.000
186.09	53.846
186.47	100.000
186.85	50.000
187.23	33.333
187.61	-900.000
187.98	33.333
188.36	222.222
188.74	66.667
189.12	94.118
189.49	5.556
189.87	0.000
190.25	114.286
190.63	1050.000
191.00	233.333
191.38	26.316
191.76	550.000
192.14	-150.000
192.51	-150.000
192.89	77.778
193.27	-42.857
193.65	83.333
194.02	-0.000
194.40	80.000
194.78	-87.500
195.15	16.667
195.53	-37.500
195.91	150.000
196.29	0.000
196.66	107.692
197.04	14.286
197.42	77.778
197.79	-266.667
198.17	53.846
198.55	700.000
198.92	200.000
199.30	800.000
199.68	180.000
200.05	200.000
200.43	0.000
200.81	466.667
201.18	200.000
201.56	100.000
201.94	-200.000
202.31	-233.333
202.69	80.000
203.07	25.000
203.44	1000.000
203.82	0.000
204.19	42.857
204.57	-133.333
204.95	100.000
205.32	130.000
205.70	185.714
206.08	200.000
206.45	255.556
206.83	92.857
207.20	57.143
207.58	-300.000
207.96	133.333
208.33	-10.000
208.71	-50.000
209.08	16.667
209.46	1200.000
209.84	40.000
210.21	-600.000
210.59	114.286
210.96	150.000
211.34	0.000
211.71	86.667
212.09	-171.429
212.46	-500.000
212.84	0.000
213.22	170.000
213.59	350.000
213.97	146.154
214.34	54.545
214.72	166.667
215.09	100.000
215.47	30.769
215.84	18.182
216.22	-66.667
216.59	-12.500
216.97	100.000
217.34	325.000
217.72	20.000
218.09	200.000
218.47	-112.500
218.84	1100.000
219.22	-11.111
219.59	160.000
219.97	-233.333
220.34	-100.000
220.72	157.143
221.09	225.000
221.47	50.000
221.84	0.000
222.22	-300.000
222.59	136.364
222.97	91.667
223.34	33.333
223.72	14.286
224.09	52.381
224.46	46.429
224.84	-200.000
225.21	120.000
225.59	-13.333
225.96	500.000
226.34	-100.000
226.71	0.000
227.08	83.333
227.46	112.500
227.83	100.000
228.21	100.000
228.58	190.909
228.95	75.000
229.33	50.000
229.70	31.250
230.08	75.000
230.45	14.286
230.82	100.000
231.20	6.667
231.57	171.429
231.95	85.714
232.32	30.000
232.69	42.857
233.07	166.667
233.44	140.000
233.81	30.000
234.19	111.111
234.56	64.706
234.93	-50.000
235.31	225.000
235.68	80.000
236.05	-38.462
236.43	5.000
236.80	29.412
237.17	50.000
237.55	35.000
237.92	18.519
238.29	30.556
238.67	53.333
239.04	29.412
239.41	12.195
239.79	6.667
240.16	41.463
240.53	0.000
240.91	15.217
241.28	15.873
241.65	33.929
242.02	35.616
242.40	38.333
242.77	28.814
243.14	27.273
243.51	31.250
243.89	29.885
244.26	27.586
244.63	25.000
245.00	22.680
245.38	29.897
245.75	7.865
246.12	15.517
246.49	19.835
246.87	35.577
247.24	10.924
247.61	15.789
247.98	19.512
248.36	16.875
248.73	19.737
249.10	21.429
249.47	25.949
249.84	25.490
250.22	17.059
250.59	26.144
250.96	20.188
251.33	14.535
251.70	19.412
252.08	18.782
252.45	19.307
252.82	16.583
253.19	24.885
253.56	18.224
253.94	26.577
254.31	19.565
254.68	23.246
255.05	18.110
255.42	20.524
255.79	17.375
256.16	22.568
256.54	22.388
256.91	20.152
257.28	17.100
257.65	17.978
258.02	20.213
258.39	15.825
258.76	20.147
259.14	19.601
259.51	21.359
259.88	19.244
260.25	20.261
260.62	21.528
260.99	14.576
261.36	15.753
261.73	19.620
262.10	20.365
262.47	19.632
262.85	18.495
263.22	19.077
263.59	19.315
263.96	20.807
264.33	19.697
264.70	20.833
265.07	15.476
265.44	20.963
265.81	14.407
266.18	19.672
266.55	18.766
266.92	14.767
267.29	18.799
267.66	18.414
268.03	20.157
268.40	16.971
268.77	19.251
269.14	19.904
269.51	22.108
269.88	16.958
270.25	15.051
270.62	17.561
270.99	18.159
271.36	16.626
271.73	18.545
272.10	19.221
272.47	19.149
272.84	19.307
273.21	19.722
273.58	18.072
273.95	17.849
274.32	14.550
274.69	16.742
275.06	18.750
275.43	18.141
275.80	17.219
276.17	15.862
276.54	16.916
276.91	19.518
277.28	17.686
277.65	18.595
278.02	17.660
278.39	16.630
278.76	18.449
279.13	13.900
279.50	17.647
279.87	19.438
280.23	15.484
280.60	20.078
280.97	18.788
281.34	16.538
281.71	16.427
282.08	16.155
282.45	17.025
282.82	17.375
283.19	18.375
283.56	19.075
283.92	13.852
284.29	16.346
284.66	18.023
285.03	15.717
285.40	17.013
285.77	15.993
286.14	16.968
286.51	16.974
286.87	17.733
287.24	18.048
287.61	15.520
287.98	18.246
288.35	18.371
288.72	17.513
289.08	15.625
289.45	17.750
289.82	16.434
290.19	13.993
290.56	14.237
290.93	14.983
291.29	14.484
291.66	16.535
292.03	13.716
292.40	16.290
292.77	13.397
293.13	12.987
293.50	14.416
293.87	14.809
294.24	15.920
294.60	14.009
294.97	15.476
295.34	12.577
295.71	15.052
296.08	14.051
296.44	12.091
296.81	14.722
297.18	15.072
297.55	13.821
297.91	13.699
298.28	14.116
298.65	10.855
299.02	12.534
299.38	10.260
299.75	12.000
300.12	12.958
300.48	12.385
300.85	13.561
301.22	12.078
301.59	12.632
301.95	13.671
302.32	13.100
302.69	12.811
303.05	12.500
303.42	11.706
303.79	12.383
304.15	13.023
304.52	11.296
304.89	12.164
305.25	12.107
305.62	10.735
305.99	10.058
306.35	12.486
306.72	11.249
307.09	13.113
307.45	12.400
307.82	11.227
308.19	11.963
308.55	13.086
308.92	11.220
309.29	11.732
309.65	10.980
310.02	11.881
310.38	12.843
310.75	12.240
311.12	11.518
311.48	10.817
311.85	11.832
312.22	11.287
312.58	9.873
312.95	11.099
313.31	11.077
313.68	12.147
314.05	12.041
314.41	11.649
314.78	11.753
315.14	11.511
315.51	12.422
315.87	11.270
316.24	13.953
316.61	12.598
316.97	13.294
317.34	12.207
317.70	13.289
318.07	13.077
318.43	13.235
318.80	13.636
319.16	14.063
319.53	14.720
319.89	13.583
320.26	14.372
320.62	14.744
320.99	14.509
321.35	15.622
321.72	16.511
322.08	14.300
322.45	16.142
322.81	16.012
323.18	16.192
323.54	16.216
323.91	15.969
324.27	16.504
324.64	16.386
325.00	18.066
325.37	17.998
325.73	17.407
326.10	17.711
326.46	18.744
326.83	18.110
327.19	19.878
327.56	19.201
327.92	18.926
328.29	18.482
328.65	20.283
329.01	20.588
329.38	21.106
329.74	21.719
330.11	21.131
330.47	20.223
330.84	21.154
331.20	22.529
331.56	21.389
331.93	22.100
332.29	22.640
332.66	21.629
333.02	21.654
333.38	21.907
333.75	23.718
334.11	23.635
334.48	23.663
334.84	23.168
335.20	23.422
335.57	22.756
335.93	23.577
336.29	23.665
336.66	24.160
337.02	24.349
337.38	22.870
337.75	24.364
338.11	23.895
338.47	25.000
338.84	23.475
339.20	23.949
339.56	24.587
339.93	24.261
340.29	25.046
340.65	24.104
341.02	25.000
341.38	23.894
341.74	23.852
342.11	22.790
342.47	24.555
342.83	24.827
343.20	23.693
343.56	26.261
343.92	25.509
344.28	24.594
344.65	24.611
345.01	23.596
345.37	24.895
345.73	25.690
346.10	26.316
346.46	25.652
346.82	25.123
347.19	23.441
347.55	24.812
347.91	25.890
348.27	24.656
348.63	25.554
349.00	24.938
349.36	25.104
349.72	25.954
350.08	25.328
350.45	26.417
350.81	25.249
351.17	24.674
351.53	26.531
351.89	24.277
352.26	24.880
352.62	26.048
352.98	24.739
353.34	25.362
353.70	25.485
354.07	25.565
354.43	25.220
354.79	25.681
355.15	27.540
355.51	25.949
355.87	25.081
356.24	26.346
356.60	25.303
356.96	27.143
357.32	26.278
357.68	26.114
358.04	26.414
358.40	25.723
358.77	26.874
359.13	26.581
359.49	26.194
359.85	26.443
360.21	25.758
360.57	25.861
360.93	26.399
361.29	25.227
361.66	26.724
362.02	26.970
362.38	27.570
362.74	27.782
363.10	26.712
363.46	26.909
363.82	28.099
364.18	27.011
364.54	27.059
364.90	28.244
365.26	27.948
365.62	28.175
365.98	26.760
366.35	27.604
366.71	28.529
367.07	27.213
367.43	27.534
367.79	28.198
368.15	28.930
368.51	28.405
368.87	27.136
369.23	27.726
369.59	28.280
369.95	29.985
370.31	29.841
370.67	28.806
371.03	28.977
371.39	28.957
371.75	28.352
372.11	28.174
372.47	30.178
372.83	29.524
373.19	29.244
373.55	29.458
373.91	29.806
374.27	29.554
374.63	29.648
374.99	29.858
375.35	30.292
375.71	30.350
376.07	29.916
376.42	29.252
376.78	30.336
377.14	30.399
377.50	30.611
377.86	29.987
378.22	29.994
378.58	30.192
378.94	30.498
379.30	30.381
379.66	31.034
380.02	30.901
380.38	30.128
380.74	29.922
381.09	31.288
381.45	31.315
381.81	31.092
382.17	30.711
382.53	32.355
382.89	30.760
383.25	33.167
383.61	31.768
383.97	31.111
384.32	32.145
384.68	32.012
385.04	31.066
385.40	31.238
385.76	33.019
386.12	32.536
386.48	33.078
386.83	32.467
387.19	32.906
387.55	32.873
387.91	32.885
388.27	32.051
388.62	34.172
388.98	32.719
389.34	33.479
389.70	33.996
390.06	33.166
390.42	34.456
390.77	34.205
391.13	33.922
391.49	34.023
391.85	33.788
392.20	33.898
392.56	34.647
392.92	33.588
393.28	34.021
393.64	33.874
393.99	34.922
394.35	33.460
394.71	35.377
395.07	34.758
395.42	34.487
395.78	35.505
396.14	34.741
396.50	35.257
396.85	35.544
397.21	34.837
397.57	35.549
397.92	35.830
398.28	35.172
398.64	33.795
399.00	35.214
399.35	35.045
399.71	34.865
400.07	36.034
400.42	35.924
400.78	35.946
401.14	35.390
401.49	36.629
401.85	34.430
402.21	36.325
402.57	34.625
402.92	35.508
403.28	36.216
403.63	37.011
403.99	35.013
404.35	36.852
404.70	35.119
405.06	35.899
405.42	36.296
405.77	34.457
406.13	36.438
406.49	35.465
406.84	36.308
407.20	37.568
407.55	35.351
407.91	36.430
408.27	36.456
408.62	36.492
408.98	36.352
409.34	35.998
409.69	36.628
410.05	36.330
410.40	37.407
410.76	37.033
411.11	36.000
411.47	36.818
411.83	36.033
412.18	37.259
412.54	36.267
412.89	35.837
413.25	37.004
413.60	36.708
413.96	36.564
414.31	36.585
414.67	36.626
415.03	36.884
415.38	35.901
415.74	37.003
416.09	37.753
416.45	37.947
416.80	36.087
417.16	39.296
417.51	36.775
417.87	37.027
418.22	37.500
418.58	38.060
418.93	38.683
419.29	36.748
419.64	37.524
420.00	39.673
420.35	37.254
420.71	37.606
421.06	38.244
421.42	37.440
421.77	37.572
422.12	37.174
422.48	38.008
422.83	37.355
423.19	38.036
423.54	36.743
423.90	38.398
424.25	38.175
424.61	38.739
424.96	38.211
425.31	38.764
425.67	38.791
426.02	39.576
426.38	39.449
426.73	38.257
427.09	39.684
427.44	38.647
427.79	39.010
428.15	39.502
428.50	39.491
428.85	38.698
429.21	39.332
429.56	39.191
429.92	38.675
430.27	37.895
430.62	37.846
430.98	38.641
431.33	39.485
431.68	38.776
432.04	39.743
432.39	39.475
432.74	37.943
433.10	40.000
433.45	38.889
433.80	39.930
434.16	38.061
434.51	37.849
434.86	39.837
435.22	40.662
435.57	39.426
435.92	38.862
436.28	40.012
436.63	39.646
436.98	39.166
437.34	39.746
437.69	40.549
438.04	40.114
438.39	40.440
438.75	39.709
439.10	38.823
439.45	41.083
439.81	40.245
440.16	40.261
440.51	40.597
440.86	41.148
441.22	40.045
441.57	40.121
441.92	40.294
442.27	40.576
442.63	40.257
442.98	40.264
443.33	40.289
443.68	40.318
444.03	40.139
444.39	40.236
444.74	40.524
445.09	40.200
445.44	39.829
445.79	41.877
446.15	39.648
446.50	40.544
446.85	40.914
447.20	39.625
447.55	41.295
447.91	40.271
448.26	41.662
448.61	40.587
448.96	40.792
449.31	41.445
449.66	41.347
450.02	41.643
450.37	41.079
450.72	41.695
451.07	40.886
451.42	40.699
451.77	41.591
452.12	41.089
452.47	41.211
452.83	41.696
453.18	41.493
453.53	41.214
453.88	42.927
454.23	41.795
454.58	42.317
454.93	42.268
455.28	40.000
455.63	41.909
455.98	41.311
456.34	42.273
456.69	41.614
457.04	41.525
457.39	41.981
457.74	41.898
458.09	40.730
458.44	40.609
458.79	41.625
459.14	42.220
459.49	42.746
459.84	41.963
460.19	41.505
460.54	43.337
460.89	41.591
461.24	41.677
461.59	42.518
461.94	41.132
462.29	42.823
462.64	42.591
462.99	41.977
463.34	42.768
463.69	41.313
464.04	42.312
464.39	43.238
464.74	41.227
465.09	41.110
465.44	42.470
465.79	40.363
466.14	41.334
466.49	41.863
466.84	41.463
467.19	43.680
467.54	41.188
467.89	42.135
468.24	43.674
468.59	43.365
468.94	42.857
469.29	42.754
469.64	42.174
469.99	43.658
470.34	42.457
470.68	42.804
471.03	44.586
471.38	43.153
471.73	43.417
472.08	43.758
472.43	43.356
472.78	41.809
473.13	42.449
473.48	43.844
473.83	41.345
474.17	42.876
474.52	42.502
474.87	43.091
475.22	42.953
475.57	42.688
475.92	43.171
476.27	42.666
476.61	43.345
476.96	41.495
477.31	42.780
477.66	41.910
478.01	42.953
478.36	41.885
478.70	42.686
479.05	43.352
479.40	43.031
479.75	42.284
480.10	43.420
480.45	42.950
480.79	43.656
481.14	43.750
481.49	42.315
481.84	42.905
482.19	42.002
482.53	43.165
482.88	43.532
483.23	43.474
483.58	42.830
483.92	42.740
484.27	42.616
484.62	42.582
484.97	42.454
485.31	41.257
485.66	39.549
486.01	38.480
486.36	38.424
486.70	38.901
487.05	39.937
487.40	40.589
487.75	42.169
488.09	41.502
488.44	42.641
488.79	43.183
489.13	43.910
489.48	43.566
489.83	43.767
490.17	42.787
490.52	43.834
490.87	42.110
491.22	43.983
491.56	43.691
491.91	43.738
492.26	43.704
492.60	43.906
492.95	44.663
493.30	42.794
493.64	45.825
493.99	44.444
494.34	43.932
494.68	43.714
495.03	43.406
495.37	44.603
495.72	44.573
496.07	43.951
496.41	43.208
496.76	44.265
497.11	42.757
497.45	44.582
497.80	44.349
498.14	43.716
498.49	44.642
498.84	44.162
499.18	45.080
499.53	44.544
499.87	44.018
500.22	44.609
500.56	44.629
500.91	43.725
501.26	43.648
501.60	45.106
501.95	45.075
502.29	43.874
502.64	44.595
502.98	45.338
503.33	42.988
503.67	44.916
504.02	45.503
504.36	45.571
504.71	44.899
505.06	43.885
505.40	44.569
505.75	46.289
506.09	45.464
506.44	46.817
506.78	45.561
507.13	45.605
507.47	45.483
507.82	45.513
508.16	44.638
508.51	46.642
508.85	45.945
509.19	45.556
509.54	45.308
509.88	45.092
510.23	46.477
510.57	45.644
510.92	45.203
511.26	46.154
511.61	46.315
511.95	46.301
512.30	47.173
512.64	45.799
512.98	46.491
513.33	46.558
513.67	46.674
514.02	48.570
514.36	47.486
514.70	48.601
515.05	47.591
515.39	46.871
515.74	47.305
516.08	48.775
516.42	49.234
516.77	48.800
517.11	48.546
517.46	48.294
517.80	48.153
518.14	48.316
518.49	48.257
518.83	48.967
519.17	48.150
519.52	48.253
519.86	48.199
520.20	49.332
520.55	49.093
520.89	49.122
521.23	49.462
521.58	48.896
521.92	49.038
522.26	49.252
522.61	49.286
522.95	51.854
523.29	50.127
523.64	49.619
523.98	51.069
524.32	49.034
524.66	50.640
525.01	49.740
525.35	51.069
525.69	50.236
526.04	49.603
526.38	52.594
526.72	49.248
527.06	50.454
527.41	50.594
527.75	50.804
528.09	50.166
528.43	50.709
528.78	50.627
529.12	49.484
529.46	48.733
529.80	50.855
530.15	51.551
530.49	50.842
530.83	51.710
531.17	49.496
531.51	51.642
531.86	49.422
532.20	50.661
532.54	50.511
532.88	50.650
533.22	50.067
533.57	50.000
533.91	49.413
534.25	50.716
534.59	49.519
534.93	50.220
535.27	50.317
535.62	49.320
535.96	49.837
536.30	50.989
536.64	51.137
536.98	51.150
537.32	52.205
537.66	51.823
538.01	53.007
538.35	50.347
538.69	50.333
539.03	49.897
539.37	49.596
539.71	50.852
540.05	49.898
540.39	50.623
540.73	51.185
541.07	50.414
541.42	50.336
541.76	51.961
542.10	50.998
542.44	51.008
542.78	50.103
543.12	50.962
543.46	51.043
543.80	50.659
544.14	49.332
544.48	49.634
544.82	50.034
545.16	51.776
545.50	50.334
545.84	51.204
546.18	50.638
546.52	51.694
546.86	51.186
547.20	50.072
547.54	50.177
547.88	50.543
548.22	48.586
548.56	50.000
548.90	50.472
549.24	49.105
549.58	50.212
549.92	50.036
550.26	50.256
550.60	51.004
550.94	51.606
551.28	52.241
551.62	52.462
551.96	51.429
552.30	52.339
552.64	52.257
552.98	51.828
553.32	50.357
553.66	51.451
554.00	52.628
554.34	52.142
554.68	51.254
555.02	51.935
555.36	52.431
555.69	51.209
556.03	50.607
556.37	50.036
556.71	50.542
557.05	53.169
557.39	51.375
557.73	51.649
558.07	51.961
558.41	52.757
558.75	52.767
559.08	53.270
559.42	51.032
559.76	52.922
560.10	52.064
560.44	50.931
560.78	51.329
561.12	51.622
561.45	51.230
561.79	51.190
562.13	51.881
562.47	50.719
562.81	51.945
563.15	51.763
563.48	52.546
563.82	50.240
564.16	53.203
564.50	50.473
564.84	51.272
565.17	51.844
565.51	53.005
565.85	51.852
566.19	51.525
566.52	51.139
566.86	51.350
567.20	49.502
567.54	50.973
567.88	50.498
568.21	50.057
568.55	48.370
568.89	48.101
569.23	47.183
569.56	46.935
569.90	47.219
570.24	45.404
570.57	46.182
570.91	45.417
571.25	45.051
571.59	44.503
571.92	43.733
572.26	44.686
572.60	44.434
572.93	45.309
573.27	44.483
573.61	44.212
573.95	44.511
574.28	43.724
574.62	43.529
574.96	43.331
575.29	43.084
575.63	42.809
575.97	43.372
576.30	44.082
576.64	43.550
576.98	43.835
577.31	43.450
577.65	43.555
577.98	43.005
578.32	42.982
578.66	42.252
578.99	43.074
579.33	43.218
579.67	43.326
580.00	43.949
580.34	44.478
580.67	43.595
581.01	43.756
581.35	42.980
581.68	42.196
582.02	42.118
582.35	42.043
582.69	43.124
583.02	43.559
583.36	43.624
583.70	44.860
584.03	45.649
584.37	46.104
584.70	44.918
585.04	43.316
585.37	43.489
585.71	43.421
586.04	43.797
586.38	43.185
586.72	44.620
587.05	45.465
587.39	44.646
587.72	44.915
588.06	44.368
588.39	44.774
588.73	46.123
589.06	45.793
589.40	46.284
589.73	46.696
590.07	46.526
590.40	46.246
590.73	47.323
591.07	47.498
591.40	47.863
591.74	47.330
592.07	48.006
592.41	48.542
592.74	45.798
593.08	44.743
593.41	44.778
593.75	45.240
594.08	44.731
594.41	45.415
594.75	46.374
595.08	45.895
595.42	45.455
595.75	46.940
596.09	47.303
596.42	46.879
596.75	47.647
597.09	47.335
597.42	47.651
597.75	47.641
598.09	46.944
598.42	46.931
598.76	47.061
599.09	45.553
599.42	44.714
599.76	45.824
600.09	44.910
600.42	46.058
600.76	44.762
601.09	45.344
601.42	46.103
601.76	46.844
602.09	46.782
602.42	47.683
602.76	46.986
603.09	46.470
603.42	48.453
603.76	46.411
604.09	46.375
604.42	47.208
604.76	48.643
605.09	47.258
605.42	47.404
605.75	46.541
606.09	46.072
606.42	46.622
606.75	47.403
607.09	47.297
607.42	47.541
607.75	47.069
608.08	47.125
608.42	46.962
608.75	48.771
609.08	48.530
609.41	49.340
609.75	48.841
610.08	48.278
610.41	46.908
610.74	48.708
611.07	49.199
611.41	48.729
611.74	49.893
612.07	49.036
612.40	48.851
612.73	51.751
613.07	50.337
613.40	50.109
613.73	50.308
614.06	50.417
614.39	50.310
614.72	48.291
615.06	49.888
615.39	48.635
615.72	48.924
616.05	48.827
616.38	48.376
616.71	49.908
617.05	50.463
617.38	51.351
617.71	50.818
618.04	51.048
618.37	51.198
618.70	51.815
619.03	52.153
619.36	52.677
619.69	53.904
620.03	53.835
620.36	52.933
620.69	51.892
621.02	52.676
621.35	54.689
621.68	56.293
622.01	53.917
622.34	54.110
622.67	54.890
623.00	53.828
623.33	52.896
623.66	52.281
623.99	52.421
624.32	54.297
624.65	52.632
624.99	52.445
625.32	51.630
625.65	53.339
625.98	54.875
626.31	54.364
626.64	54.593
626.97	55.497
627.30	56.830
627.63	53.899
627.96	56.873
628.29	56.984
628.62	57.227
628.95	58.517
629.28	57.460
629.61	57.228
629.94	57.478
630.26	56.225
630.59	58.897
630.92	56.821
631.25	56.615
631.58	60.022
631.91	58.004
632.24	58.945
632.57	59.659
632.90	60.854
633.23	58.941
633.56	60.957
633.89	59.556
634.22	60.123
634.55	60.864
634.88	60.920
635.20	60.385
635.53	62.267
635.86	59.818
636.19	62.096
636.52	61.990
636.85	60.670
637.18	60.252
637.51	59.497
637.83	60.841
638.16	63.438
638.49	59.401
638.82	61.711
639.15	61.058
639.48	62.311
639.81	62.483
640.13	64.069
640.46	63.120
640.79	61.119
641.12	59.970
641.45	63.964
641.77	63.111
642.10	66.193
642.43	64.309
642.76	66.502
643.09	65.267
643.41	64.239
643.74	63.097
644.07	65.189
644.40	64.358
644.73	68.301
645.05	63.926
645.38	66.314
645.71	64.716
646.04	67.145
646.36	64.362
646.69	69.784
647.02	67.486
647.35	69.776
647.67	67.459
648.00	67.724
648.33	62.287
648.66	63.559
648.98	62.982
649.31	62.314
649.64	61.381
649.96	61.426
650.29	65.588
650.62	65.470
650.94	65.185
651.27	66.667
651.60	67.748
651.92	65.210
652.25	63.055
652.58	61.167
652.90	64.666
653.23	62.017
653.56	62.098
653.88	64.777
654.21	59.895
654.54	63.667
654.86	65.025
655.19	60.088
655.52	53.019
655.84	40.616
656.17	43.992
656.49	60.556
656.82	64.906
657.15	50.660
657.47	38.532
657.80	29.294
658.13	29.785
658.45	47.523
658.78	49.118
659.10	49.719
659.43	51.392
659.75	53.774
660.08	54.552
660.41	60.163
660.73	62.707
661.06	64.125
661.38	66.732
661.71	67.762
662.03	70.386
662.36	68.571
662.68	67.478
663.01	68.777
663.33	67.285
663.66	66.047
663.98	68.837
664.31	69.296
664.63	70.046
664.96	63.913
665.28	63.135
665.61	67.316
665.93	67.826
666.26	68.330
666.58	67.562
666.91	70.353
667.23	70.519
667.56	70.142
667.88	68.345
668.21	71.122
668.53	69.740
668.86	66.745
669.18	66.745
669.50	67.797
669.83	65.814
670.15	68.065
670.48	67.703
670.80	69.124
671.13	66.219
671.45	66.895
671.77	66.524
672.10	63.366
672.42	59.925
672.75	62.167
673.07	64.401
673.39	62.752
673.72	62.919
674.04	63.958
674.37	66.102
674.69	65.953
675.01	66.000
675.34	67.568
675.66	67.824
675.98	65.410
676.31	67.202
676.63	66.746
676.95	63.636
677.28	70.118
677.60	70.602
677.92	66.972
678.25	66.958
678.57	61.688
678.89	64.286
679.22	66.443
679.54	61.847
679.86	60.437
680.18	63.689
680.51	61.553
680.83	62.425
681.15	66.400
681.48	67.828
681.80	65.496
682.12	63.508
682.44	64.017
682.77	64.459
683.09	65.446
683.41	67.727
683.73	65.438
684.06	65.265
684.38	57.849
684.70	68.192
685.02	63.278
685.34	62.648
685.67	58.724
685.99	61.483
686.31	59.823
686.63	60.853
686.96	57.414
687.28	57.374
687.60	61.787
687.92	62.424
688.24	61.290
688.56	66.812
688.89	63.170
689.21	63.333
689.53	63.109
689.85	62.093
690.17	63.170
690.49	64.539
690.82	61.893
691.14	64.286
691.46	67.056
691.78	64.414
692.10	63.226
692.42	62.338
692.74	63.675
693.06	64.640
693.39	60.860
693.71	59.955
694.03	63.510
694.35	61.682
694.67	66.667
694.99	63.969
695.31	67.885
695.63	64.250
695.95	59.343
696.27	64.508
696.59	71.667
696.91	63.305
697.23	62.982
697.56	63.861
697.88	61.075
698.20	65.148
698.52	61.882
698.84	60.526
699.16	64.750
699.48	64.160
699.80	62.035
700.12	66.846
700.44	63.866
700.76	63.081
701.08	63.939
701.40	66.867
701.72	70.988
702.04	69.637
702.36	70.903
702.68	67.267
703.00	67.576
703.32	66.862
703.64	58.757
703.96	63.768
704.28	68.098
704.60	67.302
704.91	65.931
705.23	69.767
705.55	69.258
705.87	74.007
706.19	74.074
706.51	72.165
706.83	64.630
707.15	63.863
707.47	61.905
707.79	55.729
708.11	61.000
708.43	60.250
708.74	59.173
709.06	65.915
709.38	68.196
709.70	63.905
710.02	69.427
710.34	67.492
710.66	60.577
710.98	66.556
711.29	62.623
711.61	66.441
711.93	66.124
712.25	68.729
712.57	68.864
712.89	63.806
713.20	66.782
713.52	66.202
713.84	65.529
714.16	65.292
714.48	57.419
714.80	61.538
715.11	63.222
715.43	59.875
715.75	65.667
716.07	61.462
716.39	64.765
716.70	63.838
717.02	66.794
717.34	65.182
717.66	73.894
717.97	71.304
718.29	69.038
718.61	70.472
718.93	64.729
719.24	69.202
719.56	63.454
719.88	65.636
720.20	64.773
720.51	63.218
720.83	69.884
721.15	68.908
721.46	66.129
721.78	61.265
722.10	55.019
722.42	60.581
722.73	60.408
723.05	65.714
723.37	66.102
723.68	66.216
724.00	61.538
724.32	66.667
724.63	60.909
724.95	65.502
725.27	67.281
725.58	68.220
725.90	61.905
726.22	63.320
726.53	63.051
726.85	65.918
727.16	61.132
727.48	63.158
727.80	64.777
728.11	64.831
728.43	65.882
728.74	60.484
729.06	66.800
729.38	63.158
729.69	63.745
730.01	58.462
730.32	62.687
730.64	63.604
730.96	63.019
731.27	65.000
731.59	58.305
731.90	58.280
732.22	59.937
732.53	62.791
732.85	64.184
733.16	64.310
733.48	56.115
733.80	61.594
734.11	55.593
734.43	57.732
734.74	53.939
735.06	61.564
735.37	57.704
735.69	63.300
736.00	59.582
736.32	57.718
736.63	60.915
736.95	58.703
737.26	56.584
737.58	60.738
737.89	58.242
738.21	61.278
738.52	64.609
738.83	63.319
739.15	64.192
739.46	63.780
739.78	58.974
740.09	56.536
740.41	63.768
740.72	60.630
741.04	61.943
741.35	62.128
741.66	63.507
741.98	65.306
742.29	67.822
742.61	64.398
742.92	56.398
743.23	55.556
743.55	61.086
743.86	65.072
744.18	62.679
744.49	62.766
744.80	66.848
745.12	73.797
745.43	66.341
745.74	69.792
746.06	62.927
746.37	64.921
746.68	62.559
747.00	64.362
747.31	71.642
747.62	59.709
747.94	66.029
748.25	71.287
748.56	72.678
748.88	74.346
749.19	70.745
749.50	68.473
749.82	65.566
750.13	60.550
750.44	61.654
750.75	64.179
751.07	67.518
751.38	56.322
751.69	56.863
752.01	58.527
752.32	62.550
752.63	57.708
752.94	61.207
753.26	69.038
753.57	59.276
753.88	65.929
754.19	62.500
754.51	66.529
754.82	58.704
755.13	65.833
755.44	59.677
755.75	57.422
756.07	59.144
756.38	60.000
756.69	57.854
757.00	54.000
757.31	56.536
757.63	49.085
757.94	50.278
758.25	50.411
758.56	50.798
758.87	51.841
759.18	55.452
759.50	57.091
759.81	56.522
760.12	56.774
760.43	54.545
760.74	53.704
761.05	55.077
761.36	51.136
761.67	56.364
761.99	58.163
762.30	52.727
762.61	55.336
762.92	57.919
763.23	58.559
763.54	58.411
763.85	59.322
764.16	54.772
764.47	57.258
764.78	57.143
765.10	58.586
765.41	48.265
765.72	54.921
766.03	51.504
766.34	52.555
766.65	57.371
766.96	60.606
767.27	62.766
767.58	62.644
767.89	65.957
768.20	64.205
768.51	58.242
768.82	61.576
769.13	57.604
769.44	55.365
769.75	58.447
770.06	53.879
770.37	59.615
770.68	54.315
770.99	58.371
771.30	65.196
771.61	58.371
771.92	59.052
772.23	62.069
772.54	60.215
772.85	62.963
773.16	59.551
773.47	70.588
773.78	62.745
774.09	64.072
774.39	64.667
774.70	61.146
775.01	65.517
775.32	67.143
775.63	68.595
775.94	61.832
776.25	70.866
776.56	65.833
776.87	67.308
777.18	74.359
777.48	73.276
777.79	60.000
778.10	60.952
778.41	72.072
778.72	67.460
779.03	66.165
779.34	65.248
779.65	65.068
779.95	60.959
780.26	58.621
780.57	64.228
780.88	66.142
781.19	70.690
781.50	62.791
781.80	53.254
782.11	50.943
782.42	69.231
782.73	61.151
783.04	65.926
783.34	55.556
783.65	66.667
783.96	56.557
784.27	62.069
784.57	69.919
784.88	60.156
785.19	72.000
785.50	69.000
785.81	60.345
786.11	64.655
786.42	59.223
786.73	69.091
787.04	63.265
787.34	64.286
787.65	61.905
787.96	63.717
788.26	60.909
788.57	58.120
788.88	59.375
789.19	61.111
789.49	63.478
789.80	73.469
790.11	68.687
790.41	48.182
790.72	75.000
791.03	71.591
791.33	80.000
791.64	61.250
791.95	74.419
792.25	76.596
792.56	65.169
792.87	56.164
793.17	78.261
793.48	69.333
793.79	68.750
794.09	76.250
794.40	60.377
794.70	64.078
795.01	46.341
795.32	52.137
795.62	60.000
795.93	52.941
796.23	57.547
796.54	55.208
796.85	69.118
797.15	66.197
797.46	83.333
797.76	89.394
798.07	59.302
798.37	46.053
798.68	65.152
798.99	59.259
799.29	64.286
799.60	63.768
799.90	61.333
800.21	85.246
800.51	75.385
800.82	66.102
801.12	73.913
801.43	77.049
801.73	58.730
802.04	62.000
802.34	52.239
802.65	88.462
802.95	71.429
803.26	57.692
803.56	94.118
803.87	69.565
804.17	68.000
804.48	65.079
804.78	68.519
805.09	84.783
805.39	66.667
805.70	74.074
806.00	36.842
806.30	64.789
806.61	62.857
806.91	58.333
807.22	73.684
807.52	61.333
807.83	49.091
808.13	68.056
808.43	64.706
808.74	67.164
809.04	55.932
809.35	84.615
809.65	65.625
809.95	62.162
810.26	61.364
810.56	56.164
810.86	83.333
811.17	78.000
811.47	95.918
811.77	55.263
812.08	50.000
812.38	54.717
812.69	65.000
812.99	100.000
813.29	86.842
813.59	68.571
813.90	52.273
814.20	71.795
814.50	71.154
814.81	81.132
815.11	63.830
815.41	62.712
815.72	47.619
816.02	68.627
816.32	66.667
816.62	53.659
816.93	48.649
817.23	97.143
817.53	64.583
817.84	58.696
818.14	63.462
818.44	81.579
818.74	82.609
819.04	32.500
819.35	67.568
819.65	91.176
819.95	63.889
820.25	57.143
820.56	80.000
820.86	27.586
821.16	62.500
821.46	74.468
821.76	80.000
822.07	69.767
822.37	59.459
822.67	90.625
822.97	85.714
823.27	25.000
823.57	72.000
823.88	37.037
824.18	64.286
824.48	64.706
824.78	70.968
825.08	60.870
825.38	78.788
825.69	100.000
825.99	65.789
826.29	55.556
826.59	46.667
826.89	52.381
827.19	69.565
827.49	72.500
827.79	85.714
828.09	85.714
828.39	63.636
828.70	83.784
829.00	35.714
829.30	95.238
829.60	43.333
829.90	84.375
830.20	63.158
830.50	55.556
830.80	82.609
831.10	81.818
831.40	72.727
831.70	87.097
832.00	80.952
832.30	76.190
832.60	83.333
832.90	86.207
833.20	60.000
833.50	75.758
833.80	29.630
834.10	61.538
834.40	90.625
834.70	66.667
835.00	36.842
835.30	123.077
835.60	153.333
835.90	77.419
836.20	68.182
836.50	96.429
836.80	19.231
837.10	64.286
837.40	300.000
837.70	50.000
838.00	109.091
838.30	82.609
838.60	69.231
838.90	86.364
839.19	67.857
839.49	56.667
839.79	107.692
840.09	41.667
840.39	103.571
840.69	46.429
840.99	50.000
841.29	78.947
841.59	100.000
841.88	127.273
842.18	70.000
842.48	75.000
842.78	126.667
843.08	66.667
843.38	80.000
843.68	95.652
843.97	53.333
844.27	46.667
844.57	80.000
844.87	83.333
845.17	85.714
845.47	126.667
845.76	57.143
846.06	100.000
846.36	150.000
846.66	114.286
846.96	120.000
847.25	137.500
847.55	121.429
847.85	125.000
848.15	72.727
848.44	-200.000
848.74	125.000
849.04	74.074
849.34	154.545
849.63	150.000
849.93	80.000
850.23	55.556
850.53	130.000
850.82	138.462
851.12	155.556
851.42	193.333
851.71	57.692
852.01	92.857
852.31	150.000
852.61	100.000
852.90	70.000
853.20	121.053
853.50	108.333
853.79	60.870
854.09	100.000
854.39	57.895
854.68	70.833
854.98	64.516
855.28	76.923
855.57	55.000
855.87	127.778
856.17	81.481
856.46	71.429
856.76	53.333
857.05	233.333
857.35	44.000
857.65	83.333
857.94	84.615
858.24	82.759
858.53	100.000
858.83	100.000
859.13	68.182
859.42	73.913
859.72	375.000
860.01	400.000
860.31	68.000
860.60	66.667
860.90	100.000
861.20	80.000
861.49	50.000
861.79	13.333
862.08	60.000
862.38	166.667
862.67	140.000
862.97	0.000
863.26	133.333
863.56	127.778
863.85	233.333
864.15	77.778
864.44	60.000
864.74	107.143
865.03	-25.000
865.33	-60.000
865.62	166.667
865.92	41.667
866.21	100.000
866.51	106.250
866.80	127.273
867.10	150.000
867.39	108.333
867.69	0.000
867.98	7.692
868.27	200.000
868.57	53.333
868.86	83.333
869.16	7.692
869.45	173.333
869.75	100.000
870.04	0.000
870.33	85.714
870.63	19.048
870.92	-66.667
871.22	-60.000
871.51	-300.000
871.80	166.667
872.10	300.000
>>>>>End Processed Spectral Data<<<<<
