SpectraSuite Data File
++++++++++++++++++++++++++++++++++++
Date: Fri May 15 17:19:59 PDT 2015
User: schluterlab
Dark Spectrum Present: Yes
Reference Spectrum Present: Yes
Number of Sampled Component Spectra: 1
Spectrometers: USB2E3373
Integration Time (usec): 3000 (USB2E3373)
Spectra Averaged: 3 (USB2E3373)
Boxcar Smoothing: 0 (USB2E3373)
Correct for Electrical Dark: No (USB2E3373)
Strobe/Lamp Enabled: No (USB2E3373)
Correct for Detector Non-linearity: No (USB2E3373)
Correct for Stray Light: No (USB2E3373)
Number of Pixels in Processed Spectrum: 2048
>>>>>Begin Processed Spectral Data<<<<<
178.53	0.000
178.91	0.000
179.29	187.500
179.67	250.000
180.04	-257.143
180.42	225.000
180.80	100.000
181.18	-66.667
181.56	-0.000
181.94	50.000
182.31	200.000
182.69	300.000
183.07	-33.333
183.45	120.000
183.83	-0.000
184.20	63.636
184.58	88.889
184.96	-125.000
185.34	-366.667
185.72	-100.000
186.09	-15.385
186.47	-100.000
186.85	-100.000
187.23	22.222
187.61	-1800.000
187.98	33.333
188.36	177.778
188.74	0.000
189.12	88.235
189.49	50.000
189.87	0.000
190.25	121.429
190.63	250.000
191.00	133.333
191.38	36.842
191.76	650.000
192.14	-250.000
192.51	250.000
192.89	66.667
193.27	28.571
193.65	-50.000
194.02	81.818
194.40	110.000
194.78	-87.500
195.15	-8.333
195.53	12.500
195.91	200.000
196.29	50.000
196.66	-0.000
197.04	-14.286
197.42	33.333
197.79	-133.333
198.17	7.692
198.55	-200.000
198.92	333.333
199.30	300.000
199.68	-80.000
200.05	233.333
200.43	0.000
200.81	33.333
201.18	0.000
201.56	1200.000
201.94	200.000
202.31	-233.333
202.69	-40.000
203.07	-50.000
203.44	900.000
203.82	0.000
204.19	64.286
204.57	-266.667
204.95	-87.500
205.32	80.000
205.70	157.143
206.08	0.000
206.45	155.556
206.83	200.000
207.20	-42.857
207.58	100.000
207.96	33.333
208.33	-10.000
208.71	100.000
209.08	-66.667
209.46	100.000
209.84	60.000
210.21	-100.000
210.59	214.286
210.96	-16.667
211.34	-25.000
211.71	46.667
212.09	-171.429
212.46	-1200.000
212.84	0.000
213.22	40.000
213.59	-150.000
213.97	61.538
214.34	45.455
214.72	0.000
215.09	225.000
215.47	76.923
215.84	90.909
216.22	33.333
216.59	87.500
216.97	0.000
217.34	150.000
217.72	-180.000
218.09	75.000
218.47	75.000
218.84	300.000
219.22	44.444
219.59	-100.000
219.97	200.000
220.34	-75.000
220.72	157.143
221.09	50.000
221.47	300.000
221.84	-300.000
222.22	-300.000
222.59	81.818
222.97	100.000
223.34	-100.000
223.72	21.429
224.09	71.429
224.46	57.143
224.84	100.000
225.21	100.000
225.59	93.333
225.96	0.000
226.34	25.000
226.71	-14.286
227.08	116.667
227.46	75.000
227.83	200.000
228.21	44.444
228.58	109.091
228.95	50.000
229.33	120.000
229.70	50.000
230.08	37.500
230.45	-28.571
230.82	-57.143
231.20	73.333
231.57	78.571
231.95	114.286
232.32	50.000
232.69	28.571
233.07	533.333
233.44	80.000
233.81	0.000
234.19	77.778
234.56	-23.529
234.93	-350.000
235.31	300.000
235.68	-40.000
236.05	15.385
236.43	15.000
236.80	64.706
237.17	75.000
237.55	30.000
237.92	22.222
238.29	55.556
238.67	36.667
239.04	14.706
239.41	-9.756
239.79	16.667
240.16	31.707
240.53	13.158
240.91	2.174
241.28	26.984
241.65	30.357
242.02	26.027
242.40	23.333
242.77	27.119
243.14	18.182
243.51	26.250
243.89	14.943
244.26	18.391
244.63	16.667
245.00	30.928
245.38	35.052
245.75	20.225
246.12	25.000
246.49	19.835
246.87	17.308
247.24	17.647
247.61	13.158
247.98	20.325
248.36	19.375
248.73	15.132
249.10	17.532
249.47	17.089
249.84	22.876
250.22	17.059
250.59	24.183
250.96	22.066
251.33	19.767
251.70	25.294
252.08	18.274
252.45	21.287
252.82	20.603
253.19	15.207
253.56	16.822
253.94	20.270
254.31	20.435
254.68	24.561
255.05	15.354
255.42	21.397
255.79	22.008
256.16	19.455
256.54	22.015
256.91	21.673
257.28	22.305
257.65	17.603
258.02	18.085
258.39	19.192
258.76	20.513
259.14	21.927
259.51	17.799
259.88	17.182
260.25	16.340
260.62	22.222
260.99	15.932
261.36	16.781
261.73	20.886
262.10	18.237
262.47	19.939
262.85	20.063
263.22	17.231
263.59	22.118
263.96	19.255
264.33	17.879
264.70	21.131
265.07	17.262
265.44	18.414
265.81	20.056
266.18	18.306
266.55	19.023
266.92	18.653
267.29	19.321
267.66	20.460
268.03	16.754
268.40	15.666
268.77	21.123
269.14	17.266
269.51	17.481
269.88	18.703
270.25	17.857
270.62	16.585
270.99	15.601
271.36	19.071
271.73	20.892
272.10	17.518
272.47	21.986
272.84	15.842
273.21	19.026
273.58	18.554
273.95	16.476
274.32	16.166
274.69	17.647
275.06	18.304
275.43	16.100
275.80	20.309
276.17	14.943
276.54	13.919
276.91	18.640
277.28	17.467
277.65	17.355
278.02	16.383
278.39	17.505
278.76	18.449
279.13	14.315
279.50	18.487
279.87	19.006
280.23	16.129
280.60	16.764
280.97	17.374
281.34	15.769
281.71	18.070
282.08	17.791
282.45	17.221
282.82	16.795
283.19	17.602
283.56	16.956
283.92	16.509
284.29	16.154
284.66	14.535
285.03	15.521
285.40	17.580
285.77	15.466
286.14	15.884
286.51	18.450
286.87	15.722
287.24	17.864
287.61	14.991
287.98	18.772
288.35	16.118
288.72	18.389
289.08	14.931
289.45	18.278
289.82	16.084
290.19	15.017
290.56	15.437
290.93	13.636
291.29	14.330
291.66	17.008
292.03	14.354
292.40	15.484
292.77	14.992
293.13	13.961
293.50	13.505
293.87	14.504
294.24	14.992
294.60	14.307
294.97	14.881
295.34	14.571
295.71	14.456
296.08	13.154
296.44	12.233
296.81	13.889
297.18	14.928
297.55	14.905
297.91	13.973
298.28	16.227
298.65	12.754
299.02	12.668
299.38	11.628
299.75	13.793
300.12	11.387
300.48	13.702
300.85	14.195
301.22	12.597
301.59	11.447
301.95	14.177
302.32	14.267
302.69	13.060
303.05	12.995
303.42	12.702
303.79	13.902
304.15	13.023
304.52	12.604
304.89	11.813
305.25	11.501
305.62	11.435
305.99	13.099
306.35	11.098
306.72	11.024
307.09	11.631
307.45	13.548
307.82	11.806
308.19	13.240
308.55	12.105
308.92	13.072
309.29	13.296
309.65	11.087
310.02	11.771
310.38	12.514
310.75	12.240
311.12	11.087
311.48	11.559
311.85	11.623
312.22	11.498
312.58	11.890
312.95	11.419
313.31	11.698
313.68	10.366
314.05	11.939
314.41	10.928
314.78	12.474
315.14	12.230
315.51	11.594
315.87	10.861
316.24	12.740
316.61	12.205
316.97	10.615
317.34	12.207
317.70	11.759
318.07	11.346
318.43	10.882
318.80	10.322
319.16	12.012
319.53	11.871
319.89	11.614
320.26	11.336
320.62	12.237
320.99	10.334
321.35	11.922
321.72	11.630
322.08	11.380
322.45	11.472
322.81	11.886
323.18	11.482
323.54	10.907
323.91	10.808
324.27	12.305
324.64	11.610
325.00	11.223
325.37	11.754
325.73	11.151
326.10	11.989
326.46	12.108
326.83	11.811
327.19	12.467
327.56	12.772
327.92	12.676
328.29	11.786
328.65	11.981
329.01	10.294
329.38	11.982
329.74	11.048
330.11	11.307
330.47	10.946
330.84	11.538
331.20	13.498
331.56	10.556
331.93	11.324
332.29	13.016
332.66	11.674
333.02	11.803
333.38	9.716
333.75	12.637
334.11	11.012
334.48	13.237
334.84	11.630
335.20	11.802
335.57	10.517
335.93	11.382
336.29	12.799
336.66	11.626
337.02	10.130
337.38	11.111
337.75	11.000
338.11	11.452
338.47	11.314
338.84	11.830
339.20	10.603
339.56	12.477
339.93	11.459
340.29	11.651
340.65	11.201
341.02	11.613
341.38	11.239
341.74	10.071
342.11	11.438
342.47	11.566
342.83	12.024
343.20	10.801
343.56	11.130
343.92	11.603
344.28	12.212
344.65	10.708
345.01	9.853
345.37	10.597
345.73	12.301
346.10	10.613
346.46	11.018
346.82	10.065
347.19	10.058
347.55	11.529
347.91	11.570
348.27	11.156
348.63	11.158
349.00	11.649
349.36	10.806
349.72	11.277
350.08	11.230
350.45	11.014
350.81	11.130
351.17	10.668
351.53	12.245
351.89	10.405
352.26	10.880
352.62	10.323
352.98	10.763
353.34	10.467
353.70	12.621
354.07	10.968
354.43	11.049
354.79	10.322
355.15	10.635
355.51	10.601
355.87	12.540
356.24	10.277
356.60	11.237
356.96	11.429
357.32	10.942
357.68	11.181
358.04	11.147
358.40	9.968
358.77	12.360
359.13	10.328
359.49	10.863
359.85	10.998
360.21	10.845
360.57	10.559
360.93	10.968
361.29	9.517
361.66	11.520
362.02	11.136
362.38	11.805
362.74	10.674
363.10	10.685
363.46	10.675
363.82	11.645
364.18	11.365
364.54	11.029
364.90	10.394
365.26	10.262
365.62	11.022
365.98	11.437
366.35	11.143
366.71	10.865
367.07	10.232
367.43	10.496
367.79	10.742
368.15	9.978
368.51	10.342
368.87	9.835
369.23	11.264
369.59	11.297
369.95	11.877
370.31	11.344
370.67	11.269
371.03	10.904
371.39	10.576
371.75	11.722
372.11	11.127
372.47	10.207
372.83	10.646
373.19	11.484
373.55	10.975
373.91	10.799
374.27	10.631
374.63	11.558
374.99	10.355
375.35	11.072
375.71	11.399
376.07	11.025
376.42	10.340
376.78	11.141
377.14	10.900
377.50	10.226
377.86	11.647
378.22	10.849
378.58	10.769
378.94	10.712
379.30	10.792
379.66	11.536
380.02	11.465
380.38	10.225
380.74	11.071
381.09	11.718
381.45	10.581
381.81	10.919
382.17	11.041
382.53	9.931
382.89	11.111
383.25	10.952
383.61	11.220
383.97	10.603
384.32	10.319
384.68	11.331
385.04	10.049
385.40	11.263
385.76	12.138
386.12	11.837
386.48	12.069
386.83	11.160
387.19	11.538
387.55	12.233
387.91	11.308
388.27	11.050
388.62	11.013
388.98	11.541
389.34	11.056
389.70	12.306
390.06	11.391
390.42	12.047
390.77	11.380
391.13	11.475
391.49	11.578
391.85	11.631
392.20	11.551
392.56	11.380
392.92	12.272
393.28	12.441
393.64	11.892
393.99	12.727
394.35	11.891
394.71	12.580
395.07	11.628
395.42	11.779
395.78	11.987
396.14	11.412
396.50	11.921
396.85	11.977
397.21	12.782
397.57	12.414
397.92	11.863
398.28	12.126
398.64	11.627
399.00	12.302
399.35	11.512
399.71	11.832
400.07	12.636
400.42	12.301
400.78	12.860
401.14	12.402
401.49	12.329
401.85	12.980
402.21	12.470
402.57	12.750
402.92	11.794
403.28	13.346
403.63	12.043
403.99	11.735
404.35	12.430
404.70	12.083
405.06	12.103
405.42	12.368
405.77	11.331
406.13	11.991
406.49	11.368
406.84	12.164
407.20	12.523
407.55	11.269
407.91	11.765
408.27	11.855
408.62	13.600
408.98	12.261
409.34	12.206
409.69	12.339
410.05	12.131
410.40	12.099
410.76	12.244
411.11	12.562
411.47	12.032
411.83	11.990
412.18	12.806
412.54	12.297
412.89	12.623
413.25	13.237
413.60	11.925
413.96	12.270
414.31	12.744
414.67	11.546
415.03	11.784
415.38	12.337
415.74	12.443
416.09	12.671
416.45	12.694
416.80	12.624
417.16	13.260
417.51	13.524
417.87	12.777
418.22	12.241
418.58	12.642
418.93	13.229
419.29	12.292
419.64	12.314
420.00	13.665
420.35	12.299
420.71	12.819
421.06	12.953
421.42	12.560
421.77	12.254
422.12	11.862
422.48	12.561
422.83	12.297
423.19	11.964
423.54	11.993
423.90	11.484
424.25	12.572
424.61	12.668
424.96	12.079
425.31	13.287
425.67	12.676
426.02	13.840
426.38	13.024
426.73	12.107
427.09	13.291
427.44	12.294
427.79	13.435
428.15	13.714
428.50	11.750
428.85	13.084
429.21	12.507
429.56	12.183
429.92	12.275
430.27	12.782
430.62	12.023
430.98	12.208
431.33	12.618
431.68	12.925
432.04	12.409
432.39	12.208
432.74	12.928
433.10	13.506
433.45	11.828
433.80	12.014
434.16	11.413
434.51	13.011
434.86	12.602
435.22	12.395
435.57	12.040
435.92	12.455
436.28	12.403
436.63	12.835
436.98	13.152
437.34	12.099
437.69	12.642
438.04	12.593
438.39	11.790
438.75	12.811
439.10	11.941
439.45	12.660
439.81	11.865
440.16	13.124
440.51	13.194
440.86	13.293
441.22	12.330
441.57	12.969
441.92	13.169
442.27	12.583
442.63	12.741
442.98	12.636
443.33	12.632
443.68	12.573
444.03	12.568
444.39	12.248
444.74	12.598
445.09	12.806
445.44	12.422
445.79	13.357
446.15	12.390
446.50	12.368
446.85	12.168
447.20	12.200
447.55	13.114
447.91	12.408
448.26	12.635
448.61	12.953
448.96	12.622
449.31	12.428
449.66	13.124
450.02	13.292
450.37	13.397
450.72	11.970
451.07	12.468
451.42	12.484
451.77	12.960
452.12	11.782
452.47	12.106
452.83	13.722
453.18	12.207
453.53	12.769
453.88	13.418
454.23	12.538
454.58	12.846
454.93	13.531
455.28	12.254
455.63	14.135
455.98	13.530
456.34	12.388
456.69	12.834
457.04	13.737
457.39	12.758
457.74	12.817
458.09	11.948
458.44	12.815
458.79	12.493
459.14	13.272
459.49	13.552
459.84	13.593
460.19	13.350
460.54	12.836
460.89	12.273
461.24	12.671
461.59	13.658
461.94	11.761
462.29	13.993
462.64	13.422
462.99	12.390
463.34	13.143
463.69	12.484
464.04	13.136
464.39	12.917
464.74	13.129
465.09	13.225
465.44	12.926
465.79	12.132
466.14	13.284
466.49	12.018
466.84	13.087
467.19	13.705
467.54	13.665
467.89	13.140
468.24	13.017
468.59	13.587
468.94	13.397
469.29	12.721
469.64	13.329
469.99	13.875
470.34	12.287
470.68	13.423
471.03	13.588
471.38	13.267
471.73	12.885
472.08	13.229
472.43	12.752
472.78	11.926
473.13	12.925
473.48	13.225
473.83	12.516
474.17	13.925
474.52	13.720
474.87	13.212
475.22	13.545
475.57	12.761
475.92	12.891
476.27	13.504
476.61	13.484
476.96	12.716
477.31	13.845
477.66	12.978
478.01	13.307
478.36	13.181
478.70	12.561
479.05	13.462
479.40	13.249
479.75	12.930
480.10	13.313
480.45	13.550
480.79	13.595
481.14	13.371
481.49	13.153
481.84	12.741
482.19	12.956
482.53	12.998
482.88	13.365
483.23	13.100
483.58	12.972
483.92	12.633
484.27	13.036
484.62	13.268
484.97	12.521
485.31	13.006
485.66	12.520
486.01	12.473
486.36	12.352
486.70	12.468
487.05	12.553
487.40	12.771
487.75	12.873
488.09	13.133
488.44	13.239
488.79	12.888
489.13	13.622
489.48	13.852
489.83	13.004
490.17	12.719
490.52	13.072
490.87	13.373
491.22	13.515
491.56	12.761
491.91	12.859
492.26	13.952
492.60	13.580
492.95	13.822
493.30	12.848
493.64	14.096
493.99	13.382
494.34	12.282
494.68	12.857
495.03	12.701
495.37	13.346
495.72	12.721
496.07	13.805
496.41	13.160
496.76	13.542
497.11	12.902
497.45	13.317
497.80	14.026
498.14	13.214
498.49	13.662
498.84	12.774
499.18	13.404
499.53	13.194
499.87	13.181
500.22	13.650
500.56	13.111
500.91	12.751
501.26	13.099
501.60	13.133
501.95	13.100
502.29	13.656
502.64	13.417
502.98	13.715
503.33	12.344
503.67	13.735
504.02	14.027
504.36	13.360
504.71	13.131
505.06	13.085
505.40	13.858
505.75	13.351
506.09	13.735
506.44	14.220
506.78	13.878
507.13	13.857
507.47	13.368
507.82	13.248
508.16	13.576
508.51	13.851
508.85	13.815
509.19	13.518
509.54	14.263
509.88	13.754
510.23	13.825
510.57	13.201
510.92	12.687
511.26	13.803
511.61	13.916
511.95	13.589
512.30	13.692
512.64	15.136
512.98	14.599
513.33	14.102
513.67	13.872
514.02	14.989
514.36	14.457
514.70	14.277
515.05	13.984
515.39	13.991
515.74	15.030
516.08	14.824
516.42	14.193
516.77	15.389
517.11	13.828
517.46	15.021
517.80	14.839
518.14	14.513
518.49	14.663
518.83	14.034
519.17	13.584
519.52	14.210
519.86	13.926
520.20	14.216
520.55	13.571
520.89	15.182
521.23	13.996
521.58	15.016
521.92	14.744
522.26	14.639
522.61	14.026
522.95	14.570
523.29	15.057
523.64	14.485
523.98	14.841
524.32	13.724
524.66	15.045
525.01	15.000
525.35	14.647
525.69	14.276
526.04	14.286
526.38	16.083
526.72	14.127
527.06	14.786
527.41	14.446
527.75	14.410
528.09	15.017
528.43	15.395
528.78	13.465
529.12	15.097
529.46	14.685
529.80	14.820
530.15	15.380
530.49	14.747
530.83	14.364
531.17	14.372
531.51	15.048
531.86	14.004
532.20	14.683
532.54	15.112
532.88	14.648
533.22	14.785
533.57	15.138
533.91	13.577
534.25	15.820
534.59	15.459
534.93	14.097
535.27	13.959
535.62	14.517
535.96	14.938
536.30	15.040
536.64	15.093
536.98	14.286
537.32	14.865
537.66	15.568
538.01	14.476
538.35	14.494
538.69	15.180
539.03	14.286
539.37	15.612
539.71	15.337
540.05	15.207
540.39	15.305
540.73	15.063
541.07	15.401
541.42	15.390
541.76	14.935
542.10	14.315
542.44	14.593
542.78	14.040
543.12	14.217
543.46	15.229
543.80	14.851
544.14	14.352
544.48	15.123
544.82	15.721
545.16	15.574
545.50	15.554
545.84	16.147
546.18	16.028
546.52	15.213
546.86	14.450
547.20	15.165
547.54	14.417
547.88	15.014
548.22	14.398
548.56	14.380
548.90	15.162
549.24	15.083
549.58	15.303
549.92	15.011
550.26	16.264
550.60	15.762
550.94	15.609
551.28	14.992
551.62	15.154
551.96	15.564
552.30	15.351
552.64	14.175
552.98	14.698
553.32	15.264
553.66	14.006
554.00	14.599
554.34	15.436
554.68	14.676
555.02	15.848
555.36	14.959
555.69	14.432
556.03	13.776
556.37	15.302
556.71	14.946
557.05	14.765
557.39	13.978
557.73	15.217
558.07	14.404
558.41	14.625
558.75	14.341
559.08	14.106
559.42	14.762
559.76	14.732
560.10	14.526
560.44	14.147
560.78	14.825
561.12	14.457
561.45	14.898
561.79	15.266
562.13	13.769
562.47	13.813
562.81	14.769
563.15	15.585
563.48	14.851
563.82	15.580
564.16	13.370
564.50	15.405
564.84	15.194
565.17	14.822
565.51	15.642
565.85	14.746
566.19	15.318
566.52	15.282
566.86	15.424
567.20	14.010
567.54	14.720
567.88	15.231
568.21	14.593
568.55	14.728
568.89	14.220
569.23	14.251
569.56	14.229
569.90	14.495
570.24	14.031
570.57	13.818
570.91	14.291
571.25	13.844
571.59	13.859
571.92	13.511
572.26	13.527
572.60	13.674
572.93	14.214
573.27	13.636
573.61	13.604
573.95	13.517
574.28	13.400
574.62	12.942
574.96	13.413
575.29	13.352
575.63	13.579
575.97	13.229
576.30	13.691
576.64	12.980
576.98	13.822
577.31	13.492
577.65	13.394
577.98	13.567
578.32	13.493
578.66	13.153
578.99	13.734
579.33	12.815
579.67	13.222
580.00	13.620
580.34	13.507
580.67	13.650
581.01	13.713
581.35	13.415
581.68	13.324
582.02	13.048
582.35	13.129
582.69	13.810
583.02	13.480
583.36	13.674
583.70	14.226
584.03	14.123
584.37	14.060
584.70	13.874
585.04	12.953
585.37	13.563
585.71	13.133
586.04	13.414
586.38	13.257
586.72	13.888
587.05	13.865
587.39	13.810
587.72	13.833
588.06	13.784
588.39	13.871
588.73	14.011
589.06	13.829
589.40	13.999
589.73	14.786
590.07	14.539
590.40	14.319
590.73	14.745
591.07	14.207
591.40	13.891
591.74	14.615
592.07	14.796
592.41	14.488
592.74	13.620
593.08	13.168
593.41	13.707
593.75	13.445
594.08	13.629
594.41	14.192
594.75	13.168
595.08	13.507
595.42	13.765
595.75	14.157
596.09	13.878
596.42	13.725
596.75	14.609
597.09	14.123
597.42	14.679
597.75	14.292
598.09	13.309
598.42	13.673
598.76	13.814
599.09	13.942
599.42	13.414
599.76	13.281
600.09	14.065
600.42	14.215
600.76	13.001
601.09	13.931
601.42	14.493
601.76	13.497
602.09	13.985
602.42	14.027
602.76	13.582
603.09	14.203
603.42	14.548
603.76	13.387
604.09	13.933
604.42	14.848
604.76	14.642
605.09	14.260
605.42	14.131
605.75	14.011
606.09	13.758
606.42	13.595
606.75	13.939
607.09	14.066
607.42	14.001
607.75	14.476
608.08	13.971
608.42	14.070
608.75	15.133
609.08	13.901
609.41	14.213
609.75	14.869
610.08	14.179
610.41	13.478
610.74	14.139
611.07	14.057
611.41	14.375
611.74	14.339
612.07	13.865
612.40	13.621
612.73	14.746
613.07	13.048
613.40	14.442
613.73	14.214
614.06	14.413
614.39	14.777
614.72	14.230
615.06	14.749
615.39	14.192
615.72	13.617
616.05	14.302
616.38	13.675
616.71	14.067
617.05	14.515
617.38	14.896
617.71	14.717
618.04	14.667
618.37	16.204
618.70	15.644
619.03	15.625
619.36	13.748
619.69	14.556
620.03	15.924
620.36	16.094
620.69	15.203
621.02	15.443
621.35	15.104
621.68	15.136
622.01	15.500
622.34	15.882
622.67	15.852
623.00	14.931
623.33	15.244
623.66	14.361
623.99	14.070
624.32	15.589
624.65	14.511
624.99	15.124
625.32	13.723
625.65	16.182
625.98	15.633
626.31	14.630
626.64	16.205
626.97	15.358
627.30	16.462
627.63	16.378
627.96	15.813
628.29	15.171
628.62	16.421
628.95	16.032
629.28	15.827
629.61	15.952
629.94	16.227
630.26	15.217
630.59	15.817
630.92	14.564
631.25	15.487
631.58	15.419
631.91	14.803
632.24	14.794
632.57	16.818
632.90	16.133
633.23	16.706
633.56	16.499
633.89	15.906
634.22	17.654
634.55	16.900
634.88	14.943
635.20	15.641
635.53	17.333
635.86	15.085
636.19	17.076
636.52	15.561
636.85	16.005
637.18	15.094
637.51	15.472
637.83	17.083
638.16	17.053
638.49	14.305
638.82	16.842
639.15	15.875
639.48	16.644
639.81	17.573
640.13	16.306
640.46	15.306
640.79	15.464
641.12	17.282
641.45	18.168
641.77	17.333
642.10	15.324
642.43	16.077
642.76	18.647
643.09	19.063
643.41	16.343
643.74	15.321
644.07	17.241
644.40	15.878
644.73	17.338
645.05	16.946
645.38	17.284
645.71	18.617
646.04	16.158
646.36	17.730
646.69	18.705
647.02	15.501
647.35	16.978
647.67	19.013
648.00	17.910
648.33	19.454
648.66	18.136
648.98	16.080
649.31	15.537
649.64	15.385
649.96	16.370
650.29	16.184
650.62	17.607
650.94	15.926
651.27	15.270
651.60	19.099
651.92	19.406
652.25	15.453
652.58	14.000
652.90	18.353
653.23	16.807
653.56	15.398
653.88	16.323
654.21	14.361
654.54	17.148
654.86	17.487
655.19	14.474
655.52	15.015
655.84	12.502
656.17	14.136
656.49	19.287
656.82	20.605
657.15	16.001
657.47	12.111
657.80	9.015
658.13	9.104
658.45	14.402
658.78	14.933
659.10	14.871
659.43	14.901
659.75	15.984
660.08	15.793
660.41	16.547
660.73	17.127
661.06	17.678
661.38	18.004
661.71	14.579
662.03	19.742
662.36	16.264
662.68	17.478
663.01	17.467
663.33	18.794
663.66	14.419
663.98	16.744
664.31	15.352
664.63	14.977
664.96	15.217
665.28	14.128
665.61	16.234
665.93	16.957
666.26	18.004
666.58	15.213
666.91	17.412
667.23	18.868
667.56	15.403
667.88	15.827
668.21	16.229
668.53	17.258
668.86	16.981
669.18	18.160
669.50	17.676
669.83	18.372
670.15	15.618
670.48	16.986
670.80	18.894
671.13	16.107
671.45	13.470
671.77	19.957
672.10	17.624
672.42	15.918
672.75	16.519
673.07	18.068
673.39	17.615
673.72	14.990
674.04	15.417
674.37	16.314
674.69	16.274
675.01	19.111
675.34	17.342
675.66	19.213
675.98	18.625
676.31	19.954
676.63	17.815
676.95	17.273
677.28	20.000
677.60	17.590
677.92	16.514
678.25	17.287
678.57	17.532
678.89	16.176
679.22	16.331
679.54	16.064
679.86	14.712
680.18	16.311
680.51	13.447
680.83	14.712
681.15	15.000
681.48	17.418
681.80	16.736
682.12	16.129
682.44	17.573
682.77	15.453
683.09	16.018
683.41	15.455
683.73	17.972
684.06	15.929
684.38	16.559
684.70	16.776
685.02	15.353
685.34	13.439
685.67	15.009
685.99	15.009
686.31	15.752
686.63	15.399
686.96	14.068
687.28	12.323
687.60	13.688
687.92	18.182
688.24	15.927
688.56	15.284
688.89	16.741
689.21	16.000
689.53	16.473
689.85	16.977
690.17	17.411
690.49	21.513
690.82	17.718
691.14	15.000
691.46	17.991
691.78	15.766
692.10	16.344
692.42	15.152
692.74	16.239
693.06	18.018
693.39	14.027
693.71	16.063
694.03	17.321
694.35	16.589
694.67	18.687
694.99	15.666
695.31	13.055
695.63	15.500
695.95	14.899
696.27	11.917
696.59	19.722
696.91	17.087
697.23	16.452
697.56	15.594
697.88	16.774
698.20	13.895
698.52	16.000
698.84	17.225
699.16	14.500
699.48	16.541
699.80	17.370
700.12	14.555
700.44	19.328
700.76	14.826
701.08	13.636
701.40	18.373
701.72	19.444
702.04	17.822
702.36	16.054
702.68	17.417
703.00	17.576
703.32	15.543
703.64	14.689
703.96	18.841
704.28	15.951
704.60	18.730
704.91	14.826
705.23	15.282
705.55	22.261
705.87	18.051
706.19	15.185
706.51	15.120
706.83	19.293
707.15	13.396
707.47	16.807
707.79	16.667
708.11	18.750
708.43	19.000
708.74	16.021
709.06	16.620
709.38	13.761
709.70	16.568
710.02	15.605
710.34	18.576
710.66	16.026
710.98	15.232
711.29	15.738
711.61	17.966
711.93	18.241
712.25	19.588
712.57	15.751
712.89	14.552
713.20	17.301
713.52	15.679
713.84	16.724
714.16	15.120
714.48	17.419
714.80	19.231
715.11	16.109
715.43	15.361
715.75	14.667
716.07	14.286
716.39	14.094
716.70	15.867
717.02	16.794
717.34	19.433
717.66	19.027
717.97	13.913
718.29	19.665
718.61	22.047
718.93	18.217
719.24	18.631
719.56	13.655
719.88	19.244
720.20	13.636
720.51	16.858
720.83	16.216
721.15	17.227
721.46	16.532
721.78	13.439
722.10	17.472
722.42	10.788
722.73	17.551
723.05	22.857
723.37	19.915
723.68	19.820
724.00	15.385
724.32	13.333
724.63	20.455
724.95	14.847
725.27	16.129
725.58	17.373
725.90	11.508
726.22	17.375
726.53	16.949
726.85	20.974
727.16	16.981
727.48	16.194
727.80	19.433
728.11	16.102
728.43	16.078
728.74	8.065
729.06	16.800
729.38	23.684
729.69	10.757
730.01	15.000
730.32	18.657
730.64	16.254
730.96	20.755
731.27	15.333
731.59	17.288
731.90	13.057
732.22	18.297
732.53	18.272
732.85	21.631
733.16	20.202
733.48	11.871
733.80	12.681
734.11	15.254
734.43	14.089
734.74	16.970
735.06	14.984
735.37	18.731
735.69	13.468
736.00	15.331
736.32	19.799
736.63	13.380
736.95	19.454
737.26	12.456
737.58	17.114
737.89	15.751
738.21	15.038
738.52	15.638
738.83	14.410
739.15	16.157
739.46	16.929
739.78	13.187
740.09	16.993
740.41	16.304
740.72	11.417
741.04	14.170
741.35	22.979
741.66	19.905
741.98	18.878
742.29	15.347
742.61	19.895
742.92	11.374
743.23	9.722
743.55	19.457
743.86	13.397
744.18	13.397
744.49	9.574
744.80	11.957
745.12	17.647
745.43	10.732
745.74	21.354
746.06	19.024
746.37	19.372
746.68	17.536
747.00	9.574
747.31	23.383
747.62	17.961
747.94	18.660
748.25	17.822
748.56	19.672
748.88	20.419
749.19	25.000
749.50	15.764
749.82	11.321
750.13	14.220
750.44	19.925
750.75	15.299
751.07	21.168
751.38	18.008
751.69	10.588
752.01	19.380
752.32	13.546
752.63	16.996
752.94	19.397
753.26	18.410
753.57	17.647
753.88	17.699
754.19	11.250
754.51	14.050
754.82	14.980
755.13	22.500
755.44	16.935
755.75	21.094
756.07	13.619
756.38	16.604
756.69	12.644
757.00	16.333
757.31	15.359
757.63	14.939
757.94	15.556
758.25	13.425
758.56	15.160
758.87	13.881
759.18	13.707
759.50	17.091
759.81	17.057
760.12	14.839
760.43	17.273
760.74	14.198
761.05	13.538
761.36	15.625
761.67	19.091
761.99	18.027
762.30	18.182
762.61	17.787
762.92	20.814
763.23	16.216
763.54	8.879
763.85	20.339
764.16	19.917
764.47	15.726
764.78	16.117
765.10	18.182
765.41	16.088
765.72	15.873
766.03	14.286
766.34	16.423
766.65	21.912
766.96	16.667
767.27	10.638
767.58	10.920
767.89	13.475
768.20	16.477
768.51	17.033
768.82	17.734
769.13	16.590
769.44	11.588
769.75	9.132
770.06	17.672
770.37	15.385
770.68	13.198
770.99	11.765
771.30	15.686
771.61	16.742
771.92	18.966
772.23	22.167
772.54	16.129
772.85	21.605
773.16	15.730
773.47	26.144
773.78	17.647
774.09	17.365
774.39	18.667
774.70	26.752
775.01	22.069
775.32	18.571
775.63	19.835
775.94	21.374
776.25	25.197
776.56	15.000
776.87	16.346
777.18	11.111
777.48	16.379
777.79	12.174
778.10	11.429
778.41	18.018
778.72	19.048
779.03	14.286
779.34	20.567
779.65	20.548
779.95	16.438
780.26	13.103
780.57	13.821
780.88	15.748
781.19	15.517
781.50	17.054
781.80	18.343
782.11	11.950
782.42	24.615
782.73	17.986
783.04	6.667
783.34	10.417
783.65	0.855
783.96	23.770
784.27	15.862
784.57	10.569
784.88	18.750
785.19	26.000
785.50	11.000
785.81	14.655
786.11	15.517
786.42	23.301
786.73	24.545
787.04	19.388
787.34	21.429
787.65	21.905
787.96	17.699
788.26	18.182
788.57	16.239
788.88	28.125
789.19	20.635
789.49	13.913
789.80	8.163
790.11	23.232
790.41	21.818
790.72	19.565
791.03	23.864
791.33	11.250
791.64	23.750
791.95	9.302
792.25	15.957
792.56	29.213
792.87	15.068
793.17	4.348
793.48	1.333
793.79	17.500
794.09	16.250
794.40	23.585
794.70	12.621
795.01	16.260
795.32	7.692
795.62	5.714
795.93	17.647
796.23	16.981
796.54	17.708
796.85	26.471
797.15	12.676
797.46	27.778
797.76	21.212
798.07	9.302
798.37	10.526
798.68	12.121
798.99	20.988
799.29	20.000
799.60	24.638
799.90	25.333
800.21	29.508
800.51	24.615
800.82	33.898
801.12	20.290
801.43	24.590
801.73	7.937
802.04	16.000
802.34	11.940
802.65	28.846
802.95	0.000
803.26	13.462
803.56	29.412
803.87	8.696
804.17	16.000
804.48	31.746
804.78	25.926
805.09	32.609
805.39	40.000
805.70	33.333
806.00	5.263
806.30	22.535
806.61	17.143
806.91	-1.389
807.22	27.632
807.52	21.333
807.83	3.636
808.13	30.556
808.43	19.118
808.74	13.433
809.04	8.475
809.35	36.538
809.65	20.313
809.95	10.811
810.26	-2.273
810.56	23.288
810.86	30.952
811.17	18.000
811.47	44.898
811.77	0.000
812.08	20.455
812.38	18.868
812.69	2.500
812.99	24.242
813.29	39.474
813.59	5.714
813.90	20.455
814.20	2.564
814.50	28.846
814.81	30.189
815.11	2.128
815.41	28.814
815.72	14.286
816.02	25.490
816.32	22.917
816.62	19.512
816.93	10.811
817.23	2.857
817.53	14.583
817.84	23.913
818.14	23.077
818.44	7.895
818.74	39.130
819.04	-5.000
819.35	35.135
819.65	23.529
819.95	0.000
820.25	21.429
820.56	42.500
820.86	-6.897
821.16	52.500
821.46	27.660
821.76	27.500
822.07	20.930
822.37	-2.703
822.67	9.375
822.97	54.762
823.27	-3.571
823.57	0.000
823.88	-18.519
824.18	42.857
824.48	17.647
824.78	38.710
825.08	26.087
825.38	6.061
825.69	4.167
825.99	50.000
826.29	44.444
826.59	-20.000
826.89	-23.810
827.19	47.826
827.49	45.000
827.79	5.714
828.09	14.286
828.39	27.273
828.70	56.757
829.00	7.143
829.30	19.048
829.60	13.333
829.90	15.625
830.20	31.579
830.50	-3.704
830.80	21.739
831.10	13.636
831.40	72.727
831.70	22.581
832.00	33.333
832.30	28.571
832.60	-50.000
832.90	41.379
833.20	30.000
833.50	33.333
833.80	3.704
834.10	57.692
834.40	68.750
834.70	111.111
835.00	21.053
835.30	115.385
835.60	6.667
835.90	22.581
836.20	45.455
836.50	57.143
836.80	11.538
837.10	7.143
837.40	66.667
837.70	0.000
838.00	27.273
838.30	-8.696
838.60	15.385
838.90	31.818
839.19	42.857
839.49	6.667
839.79	69.231
840.09	25.000
840.39	46.429
840.69	28.571
840.99	-7.692
841.29	21.053
841.59	-50.000
841.88	36.364
842.18	-10.000
842.48	68.750
842.78	66.667
843.08	22.222
843.38	-100.000
843.68	21.739
843.97	33.333
844.27	-46.667
844.57	30.000
844.87	72.222
845.17	14.286
845.47	6.667
845.76	9.524
846.06	0.000
846.36	120.000
846.66	50.000
846.96	66.667
847.25	-112.500
847.55	64.286
847.85	100.000
848.15	-13.636
848.44	-166.667
848.74	75.000
849.04	29.630
849.34	-9.091
849.63	-66.667
849.93	-80.000
850.23	50.000
850.53	100.000
850.82	53.846
851.12	-11.111
851.42	26.667
851.71	30.769
852.01	14.286
852.31	200.000
852.61	54.545
852.90	5.000
853.20	5.263
853.50	-8.333
853.79	39.130
854.09	75.000
854.39	26.316
854.68	45.833
854.98	9.677
855.28	38.462
855.57	20.000
855.87	16.667
856.17	25.926
856.46	57.143
856.76	60.000
857.05	133.333
857.35	88.000
857.65	72.222
857.94	7.692
858.24	58.621
858.53	61.111
858.83	40.741
859.13	36.364
859.42	56.522
859.72	25.000
860.01	66.667
860.31	24.000
860.60	-9.524
860.90	0.000
861.20	-53.333
861.49	-500.000
861.79	26.667
862.08	75.000
862.38	106.667
862.67	20.000
862.97	-116.667
863.26	58.333
863.56	61.111
863.85	233.333
864.15	22.222
864.44	100.000
864.74	50.000
865.03	300.000
865.33	20.000
865.62	116.667
865.92	0.000
866.21	-133.333
866.51	25.000
866.80	90.909
867.10	-50.000
867.39	50.000
867.69	0.000
867.98	53.846
868.27	-166.667
868.57	40.000
868.86	27.778
869.16	15.385
869.45	66.667
869.75	-200.000
870.04	0.000
870.33	-157.143
870.63	14.286
870.92	133.333
871.22	-200.000
871.51	100.000
871.80	122.222
872.10	-166.667
>>>>>End Processed Spectral Data<<<<<
