SpectraSuite Data File
++++++++++++++++++++++++++++++++++++
Date: Fri May 15 17:11:22 PDT 2015
User: schluterlab
Dark Spectrum Present: Yes
Reference Spectrum Present: Yes
Number of Sampled Component Spectra: 1
Spectrometers: USB2E3373
Integration Time (usec): 3000 (USB2E3373)
Spectra Averaged: 3 (USB2E3373)
Boxcar Smoothing: 0 (USB2E3373)
Correct for Electrical Dark: No (USB2E3373)
Strobe/Lamp Enabled: No (USB2E3373)
Correct for Detector Non-linearity: No (USB2E3373)
Correct for Stray Light: No (USB2E3373)
Number of Pixels in Processed Spectrum: 2048
>>>>>Begin Processed Spectral Data<<<<<
178.53	0.000
178.91	0.000
179.29	-50.000
179.67	-400.000
180.04	-42.857
180.42	-50.000
180.80	700.000
181.18	-233.333
181.56	-50.000
181.94	300.000
182.31	-200.000
182.69	-180.000
183.07	-100.000
183.45	180.000
183.83	116.667
184.20	9.091
184.58	188.889
184.96	-0.000
185.34	-333.333
185.72	500.000
186.09	-15.385
186.47	300.000
186.85	16.667
187.23	66.667
187.61	-600.000
187.98	33.333
188.36	55.556
188.74	200.000
189.12	100.000
189.49	100.000
189.87	0.000
190.25	78.571
190.63	500.000
191.00	200.000
191.38	-10.526
191.76	600.000
192.14	-100.000
192.51	700.000
192.89	11.111
193.27	42.857
193.65	-33.333
194.02	100.000
194.40	70.000
194.78	62.500
195.15	100.000
195.53	-137.500
195.91	250.000
196.29	-75.000
196.66	30.769
197.04	142.857
197.42	11.111
197.79	-466.667
198.17	38.462
198.55	300.000
198.92	-266.667
199.30	600.000
199.68	200.000
200.05	200.000
200.43	0.000
200.81	66.667
201.18	366.667
201.56	200.000
201.94	350.000
202.31	-333.333
202.69	-20.000
203.07	150.000
203.44	1200.000
203.82	0.000
204.19	92.857
204.57	-300.000
204.95	112.500
205.32	80.000
205.70	14.286
206.08	250.000
206.45	244.444
206.83	135.714
207.20	57.143
207.58	300.000
207.96	100.000
208.33	-40.000
208.71	225.000
209.08	-83.333
209.46	100.000
209.84	40.000
210.21	500.000
210.59	157.143
210.96	50.000
211.34	300.000
211.71	106.667
212.09	128.571
212.46	-1000.000
212.84	0.000
213.22	110.000
213.59	-400.000
213.97	146.154
214.34	100.000
214.72	216.667
215.09	300.000
215.47	15.385
215.84	36.364
216.22	33.333
216.59	0.000
216.97	400.000
217.34	-125.000
217.72	-160.000
218.09	50.000
218.47	-0.000
218.84	800.000
219.22	111.111
219.59	-100.000
219.97	166.667
220.34	-50.000
220.72	200.000
221.09	-125.000
221.47	200.000
221.84	0.000
222.22	-550.000
222.59	27.273
222.97	25.000
223.34	-66.667
223.72	7.143
224.09	33.333
224.46	64.286
224.84	366.667
225.21	80.000
225.59	66.667
225.96	50.000
226.34	50.000
226.71	0.000
227.08	16.667
227.46	0.000
227.83	150.000
228.21	155.556
228.58	127.273
228.95	150.000
229.33	40.000
229.70	25.000
230.08	50.000
230.45	-42.857
230.82	57.143
231.20	6.667
231.57	85.714
231.95	71.429
232.32	20.000
232.69	171.429
233.07	133.333
233.44	180.000
233.81	-30.000
234.19	111.111
234.56	41.176
234.93	150.000
235.31	150.000
235.68	-80.000
236.05	-46.154
236.43	55.000
236.80	58.824
237.17	53.125
237.55	60.000
237.92	85.185
238.29	58.333
238.67	70.000
239.04	32.353
239.41	41.463
239.79	80.000
240.16	70.732
240.53	44.737
240.91	56.522
241.28	41.270
241.65	53.571
242.02	58.904
242.40	80.000
242.77	69.492
243.14	51.515
243.51	53.750
243.89	52.874
244.26	40.230
244.63	55.952
245.00	44.330
245.38	50.515
245.75	35.955
246.12	44.828
246.49	51.240
246.87	42.308
247.24	38.655
247.61	40.351
247.98	50.407
248.36	36.875
248.73	46.711
249.10	45.455
249.47	44.304
249.84	48.366
250.22	41.176
250.59	45.098
250.96	46.009
251.33	38.372
251.70	57.647
252.08	45.685
252.45	47.030
252.82	46.734
253.19	39.171
253.56	47.196
253.94	40.991
254.31	47.391
254.68	51.316
255.05	47.638
255.42	49.345
255.79	47.490
256.16	46.304
256.54	46.642
256.91	44.487
257.28	47.212
257.65	49.064
258.02	48.227
258.39	45.118
258.76	46.886
259.14	49.169
259.51	47.896
259.88	46.735
260.25	45.752
260.62	42.708
260.99	42.712
261.36	45.205
261.73	42.722
262.10	45.897
262.47	46.933
262.85	45.768
263.22	46.154
263.59	45.483
263.96	49.068
264.33	47.879
264.70	50.000
265.07	46.429
265.44	46.742
265.81	46.045
266.18	46.995
266.55	46.530
266.92	48.705
267.29	50.914
267.66	47.826
268.03	50.262
268.40	45.692
268.77	49.198
269.14	43.405
269.51	47.301
269.88	45.387
270.25	46.173
270.62	44.146
270.99	43.734
271.36	46.210
271.73	48.122
272.10	47.689
272.47	46.809
272.84	45.297
273.21	44.780
273.58	44.337
273.95	44.165
274.32	43.649
274.69	44.796
275.06	45.982
275.43	45.351
275.80	41.501
276.17	45.287
276.54	44.540
276.91	44.298
277.28	44.541
277.65	44.215
278.02	42.979
278.39	45.733
278.76	44.864
279.13	40.664
279.50	46.849
279.87	45.356
280.23	43.011
280.60	44.834
280.97	44.040
281.34	41.154
281.71	46.612
282.08	42.536
282.45	44.031
282.82	40.927
283.19	44.874
283.56	42.004
283.92	44.023
284.29	41.538
284.66	39.535
285.03	44.204
285.40	40.076
285.77	41.652
286.14	40.253
286.51	44.096
286.87	42.962
287.24	44.383
287.61	42.328
287.98	41.228
288.35	39.341
288.72	42.032
289.08	39.583
289.45	40.246
289.82	40.385
290.19	39.761
290.56	39.280
290.93	39.226
291.29	35.285
291.66	40.315
292.03	40.351
292.40	38.710
292.77	36.842
293.13	34.091
293.50	34.446
293.87	34.809
294.24	35.549
294.60	32.787
294.97	34.821
295.34	35.123
295.71	35.320
296.08	33.034
296.44	33.428
296.81	34.444
297.18	32.609
297.55	34.282
297.91	32.466
298.28	34.565
298.65	33.514
299.02	33.827
299.38	31.190
299.75	32.414
300.12	31.806
300.48	32.279
300.85	30.418
301.22	30.519
301.59	31.579
301.95	31.392
302.32	30.739
302.69	30.473
303.05	30.569
303.42	30.262
303.79	30.023
304.15	29.749
304.52	28.419
304.89	29.825
305.25	29.419
305.62	28.821
305.99	27.018
306.35	28.439
306.72	29.246
307.09	29.761
307.45	29.162
307.82	28.588
308.19	29.733
308.55	28.899
308.92	29.412
309.29	28.492
309.65	27.987
310.02	28.053
310.38	29.638
310.75	30.055
311.12	28.310
311.48	27.253
311.85	28.063
312.22	27.637
312.58	28.132
312.95	27.215
313.31	27.329
313.68	27.958
314.05	25.816
314.41	28.454
314.78	28.247
315.14	28.880
315.51	27.122
315.87	28.279
316.24	28.918
316.61	27.657
316.97	27.183
317.34	26.660
317.70	28.011
318.07	27.404
318.43	27.353
318.80	26.799
319.16	29.688
319.53	27.825
319.89	26.673
320.26	27.227
320.62	28.887
320.99	27.557
321.35	27.133
321.72	27.518
322.08	28.499
322.45	26.701
322.81	27.112
323.18	27.576
323.54	27.606
323.91	25.998
324.27	28.711
324.64	27.341
325.00	27.281
325.37	28.558
325.73	27.743
326.10	27.611
326.46	28.789
326.83	29.309
327.19	26.678
327.56	28.410
327.92	29.137
328.29	27.679
328.65	29.717
329.01	28.676
329.38	27.465
329.74	28.045
330.11	28.267
330.47	27.180
330.84	28.269
331.20	30.228
331.56	27.963
331.93	28.128
332.29	28.964
332.66	27.421
333.02	28.160
333.38	28.048
333.75	28.938
334.11	28.021
334.48	28.105
334.84	28.938
335.20	28.271
335.57	27.652
335.93	28.365
336.29	27.901
336.66	28.156
337.02	29.089
337.38	27.222
337.75	28.545
338.11	28.584
338.47	28.102
338.84	29.390
339.20	28.519
339.56	28.349
339.93	28.827
340.29	29.266
340.65	29.032
341.02	29.167
341.38	28.407
341.74	28.357
342.11	27.210
342.47	29.181
342.83	28.893
343.20	28.310
343.56	28.435
343.92	28.255
344.28	29.718
344.65	27.720
345.01	27.571
345.37	27.334
345.73	28.452
346.10	30.026
346.46	29.437
346.82	28.642
347.19	26.600
347.55	29.156
347.91	27.994
348.27	27.809
348.63	27.853
349.00	27.974
349.36	28.180
349.72	28.773
350.08	28.689
350.45	28.811
350.81	27.907
351.17	27.687
351.53	29.143
351.89	26.920
352.26	27.520
352.62	28.468
352.98	27.149
353.34	28.019
353.70	28.722
354.07	28.065
354.43	27.702
354.79	28.406
355.15	27.857
355.51	29.035
355.87	28.479
356.24	28.630
356.60	27.971
356.96	29.048
357.32	27.636
357.68	26.974
358.04	28.271
358.40	27.412
358.77	27.512
359.13	28.503
359.49	26.810
359.85	28.081
360.21	28.309
360.57	27.774
360.93	28.820
361.29	26.511
361.66	28.292
362.02	29.015
362.38	28.332
362.74	28.842
363.10	28.969
363.46	28.169
363.82	29.151
364.18	27.823
364.54	28.971
364.90	28.746
365.26	28.457
365.62	29.197
365.98	28.812
366.35	30.007
366.71	29.268
367.07	28.374
367.43	28.900
367.79	28.622
368.15	28.715
368.51	29.789
368.87	28.428
369.23	27.942
369.59	29.155
369.95	29.472
370.31	30.275
370.67	29.403
371.03	28.827
371.39	29.468
371.75	29.084
372.11	28.673
372.47	29.290
372.83	29.879
373.19	29.601
373.55	28.664
373.91	29.950
374.27	30.333
374.63	30.510
374.99	29.858
375.35	29.387
375.71	30.420
376.07	30.267
376.42	30.204
376.78	30.268
377.14	30.061
377.50	30.212
377.86	29.451
378.22	31.398
378.58	30.897
378.94	29.427
379.30	30.630
379.66	30.784
380.02	31.085
380.38	30.189
380.74	30.760
381.09	31.840
381.45	30.520
381.81	31.585
382.17	32.107
382.53	31.480
382.89	31.576
383.25	31.363
383.61	31.341
383.97	31.302
384.32	31.895
384.68	32.198
385.04	31.924
385.40	31.487
385.76	33.145
386.12	33.376
386.48	31.609
386.83	33.354
387.19	33.700
387.55	32.999
387.91	33.007
388.27	33.333
388.62	33.291
388.98	33.272
389.34	33.729
389.70	34.929
390.06	32.347
390.42	34.715
390.77	33.159
391.13	33.291
391.49	33.376
391.85	34.308
392.20	33.396
392.56	33.694
392.92	33.764
393.28	34.788
393.64	33.994
393.99	34.420
394.35	33.270
394.71	33.716
395.07	34.507
395.42	34.244
395.78	34.463
396.14	34.994
396.50	34.623
396.85	35.222
397.21	34.398
397.57	34.671
397.92	36.010
398.28	35.172
398.64	33.735
399.00	35.102
399.35	33.352
399.71	35.382
400.07	35.671
400.42	34.272
400.78	34.966
401.14	35.451
401.49	35.974
401.85	34.430
402.21	36.084
402.57	35.062
402.92	34.693
403.28	36.717
403.63	35.876
403.99	35.714
404.35	36.352
404.70	34.821
405.06	35.253
405.42	36.109
405.77	35.270
406.13	35.856
406.49	36.827
406.84	36.858
407.20	36.665
407.55	35.351
407.91	35.294
408.27	35.946
408.62	36.431
408.98	35.675
409.34	36.369
409.69	35.142
410.05	36.145
410.40	37.037
410.76	36.007
411.11	36.125
411.47	36.423
411.83	35.782
412.18	35.521
412.54	36.330
412.89	35.468
413.25	36.943
413.60	36.211
413.96	35.890
414.31	36.463
414.67	36.562
415.03	36.285
415.38	35.901
415.74	37.980
416.09	38.406
416.45	36.529
416.80	36.352
417.16	36.878
417.51	36.642
417.87	37.353
418.22	36.917
418.58	37.057
418.93	36.614
419.29	36.684
419.64	35.969
420.00	36.839
420.35	37.134
420.71	37.728
421.06	37.324
421.42	37.500
421.77	37.514
422.12	37.174
422.48	37.574
422.83	37.181
423.19	38.093
423.54	37.625
423.90	37.750
424.25	38.634
424.61	38.984
424.96	37.456
425.31	38.879
425.67	38.087
426.02	39.517
426.38	38.885
426.73	38.680
427.09	39.051
427.44	39.412
427.79	39.599
428.15	38.774
428.50	39.673
428.85	37.899
429.21	38.993
429.56	38.383
429.92	38.572
430.27	37.945
430.62	38.003
430.98	38.535
431.33	39.642
431.68	38.043
432.04	38.849
432.39	38.734
432.74	38.244
433.10	40.000
433.45	39.008
433.80	38.770
434.16	38.892
434.51	39.409
434.86	40.012
435.22	38.194
435.57	39.551
435.92	39.521
436.28	39.117
436.63	38.962
436.98	39.050
437.34	39.262
437.69	40.131
438.04	40.228
438.39	39.585
438.75	39.769
439.10	39.219
439.45	40.901
439.81	39.694
440.16	40.855
440.51	40.299
440.86	41.269
441.22	40.271
441.57	38.962
441.92	40.609
442.27	39.745
442.63	40.096
442.98	39.862
443.33	39.844
443.68	39.947
444.03	40.636
444.39	40.138
444.74	41.862
445.09	39.922
445.44	39.772
445.79	41.258
446.15	40.914
446.50	40.821
446.85	41.020
447.20	40.928
447.55	40.625
447.91	41.060
448.26	41.434
448.61	41.105
448.96	41.136
449.31	40.983
449.66	40.883
450.02	41.700
450.37	40.664
450.72	40.607
451.07	42.152
451.42	40.762
451.77	41.169
452.12	40.969
452.47	41.275
452.83	40.754
453.18	40.987
453.53	40.518
453.88	40.316
454.23	40.504
454.58	41.751
454.93	40.013
455.28	40.317
455.63	40.980
455.98	40.890
456.34	40.996
456.69	41.487
457.04	42.218
457.39	40.340
457.74	40.931
458.09	39.317
458.44	40.901
458.79	40.616
459.14	40.961
459.49	41.254
459.84	41.060
460.19	40.595
460.54	40.770
460.89	40.170
461.24	40.124
461.59	40.796
461.94	39.811
462.29	41.194
462.64	41.063
462.99	40.691
463.34	40.682
463.69	40.283
464.04	40.678
464.39	40.267
464.74	40.061
465.09	39.988
465.44	40.681
465.79	39.909
466.14	40.251
466.49	39.965
466.84	41.880
467.19	41.051
467.54	40.613
467.89	40.872
468.24	40.572
468.59	41.397
468.94	40.127
469.29	41.508
469.64	40.123
469.99	40.925
470.34	39.863
470.68	41.760
471.03	39.349
471.38	41.512
471.73	41.036
472.08	39.688
472.43	41.879
472.78	40.370
473.13	41.497
473.48	41.238
473.83	40.473
474.17	41.710
474.52	40.970
474.87	40.485
475.22	40.024
475.57	40.090
475.92	40.867
476.27	40.629
476.61	41.030
476.96	39.989
477.31	40.887
477.66	40.337
478.01	40.539
478.36	40.414
478.70	41.816
479.05	41.813
479.40	40.329
479.75	39.990
480.10	40.758
480.45	40.200
480.79	41.793
481.14	40.318
481.49	40.591
481.84	41.023
482.19	40.692
482.53	41.487
482.88	40.191
483.23	39.779
483.58	40.189
483.92	40.755
484.27	39.243
484.62	39.713
484.97	39.594
485.31	39.053
485.66	38.689
486.01	38.774
486.36	38.141
486.70	38.180
487.05	38.798
487.40	38.625
487.75	39.070
488.09	38.752
488.44	39.546
488.79	39.970
489.13	40.825
489.48	39.846
489.83	40.314
490.17	40.090
490.52	40.647
490.87	39.750
491.22	41.500
491.56	39.184
491.91	39.818
492.26	40.544
492.60	40.115
492.95	41.367
493.30	38.984
493.64	41.061
493.99	40.580
494.34	39.612
494.68	40.238
495.03	39.805
495.37	40.432
495.72	40.636
496.07	40.195
496.41	40.755
496.76	40.212
497.11	39.730
497.45	40.143
497.80	41.726
498.14	40.487
498.49	40.528
498.84	39.321
499.18	40.964
499.53	40.625
499.87	39.932
500.22	40.504
500.56	40.645
500.91	40.361
501.26	40.138
501.60	40.826
501.95	40.854
502.29	40.145
502.64	40.685
502.98	40.207
503.33	39.433
503.67	40.289
504.02	40.958
504.36	40.327
504.71	39.444
505.06	40.312
505.40	39.442
505.75	41.289
506.09	40.193
506.44	41.119
506.78	40.867
507.13	40.900
507.47	40.888
507.82	41.774
508.16	40.993
508.51	40.294
508.85	41.287
509.19	40.341
509.54	39.517
509.88	39.428
510.23	41.151
510.57	40.941
510.92	39.659
511.26	41.571
511.61	41.584
511.95	40.219
512.30	41.574
512.64	41.235
512.98	41.101
513.33	42.138
513.67	40.932
514.02	42.105
514.36	41.943
514.70	40.851
515.05	42.656
515.39	42.208
515.74	43.293
516.08	42.200
516.42	42.697
516.77	41.252
517.11	42.967
517.46	41.352
517.80	41.657
518.14	42.805
518.49	41.406
518.83	42.892
519.17	41.358
519.52	42.155
519.86	42.317
520.20	43.378
520.55	42.214
520.89	42.535
521.23	43.129
521.58	42.208
521.92	43.141
522.26	42.420
522.61	42.662
522.95	44.371
523.29	43.266
523.64	42.122
523.98	44.200
524.32	41.237
524.66	42.574
525.01	42.857
525.35	43.098
525.69	43.030
526.04	43.386
526.38	44.358
526.72	42.904
527.06	43.839
527.41	43.734
527.75	43.499
528.09	43.256
528.43	44.902
528.78	43.432
529.12	42.194
529.46	43.405
529.80	42.749
530.15	44.092
530.49	42.963
530.83	44.254
531.17	43.049
531.51	45.622
531.86	43.304
532.20	43.424
532.54	44.248
532.88	43.943
533.22	42.809
533.57	43.316
533.91	43.407
534.25	44.141
534.59	41.501
534.93	43.046
535.27	43.147
535.62	41.672
535.96	42.988
536.30	43.338
536.64	43.970
536.98	44.878
537.32	44.381
537.66	44.670
538.01	45.105
538.35	44.383
538.69	44.274
539.03	43.267
539.37	43.338
539.71	44.172
540.05	44.263
540.39	44.875
540.73	42.817
541.07	45.442
541.42	45.161
541.76	44.597
542.10	44.047
542.44	45.587
542.78	43.221
543.12	43.201
543.46	44.159
543.80	44.622
544.14	42.390
544.48	42.905
544.82	44.771
545.16	43.989
545.50	44.059
545.84	44.972
546.18	45.106
546.52	44.989
546.86	43.350
547.20	44.993
547.54	44.735
547.88	45.448
548.22	42.669
548.56	44.327
548.90	45.553
549.24	42.906
549.58	46.615
549.92	44.675
550.26	45.275
550.60	45.353
550.94	44.735
551.28	44.822
551.62	45.231
551.96	43.985
552.30	45.687
552.64	45.769
552.98	45.359
553.32	44.365
553.66	44.557
554.00	45.912
554.34	45.273
554.68	44.395
555.02	44.940
555.36	44.652
555.69	43.663
556.03	44.397
556.37	45.196
556.71	45.487
557.05	45.116
557.39	44.907
557.73	46.402
558.07	46.305
558.41	45.406
558.75	45.284
559.08	45.942
559.42	45.317
559.76	45.156
560.10	44.037
560.44	45.421
560.78	45.385
561.12	45.839
561.45	46.030
561.79	46.078
562.13	45.777
562.47	45.396
562.81	45.677
563.15	45.346
563.48	46.959
563.82	46.397
564.16	46.309
564.50	45.338
564.84	45.382
565.17	46.546
565.51	46.790
565.85	45.610
566.19	46.684
566.52	46.649
566.86	45.501
567.20	45.704
567.54	44.951
567.88	46.749
568.21	45.249
568.55	45.217
568.89	44.969
569.23	44.680
569.56	44.046
569.90	44.783
570.24	43.990
570.57	44.836
570.91	43.743
571.25	43.801
571.59	43.008
571.92	42.400
572.26	42.452
572.60	42.915
572.93	42.705
573.27	43.166
573.61	43.258
573.95	42.900
574.28	42.797
574.62	41.876
574.96	41.960
575.29	42.428
575.63	41.487
575.97	42.586
576.30	42.676
576.64	42.331
576.98	43.475
577.31	43.082
577.65	42.936
577.98	42.540
578.32	42.252
578.66	41.908
578.99	42.302
579.33	42.818
579.67	42.544
580.00	43.190
580.34	42.612
580.67	42.854
581.01	43.084
581.35	42.786
581.68	43.062
582.02	42.448
582.35	42.136
582.69	42.774
583.02	42.213
583.36	43.009
583.70	43.769
584.03	43.786
584.37	44.918
584.70	43.544
585.04	43.394
585.37	43.440
585.71	43.619
586.04	43.621
586.38	43.372
586.72	43.587
587.05	44.339
587.39	44.255
587.72	44.997
588.06	44.229
588.39	44.432
588.73	44.261
589.06	45.173
589.40	44.556
589.73	46.039
590.07	45.468
590.40	45.937
590.73	46.911
591.07	47.286
591.40	46.527
591.74	45.656
592.07	45.918
592.41	46.599
592.74	45.360
593.08	44.813
593.41	45.140
593.75	43.997
594.08	45.108
594.41	44.869
594.75	44.885
595.08	45.327
595.42	45.675
595.75	46.414
596.09	46.013
596.42	46.011
596.75	47.380
597.09	46.105
597.42	47.019
597.75	47.137
598.09	45.722
598.42	46.345
598.76	46.375
599.09	45.713
599.42	45.055
599.76	45.899
600.09	45.400
600.42	45.754
600.76	45.097
601.09	45.725
601.42	45.163
601.76	45.971
602.09	46.411
602.42	46.799
602.76	46.986
603.09	47.051
603.42	47.659
603.76	45.766
604.09	46.537
604.42	47.081
604.76	48.376
605.09	47.441
605.42	47.630
605.75	47.067
606.09	46.030
606.42	46.080
606.75	47.056
607.09	47.297
607.42	46.788
607.75	47.380
608.08	46.721
608.42	45.866
608.75	48.434
609.08	48.082
609.41	48.680
609.75	47.833
610.08	47.928
610.41	46.715
610.74	48.123
611.07	48.010
611.41	48.884
611.74	48.827
612.07	47.698
612.40	49.781
612.73	48.701
613.07	48.256
613.40	49.015
613.73	48.797
614.06	48.191
614.39	48.336
614.72	47.955
615.06	48.212
615.39	46.725
615.72	47.255
616.05	48.492
616.38	48.091
616.71	49.725
617.05	49.907
617.38	49.340
617.71	48.931
618.04	50.159
618.37	50.000
618.70	50.759
619.03	51.597
619.36	49.711
619.69	50.114
620.03	53.324
620.36	50.572
620.69	50.607
621.02	50.000
621.35	52.697
621.68	52.806
622.01	52.083
622.34	51.875
622.67	50.631
623.00	51.838
623.33	51.448
623.66	51.458
623.99	50.605
624.32	51.787
624.65	50.752
624.99	51.091
625.32	52.312
625.65	51.846
625.98	52.538
626.31	52.369
626.64	52.340
626.97	53.839
627.30	52.802
627.63	52.426
627.96	52.920
628.29	54.487
628.62	54.671
628.95	54.008
629.28	54.133
629.61	53.739
629.94	54.839
630.26	52.866
630.59	55.255
630.92	53.538
631.25	53.436
631.58	56.388
631.91	55.263
632.24	54.014
632.57	56.591
632.90	56.346
633.23	55.412
633.56	57.809
633.89	55.980
634.22	58.025
634.55	56.798
634.88	55.811
635.20	55.897
635.53	55.467
635.86	57.737
636.19	58.473
636.52	57.398
636.85	56.328
637.18	54.340
637.51	56.478
637.83	57.424
638.16	58.527
638.49	55.586
638.82	57.237
639.15	57.259
639.48	56.534
639.81	57.462
640.13	59.019
640.46	58.309
640.79	56.996
641.12	55.835
641.45	54.505
641.77	56.593
642.10	58.926
642.43	57.717
642.76	58.746
643.09	59.289
643.41	57.929
643.74	57.166
644.07	59.113
644.40	59.459
644.73	61.471
645.05	57.718
645.38	60.141
645.71	60.106
646.04	61.041
646.36	60.284
646.69	60.252
647.02	61.815
647.35	58.955
647.67	58.501
648.00	60.821
648.33	57.167
648.66	57.458
648.98	58.124
649.31	60.496
649.64	56.044
649.96	59.806
650.29	59.625
650.62	58.632
650.94	61.481
651.27	60.521
651.60	62.703
651.92	57.517
652.25	58.082
652.58	61.333
652.90	60.206
653.23	57.479
653.56	58.545
653.88	61.512
654.21	59.370
654.54	58.913
654.86	60.781
655.19	58.333
655.52	55.186
655.84	49.376
656.17	54.100
656.49	73.064
656.82	75.741
657.15	57.817
657.47	43.804
657.80	32.754
658.13	32.119
658.45	50.845
658.78	51.138
659.10	51.207
659.43	52.514
659.75	54.465
660.08	55.379
660.41	58.938
660.73	61.050
661.06	59.099
661.38	61.448
661.71	60.575
662.03	62.446
662.36	62.857
662.68	61.726
663.01	64.192
663.33	63.573
663.66	61.395
663.98	61.860
664.31	60.981
664.63	59.908
664.96	58.478
665.28	59.382
665.61	62.987
665.93	64.565
666.26	61.388
666.58	63.087
666.91	62.353
667.23	63.208
667.56	66.825
667.88	60.192
668.21	63.484
668.53	64.775
668.86	63.915
669.18	61.085
669.50	61.501
669.83	59.302
670.15	62.005
670.48	63.158
670.80	62.442
671.13	60.179
671.45	60.046
671.77	61.159
672.10	58.020
672.42	60.674
672.75	58.970
673.07	61.002
673.39	60.183
673.72	59.566
674.04	60.417
674.37	62.500
674.69	61.028
675.01	60.444
675.34	60.811
675.66	68.056
675.98	60.532
676.31	61.927
676.63	64.846
676.95	58.636
677.28	61.176
677.60	61.928
677.92	61.239
678.25	59.737
678.57	62.554
678.89	60.294
679.22	62.192
679.54	59.237
679.86	57.455
680.18	59.806
680.51	62.121
680.83	59.245
681.15	60.000
681.48	64.139
681.80	63.430
682.12	61.492
682.44	61.088
682.77	66.446
683.09	58.810
683.41	58.409
683.73	62.212
684.06	63.717
684.38	59.355
684.70	63.181
685.02	61.826
685.34	60.474
685.67	62.101
685.99	58.770
686.31	58.584
686.63	61.224
686.96	58.935
687.28	61.616
687.60	58.935
687.92	61.010
688.24	60.484
688.56	62.227
688.89	64.732
689.21	65.778
689.53	61.717
689.85	59.535
690.17	60.714
690.49	63.357
690.82	60.437
691.14	59.286
691.46	61.916
691.78	62.162
692.10	63.011
692.42	62.554
692.74	59.402
693.06	59.910
693.39	60.181
693.71	60.407
694.03	62.125
694.35	61.916
694.67	61.111
694.99	61.097
695.31	63.185
695.63	62.500
695.95	61.364
696.27	60.104
696.59	67.500
696.91	66.106
697.23	58.355
697.56	62.376
697.88	60.430
698.20	62.870
698.52	59.529
698.84	57.895
699.16	60.250
699.48	61.404
699.80	63.027
700.12	64.960
700.44	64.986
700.76	63.372
701.08	61.212
701.40	60.542
701.72	65.123
702.04	65.017
702.36	65.886
702.68	66.066
703.00	64.848
703.32	59.238
703.64	54.237
703.96	61.739
704.28	65.644
704.60	65.079
704.91	62.461
705.23	65.449
705.55	67.138
705.87	70.758
706.19	65.185
706.51	63.918
706.83	61.736
707.15	57.632
707.47	62.745
707.79	63.021
708.11	59.250
708.43	60.750
708.74	59.432
709.06	67.606
709.38	62.691
709.70	65.976
710.02	60.510
710.34	64.087
710.66	59.615
710.98	68.543
711.29	64.262
711.61	66.102
711.93	64.821
712.25	70.447
712.57	67.766
712.89	66.418
713.20	64.360
713.52	63.066
713.84	59.386
714.16	67.010
714.48	66.129
714.80	62.500
715.11	61.702
715.43	63.950
715.75	62.667
716.07	63.455
716.39	59.060
716.70	62.731
717.02	63.740
717.34	66.397
717.66	64.602
717.97	69.130
718.29	66.946
718.61	62.205
718.93	63.953
719.24	65.779
719.56	69.076
719.88	61.168
720.20	62.121
720.51	58.621
720.83	63.707
721.15	69.328
721.46	63.710
721.78	62.846
722.10	60.595
722.42	66.805
722.73	63.265
723.05	73.469
723.37	65.254
723.68	65.766
724.00	64.530
724.32	58.667
724.63	66.818
724.95	65.066
725.27	66.820
725.58	63.136
725.90	60.714
726.22	62.548
726.53	62.373
726.85	63.670
727.16	63.019
727.48	61.538
727.80	64.372
728.11	63.136
728.43	60.392
728.74	57.661
729.06	67.600
729.38	65.414
729.69	60.558
730.01	54.615
730.32	64.552
730.64	57.597
730.96	61.132
731.27	59.333
731.59	61.695
731.90	60.510
732.22	61.830
732.53	63.123
732.85	60.284
733.16	64.646
733.48	60.072
733.80	63.043
734.11	61.017
734.43	57.732
734.74	61.212
735.06	62.541
735.37	59.819
735.69	60.943
736.00	57.840
736.32	63.423
736.63	66.197
736.95	64.505
737.26	62.633
737.58	58.725
737.89	62.637
738.21	63.158
738.52	68.313
738.83	62.009
739.15	60.262
739.46	62.598
739.78	57.875
740.09	59.804
740.41	62.319
740.72	59.843
741.04	57.490
741.35	64.255
741.66	60.190
741.98	64.286
742.29	69.307
742.61	69.634
742.92	60.664
743.23	59.259
743.55	66.063
743.86	59.330
744.18	61.244
744.49	66.489
744.80	71.196
745.12	68.984
745.43	60.488
745.74	66.146
746.06	67.805
746.37	63.351
746.68	63.507
747.00	64.894
747.31	63.184
747.62	63.592
747.94	64.115
748.25	61.386
748.56	66.667
748.88	64.398
749.19	71.277
749.50	65.025
749.82	62.736
750.13	67.431
750.44	60.526
750.75	61.940
751.07	65.328
751.38	60.536
751.69	61.176
752.01	64.729
752.32	58.167
752.63	58.893
752.94	64.655
753.26	67.782
753.57	66.516
753.88	63.274
754.19	60.000
754.51	64.463
754.82	67.206
755.13	67.917
755.44	59.274
755.75	58.984
756.07	66.537
756.38	60.377
756.69	61.303
757.00	58.333
757.31	59.150
757.63	59.451
757.94	56.111
758.25	60.274
758.56	56.117
758.87	54.391
759.18	56.386
759.50	61.818
759.81	62.542
760.12	59.032
760.43	56.364
760.74	59.877
761.05	57.538
761.36	55.114
761.67	61.818
761.99	61.224
762.30	59.636
762.61	54.150
762.92	54.299
763.23	59.459
763.54	61.682
763.85	60.593
764.16	53.527
764.47	58.468
764.78	54.945
765.10	56.902
765.41	57.098
765.72	57.460
766.03	62.406
766.34	58.394
766.65	63.347
766.96	64.646
767.27	61.702
767.58	58.621
767.89	65.248
768.20	56.818
768.51	62.637
768.82	56.158
769.13	56.682
769.44	59.657
769.75	60.274
770.06	61.638
770.37	61.538
770.68	64.975
770.99	56.561
771.30	66.667
771.61	58.371
771.92	61.207
772.23	66.995
772.54	68.280
772.85	65.432
773.16	63.483
773.47	74.510
773.78	64.052
774.09	62.275
774.39	60.667
774.70	60.510
775.01	77.241
775.32	58.571
775.63	64.463
775.94	62.595
776.25	63.780
776.56	57.500
776.87	66.346
777.18	58.974
777.48	68.103
777.79	62.609
778.10	62.857
778.41	66.667
778.72	60.317
779.03	57.895
779.34	60.993
779.65	65.753
779.95	52.740
780.26	71.724
780.57	56.911
780.88	63.780
781.19	66.379
781.50	67.442
781.80	57.988
782.11	52.830
782.42	66.154
782.73	65.468
783.04	65.185
783.34	54.861
783.65	57.265
783.96	72.951
784.27	66.207
784.57	66.667
784.88	64.844
785.19	69.000
785.50	78.000
785.81	57.759
786.11	59.483
786.42	57.282
786.73	65.455
787.04	59.184
787.34	52.679
787.65	69.524
787.96	50.442
788.26	62.727
788.57	72.650
788.88	60.938
789.19	50.794
789.49	58.261
789.80	68.367
790.11	67.677
790.41	64.545
790.72	71.739
791.03	64.773
791.33	68.750
791.64	65.000
791.95	72.093
792.25	68.085
792.56	70.787
792.87	65.753
793.17	76.812
793.48	64.000
793.79	48.750
794.09	68.750
794.40	62.264
794.70	60.194
795.01	54.472
795.32	58.974
795.62	69.524
795.93	67.647
796.23	50.943
796.54	65.625
796.85	85.294
797.15	52.113
797.46	62.500
797.76	83.333
798.07	54.651
798.37	61.842
798.68	56.061
798.99	65.432
799.29	58.571
799.60	76.812
799.90	69.333
800.21	73.770
800.51	70.769
800.82	66.102
801.12	60.870
801.43	81.967
801.73	60.317
802.04	64.000
802.34	47.761
802.65	75.000
802.95	55.357
803.26	65.385
803.56	64.706
803.87	78.261
804.17	57.333
804.48	73.016
804.78	59.259
805.09	63.043
805.39	46.667
805.70	66.667
806.00	43.860
806.30	59.155
806.61	67.143
806.91	62.500
807.22	64.474
807.52	66.667
807.83	78.182
808.13	52.778
808.43	73.529
808.74	55.224
809.04	55.932
809.35	55.769
809.65	71.875
809.95	43.243
810.26	52.273
810.56	63.014
810.86	69.048
811.17	64.000
811.47	77.551
811.77	44.737
812.08	61.364
812.38	47.170
812.69	70.000
812.99	60.606
813.29	57.895
813.59	37.143
813.90	52.273
814.20	56.410
814.50	61.538
814.81	69.811
815.11	63.830
815.41	66.102
815.72	52.381
816.02	84.314
816.32	60.417
816.62	68.293
816.93	48.649
817.23	65.714
817.53	77.083
817.84	60.870
818.14	57.692
818.44	65.789
818.74	84.783
819.04	22.500
819.35	72.973
819.65	55.882
819.95	52.778
820.25	76.190
820.56	82.500
820.86	24.138
821.16	77.500
821.46	72.340
821.76	110.000
822.07	46.512
822.37	29.730
822.67	59.375
822.97	59.524
823.27	57.143
823.57	84.000
823.88	55.556
824.18	64.286
824.48	91.176
824.78	61.290
825.08	78.261
825.38	78.788
825.69	16.667
825.99	81.579
826.29	52.778
826.59	106.667
826.89	23.810
827.19	47.826
827.49	62.500
827.79	65.714
828.09	92.857
828.39	69.697
828.70	91.892
829.00	46.429
829.30	85.714
829.60	36.667
829.90	50.000
830.20	44.737
830.50	55.556
830.80	56.522
831.10	100.000
831.40	81.818
831.70	80.645
832.00	123.810
832.30	38.095
832.60	16.667
832.90	51.724
833.20	30.000
833.50	84.848
833.80	59.259
834.10	76.923
834.40	71.875
834.70	100.000
835.00	110.526
835.30	130.769
835.60	120.000
835.90	74.194
836.20	50.000
836.50	85.714
836.80	42.308
837.10	60.714
837.40	233.333
837.70	72.727
838.00	145.455
838.30	47.826
838.60	107.692
838.90	59.091
839.19	35.714
839.49	60.000
839.79	146.154
840.09	33.333
840.39	75.000
840.69	32.143
840.99	38.462
841.29	47.368
841.59	100.000
841.88	200.000
842.18	150.000
842.48	75.000
842.78	86.667
843.08	81.481
843.38	50.000
843.68	56.522
843.97	86.667
844.27	33.333
844.57	75.000
844.87	55.556
845.17	52.381
845.47	100.000
845.76	-14.286
846.06	70.588
846.36	90.000
846.66	78.571
846.96	40.000
847.25	-25.000
847.55	71.429
847.85	125.000
848.15	45.455
848.44	100.000
848.74	60.000
849.04	74.074
849.34	81.818
849.63	100.000
849.93	-20.000
850.23	38.889
850.53	190.000
850.82	38.462
851.12	111.111
851.42	40.000
851.71	57.692
852.01	78.571
852.31	75.000
852.61	45.455
852.90	60.000
853.20	36.842
853.50	8.333
853.79	43.478
854.09	83.333
854.39	115.789
854.68	54.167
854.98	77.419
855.28	50.000
855.57	55.000
855.87	122.222
856.17	81.481
856.46	57.143
856.76	33.333
857.05	200.000
857.35	80.000
857.65	100.000
857.94	115.385
858.24	58.621
858.53	100.000
858.83	111.111
859.13	36.364
859.42	26.087
859.72	-150.000
860.01	266.667
860.31	56.000
860.60	42.857
860.90	100.000
861.20	86.667
861.49	100.000
861.79	106.667
862.08	55.000
862.38	100.000
862.67	160.000
862.97	133.333
863.26	141.667
863.56	83.333
863.85	166.667
864.15	38.889
864.44	80.000
864.74	85.714
865.03	-175.000
865.33	-20.000
865.62	216.667
865.92	58.333
866.21	0.000
866.51	37.500
866.80	54.545
867.10	-50.000
867.39	108.333
867.69	0.000
867.98	38.462
868.27	333.333
868.57	46.667
868.86	72.222
869.16	-23.077
869.45	80.000
869.75	-200.000
870.04	0.000
870.33	85.714
870.63	47.619
870.92	-266.667
871.22	-140.000
871.51	-400.000
871.80	144.444
872.10	-66.667
>>>>>End Processed Spectral Data<<<<<
