SpectraSuite Data File
++++++++++++++++++++++++++++++++++++
Date: Fri May 15 17:13:03 PDT 2015
User: schluterlab
Dark Spectrum Present: Yes
Reference Spectrum Present: Yes
Number of Sampled Component Spectra: 1
Spectrometers: USB2E3373
Integration Time (usec): 3000 (USB2E3373)
Spectra Averaged: 3 (USB2E3373)
Boxcar Smoothing: 0 (USB2E3373)
Correct for Electrical Dark: No (USB2E3373)
Strobe/Lamp Enabled: No (USB2E3373)
Correct for Detector Non-linearity: No (USB2E3373)
Correct for Stray Light: No (USB2E3373)
Number of Pixels in Processed Spectrum: 2048
>>>>>Begin Processed Spectral Data<<<<<
178.53	0.000
178.91	0.000
179.29	162.500
179.67	-600.000
180.04	-14.286
180.42	275.000
180.80	600.000
181.18	-133.333
181.56	200.000
181.94	250.000
182.31	500.000
182.69	140.000
183.07	0.000
183.45	-80.000
183.83	50.000
184.20	36.364
184.58	22.222
184.96	-300.000
185.34	133.333
185.72	-150.000
186.09	61.538
186.47	-600.000
186.85	83.333
187.23	66.667
187.61	-1200.000
187.98	0.000
188.36	122.222
188.74	-200.000
189.12	105.882
189.49	116.667
189.87	0.000
190.25	100.000
190.63	200.000
191.00	-66.667
191.38	63.158
191.76	550.000
192.14	-75.000
192.51	150.000
192.89	33.333
193.27	14.286
193.65	183.333
194.02	72.727
194.40	50.000
194.78	-112.500
195.15	33.333
195.53	-137.500
195.91	-25.000
196.29	100.000
196.66	15.385
197.04	-28.571
197.42	133.333
197.79	-233.333
198.17	-69.231
198.55	1400.000
198.92	66.667
199.30	600.000
199.68	-80.000
200.05	0.000
200.43	0.000
200.81	-33.333
201.18	333.333
201.56	300.000
201.94	200.000
202.31	-266.667
202.69	160.000
203.07	-75.000
203.44	800.000
203.82	0.000
204.19	71.429
204.57	-533.333
204.95	-125.000
205.32	60.000
205.70	100.000
206.08	225.000
206.45	222.222
206.83	128.571
207.20	14.286
207.58	-0.000
207.96	-100.000
208.33	-90.000
208.71	125.000
209.08	-33.333
209.46	-200.000
209.84	40.000
210.21	-800.000
210.59	-28.571
210.96	200.000
211.34	-75.000
211.71	53.333
212.09	-14.286
212.46	-1800.000
212.84	0.000
213.22	120.000
213.59	-150.000
213.97	84.615
214.34	72.727
214.72	83.333
215.09	100.000
215.47	46.154
215.84	-9.091
216.22	-200.000
216.59	62.500
216.97	150.000
217.34	-25.000
217.72	60.000
218.09	37.500
218.47	62.500
218.84	-600.000
219.22	-11.111
219.59	60.000
219.97	-0.000
220.34	100.000
220.72	85.714
221.09	-50.000
221.47	-600.000
221.84	-200.000
222.22	-550.000
222.59	72.727
222.97	108.333
223.34	66.667
223.72	0.000
224.09	19.048
224.46	75.000
224.84	-166.667
225.21	30.000
225.59	46.667
225.96	250.000
226.34	50.000
226.71	42.857
227.08	116.667
227.46	225.000
227.83	-750.000
228.21	44.444
228.58	90.909
228.95	125.000
229.33	50.000
229.70	81.250
230.08	-12.500
230.45	-71.429
230.82	100.000
231.20	0.000
231.57	85.714
231.95	142.857
232.32	10.000
232.69	85.714
233.07	400.000
233.44	200.000
233.81	40.000
234.19	55.556
234.56	11.765
234.93	50.000
235.31	75.000
235.68	-120.000
236.05	-15.385
236.43	-20.000
236.80	64.706
237.17	12.500
237.55	10.000
237.92	3.704
238.29	0.000
238.67	23.333
239.04	29.412
239.41	-7.317
239.79	16.667
240.16	19.512
240.53	13.158
240.91	-6.522
241.28	11.111
241.65	17.857
242.02	20.548
242.40	-5.000
242.77	13.559
243.14	12.121
243.51	13.750
243.89	29.885
244.26	4.598
244.63	4.762
245.00	8.247
245.38	10.309
245.75	-10.112
246.12	0.862
246.49	8.264
246.87	21.154
247.24	-2.521
247.61	-7.018
247.98	6.504
248.36	10.000
248.73	7.237
249.10	4.545
249.47	-1.899
249.84	1.961
250.22	5.882
250.59	-0.654
250.96	8.920
251.33	2.326
251.70	2.353
252.08	4.061
252.45	-0.495
252.82	1.508
253.19	4.608
253.56	-1.402
253.94	7.207
254.31	3.913
254.68	6.140
255.05	3.937
255.42	3.493
255.79	8.108
256.16	1.946
256.54	3.731
256.91	6.084
257.28	6.320
257.65	0.375
258.02	4.965
258.39	9.428
258.76	8.059
259.14	9.635
259.51	4.531
259.88	4.811
260.25	-2.941
260.62	4.167
260.99	-0.339
261.36	3.082
261.73	1.899
262.10	3.951
262.47	1.534
262.85	2.821
263.22	2.769
263.59	5.919
263.96	8.385
264.33	4.545
264.70	0.298
265.07	2.083
265.44	1.700
265.81	4.520
266.18	5.738
266.55	6.427
266.92	5.959
267.29	3.655
267.66	6.650
268.03	2.618
268.40	3.133
268.77	5.882
269.14	5.276
269.51	7.455
269.88	3.242
270.25	2.041
270.62	1.463
270.99	1.279
271.36	2.934
271.73	3.286
272.10	5.353
272.47	4.728
272.84	3.465
273.21	7.425
273.58	6.024
273.95	3.890
274.32	2.079
274.69	4.977
275.06	4.911
275.43	2.948
275.80	3.311
276.17	1.839
276.54	3.212
276.91	4.386
277.28	5.022
277.65	4.545
278.02	3.404
278.39	3.939
278.76	4.612
279.13	1.660
279.50	3.782
279.87	4.536
280.23	1.720
280.60	5.263
280.97	4.848
281.34	2.500
281.71	5.544
282.08	1.840
282.45	2.740
282.82	2.896
283.19	2.321
283.56	3.083
283.92	2.467
284.29	3.846
284.66	2.519
285.03	3.536
285.40	4.348
285.77	2.460
286.14	5.596
286.51	4.613
286.87	3.839
287.24	2.026
287.61	2.646
287.98	5.439
288.35	3.640
288.72	4.904
289.08	2.604
289.45	4.569
289.82	5.070
290.19	2.218
290.56	2.573
290.93	2.020
291.29	2.311
291.66	4.882
292.03	3.509
292.40	2.581
292.77	2.552
293.13	3.409
293.50	2.731
293.87	4.427
294.24	3.555
294.60	3.130
294.97	3.571
295.34	4.908
295.71	2.981
296.08	2.242
296.44	0.284
296.81	3.611
297.18	3.188
297.55	4.065
297.91	2.740
298.28	4.485
298.65	3.121
299.02	2.426
299.38	0.958
299.75	2.207
300.12	3.010
300.48	2.108
300.85	3.676
301.22	2.987
301.59	3.684
301.95	4.177
302.32	4.280
302.69	3.234
303.05	3.837
303.42	4.234
303.79	3.388
304.15	3.226
304.52	1.427
304.89	2.573
305.25	1.937
305.62	2.567
305.99	2.456
306.35	2.775
306.72	2.250
307.09	3.307
307.45	4.707
307.82	2.083
308.19	4.181
308.55	1.854
308.92	1.743
309.29	1.453
309.65	2.260
310.02	3.520
310.38	2.854
310.75	3.388
311.12	2.691
311.48	2.545
311.85	2.723
312.22	2.426
312.58	3.822
312.95	2.988
313.31	2.899
313.68	2.618
314.05	3.163
314.41	3.299
314.78	4.227
315.14	4.317
315.51	3.727
315.87	2.357
316.24	4.550
316.61	4.134
316.97	5.159
317.34	4.297
317.70	4.111
318.07	4.519
318.43	4.902
318.80	4.167
319.16	5.762
319.53	5.698
319.89	4.528
320.26	5.364
320.62	5.617
320.99	5.010
321.35	5.858
321.72	6.542
322.08	5.942
322.45	6.091
322.81	8.055
323.18	6.281
323.54	7.432
323.91	7.692
324.27	8.203
324.64	8.895
325.00	11.040
325.37	11.387
325.73	9.157
326.10	10.536
326.46	12.197
326.83	10.936
327.19	11.857
327.56	12.772
327.92	13.028
328.29	13.214
328.65	14.245
329.01	15.074
329.38	15.853
329.74	15.864
330.11	17.516
330.47	17.532
330.84	17.500
331.20	19.772
331.56	17.963
331.93	19.909
332.29	20.073
332.66	20.090
333.02	22.398
333.38	21.632
333.75	23.993
334.11	23.008
334.48	24.569
334.84	24.908
335.20	25.526
335.57	25.385
335.93	25.565
336.29	26.888
336.66	26.612
337.02	25.836
337.38	26.481
337.75	26.273
338.11	26.871
338.47	27.281
338.84	28.651
339.20	29.068
339.56	28.165
339.93	29.991
340.29	28.716
340.65	28.763
341.02	27.926
341.38	28.230
341.74	28.445
342.11	28.943
342.47	29.004
342.83	29.412
343.20	27.526
343.56	28.783
343.92	28.521
344.28	29.035
344.65	29.879
345.01	29.905
345.37	28.932
345.73	29.372
346.10	29.336
346.46	30.530
346.82	28.887
347.19	29.011
347.55	29.908
347.91	29.773
348.27	28.618
348.63	29.813
349.00	28.876
349.36	28.678
349.72	29.685
350.08	30.000
350.45	29.449
350.81	28.904
351.17	28.664
351.53	29.878
351.89	28.654
352.26	28.000
352.62	29.516
352.98	28.353
353.34	29.066
353.70	30.259
354.07	29.839
354.43	29.704
354.79	28.076
355.15	29.603
355.51	29.430
355.87	29.531
356.24	28.874
356.60	28.779
356.96	29.921
357.32	28.914
357.68	28.694
358.04	27.868
358.40	29.904
358.77	30.702
359.13	29.303
359.49	28.659
359.85	29.407
360.21	29.904
360.57	29.227
360.93	29.728
361.29	29.079
361.66	30.486
362.02	30.000
362.38	29.779
362.74	29.296
363.10	31.603
363.46	30.022
363.82	32.156
364.18	29.889
364.54	28.897
364.90	30.251
365.26	29.112
365.62	31.679
365.98	30.352
366.35	30.808
366.71	30.377
367.07	31.350
367.43	30.841
367.79	29.682
368.15	30.151
368.51	31.828
368.87	29.935
369.23	31.625
369.59	31.050
369.95	31.085
370.31	30.925
370.67	31.343
371.03	30.246
371.39	29.468
371.75	31.648
372.11	30.528
372.47	31.805
372.83	31.583
373.19	30.742
373.55	30.108
373.91	31.605
374.27	31.680
374.63	31.945
374.99	31.773
375.35	30.780
375.71	32.028
376.07	32.654
376.42	32.585
376.78	32.215
377.14	32.295
377.50	32.669
377.86	32.999
378.22	31.525
378.58	32.885
378.94	31.569
379.30	33.437
379.66	33.668
380.02	33.109
380.38	32.988
380.74	32.735
381.09	34.172
381.45	33.272
381.81	32.943
382.17	33.820
382.53	33.104
382.89	34.463
383.25	34.350
383.61	34.634
383.97	33.143
384.32	33.896
384.68	34.180
385.04	34.007
385.40	34.101
385.76	36.164
386.12	35.640
386.48	35.568
386.83	35.574
387.19	35.104
387.55	35.257
387.91	35.269
388.27	35.104
388.62	35.116
388.98	35.421
389.34	35.041
389.70	35.799
390.06	35.368
390.42	35.881
390.77	35.971
391.13	35.246
391.49	35.834
391.85	36.257
392.20	35.468
392.56	36.109
392.92	35.760
393.28	35.908
393.64	35.736
393.99	36.050
394.35	35.357
394.71	36.207
395.07	35.512
395.42	35.337
395.78	36.156
396.14	36.381
396.50	37.159
396.85	36.188
397.21	35.777
397.57	35.862
397.92	35.770
398.28	36.782
398.64	36.265
399.00	35.779
399.35	35.609
399.71	35.210
400.07	37.243
400.42	35.618
400.78	35.824
401.14	35.632
401.49	36.927
401.85	34.796
402.21	36.145
402.57	36.375
402.92	33.877
403.28	36.905
403.63	37.074
403.99	36.097
404.35	35.978
404.70	35.476
405.06	35.488
405.42	35.861
405.77	35.096
406.13	36.030
406.49	35.702
406.84	35.391
407.20	36.303
407.55	35.029
407.91	34.492
408.27	35.819
408.62	35.508
408.98	35.551
409.34	35.812
409.69	34.432
410.05	34.667
410.40	35.494
410.76	35.404
411.11	35.000
411.47	34.911
411.83	33.773
412.18	35.135
412.54	34.582
412.89	35.283
413.25	35.379
413.60	35.155
413.96	33.988
414.31	35.122
414.67	35.536
415.03	34.354
415.38	34.008
415.74	36.026
416.09	35.924
416.45	36.327
416.80	35.162
417.16	36.809
417.51	34.910
417.87	35.593
418.22	35.946
418.58	36.187
418.93	35.925
419.29	35.403
419.64	37.395
420.00	36.524
420.35	37.433
420.71	37.060
421.06	37.446
421.42	37.620
421.77	37.514
422.12	36.947
422.48	36.329
422.83	35.847
423.19	36.569
423.54	36.508
423.90	37.161
424.25	38.002
424.61	37.760
424.96	37.456
425.31	39.457
425.67	38.380
426.02	39.812
426.38	39.011
426.73	39.104
427.09	39.747
427.44	38.765
427.79	38.656
428.15	39.017
428.50	39.249
428.85	38.329
429.21	39.785
429.56	40.755
429.92	39.548
430.27	38.647
430.62	39.937
430.98	39.066
431.33	39.590
431.68	39.665
432.04	39.407
432.39	40.103
432.74	38.605
433.10	40.690
433.45	40.263
433.80	40.859
434.16	40.111
434.51	40.753
434.86	41.057
435.22	41.784
435.57	42.109
435.92	41.138
436.28	41.264
436.63	41.358
436.98	40.904
437.34	41.077
437.69	41.801
438.04	42.336
438.39	42.395
438.75	43.109
439.10	43.011
439.45	42.848
439.81	42.569
440.16	42.993
440.51	44.299
440.86	45.015
441.22	42.477
441.57	43.653
441.92	43.809
442.27	44.013
442.63	44.486
442.98	43.768
443.33	42.960
443.68	44.085
444.03	45.007
444.39	43.630
444.74	44.872
445.09	45.713
445.44	44.387
445.79	46.003
446.15	45.099
446.50	44.925
446.85	45.590
447.20	45.620
447.55	45.592
447.91	45.121
448.26	45.987
448.61	45.193
448.96	45.841
449.31	45.202
449.66	47.503
450.02	46.378
450.37	46.829
450.72	46.220
451.07	45.253
451.42	46.567
451.77	45.931
452.12	46.591
452.47	46.491
452.83	47.703
453.18	46.553
453.53	45.765
453.88	47.905
454.23	47.326
454.58	47.733
454.93	48.389
455.28	45.651
455.63	47.551
455.98	47.925
456.34	48.020
456.69	47.205
457.04	47.259
457.39	48.846
457.74	49.033
458.09	47.440
458.44	47.455
458.79	48.291
459.14	47.826
459.49	49.134
459.84	48.111
460.19	48.544
460.54	49.756
460.89	48.750
461.24	49.193
461.59	49.703
461.94	47.610
462.29	50.000
462.64	48.306
462.99	47.800
463.34	49.026
463.69	49.421
464.04	50.061
464.39	47.787
464.74	48.589
465.09	48.784
465.44	48.932
465.79	48.526
466.14	49.373
466.49	50.201
466.84	50.565
467.19	49.875
467.54	48.531
467.89	48.515
468.24	49.513
468.59	50.413
468.94	50.032
469.29	49.377
469.64	51.059
469.99	51.997
470.34	50.990
470.68	51.752
471.03	52.512
471.38	50.214
471.73	50.560
472.08	49.593
472.43	51.745
472.78	50.857
473.13	51.633
473.48	50.489
473.83	49.938
474.17	52.008
474.52	51.563
474.87	50.727
475.22	50.885
475.57	51.383
475.92	51.454
476.27	50.233
476.61	51.910
476.96	51.701
477.31	51.541
477.66	51.348
478.01	51.432
478.36	51.852
478.70	51.876
479.05	50.989
479.40	52.146
479.75	51.773
480.10	51.664
480.45	51.050
480.79	53.021
481.14	52.049
481.49	51.773
481.84	51.882
482.19	51.216
482.53	52.518
482.88	52.506
483.23	51.392
483.58	51.462
483.92	51.162
484.27	50.866
484.62	51.995
484.97	51.907
485.31	51.264
485.66	50.188
486.01	50.363
486.36	49.791
486.70	50.523
487.05	50.034
487.40	50.543
487.75	51.634
488.09	50.865
488.44	51.651
488.79	51.476
489.13	53.365
489.48	52.971
489.83	52.242
490.17	53.708
490.52	52.794
490.87	52.244
491.22	53.391
491.56	52.799
491.91	53.442
492.26	52.990
492.60	53.167
492.95	53.910
493.30	52.858
493.64	53.733
493.99	53.237
494.34	53.883
494.68	53.524
495.03	52.409
495.37	54.024
495.72	53.407
496.07	53.659
496.41	52.453
496.76	53.386
497.11	51.188
497.45	54.463
497.80	55.247
498.14	53.105
498.49	54.038
498.84	54.092
499.18	54.618
499.53	53.522
499.87	53.453
500.22	54.204
500.56	54.312
500.91	53.614
501.26	53.633
501.60	54.107
501.95	54.003
502.29	53.027
502.64	54.875
502.98	54.909
503.33	53.987
503.67	53.928
504.02	55.132
504.36	55.369
504.71	54.798
505.06	53.347
505.40	55.228
505.75	54.948
506.09	54.942
506.44	55.749
506.78	55.204
507.13	55.429
507.47	55.352
507.82	55.395
508.16	54.834
508.51	56.873
508.85	55.154
509.19	55.295
509.54	55.442
509.88	55.717
510.23	54.599
510.57	55.852
510.92	53.945
511.26	56.519
511.61	55.336
511.95	55.562
512.30	55.654
512.64	55.259
512.98	55.755
513.33	56.407
513.67	55.884
514.02	57.494
514.36	57.143
514.70	57.284
515.05	58.226
515.39	55.372
515.74	57.904
516.08	57.800
516.42	57.892
516.77	57.870
517.11	57.982
517.46	57.510
517.80	57.986
518.14	56.950
518.49	56.611
518.83	56.926
519.17	56.580
519.52	56.009
519.86	56.663
520.20	58.141
520.55	57.786
520.89	57.654
521.23	56.681
521.58	58.549
521.92	58.718
522.26	57.775
522.61	57.208
522.95	59.404
523.29	57.560
523.64	58.831
523.98	58.911
524.32	56.314
524.66	58.515
525.01	58.182
525.35	58.263
525.69	59.125
526.04	58.069
526.38	59.792
526.72	57.881
527.06	57.652
527.41	58.179
527.75	59.115
528.09	58.472
528.43	59.757
528.78	59.010
529.12	58.516
529.46	58.934
529.80	58.011
530.15	58.284
530.49	59.933
530.83	59.713
531.17	56.817
531.51	60.260
531.86	57.784
532.20	59.012
532.54	59.428
532.88	60.027
533.22	59.073
533.57	57.143
533.91	59.204
534.25	58.724
534.59	57.922
534.93	59.094
535.27	55.520
535.62	57.291
535.96	58.447
536.30	58.509
536.64	59.201
536.98	58.746
537.32	59.957
537.66	59.607
538.01	59.021
538.35	59.431
538.69	57.989
539.03	57.075
539.37	57.470
539.71	59.577
540.05	57.909
540.39	58.310
540.73	58.787
541.07	59.807
541.42	58.535
541.76	58.293
542.10	59.326
542.44	59.764
542.78	57.192
543.12	58.516
543.46	58.901
543.80	58.154
544.14	56.609
544.48	58.827
544.82	59.467
545.16	58.333
545.50	58.545
545.84	59.278
546.18	58.794
546.52	60.130
546.86	58.950
547.20	59.156
547.54	56.820
547.88	59.307
548.22	57.659
548.56	58.641
548.90	59.367
549.24	58.196
549.58	58.815
549.92	59.257
550.26	58.535
550.60	60.595
550.94	59.223
551.28	59.892
551.62	61.846
551.96	59.925
552.30	59.649
552.64	59.520
552.98	58.861
553.32	59.914
553.66	58.418
554.00	60.365
554.34	59.010
554.68	59.366
555.02	59.821
555.36	60.434
555.69	58.022
556.03	59.386
556.37	58.505
556.71	60.144
557.05	59.508
557.39	58.885
557.73	60.720
558.07	60.784
558.41	59.954
558.75	60.171
559.08	60.914
559.42	62.619
559.76	61.169
560.10	60.168
560.44	60.313
560.78	59.650
561.12	61.354
561.45	60.576
561.79	61.765
562.13	61.178
562.47	60.719
562.81	58.501
563.15	58.604
563.48	60.255
563.82	61.633
564.16	61.072
564.50	59.662
564.84	59.505
565.17	60.161
565.51	60.929
565.85	59.602
566.19	60.610
566.52	61.528
566.86	59.190
567.20	59.278
567.54	60.949
567.88	59.051
568.21	59.615
568.55	58.261
568.89	59.908
569.23	59.124
569.56	57.487
569.90	58.790
570.24	56.048
570.57	58.000
570.91	56.640
571.25	56.067
571.59	55.372
571.92	54.963
572.26	55.888
572.60	55.876
572.93	55.444
573.27	55.016
573.61	55.668
573.95	55.680
574.28	55.138
574.62	54.539
574.96	55.123
575.29	54.240
575.63	53.667
575.97	54.378
576.30	55.609
576.64	53.854
576.98	55.804
577.31	55.444
577.65	54.587
577.98	54.522
578.32	53.848
578.66	54.008
578.99	54.328
579.33	54.984
579.67	53.823
580.00	54.709
580.34	55.149
580.67	54.847
581.01	55.884
581.35	55.060
581.68	54.694
582.02	53.643
582.35	54.318
582.69	55.162
583.02	54.924
583.36	54.483
583.70	56.386
584.03	55.991
584.37	55.929
584.70	56.154
585.04	55.389
585.37	55.676
585.71	55.764
586.04	55.371
586.38	55.401
586.72	56.327
587.05	56.904
587.39	56.304
587.72	57.135
588.06	56.241
588.39	57.106
588.73	56.685
589.06	57.208
589.40	56.550
589.73	57.211
590.07	57.326
590.40	59.365
590.73	58.690
591.07	58.482
591.40	58.281
591.74	59.095
592.07	58.581
592.41	59.187
592.74	57.905
593.08	56.794
593.41	57.397
593.75	56.755
594.08	56.265
594.41	56.514
594.75	56.908
595.08	58.040
595.42	57.858
595.75	57.905
596.09	58.366
596.42	58.454
596.75	59.147
597.09	58.815
597.42	58.582
597.75	59.322
598.09	58.352
598.42	57.942
598.76	57.658
599.09	57.732
599.42	56.915
599.76	57.336
600.09	56.712
600.42	57.506
600.76	56.278
601.09	57.901
601.42	56.639
601.76	57.761
602.09	58.251
602.42	58.551
602.76	58.659
603.09	58.846
603.42	60.410
603.76	58.105
604.09	58.323
604.42	58.418
604.76	60.214
605.09	58.181
605.42	58.826
605.75	58.363
606.09	57.834
606.42	58.257
606.75	59.134
607.09	58.593
607.42	57.776
607.75	57.593
608.08	57.008
608.42	57.789
608.75	59.277
609.08	60.438
609.41	60.761
609.75	59.879
610.08	59.061
610.41	58.792
610.74	59.288
611.07	59.483
611.41	59.886
611.74	60.128
612.07	58.779
612.40	60.941
612.73	60.113
613.07	59.393
613.40	60.120
613.73	60.101
614.06	58.876
614.39	60.011
614.72	60.336
615.06	60.000
615.39	59.225
615.72	59.042
616.05	61.620
616.38	59.373
616.71	60.856
617.05	61.025
617.38	60.214
617.71	61.572
618.04	61.905
618.37	62.295
618.70	62.244
619.03	62.778
619.36	61.143
619.69	63.836
620.03	62.600
620.36	61.660
620.69	61.313
621.02	62.462
621.35	64.149
621.68	65.051
622.01	64.333
622.34	64.326
622.67	63.249
623.00	62.175
623.33	63.948
623.66	61.257
623.99	62.330
624.32	63.802
624.65	61.128
624.99	62.904
625.32	61.107
625.65	64.650
625.98	64.545
626.31	63.009
626.64	65.338
626.97	64.747
627.30	64.886
627.63	62.305
627.96	65.319
628.29	65.310
628.62	67.257
628.95	65.331
629.28	68.548
629.61	64.407
629.94	66.667
630.26	63.933
630.59	67.638
630.92	65.949
631.25	64.410
631.58	69.163
631.91	66.447
632.24	68.005
632.57	68.523
632.90	69.514
633.23	67.294
633.56	70.907
633.89	66.461
634.22	69.753
634.55	71.665
634.88	69.221
635.20	68.333
635.53	71.467
635.86	68.010
636.19	69.987
636.52	69.260
636.85	68.114
637.18	66.918
637.51	69.686
637.83	67.543
638.16	69.986
638.49	69.755
638.82	68.421
639.15	69.471
639.48	69.876
639.81	67.782
640.13	69.986
640.46	70.700
640.79	67.305
641.12	70.310
641.45	72.072
641.77	70.370
642.10	71.248
642.43	71.383
642.76	73.762
643.09	71.890
643.41	69.256
643.74	71.170
644.07	70.443
644.40	70.608
644.73	72.680
645.05	70.302
645.38	73.898
645.71	68.794
646.04	72.531
646.36	75.532
646.69	73.381
647.02	73.535
647.35	73.134
647.67	73.675
648.00	76.493
648.33	70.137
648.66	72.542
648.98	68.844
649.31	72.397
649.64	70.644
649.96	68.882
650.29	70.698
650.62	70.085
650.94	73.889
651.27	71.322
651.60	71.171
651.92	71.154
652.25	71.403
652.58	71.667
652.90	72.041
653.23	69.412
653.56	69.543
653.88	69.416
654.21	68.827
654.54	69.949
654.86	70.968
655.19	66.959
655.52	61.378
655.84	53.795
656.17	59.533
656.49	80.491
656.82	83.842
657.15	64.752
657.47	48.616
657.80	36.512
658.13	36.058
658.45	56.873
658.78	56.642
659.10	56.453
659.43	57.722
659.75	59.398
660.08	60.000
660.41	64.862
660.73	68.232
661.06	68.977
661.38	70.450
661.71	70.637
662.03	71.888
662.36	71.648
662.68	73.451
663.01	74.454
663.33	72.158
663.66	75.581
663.98	74.884
664.31	71.215
664.63	73.963
664.96	70.000
665.28	69.536
665.61	70.346
665.93	70.870
666.26	72.234
666.58	71.365
666.91	71.294
667.23	72.877
667.56	72.275
667.88	73.861
668.21	75.179
668.53	75.177
668.86	71.934
669.18	70.519
669.50	71.913
669.83	69.070
670.15	74.592
670.48	72.727
670.80	76.037
671.13	69.351
671.45	69.863
671.77	69.742
672.10	67.327
672.42	66.105
672.75	66.785
673.07	67.621
673.39	68.440
673.72	66.864
674.04	68.542
674.37	71.186
674.69	68.522
675.01	70.889
675.34	70.270
675.66	75.463
675.98	70.067
676.31	68.349
676.63	69.359
676.95	67.500
677.28	72.235
677.60	75.422
677.92	68.807
678.25	69.803
678.57	67.749
678.89	71.008
679.22	72.483
679.54	65.462
679.86	65.805
680.18	66.990
680.51	66.856
680.83	66.004
681.15	69.600
681.48	69.877
681.80	70.868
682.12	64.516
682.44	70.293
682.77	68.433
683.09	70.481
683.41	67.955
683.73	68.433
684.06	64.381
684.38	65.806
684.70	69.499
685.02	66.805
685.34	63.636
685.67	65.291
685.99	65.099
686.31	64.779
686.63	65.863
686.96	64.068
687.28	64.444
687.60	62.548
687.92	68.081
688.24	63.710
688.56	67.904
688.89	67.411
689.21	69.333
689.53	66.125
689.85	68.372
690.17	69.196
690.49	66.430
690.82	68.204
691.14	67.857
691.46	67.523
691.78	63.514
692.10	66.667
692.42	64.719
692.74	65.812
693.06	63.739
693.39	65.158
693.71	64.932
694.03	66.975
694.35	66.822
694.67	68.939
694.99	62.924
695.31	68.407
695.63	66.750
695.95	64.646
696.27	64.508
696.59	70.000
696.91	68.067
697.23	67.095
697.56	63.366
697.88	65.161
698.20	64.692
698.52	62.824
698.84	64.115
699.16	67.250
699.48	65.915
699.80	66.749
700.12	69.811
700.44	69.468
700.76	69.767
701.08	68.788
701.40	69.277
701.72	71.914
702.04	75.908
702.36	74.582
702.68	67.868
703.00	66.970
703.32	69.208
703.64	68.644
703.96	64.348
704.28	68.405
704.60	67.619
704.91	66.877
705.23	67.774
705.55	77.739
705.87	71.841
706.19	71.852
706.51	67.698
706.83	68.489
707.15	65.109
707.47	65.546
707.79	64.062
708.11	61.750
708.43	62.250
708.74	64.341
709.06	65.352
709.38	69.113
709.70	67.160
710.02	66.879
710.34	69.969
710.66	61.538
710.98	66.225
711.29	65.902
711.61	67.797
711.93	65.798
712.25	68.729
712.57	74.359
712.89	65.299
713.20	65.052
713.52	68.293
713.84	64.505
714.16	65.292
714.48	62.903
714.80	65.705
715.11	63.830
715.43	58.621
715.75	65.333
716.07	60.465
716.39	65.436
716.70	64.945
717.02	63.359
717.34	65.182
717.66	69.469
717.97	66.522
718.29	69.038
718.61	67.717
718.93	63.178
719.24	60.456
719.56	71.486
719.88	63.574
720.20	67.803
720.51	65.517
720.83	65.251
721.15	68.067
721.46	67.742
721.78	66.403
722.10	67.286
722.42	67.220
722.73	67.347
723.05	67.347
723.37	66.949
723.68	71.622
724.00	66.239
724.32	61.333
724.63	60.909
724.95	68.996
725.27	60.369
725.58	66.949
725.90	62.698
726.22	58.301
726.53	60.339
726.85	61.423
727.16	62.642
727.48	65.587
727.80	66.802
728.11	58.898
728.43	64.314
728.74	58.065
729.06	65.600
729.38	68.421
729.69	58.167
730.01	61.154
730.32	65.672
730.64	60.777
730.96	62.642
731.27	59.000
731.59	61.017
731.90	59.873
732.22	58.360
732.53	57.475
732.85	64.894
733.16	60.943
733.48	58.993
733.80	59.783
734.11	56.949
734.43	62.887
734.74	62.727
735.06	57.329
735.37	58.610
735.69	60.943
736.00	60.976
736.32	55.705
736.63	57.746
736.95	57.679
737.26	60.142
737.58	52.685
737.89	60.806
738.21	56.391
738.52	60.905
738.83	63.319
739.15	58.515
739.46	58.268
739.78	58.242
740.09	56.536
740.41	64.855
740.72	58.661
741.04	58.300
741.35	54.894
741.66	58.768
741.98	57.653
742.29	65.347
742.61	65.969
742.92	59.716
743.23	58.333
743.55	61.086
743.86	58.852
744.18	56.459
744.49	55.851
744.80	63.587
745.12	68.984
745.43	60.000
745.74	70.833
746.06	61.463
746.37	62.827
746.68	55.924
747.00	60.638
747.31	66.667
747.62	62.136
747.94	60.766
748.25	63.366
748.56	67.213
748.88	60.733
749.19	66.489
749.50	62.069
749.82	60.849
750.13	58.716
750.44	60.902
750.75	58.209
751.07	63.139
751.38	59.770
751.69	54.902
752.01	57.752
752.32	61.355
752.63	53.360
752.94	60.776
753.26	61.925
753.57	59.729
753.88	57.965
754.19	58.333
754.51	57.025
754.82	57.895
755.13	61.250
755.44	62.903
755.75	60.937
756.07	59.922
756.38	55.849
756.69	57.854
757.00	50.333
757.31	50.654
757.63	53.659
757.94	51.944
758.25	48.493
758.56	50.532
758.87	49.858
759.18	50.156
759.50	53.455
759.81	52.174
760.12	54.194
760.43	50.000
760.74	56.173
761.05	51.385
761.36	51.989
761.67	54.848
761.99	55.102
762.30	50.545
762.61	54.545
762.92	56.561
763.23	51.351
763.54	58.411
763.85	62.288
764.16	54.772
764.47	53.226
764.78	52.015
765.10	58.586
765.41	48.896
765.72	52.381
766.03	52.256
766.34	51.460
766.65	59.363
766.96	56.566
767.27	57.447
767.58	48.851
767.89	60.993
768.20	51.136
768.51	55.495
768.82	49.754
769.13	55.300
769.44	46.352
769.75	51.598
770.06	50.000
770.37	51.923
770.68	51.777
770.99	46.154
771.30	58.824
771.61	53.846
771.92	53.017
772.23	55.172
772.54	55.914
772.85	55.556
773.16	55.618
773.47	63.399
773.78	67.320
774.09	56.287
774.39	59.333
774.70	55.414
775.01	52.414
775.32	54.286
775.63	56.198
775.94	61.069
776.25	59.843
776.56	59.167
776.87	62.500
777.18	57.265
777.48	57.759
777.79	49.565
778.10	44.762
778.41	42.342
778.72	54.762
779.03	60.150
779.34	58.156
779.65	58.219
779.95	48.630
780.26	50.345
780.57	43.089
780.88	56.693
781.19	52.586
781.50	58.140
781.80	51.479
782.11	44.025
782.42	64.615
782.73	48.201
783.04	48.148
783.34	49.306
783.65	47.009
783.96	46.721
784.27	48.966
784.57	63.415
784.88	50.000
785.19	69.000
785.50	66.000
785.81	44.828
786.11	49.138
786.42	51.456
786.73	60.000
787.04	62.245
787.34	48.214
787.65	48.571
787.96	53.097
788.26	59.091
788.57	52.991
788.88	50.781
789.19	54.762
789.49	52.174
789.80	57.143
790.11	39.394
790.41	48.182
790.72	50.000
791.03	64.773
791.33	65.000
791.64	50.000
791.95	62.791
792.25	55.319
792.56	62.921
792.87	35.616
793.17	62.319
793.48	38.667
793.79	48.750
794.09	60.000
794.40	54.717
794.70	47.573
795.01	47.154
795.32	42.735
795.62	59.048
795.93	56.863
796.23	55.660
796.54	60.417
796.85	57.353
797.15	47.887
797.46	61.111
797.76	74.242
798.07	52.326
798.37	48.684
798.68	51.515
798.99	37.037
799.29	50.000
799.60	59.420
799.90	65.333
800.21	68.852
800.51	58.462
800.82	50.847
801.12	36.232
801.43	45.902
801.73	50.794
802.04	54.000
802.34	50.746
802.65	48.077
802.95	33.929
803.26	46.154
803.56	64.706
803.87	50.000
804.17	54.667
804.48	46.032
804.78	53.704
805.09	47.826
805.39	62.222
805.70	62.963
806.00	26.316
806.30	49.296
806.61	50.000
806.91	34.722
807.22	56.579
807.52	50.667
807.83	30.909
808.13	58.333
808.43	70.588
808.74	47.761
809.04	47.458
809.35	46.154
809.65	50.000
809.95	56.757
810.26	43.182
810.56	43.836
810.86	45.238
811.17	38.000
811.47	57.143
811.77	28.947
812.08	43.182
812.38	24.528
812.69	47.500
812.99	45.455
813.29	63.158
813.59	48.571
813.90	36.364
814.20	51.282
814.50	51.923
814.81	49.057
815.11	38.298
815.41	55.932
815.72	52.381
816.02	54.902
816.32	50.000
816.62	41.463
816.93	37.838
817.23	48.571
817.53	56.250
817.84	28.261
818.14	28.846
818.44	36.842
818.74	60.870
819.04	20.000
819.35	64.865
819.65	55.882
819.95	58.333
820.25	64.286
820.56	72.500
820.86	17.241
821.16	65.000
821.46	74.468
821.76	42.500
822.07	58.140
822.37	32.432
822.67	9.375
822.97	73.810
823.27	28.571
823.57	68.000
823.88	51.852
824.18	53.571
824.48	26.471
824.78	45.161
825.08	52.174
825.38	48.485
825.69	25.000
825.99	60.526
826.29	19.444
826.59	6.667
826.89	9.524
827.19	54.348
827.49	47.500
827.79	62.857
828.09	50.000
828.39	57.576
828.70	75.676
829.00	57.143
829.30	57.143
829.60	60.000
829.90	81.250
830.20	50.000
830.50	29.630
830.80	0.000
831.10	72.727
831.40	75.758
831.70	83.871
832.00	42.857
832.30	38.095
832.60	33.333
832.90	31.034
833.20	85.000
833.50	33.333
833.80	51.852
834.10	57.692
834.40	50.000
834.70	122.222
835.00	63.158
835.30	107.692
835.60	100.000
835.90	48.387
836.20	50.000
836.50	46.429
836.80	11.538
837.10	35.714
837.40	200.000
837.70	59.091
838.00	109.091
838.30	21.739
838.60	30.769
838.90	77.273
839.19	50.000
839.49	30.000
839.79	7.692
840.09	-58.333
840.39	53.571
840.69	3.571
840.99	53.846
841.29	0.000
841.59	30.000
841.88	72.727
842.18	40.000
842.48	75.000
842.78	126.667
843.08	25.926
843.38	-30.000
843.68	47.826
843.97	113.333
844.27	6.667
844.57	50.000
844.87	5.556
845.17	-4.762
845.47	80.000
845.76	57.143
846.06	23.529
846.36	150.000
846.66	21.429
846.96	46.667
847.25	-12.500
847.55	114.286
847.85	112.500
848.15	36.364
848.44	-166.667
848.74	60.000
849.04	74.074
849.34	27.273
849.63	50.000
849.93	140.000
850.23	66.667
850.53	90.000
850.82	7.692
851.12	66.667
851.42	86.667
851.71	61.538
852.01	57.143
852.31	150.000
852.61	-9.091
852.90	-5.000
853.20	52.632
853.50	33.333
853.79	52.174
854.09	41.667
854.39	47.368
854.68	8.333
854.98	25.806
855.28	96.154
855.57	20.000
855.87	16.667
856.17	59.259
856.46	21.429
856.76	13.333
857.05	100.000
857.35	88.000
857.65	33.333
857.94	0.000
858.24	65.517
858.53	105.556
858.83	88.889
859.13	63.636
859.42	21.739
859.72	0.000
860.01	-133.333
860.31	28.000
860.60	61.905
860.90	33.333
861.20	-6.667
861.49	-350.000
861.79	53.333
862.08	70.000
862.38	66.667
862.67	-60.000
862.97	133.333
863.26	8.333
863.56	16.667
863.85	0.000
864.15	27.778
864.44	90.000
864.74	85.714
865.03	375.000
865.33	-40.000
865.62	133.333
865.92	25.000
866.21	16.667
866.51	125.000
866.80	72.727
867.10	50.000
867.39	133.333
867.69	0.000
867.98	107.692
868.27	-33.333
868.57	-13.333
868.86	38.889
869.16	-15.385
869.45	106.667
869.75	-100.000
870.04	0.000
870.33	-100.000
870.63	57.143
870.92	-366.667
871.22	-100.000
871.51	-200.000
871.80	122.222
872.10	-66.667
>>>>>End Processed Spectral Data<<<<<
