SpectraSuite Data File
++++++++++++++++++++++++++++++++++++
Date: Fri May 15 20:01:56 PDT 2015
User: schluterlab
Dark Spectrum Present: Yes
Reference Spectrum Present: Yes
Number of Sampled Component Spectra: 1
Spectrometers: USB2E3373
Integration Time (usec): 3000 (USB2E3373)
Spectra Averaged: 3 (USB2E3373)
Boxcar Smoothing: 0 (USB2E3373)
Correct for Electrical Dark: No (USB2E3373)
Strobe/Lamp Enabled: No (USB2E3373)
Correct for Detector Non-linearity: No (USB2E3373)
Correct for Stray Light: No (USB2E3373)
Number of Pixels in Processed Spectrum: 2048
>>>>>Begin Processed Spectral Data<<<<<
178.53	0.000
178.91	0.000
179.29	150.000
179.67	100.000
180.04	-157.143
180.42	175.000
180.80	100.000
181.18	-100.000
181.56	150.000
181.94	-200.000
182.31	-400.000
182.69	0.000
183.07	-133.333
183.45	80.000
183.83	116.667
184.20	63.636
184.58	22.222
184.96	-75.000
185.34	-66.667
185.72	-250.000
186.09	46.154
186.47	-1100.000
186.85	216.667
187.23	122.222
187.61	-700.000
187.98	-266.667
188.36	-22.222
188.74	0.000
189.12	88.235
189.49	77.778
189.87	0.000
190.25	100.000
190.63	250.000
191.00	33.333
191.38	47.368
191.76	-50.000
192.14	-200.000
192.51	450.000
192.89	11.111
193.27	0.000
193.65	233.333
194.02	163.636
194.40	30.000
194.78	-137.500
195.15	-8.333
195.53	-37.500
195.91	325.000
196.29	125.000
196.66	46.154
197.04	57.143
197.42	0.000
197.79	-300.000
198.17	-23.077
198.55	1700.000
198.92	-33.333
199.30	-300.000
199.68	-160.000
200.05	-66.667
200.43	0.000
200.81	166.667
201.18	133.333
201.56	1000.000
201.94	-350.000
202.31	-33.333
202.69	-100.000
203.07	-75.000
203.44	300.000
203.82	0.000
204.19	14.286
204.57	-466.667
204.95	137.500
205.32	100.000
205.70	0.000
206.08	100.000
206.45	122.222
206.83	35.714
207.20	-28.571
207.58	-500.000
207.96	0.000
208.33	-70.000
208.71	150.000
209.08	-150.000
209.46	100.000
209.84	60.000
210.21	-300.000
210.59	100.000
210.96	133.333
211.34	225.000
211.71	73.333
212.09	-100.000
212.46	-1300.000
212.84	0.000
213.22	40.000
213.59	800.000
213.97	53.846
214.34	54.545
214.72	-66.667
215.09	75.000
215.47	46.154
215.84	18.182
216.22	266.667
216.59	25.000
216.97	-100.000
217.34	-50.000
217.72	80.000
218.09	112.500
218.47	112.500
218.84	-700.000
219.22	-11.111
219.59	200.000
219.97	366.667
220.34	200.000
220.72	28.571
221.09	25.000
221.47	100.000
221.84	100.000
222.22	-900.000
222.59	100.000
222.97	25.000
223.34	-166.667
223.72	57.143
224.09	19.048
224.46	21.429
224.84	266.667
225.21	20.000
225.59	53.333
225.96	300.000
226.34	175.000
226.71	85.714
227.08	-33.333
227.46	12.500
227.83	-700.000
228.21	33.333
228.58	27.273
228.95	-50.000
229.33	30.000
229.70	37.500
230.08	-87.500
230.45	-71.429
230.82	-42.857
231.20	-26.667
231.57	71.429
231.95	-28.571
232.32	30.000
232.69	35.714
233.07	266.667
233.44	100.000
233.81	-110.000
234.19	0.000
234.56	23.529
234.93	250.000
235.31	75.000
235.68	-40.000
236.05	23.077
236.43	-5.000
236.80	29.412
237.17	40.625
237.55	-10.000
237.92	40.741
238.29	8.333
238.67	40.000
239.04	17.647
239.41	7.317
239.79	0.000
240.16	34.146
240.53	15.789
240.91	17.391
241.28	19.048
241.65	41.071
242.02	39.726
242.40	38.333
242.77	20.339
243.14	27.273
243.51	23.750
243.89	40.230
244.26	28.736
244.63	21.429
245.00	26.804
245.38	37.113
245.75	3.371
246.12	18.103
246.49	28.926
246.87	30.769
247.24	15.126
247.61	16.667
247.98	26.016
248.36	21.875
248.73	26.316
249.10	21.429
249.47	31.013
249.84	23.529
250.22	22.941
250.59	19.608
250.96	24.413
251.33	21.512
251.70	25.882
252.08	27.919
252.45	22.772
252.82	24.121
253.19	25.806
253.56	24.766
253.94	26.126
254.31	27.391
254.68	26.754
255.05	25.591
255.42	25.764
255.79	22.780
256.16	22.957
256.54	27.239
256.91	26.236
257.28	26.394
257.65	25.094
258.02	25.177
258.39	27.946
258.76	30.769
259.14	26.910
259.51	24.595
259.88	25.773
260.25	27.124
260.62	23.958
260.99	26.102
261.36	23.973
261.73	24.051
262.10	22.188
262.47	26.074
262.85	23.197
263.22	27.385
263.59	28.037
263.96	31.677
264.33	21.818
264.70	28.274
265.07	26.488
265.44	27.479
265.81	29.379
266.18	25.956
266.55	25.450
266.92	26.166
267.29	23.499
267.66	25.064
268.03	26.963
268.40	25.587
268.77	29.144
269.14	26.619
269.51	27.506
269.88	22.943
270.25	25.510
270.62	24.390
270.99	26.087
271.36	22.494
271.73	24.883
272.10	24.574
272.47	24.586
272.84	25.495
273.21	25.290
273.58	26.988
273.95	24.027
274.32	21.016
274.69	22.851
275.06	26.116
275.43	22.449
275.80	22.075
276.17	23.678
276.54	24.625
276.91	23.904
277.28	21.834
277.65	24.380
278.02	23.617
278.39	25.821
278.76	22.222
279.13	20.954
279.50	24.580
279.87	24.190
280.23	19.355
280.60	24.561
280.97	26.061
281.34	22.308
281.71	26.694
282.08	25.153
282.45	23.679
282.82	24.324
283.19	23.017
283.56	24.663
283.92	24.288
284.29	22.885
284.66	23.062
285.03	24.951
285.40	24.008
285.77	24.077
286.14	22.202
286.51	25.092
286.87	20.110
287.24	21.547
287.61	22.751
287.98	23.158
288.35	22.530
288.72	23.818
289.08	22.049
289.45	22.144
289.82	22.203
290.19	21.160
290.56	21.955
290.93	21.717
291.29	22.034
291.66	20.945
292.03	20.255
292.40	21.290
292.77	19.139
293.13	18.669
293.50	18.816
293.87	19.542
294.24	20.866
294.60	21.908
294.97	19.940
295.34	20.399
295.71	20.417
296.08	20.329
296.44	19.061
296.81	19.167
297.18	20.725
297.55	21.138
297.91	20.411
298.28	21.240
298.65	19.946
299.02	18.868
299.38	19.152
299.75	19.862
300.12	19.895
300.48	18.182
300.85	18.251
301.22	19.221
301.59	19.079
301.95	21.519
302.32	20.104
302.69	19.527
303.05	19.183
303.42	20.174
303.79	20.444
304.15	19.474
304.52	18.906
304.89	18.480
305.25	19.007
305.62	17.620
305.99	18.129
306.35	19.538
306.72	17.435
307.09	19.726
307.45	19.633
307.82	17.361
308.19	20.674
308.55	18.321
308.92	19.717
309.29	18.771
309.65	16.900
310.02	18.262
310.38	19.429
310.75	19.454
311.12	17.653
311.48	18.876
311.85	19.476
312.22	16.878
312.58	18.365
312.95	18.463
313.31	18.323
313.68	18.010
314.05	18.980
314.41	18.351
314.78	18.660
315.14	16.752
315.51	18.841
315.87	18.443
316.24	18.605
316.61	18.898
316.97	18.353
317.34	19.336
317.70	18.069
318.07	18.942
318.43	17.549
318.80	17.140
319.16	18.555
319.53	19.468
319.89	17.126
320.26	19.231
320.62	19.258
320.99	17.537
321.35	17.780
321.72	17.549
322.08	17.825
322.45	17.766
322.81	16.798
323.18	17.763
323.54	17.181
323.91	18.208
324.27	16.797
324.64	18.633
325.00	17.974
325.37	20.018
325.73	17.226
326.10	17.984
326.46	17.489
326.83	17.498
327.19	17.262
327.56	16.942
327.92	18.310
328.29	17.143
328.65	18.774
329.01	17.647
329.38	17.880
329.74	16.431
330.11	17.331
330.47	16.883
330.84	16.731
331.20	18.346
331.56	16.667
331.93	17.260
332.29	18.515
332.66	17.557
333.02	16.914
333.38	16.407
333.75	17.216
334.11	16.741
334.48	17.407
334.84	17.674
335.20	16.834
335.57	15.594
335.93	17.435
336.29	16.022
336.66	16.440
337.02	15.056
337.38	16.481
337.75	16.364
338.11	16.141
338.47	17.518
338.84	17.652
339.20	16.088
339.56	17.339
339.93	17.995
340.29	16.606
340.65	16.219
341.02	17.021
341.38	16.726
341.74	16.166
342.11	16.464
342.47	14.858
342.83	17.647
343.20	16.376
343.56	16.870
343.92	16.918
344.28	16.567
344.65	15.976
345.01	15.385
345.37	16.148
345.73	16.736
346.10	17.515
346.46	17.157
346.82	16.039
347.19	14.963
347.55	16.708
347.91	16.181
348.27	16.087
348.63	16.695
349.00	15.176
349.36	15.295
349.72	16.833
350.08	16.475
350.45	16.042
350.81	15.698
351.17	14.577
351.53	16.163
351.89	15.111
352.26	15.760
352.62	15.806
352.98	16.064
353.34	15.700
353.70	16.505
354.07	15.565
354.43	16.733
354.79	14.781
355.15	15.952
355.51	16.693
355.87	17.071
356.24	14.600
356.60	15.602
356.96	16.032
357.32	16.054
357.68	15.481
358.04	15.509
358.40	15.675
358.77	16.268
359.13	14.652
359.49	14.407
359.85	15.367
360.21	15.869
360.57	15.302
360.93	15.734
361.29	13.671
361.66	15.047
362.02	16.667
362.38	15.385
362.74	16.276
363.10	15.500
363.46	14.974
363.82	15.702
364.18	15.720
364.54	14.706
364.90	14.767
365.26	14.702
365.62	16.204
365.98	14.589
366.35	15.368
366.71	15.595
367.07	14.877
367.43	14.666
367.79	15.124
368.15	15.721
368.51	15.004
368.87	14.645
369.23	14.368
369.59	14.942
369.95	15.982
370.31	16.257
370.67	15.970
371.03	15.011
371.39	15.317
371.75	14.579
372.11	15.549
372.47	15.680
372.83	15.046
373.19	15.621
373.55	14.224
373.91	15.407
374.27	14.812
374.63	15.937
374.99	14.184
375.35	15.111
375.71	15.455
376.07	14.958
376.42	15.034
376.78	15.302
377.14	15.301
377.50	15.073
377.86	15.127
378.22	13.848
378.58	15.321
378.94	14.619
379.30	14.473
379.66	15.611
380.02	14.715
380.38	14.729
380.74	14.303
381.09	15.031
381.45	13.761
381.81	14.621
382.17	15.228
382.53	14.803
382.89	14.564
383.25	15.681
383.61	15.732
383.97	14.476
384.32	14.947
384.68	15.232
385.04	14.461
385.40	14.250
385.76	15.975
386.12	14.942
386.48	15.645
386.83	14.965
387.19	14.408
387.55	14.429
387.91	14.670
388.27	14.957
388.62	15.230
388.98	14.549
389.34	15.178
389.70	15.227
390.06	14.600
390.42	14.443
390.77	14.846
391.13	13.808
391.49	14.942
391.85	14.035
392.20	15.129
392.56	14.685
392.92	14.974
393.28	14.033
393.64	14.294
393.99	15.486
394.35	14.358
394.71	13.729
395.07	14.519
395.42	14.815
395.78	14.202
396.14	14.817
396.50	14.775
396.85	14.295
397.21	14.536
397.57	15.172
397.92	14.679
398.28	15.115
398.64	14.096
399.00	15.350
399.35	13.939
399.71	14.762
400.07	14.389
400.42	14.749
400.78	14.819
401.14	13.914
401.49	15.188
401.85	14.199
402.21	14.759
402.57	14.813
402.92	14.492
403.28	14.348
403.63	14.754
403.99	14.031
404.35	13.929
404.70	13.810
405.06	14.160
405.42	13.860
405.77	13.945
406.13	13.795
406.49	13.262
406.84	14.242
407.20	14.630
407.55	13.844
407.91	14.037
408.27	13.894
408.62	14.092
408.98	13.247
409.34	13.569
409.69	13.824
410.05	13.916
410.40	13.395
410.76	13.752
411.11	14.438
411.47	13.741
411.83	13.622
412.18	13.707
412.54	13.296
412.89	13.608
413.25	13.478
413.60	13.106
413.96	13.926
414.31	14.573
414.67	13.342
415.03	13.981
415.38	12.990
415.74	14.137
416.09	13.978
416.45	13.707
416.80	13.219
417.16	13.052
417.51	13.524
417.87	13.820
418.22	14.119
418.58	13.980
418.93	14.232
419.29	12.100
419.64	13.286
420.00	14.106
420.35	14.030
420.71	13.973
421.06	13.014
421.42	14.543
421.77	13.931
422.12	14.075
422.48	14.239
422.83	14.385
423.19	13.883
423.54	13.933
423.90	14.370
424.25	14.753
424.61	15.055
424.96	13.589
425.31	14.789
425.67	14.378
426.02	14.782
426.38	14.652
426.73	14.891
427.09	15.190
427.44	14.118
427.79	14.202
428.15	15.049
428.50	14.113
428.85	13.636
429.21	15.054
429.56	14.555
429.92	15.100
430.27	14.586
430.62	14.480
430.98	14.544
431.33	15.089
431.68	14.861
432.04	15.372
432.39	13.976
432.74	14.311
433.10	15.230
433.45	15.293
433.80	14.161
434.16	14.183
434.51	14.301
434.86	14.866
435.22	14.638
435.57	15.159
435.92	15.509
436.28	14.788
436.63	14.546
436.98	13.847
437.34	14.217
437.69	15.027
438.04	14.473
438.39	14.478
438.75	14.693
439.10	15.224
439.45	15.216
439.81	14.312
440.16	15.083
440.51	15.522
440.86	16.375
441.22	14.989
441.57	15.011
441.92	15.373
442.27	15.078
442.63	15.578
442.98	14.934
443.33	15.025
443.68	14.960
444.03	15.052
444.39	15.839
444.74	15.552
445.09	14.978
445.44	15.499
445.79	14.956
446.15	15.253
446.50	14.531
446.85	14.984
447.20	15.433
447.55	16.183
447.91	14.044
448.26	15.652
448.61	14.680
448.96	15.663
449.31	15.491
449.66	15.796
450.02	14.489
450.37	15.353
450.72	15.178
451.07	15.000
451.42	14.544
451.77	15.310
452.12	15.012
452.47	15.068
452.83	15.548
453.18	14.991
453.53	15.613
453.88	15.361
454.23	15.796
454.58	15.680
454.93	15.979
455.28	14.603
455.63	15.933
455.98	15.695
456.34	14.432
456.69	15.248
457.04	15.753
457.39	14.459
457.74	15.538
458.09	15.303
458.44	14.745
458.79	14.846
459.14	15.675
459.49	15.164
459.84	15.905
460.19	14.806
460.54	15.465
460.89	15.398
461.24	15.280
461.59	16.152
461.94	15.723
462.29	15.682
462.64	15.615
462.99	15.640
463.34	15.090
463.69	15.573
464.04	15.496
464.39	15.161
464.74	15.031
465.09	14.847
465.44	15.061
465.79	15.363
466.14	16.249
466.49	15.239
466.84	15.824
467.19	16.333
467.54	15.709
467.89	15.035
468.24	15.268
468.59	15.556
468.94	15.429
469.29	16.918
469.64	16.678
469.99	15.907
470.34	15.085
470.68	15.511
471.03	16.773
471.38	15.335
471.73	15.336
472.08	15.332
472.43	14.899
472.78	15.284
473.13	15.646
473.48	15.896
473.83	15.255
474.17	15.738
474.52	15.954
474.87	15.515
475.22	16.473
475.57	16.375
475.92	16.018
476.27	16.240
476.61	16.377
476.96	15.839
477.31	15.576
477.66	15.393
478.01	15.104
478.36	16.285
478.70	15.824
479.05	16.154
479.40	15.898
479.75	16.319
480.10	15.668
480.45	16.250
480.79	16.113
481.14	16.291
481.49	16.207
481.84	15.927
482.19	15.482
482.53	16.307
482.88	16.372
483.23	15.691
483.58	15.849
483.92	15.150
484.27	15.406
484.62	15.778
484.97	15.299
485.31	15.426
485.66	14.831
486.01	15.635
486.36	15.540
486.70	15.315
487.05	15.233
487.40	15.538
487.75	15.155
488.09	14.833
488.44	15.440
488.79	15.689
489.13	16.026
489.48	15.733
489.83	15.381
490.17	15.236
490.52	15.797
490.87	15.178
491.22	15.712
491.56	15.607
491.91	15.201
492.26	15.800
492.60	16.555
492.95	15.740
493.30	15.095
493.64	15.717
493.99	16.329
494.34	15.874
494.68	15.333
495.03	15.231
495.37	15.260
495.72	16.002
496.07	16.049
496.41	15.330
496.76	15.845
497.11	15.510
497.45	15.943
497.80	16.498
498.14	16.244
498.49	16.303
498.84	16.667
499.18	15.713
499.53	16.567
499.87	15.564
500.22	16.172
500.56	16.137
500.91	15.763
501.26	15.175
501.60	15.199
501.95	16.157
502.29	15.932
502.64	16.313
502.98	16.626
503.33	15.658
503.67	16.096
504.02	16.178
504.36	16.625
504.71	15.758
505.06	15.450
505.40	15.431
505.75	16.340
506.09	16.016
506.44	16.119
506.78	16.224
507.13	16.391
507.47	15.561
507.82	15.598
508.16	15.901
508.51	15.950
508.85	16.222
509.19	15.168
509.54	16.300
509.88	15.804
510.23	16.460
510.57	16.782
510.92	15.139
511.26	15.930
511.61	16.942
511.95	16.822
512.30	15.632
512.64	16.305
512.98	16.339
513.33	16.564
513.67	16.373
514.02	16.304
514.36	17.429
514.70	16.667
515.05	16.863
515.39	15.998
515.74	17.305
516.08	16.856
516.42	17.138
516.77	17.379
517.11	16.380
517.46	16.697
517.80	16.389
518.14	16.534
518.49	15.745
518.83	17.132
519.17	15.828
519.52	16.223
519.86	16.387
520.20	16.586
520.55	17.011
520.89	17.127
521.23	17.099
521.58	17.792
521.92	16.538
522.26	16.721
522.61	16.364
522.95	17.417
523.29	16.709
523.64	17.217
523.98	17.369
524.32	16.173
524.66	17.093
525.01	17.532
525.35	17.045
525.69	16.431
526.04	16.138
526.38	17.769
526.72	16.678
527.06	15.888
527.41	17.018
527.75	15.751
528.09	16.279
528.43	18.231
528.78	17.162
529.12	16.710
529.46	16.244
529.80	17.036
530.15	18.152
530.49	16.296
530.83	16.553
531.17	16.790
531.51	17.510
531.86	15.976
532.20	16.284
532.54	17.291
532.88	17.112
533.22	17.339
533.57	17.104
533.91	16.645
534.25	17.383
534.59	16.549
534.93	16.614
535.27	16.053
535.62	16.073
535.96	17.091
536.30	17.084
536.64	16.334
536.98	16.516
537.32	17.781
537.66	17.251
538.01	16.154
538.35	17.337
538.69	17.310
539.03	16.131
539.37	17.160
539.71	16.769
540.05	17.787
540.39	17.798
540.73	16.736
541.07	16.851
541.42	18.011
541.76	17.688
542.10	16.105
542.44	17.026
542.78	15.279
543.12	16.621
543.46	17.316
543.80	17.557
544.14	15.821
544.48	17.189
544.82	17.840
545.16	16.667
545.50	17.957
545.84	18.555
546.18	16.667
546.52	17.015
546.86	17.326
547.20	17.310
547.54	16.537
547.88	17.120
548.22	16.108
548.56	16.821
548.90	17.588
549.24	16.667
549.58	16.784
549.92	16.512
550.26	16.996
550.60	17.100
550.94	15.907
551.28	16.461
551.62	17.692
551.96	16.842
552.30	17.398
552.64	16.502
552.98	16.456
553.32	17.332
553.66	16.183
554.00	17.226
554.34	16.839
554.68	16.519
555.02	17.039
555.36	17.203
555.69	16.777
556.03	16.060
556.37	16.940
556.71	16.751
557.05	16.033
557.39	16.134
557.73	16.567
558.07	16.667
558.41	16.692
558.75	16.056
559.08	17.021
559.42	15.079
559.76	16.173
560.10	17.431
560.44	17.573
560.78	17.483
561.12	16.432
561.45	17.639
561.79	16.737
562.13	15.969
562.47	16.115
562.81	16.066
563.15	17.560
563.48	16.761
563.82	16.472
564.16	16.435
564.50	15.541
564.84	16.734
565.17	16.365
565.51	16.189
565.85	15.706
566.19	16.711
566.52	16.555
566.86	17.031
567.20	16.874
567.54	16.180
567.88	16.813
568.21	16.742
568.55	16.467
568.89	16.838
569.23	16.803
569.56	16.068
569.90	16.646
570.24	16.226
570.57	15.927
570.91	16.556
571.25	15.751
571.59	16.319
571.92	15.822
572.26	16.123
572.60	16.558
572.93	15.689
573.27	15.486
573.61	15.304
573.95	16.029
574.28	15.678
574.62	15.611
574.96	16.006
575.29	16.027
575.63	15.444
575.97	15.587
576.30	15.715
576.64	15.523
576.98	15.933
577.31	15.557
577.65	16.376
577.98	16.061
578.32	15.892
578.66	15.710
578.99	15.395
579.33	15.314
579.67	15.241
580.00	15.544
580.34	16.045
580.67	15.480
581.01	15.346
581.35	16.236
581.68	15.725
582.02	15.819
582.35	15.617
582.69	15.914
583.02	15.851
583.36	15.780
583.70	15.836
584.03	16.069
584.37	16.064
584.70	16.044
585.04	15.881
585.37	16.118
585.71	15.478
586.04	15.582
586.38	15.364
586.72	15.725
587.05	15.973
587.39	15.907
587.72	16.484
588.06	16.468
588.39	16.178
588.73	15.659
589.06	16.112
589.40	16.350
589.73	16.028
590.07	16.541
590.40	16.641
590.73	16.351
591.07	16.455
591.40	16.162
591.74	16.697
592.07	16.373
592.41	16.608
592.74	16.169
593.08	15.927
593.41	16.112
593.75	16.323
594.08	15.585
594.41	15.502
594.75	15.916
595.08	16.156
595.42	16.010
595.75	15.058
596.09	16.224
596.42	16.205
596.75	16.430
597.09	16.446
597.42	15.854
597.75	16.079
598.09	15.980
598.42	15.478
598.76	15.616
599.09	16.426
599.42	16.105
599.76	16.065
600.09	16.063
600.42	16.452
600.76	15.379
601.09	15.382
601.42	15.629
601.76	15.641
602.09	15.800
602.42	16.723
602.76	16.087
603.09	16.404
603.42	17.015
603.76	15.726
604.09	15.674
604.42	16.836
604.76	16.466
605.09	16.225
605.42	16.163
605.75	16.112
606.09	16.433
606.42	16.597
606.75	16.234
607.09	16.923
607.42	16.039
607.75	15.853
608.08	16.262
608.42	15.761
608.75	15.855
609.08	15.595
609.41	15.787
609.75	16.028
610.08	16.126
610.41	16.232
610.74	15.505
611.07	16.486
611.41	16.347
611.74	16.258
612.07	16.274
612.40	16.575
612.73	16.441
613.07	15.861
613.40	17.068
613.73	15.949
614.06	16.082
614.39	16.131
614.72	17.031
615.06	15.978
615.39	15.884
615.72	15.877
616.05	16.201
616.38	16.068
616.71	16.697
617.05	16.245
617.38	16.405
617.71	16.289
618.04	16.762
618.37	18.600
618.70	16.700
619.03	17.222
619.36	15.847
619.69	17.437
620.03	17.823
620.36	17.382
620.69	16.916
621.02	16.590
621.35	17.759
621.68	16.837
622.01	17.083
622.34	16.919
622.67	16.719
623.00	17.381
623.33	15.777
623.66	16.754
623.99	17.700
624.32	16.958
624.65	16.241
624.99	15.877
625.32	16.149
625.65	17.910
625.98	17.566
626.31	16.376
626.64	16.984
626.97	18.237
627.30	17.250
627.63	17.418
627.96	18.419
628.29	16.651
628.62	17.699
628.95	16.733
629.28	18.548
629.61	17.747
629.94	17.498
630.26	16.206
630.59	17.378
630.92	16.923
631.25	16.718
631.58	16.740
631.91	15.351
632.24	16.170
632.57	18.068
632.90	15.658
633.23	18.000
633.56	15.113
633.89	16.523
634.22	18.889
634.55	16.518
634.88	15.964
635.20	18.590
635.53	16.933
635.86	15.345
636.19	18.758
636.52	18.240
636.85	16.253
637.18	16.226
637.51	16.981
637.83	16.426
638.16	17.735
638.49	16.894
638.82	18.816
639.15	18.725
639.48	17.882
639.81	18.550
640.13	16.450
640.46	18.659
640.79	17.526
641.12	18.021
641.45	16.667
641.77	18.222
642.10	20.537
642.43	18.489
642.76	18.812
643.09	17.932
643.41	17.152
643.74	15.651
644.07	18.555
644.40	20.101
644.73	18.214
645.05	17.282
645.38	17.813
645.71	17.553
646.04	18.671
646.36	18.972
646.69	17.806
647.02	20.416
647.35	17.164
647.67	17.916
648.00	19.030
648.33	18.771
648.66	16.441
648.98	16.583
649.31	17.190
649.64	17.739
649.96	15.883
650.29	19.080
650.62	17.265
650.94	17.778
651.27	16.574
651.60	18.919
651.92	18.357
652.25	16.519
652.58	18.667
652.90	19.897
653.23	16.975
653.56	18.274
653.88	16.667
654.21	15.412
654.54	17.657
654.86	18.846
655.19	18.275
655.52	17.647
655.84	16.597
656.17	18.173
656.49	24.633
656.82	25.026
657.15	18.352
657.47	13.721
657.80	9.969
658.13	10.055
658.45	15.138
658.78	14.956
659.10	14.534
659.43	14.684
659.75	14.751
660.08	15.586
660.41	15.526
660.73	18.094
661.06	15.771
661.38	17.808
661.71	18.070
662.03	19.313
662.36	19.341
662.68	17.478
663.01	19.869
663.33	16.009
663.66	20.000
663.98	18.140
664.31	19.190
664.63	15.668
664.96	15.652
665.28	18.102
665.61	17.965
665.93	16.522
666.26	18.655
666.58	16.779
666.91	17.882
667.23	20.283
667.56	18.009
667.88	17.266
668.21	18.854
668.53	17.494
668.86	17.925
669.18	18.396
669.50	16.223
669.83	17.674
670.15	20.513
670.48	17.225
670.80	17.512
671.13	16.331
671.45	15.297
671.77	20.815
672.10	20.198
672.42	19.101
672.75	18.828
673.07	18.784
673.39	19.266
673.72	12.623
674.04	16.458
674.37	18.008
674.69	18.201
675.01	19.111
675.34	18.694
675.66	18.750
675.98	20.177
676.31	18.349
676.63	16.627
676.95	18.409
677.28	19.059
677.60	18.313
677.92	17.431
678.25	17.943
678.57	16.883
678.89	16.597
679.22	18.121
679.54	16.667
679.86	15.905
680.18	19.612
680.51	16.856
680.83	15.308
681.15	17.400
681.48	19.057
681.80	16.322
682.12	17.339
682.44	15.690
682.77	18.764
683.09	18.535
683.41	17.273
683.73	14.977
684.06	17.920
684.38	14.839
684.70	16.558
685.02	17.842
685.34	17.194
685.67	17.824
685.99	17.902
686.31	17.876
686.63	17.625
686.96	17.300
687.28	16.768
687.60	17.681
687.92	19.192
688.24	16.935
688.56	19.432
688.89	18.080
689.21	19.333
689.53	17.169
689.85	17.674
690.17	19.866
690.49	18.440
690.82	16.019
691.14	17.143
691.46	17.523
691.78	19.595
692.10	17.849
692.42	16.450
692.74	18.590
693.06	16.441
693.39	18.326
693.71	12.443
694.03	16.166
694.35	17.757
694.67	16.667
694.99	16.188
695.31	19.843
695.63	16.750
695.95	15.909
696.27	19.689
696.59	17.222
696.91	16.807
697.23	17.738
697.56	19.307
697.88	17.204
698.20	17.995
698.52	17.412
698.84	16.746
699.16	16.000
699.48	18.797
699.80	17.122
700.12	15.903
700.44	16.527
700.76	16.570
701.08	16.364
701.40	14.458
701.72	22.222
702.04	16.172
702.36	21.405
702.68	16.817
703.00	16.667
703.32	17.889
703.64	17.232
703.96	17.681
704.28	17.791
704.60	21.905
704.91	16.719
705.23	15.947
705.55	22.615
705.87	18.412
706.19	14.444
706.51	20.275
706.83	13.826
707.15	15.888
707.47	17.647
707.79	17.188
708.11	17.750
708.43	17.250
708.74	18.605
709.06	18.310
709.38	16.514
709.70	19.527
710.02	21.019
710.34	21.362
710.66	16.026
710.98	17.881
711.29	17.377
711.61	18.305
711.93	19.218
712.25	21.993
712.57	19.048
712.89	17.910
713.20	19.723
713.52	17.422
713.84	21.843
714.16	16.151
714.48	19.677
714.80	17.628
715.11	18.541
715.43	17.555
715.75	20.000
716.07	15.282
716.39	17.450
716.70	21.771
717.02	13.740
717.34	17.409
717.66	18.584
717.97	17.826
718.29	16.736
718.61	18.898
718.93	20.930
719.24	15.589
719.56	22.490
719.88	17.182
720.20	18.182
720.51	18.391
720.83	18.147
721.15	20.588
721.46	21.371
721.78	18.182
722.10	20.074
722.42	14.523
722.73	17.551
723.05	25.714
723.37	16.525
723.68	19.820
724.00	18.376
724.32	15.111
724.63	14.545
724.95	18.777
725.27	17.972
725.58	15.678
725.90	15.079
726.22	18.533
726.53	18.983
726.85	20.974
727.16	18.491
727.48	12.146
727.80	16.194
728.11	19.915
728.43	16.078
728.74	9.677
729.06	19.600
729.38	22.932
729.69	17.530
730.01	11.923
730.32	21.642
730.64	16.608
730.96	19.623
731.27	18.333
731.59	17.966
731.90	18.471
732.22	22.082
732.53	16.279
732.85	16.667
733.16	20.875
733.48	14.029
733.80	18.841
734.11	16.949
734.43	18.900
734.74	17.273
735.06	14.332
735.37	20.544
735.69	20.875
736.00	13.937
736.32	16.779
736.63	19.718
736.95	13.993
737.26	17.082
737.58	18.121
737.89	15.018
738.21	15.038
738.52	16.461
738.83	16.594
739.15	14.410
739.46	20.866
739.78	17.216
740.09	16.993
740.41	20.290
740.72	11.417
741.04	15.789
741.35	14.894
741.66	13.270
741.98	17.347
742.29	18.812
742.61	14.660
742.92	12.322
743.23	9.259
743.55	18.552
743.86	18.182
744.18	17.703
744.49	20.745
744.80	17.391
745.12	19.251
745.43	8.780
745.74	20.833
746.06	21.463
746.37	16.754
746.68	19.905
747.00	24.468
747.31	23.383
747.62	18.447
747.94	16.746
748.25	19.802
748.56	19.672
748.88	17.277
749.19	24.468
749.50	18.227
749.82	16.981
750.13	12.844
750.44	20.301
750.75	20.149
751.07	22.993
751.38	21.073
751.69	15.686
752.01	20.543
752.32	17.928
752.63	17.787
752.94	13.362
753.26	19.665
753.57	15.837
753.88	19.027
754.19	12.083
754.51	18.182
754.82	14.980
755.13	20.833
755.44	22.984
755.75	15.625
756.07	19.066
756.38	14.717
756.69	16.475
757.00	15.333
757.31	19.608
757.63	14.024
757.94	16.944
758.25	16.164
758.56	16.755
758.87	14.731
759.18	18.069
759.50	20.727
759.81	20.736
760.12	16.774
760.43	13.030
760.74	15.741
761.05	17.538
761.36	18.182
761.67	20.000
761.99	17.347
762.30	15.273
762.61	18.972
762.92	18.552
763.23	20.270
763.54	20.093
763.85	18.644
764.16	18.672
764.47	18.952
764.78	15.751
765.10	19.865
765.41	19.243
765.72	15.873
766.03	13.534
766.34	19.343
766.65	21.514
766.96	17.677
767.27	20.745
767.58	16.667
767.89	14.184
768.20	16.477
768.51	19.780
768.82	21.675
769.13	13.825
769.44	13.734
769.75	9.589
770.06	22.845
770.37	18.750
770.68	17.766
770.99	17.195
771.30	23.039
771.61	16.290
771.92	21.552
772.23	19.704
772.54	20.968
772.85	22.840
773.16	21.348
773.47	28.105
773.78	19.608
774.09	16.168
774.39	16.667
774.70	12.739
775.01	18.621
775.32	22.143
775.63	7.438
775.94	20.611
776.25	22.835
776.56	17.500
776.87	16.346
777.18	13.675
777.48	25.862
777.79	8.696
778.10	8.571
778.41	15.315
778.72	21.429
779.03	17.293
779.34	26.241
779.65	22.603
779.95	15.753
780.26	22.069
780.57	19.512
780.88	17.323
781.19	14.655
781.50	27.907
781.80	13.609
782.11	13.208
782.42	18.462
782.73	20.863
783.04	14.815
783.34	17.361
783.65	6.838
783.96	19.672
784.27	17.241
784.57	15.447
784.88	21.094
785.19	21.000
785.50	27.000
785.81	25.862
786.11	18.103
786.42	17.476
786.73	30.909
787.04	12.245
787.34	20.536
787.65	17.143
787.96	11.504
788.26	16.364
788.57	16.239
788.88	21.875
789.19	18.254
789.49	18.261
789.80	20.408
790.11	14.141
790.41	20.909
790.72	17.391
791.03	15.909
791.33	23.750
791.64	27.500
791.95	11.628
792.25	12.766
792.56	32.584
792.87	13.699
793.17	10.145
793.48	13.333
793.79	5.000
794.09	31.250
794.40	9.434
794.70	15.534
795.01	7.317
795.32	19.658
795.62	11.429
795.93	20.588
796.23	17.925
796.54	19.792
796.85	22.059
797.15	25.352
797.46	22.222
797.76	24.242
798.07	0.000
798.37	19.737
798.68	22.727
798.99	19.753
799.29	21.429
799.60	8.696
799.90	26.667
800.21	0.000
800.51	7.692
800.82	23.729
801.12	13.043
801.43	18.033
801.73	19.048
802.04	14.000
802.34	-8.955
802.65	7.692
802.95	25.000
803.26	3.846
803.56	33.333
803.87	-13.043
804.17	18.667
804.48	4.762
804.78	16.667
805.09	10.870
805.39	8.889
805.70	22.222
806.00	-7.018
806.30	11.268
806.61	24.286
806.91	0.000
807.22	17.105
807.52	36.000
807.83	10.909
808.13	4.167
808.43	14.706
808.74	28.358
809.04	18.644
809.35	-3.846
809.65	26.563
809.95	0.000
810.26	36.364
810.56	17.808
810.86	7.143
811.17	2.000
811.47	16.327
811.77	0.000
812.08	29.545
812.38	24.528
812.69	20.000
812.99	27.273
813.29	23.684
813.59	-5.714
813.90	31.818
814.20	-12.821
814.50	7.692
814.81	33.962
815.11	-12.766
815.41	28.814
815.72	-2.381
816.02	29.412
816.32	8.333
816.62	9.756
816.93	16.216
817.23	37.143
817.53	29.167
817.84	13.043
818.14	13.462
818.44	23.684
818.74	43.478
819.04	12.500
819.35	24.324
819.65	11.765
819.95	33.333
820.25	9.524
820.56	25.000
820.86	-20.690
821.16	57.500
821.46	19.149
821.76	42.500
822.07	32.558
822.37	-10.811
822.67	-6.250
822.97	21.429
823.27	-14.286
823.57	0.000
823.88	-14.815
824.18	28.571
824.48	32.353
824.78	29.032
825.08	-13.043
825.38	0.000
825.69	0.000
825.99	18.421
826.29	25.000
826.59	-6.667
826.89	-23.810
827.19	28.261
827.49	22.500
827.79	22.857
828.09	10.714
828.39	27.273
828.70	35.135
829.00	-10.714
829.30	-38.095
829.60	0.000
829.90	40.625
830.20	13.158
830.50	22.222
830.80	8.696
831.10	13.636
831.40	48.485
831.70	48.387
832.00	19.048
832.30	-19.048
832.60	-50.000
832.90	10.345
833.20	5.000
833.50	0.000
833.80	18.519
834.10	30.769
834.40	46.875
834.70	44.444
835.00	31.579
835.30	69.231
835.60	26.667
835.90	54.839
836.20	-4.545
836.50	35.714
836.80	-26.923
837.10	28.571
837.40	-33.333
837.70	27.273
838.00	-9.091
838.30	8.696
838.60	38.462
838.90	68.182
839.19	25.000
839.49	53.333
839.79	23.077
840.09	-50.000
840.39	71.429
840.69	32.143
840.99	3.846
841.29	26.316
841.59	10.000
841.88	63.636
842.18	-20.000
842.48	43.750
842.78	-6.667
843.08	29.630
843.38	-40.000
843.68	52.174
843.97	40.000
844.27	-6.667
844.57	-40.000
844.87	0.000
845.17	-42.857
845.47	40.000
845.76	-14.286
846.06	52.941
846.36	-20.000
846.66	21.429
846.96	26.667
847.25	37.500
847.55	121.429
847.85	-37.500
848.15	40.909
848.44	-166.667
848.74	-25.000
849.04	25.926
849.34	45.455
849.63	-233.333
849.93	-40.000
850.23	-44.444
850.53	190.000
850.82	-7.692
851.12	-77.778
851.42	20.000
851.71	38.462
852.01	-14.286
852.31	25.000
852.61	-27.273
852.90	5.000
853.20	-10.526
853.50	16.667
853.79	21.739
854.09	58.333
854.39	26.316
854.68	-8.333
854.98	-6.452
855.28	30.769
855.57	0.000
855.87	0.000
856.17	40.741
856.46	14.286
856.76	-66.667
857.05	77.778
857.35	28.000
857.65	22.222
857.94	-46.154
858.24	37.931
858.53	5.556
858.83	37.037
859.13	40.909
859.42	26.087
859.72	225.000
860.01	33.333
860.31	40.000
860.60	19.048
860.90	-33.333
861.20	-33.333
861.49	-350.000
861.79	-40.000
862.08	30.000
862.38	73.333
862.67	-220.000
862.97	-100.000
863.26	33.333
863.56	77.778
863.85	-600.000
864.15	0.000
864.44	70.000
864.74	42.857
865.03	25.000
865.33	-80.000
865.62	16.667
865.92	25.000
866.21	-100.000
866.51	62.500
866.80	18.182
867.10	-550.000
867.39	66.667
867.69	0.000
867.98	69.231
868.27	66.667
868.57	6.667
868.86	55.556
869.16	-23.077
869.45	86.667
869.75	-900.000
870.04	0.000
870.33	14.286
870.63	42.857
870.92	266.667
871.22	-60.000
871.51	-200.000
871.80	122.222
872.10	300.000
>>>>>End Processed Spectral Data<<<<<
