SpectraSuite Data File
++++++++++++++++++++++++++++++++++++
Date: Fri May 15 17:25:15 PDT 2015
User: schluterlab
Dark Spectrum Present: Yes
Reference Spectrum Present: Yes
Number of Sampled Component Spectra: 1
Spectrometers: USB2E3373
Integration Time (usec): 3000 (USB2E3373)
Spectra Averaged: 3 (USB2E3373)
Boxcar Smoothing: 0 (USB2E3373)
Correct for Electrical Dark: No (USB2E3373)
Strobe/Lamp Enabled: No (USB2E3373)
Correct for Detector Non-linearity: No (USB2E3373)
Correct for Stray Light: No (USB2E3373)
Number of Pixels in Processed Spectrum: 2048
>>>>>Begin Processed Spectral Data<<<<<
178.53	0.000
178.91	0.000
179.29	75.000
179.67	-300.000
180.04	-42.857
180.42	300.000
180.80	-200.000
181.18	-33.333
181.56	700.000
181.94	300.000
182.31	100.000
182.69	-20.000
183.07	33.333
183.45	-80.000
183.83	-50.000
184.20	45.455
184.58	55.556
184.96	-200.000
185.34	-0.000
185.72	-250.000
186.09	38.462
186.47	-1000.000
186.85	-83.333
187.23	133.333
187.61	-600.000
187.98	66.667
188.36	77.778
188.74	-200.000
189.12	52.941
189.49	38.889
189.87	0.000
190.25	107.143
190.63	250.000
191.00	66.667
191.38	15.789
191.76	300.000
192.14	200.000
192.51	300.000
192.89	55.556
193.27	-42.857
193.65	83.333
194.02	145.455
194.40	100.000
194.78	-50.000
195.15	91.667
195.53	-50.000
195.91	25.000
196.29	-150.000
196.66	138.462
197.04	42.857
197.42	33.333
197.79	-466.667
198.17	-38.462
198.55	900.000
198.92	-166.667
199.30	-1300.000
199.68	-160.000
200.05	-100.000
200.43	0.000
200.81	-566.667
201.18	-233.333
201.56	700.000
201.94	-100.000
202.31	33.333
202.69	-80.000
203.07	350.000
203.44	1400.000
203.82	0.000
204.19	35.714
204.57	-366.667
204.95	125.000
205.32	-90.000
205.70	-42.857
206.08	-175.000
206.45	255.556
206.83	150.000
207.20	71.429
207.58	-100.000
207.96	66.667
208.33	30.000
208.71	0.000
209.08	-50.000
209.46	0.000
209.84	140.000
210.21	-100.000
210.59	-14.286
210.96	-33.333
211.34	-75.000
211.71	26.667
212.09	-100.000
212.46	-600.000
212.84	0.000
213.22	110.000
213.59	150.000
213.97	61.538
214.34	18.182
214.72	16.667
215.09	300.000
215.47	46.154
215.84	-45.455
216.22	-100.000
216.59	-25.000
216.97	500.000
217.34	-100.000
217.72	0.000
218.09	50.000
218.47	125.000
218.84	100.000
219.22	-44.444
219.59	280.000
219.97	300.000
220.34	50.000
220.72	71.429
221.09	-100.000
221.47	50.000
221.84	-650.000
222.22	-350.000
222.59	54.545
222.97	-16.667
223.34	166.667
223.72	-21.429
224.09	28.571
224.46	39.286
224.84	433.333
225.21	30.000
225.59	93.333
225.96	50.000
226.34	150.000
226.71	-28.571
227.08	-16.667
227.46	25.000
227.83	-450.000
228.21	77.778
228.58	0.000
228.95	50.000
229.33	100.000
229.70	75.000
230.08	12.500
230.45	0.000
230.82	71.429
231.20	-33.333
231.57	78.571
231.95	28.571
232.32	-10.000
232.69	57.143
233.07	100.000
233.44	-140.000
233.81	30.000
234.19	111.111
234.56	-5.882
234.93	500.000
235.31	-50.000
235.68	-40.000
236.05	-61.538
236.43	5.000
236.80	-29.412
237.17	21.875
237.55	-10.000
237.92	18.519
238.29	22.222
238.67	13.333
239.04	14.706
239.41	-17.073
239.79	10.000
240.16	17.073
240.53	31.579
240.91	-8.696
241.28	20.635
241.65	17.857
242.02	13.699
242.40	11.667
242.77	20.339
243.14	6.061
243.51	7.500
243.89	27.586
244.26	6.897
244.63	11.905
245.00	12.371
245.38	9.278
245.75	8.989
246.12	7.759
246.49	10.744
246.87	9.615
247.24	2.521
247.61	2.632
247.98	4.878
248.36	13.750
248.73	9.868
249.10	11.039
249.47	6.329
249.84	13.072
250.22	7.647
250.59	9.150
250.96	13.146
251.33	9.302
251.70	12.941
252.08	15.228
252.45	12.376
252.82	6.030
253.19	8.756
253.56	5.140
253.94	13.063
254.31	14.348
254.68	14.474
255.05	7.480
255.42	13.100
255.79	9.653
256.16	7.782
256.54	13.806
256.91	11.027
257.28	12.268
257.65	8.240
258.02	10.284
258.39	13.131
258.76	10.989
259.14	10.963
259.51	12.945
259.88	8.591
260.25	9.150
260.62	11.458
260.99	8.814
261.36	6.164
261.73	8.861
262.10	12.462
262.47	10.123
262.85	8.150
263.22	8.923
263.59	9.346
263.96	13.043
264.33	8.485
264.70	7.143
265.07	11.012
265.44	9.632
265.81	9.322
266.18	11.749
266.55	9.769
266.92	12.953
267.29	9.399
267.66	9.463
268.03	10.209
268.40	10.183
268.77	14.171
269.14	9.832
269.51	12.082
269.88	7.481
270.25	8.673
270.62	10.000
270.99	9.207
271.36	8.313
271.73	12.676
272.10	9.246
272.47	10.638
272.84	12.871
273.21	11.137
273.58	11.566
273.95	11.213
274.32	10.393
274.69	8.371
275.06	10.714
275.43	9.070
275.80	12.141
276.17	9.885
276.54	11.135
276.91	11.184
277.28	8.734
277.65	10.950
278.02	10.213
278.39	10.284
278.76	9.015
279.13	6.639
279.50	11.765
279.87	9.935
280.23	9.032
280.60	10.916
280.97	10.909
281.34	7.692
281.71	11.294
282.08	9.816
282.45	9.785
282.82	10.039
283.19	9.671
283.56	10.405
283.92	9.298
284.29	7.692
284.66	10.465
285.03	10.020
285.40	8.696
285.77	9.139
286.14	11.552
286.51	11.439
286.87	7.861
287.24	8.471
287.61	8.289
287.98	8.596
288.35	8.319
288.72	10.158
289.08	8.854
289.45	11.072
289.82	10.315
290.19	8.532
290.56	7.376
290.93	9.428
291.29	8.166
291.66	8.819
292.03	9.091
292.40	7.581
292.77	7.177
293.13	7.143
293.50	7.739
293.87	9.618
294.24	8.964
294.60	8.048
294.97	9.077
295.34	7.055
295.71	7.601
296.08	7.474
296.44	5.832
296.81	7.500
297.18	8.116
297.55	7.859
297.91	7.260
298.28	9.103
298.65	8.141
299.02	7.008
299.38	5.198
299.75	6.897
300.12	6.806
300.48	5.270
300.85	4.689
301.22	8.182
301.59	6.053
301.95	6.962
302.32	9.857
302.69	7.338
303.05	7.426
303.42	8.095
303.79	8.178
304.15	8.124
304.52	5.826
304.89	6.433
305.25	6.416
305.62	5.484
305.99	7.251
306.35	6.127
306.72	6.862
307.09	7.298
307.45	7.922
307.82	6.597
308.19	6.039
308.55	6.870
308.92	8.170
309.29	5.251
309.65	5.274
310.02	6.821
310.38	6.257
310.75	6.776
311.12	6.351
311.48	6.893
311.85	7.016
312.22	6.962
312.58	5.839
312.95	6.830
313.31	5.797
313.68	5.340
314.05	6.224
314.41	6.701
314.78	6.186
315.14	7.400
315.51	6.936
315.87	7.377
316.24	6.370
316.61	7.087
316.97	7.639
317.34	7.031
317.70	6.883
318.07	6.635
318.43	5.784
318.80	6.629
319.16	7.812
319.53	6.933
319.89	6.791
320.26	7.389
320.62	7.523
320.99	7.098
321.35	6.886
321.72	6.957
322.08	7.855
322.45	7.310
322.81	8.743
323.18	7.949
323.54	7.336
323.91	7.984
324.27	8.105
324.64	8.521
325.00	7.664
325.37	8.540
325.73	7.162
326.10	8.356
326.46	9.327
326.83	8.399
327.19	9.241
327.56	8.949
327.92	9.067
328.29	9.554
328.65	8.302
329.01	9.467
329.38	8.203
329.74	8.876
330.11	9.082
330.47	7.885
330.84	8.558
331.20	10.932
331.56	9.630
331.93	10.776
332.29	10.632
332.66	7.964
333.02	9.665
333.38	9.074
333.75	9.432
334.11	9.221
334.48	9.882
334.84	9.524
335.20	9.241
335.57	8.885
335.93	9.756
336.29	9.761
336.66	9.083
337.02	8.271
337.38	7.778
337.75	10.273
338.11	9.558
338.47	10.493
338.84	9.704
339.20	9.415
339.56	10.459
339.93	9.758
340.29	9.450
340.65	9.857
341.02	10.638
341.38	9.381
341.74	9.099
342.11	8.579
342.47	7.918
342.83	9.689
343.20	9.669
343.56	9.478
343.92	9.743
344.28	9.223
344.65	9.067
345.01	8.038
345.37	9.672
345.73	11.046
346.10	9.577
346.46	10.008
346.82	10.393
347.19	8.146
347.55	9.774
347.91	9.951
348.27	9.458
348.63	8.944
349.00	9.188
349.36	8.811
349.72	9.867
350.08	9.180
350.45	10.375
350.81	10.548
351.17	9.609
351.53	9.633
351.89	9.083
352.26	9.280
352.62	10.242
352.98	9.799
353.34	10.064
353.70	9.547
354.07	9.597
354.43	8.727
354.79	10.652
355.15	10.476
355.51	10.997
355.87	9.223
356.24	9.054
356.60	8.812
356.96	9.921
357.32	10.064
357.68	9.539
358.04	9.532
358.40	8.923
358.77	9.410
359.13	9.287
359.49	9.861
359.85	10.374
360.21	9.888
360.57	9.258
360.93	10.287
361.29	8.761
361.66	10.580
362.02	10.530
362.38	10.739
362.74	9.235
363.10	9.932
363.46	9.933
363.82	11.119
364.18	10.406
364.54	10.147
364.90	9.319
365.26	9.825
365.62	10.073
365.98	9.897
366.35	10.706
366.71	11.382
367.07	11.393
367.43	10.208
367.79	9.965
368.15	9.835
368.51	10.342
368.87	9.907
369.23	10.036
369.59	9.840
369.95	10.704
370.31	10.838
370.67	9.925
371.03	9.709
371.39	9.628
371.75	10.476
372.11	11.127
372.47	10.947
372.83	10.291
373.19	11.698
373.55	10.036
373.91	10.943
374.27	11.127
374.63	10.481
374.99	10.851
375.35	10.585
375.71	10.979
376.07	12.008
376.42	10.680
376.78	10.872
377.14	11.239
377.50	10.757
377.86	11.981
378.22	11.168
378.58	11.859
378.94	10.523
379.30	11.541
379.66	11.348
380.02	11.281
380.38	11.077
380.74	11.251
381.09	11.840
381.45	11.376
381.81	11.968
382.17	11.675
382.53	11.868
382.89	11.551
383.25	11.699
383.61	11.707
383.97	11.873
384.32	11.257
384.68	11.889
385.04	11.213
385.40	11.450
385.76	13.270
386.12	12.031
386.48	13.538
386.83	12.238
387.19	12.698
387.55	12.484
387.91	12.286
388.27	12.759
388.62	12.083
388.98	11.786
389.34	13.367
389.70	13.176
390.06	12.146
390.42	12.370
390.77	11.772
391.13	12.232
391.49	12.419
391.85	12.606
392.20	13.183
392.56	12.842
392.92	12.566
393.28	12.323
393.64	12.072
393.99	13.981
394.35	12.334
394.71	13.346
395.07	12.696
395.42	12.629
395.78	12.508
396.14	13.682
396.50	13.443
396.85	12.170
397.21	12.907
397.57	12.790
397.92	13.241
398.28	12.586
398.64	12.590
399.00	13.431
399.35	12.528
399.71	12.924
400.07	13.664
400.42	13.097
400.78	13.350
401.14	12.583
401.49	13.818
401.85	12.431
402.21	13.373
402.57	13.312
402.92	12.233
403.28	14.223
403.63	12.358
403.99	12.436
404.35	13.242
404.70	12.619
405.06	13.043
405.42	12.989
405.77	12.435
406.13	12.398
406.49	13.440
406.84	12.592
407.20	13.245
407.55	13.458
407.91	13.035
408.27	12.874
408.62	13.908
408.98	12.200
409.34	14.064
409.69	13.243
410.05	13.300
410.40	12.840
410.76	13.510
411.11	12.500
411.47	13.478
411.83	12.869
412.18	13.127
412.54	13.733
412.89	12.192
413.25	12.575
413.60	12.298
413.96	12.577
414.31	13.110
414.67	13.406
415.03	12.650
415.38	12.337
415.74	13.029
416.09	13.912
416.45	13.639
416.80	13.351
417.16	13.881
417.51	13.391
417.87	13.233
418.22	13.536
418.58	13.579
418.93	14.483
419.29	12.804
419.64	13.156
420.00	13.728
420.35	13.731
420.71	14.459
421.06	13.874
421.42	13.822
421.77	13.295
422.12	13.961
422.48	13.373
422.83	13.863
423.19	13.826
423.54	13.169
423.90	13.958
424.25	14.409
424.61	14.321
424.96	14.286
425.31	14.731
425.67	14.202
426.02	14.075
426.38	14.402
426.73	15.799
427.09	14.051
427.44	14.941
427.79	14.673
428.15	15.352
428.50	14.476
428.85	14.128
429.21	14.375
429.56	15.418
429.92	14.587
430.27	15.388
430.62	15.264
430.98	14.703
431.33	15.195
431.68	15.489
432.04	15.092
432.39	14.718
432.74	14.191
433.10	16.207
433.45	15.950
433.80	15.322
434.16	14.460
434.51	16.075
434.86	15.389
435.22	16.265
435.57	15.346
435.92	16.467
436.28	15.444
436.63	15.744
436.98	15.469
437.34	15.426
437.69	16.696
438.04	16.866
438.39	15.822
438.75	16.758
439.10	15.676
439.45	15.338
439.81	16.330
440.16	15.914
440.51	16.179
440.86	17.583
441.22	16.912
441.57	16.667
441.92	16.527
442.27	16.242
442.63	17.024
442.98	16.772
443.33	16.249
443.68	16.552
444.03	16.692
444.39	17.265
444.74	17.391
445.09	16.537
445.44	16.296
445.79	18.051
446.15	16.905
446.50	16.195
446.85	16.259
447.20	16.684
447.55	17.522
447.91	17.823
448.26	17.188
448.61	17.214
448.96	18.015
449.31	16.590
449.66	16.899
450.02	17.399
450.37	17.427
450.72	17.354
451.07	18.291
451.42	17.915
451.77	17.601
452.12	16.447
452.47	17.708
452.83	17.903
453.18	17.204
453.53	17.889
453.88	17.608
454.23	17.025
454.58	18.766
454.93	17.204
455.28	16.635
455.63	18.103
455.98	17.679
456.34	16.858
456.69	17.535
457.04	17.454
457.39	18.348
457.74	17.775
458.09	18.187
458.44	18.315
458.79	16.751
459.14	17.906
459.49	18.388
459.84	17.992
460.19	18.143
460.54	17.726
460.89	17.273
461.24	18.199
461.59	18.290
461.94	16.541
462.29	17.310
462.64	18.206
462.99	18.348
463.34	17.455
463.69	17.053
464.04	18.099
464.39	18.072
464.74	17.791
465.09	17.218
465.44	18.119
465.79	17.063
466.14	17.446
466.49	17.884
466.84	18.798
467.19	18.085
467.54	18.072
467.89	16.993
468.24	18.005
468.59	18.095
468.94	17.206
469.29	18.820
469.64	19.412
469.99	18.991
470.34	18.225
470.68	18.046
471.03	19.108
471.38	19.330
471.73	18.487
472.08	18.657
472.43	17.785
472.78	17.889
473.13	18.571
473.48	18.762
473.83	18.991
474.17	18.459
474.52	19.081
474.87	18.909
475.22	18.609
475.57	18.803
475.92	18.815
476.27	18.859
476.61	18.229
476.96	18.795
477.31	18.496
477.66	18.090
478.01	18.866
478.36	18.736
478.70	18.978
479.05	19.066
479.40	19.078
479.75	18.457
480.10	18.484
480.45	18.650
480.79	19.889
481.14	19.109
481.49	17.537
481.84	19.112
482.19	18.475
482.53	18.897
482.88	18.711
483.23	18.042
483.58	18.679
483.92	17.909
484.27	18.414
484.62	18.377
484.97	17.910
485.31	18.678
485.66	17.894
486.01	17.757
486.36	17.560
486.70	18.054
487.05	18.070
487.40	18.304
487.75	18.141
488.09	18.232
488.44	19.085
488.79	19.089
489.13	19.191
489.48	19.581
489.83	19.193
490.17	18.966
490.52	18.799
490.87	19.482
491.22	18.959
491.56	18.928
491.91	18.738
492.26	19.008
492.60	18.378
492.95	20.118
493.30	18.759
493.64	19.401
493.99	19.420
494.34	18.350
494.68	19.524
495.03	18.491
495.37	19.627
495.72	19.334
496.07	19.805
496.41	19.198
496.76	19.576
497.11	19.096
497.45	20.095
497.80	19.475
498.14	20.219
498.49	19.807
498.84	19.411
499.18	19.428
499.53	19.643
499.87	19.407
500.22	19.782
500.56	19.718
500.91	19.629
501.26	19.377
501.60	19.970
501.95	19.311
502.29	18.983
502.64	19.691
502.98	19.882
503.33	19.020
503.67	19.518
504.02	20.137
504.36	20.386
504.71	19.848
505.06	19.527
505.40	20.254
505.75	20.000
506.09	20.122
506.44	20.585
506.78	20.765
507.13	20.424
507.47	19.634
507.82	20.085
508.16	20.232
508.51	20.567
508.85	20.513
509.19	19.532
509.54	20.858
509.88	20.280
510.23	21.463
510.57	20.363
510.92	20.096
511.26	20.240
511.61	21.122
511.95	21.315
512.30	20.953
512.64	21.202
512.98	21.336
513.33	22.048
513.67	21.603
514.02	21.968
514.36	21.543
514.70	21.737
515.05	21.857
515.39	21.311
515.74	22.216
516.08	22.833
516.42	23.027
516.77	23.464
517.11	21.958
517.46	22.801
517.80	22.169
518.14	22.045
518.49	21.935
518.83	21.507
519.17	21.346
519.52	21.847
519.86	22.149
520.20	22.175
520.55	22.889
520.89	22.334
521.23	23.053
521.58	23.975
521.92	23.462
522.26	22.576
522.61	22.597
522.95	23.377
523.29	22.935
523.64	23.761
523.98	23.979
524.32	22.938
524.66	23.111
525.01	23.571
525.35	24.433
525.69	22.761
526.04	22.884
526.38	25.162
526.72	23.022
527.06	23.152
527.41	24.934
527.75	23.592
528.09	23.588
528.43	24.375
528.78	24.620
529.12	23.742
529.46	24.496
529.80	23.623
530.15	24.620
530.49	23.502
530.83	24.282
531.17	23.774
531.51	24.555
531.86	24.133
532.20	23.660
532.54	24.166
532.88	24.709
533.22	24.126
533.57	24.705
533.91	23.042
534.25	24.023
534.59	23.990
534.93	22.845
535.27	22.652
535.62	23.396
535.96	24.266
536.30	24.472
536.64	24.604
536.98	23.902
537.32	24.822
537.66	25.245
538.01	25.524
538.35	24.202
538.69	23.901
539.03	23.240
539.37	25.101
539.71	23.790
540.05	23.761
540.39	25.069
540.73	24.338
541.07	24.309
541.42	24.664
541.76	23.744
542.10	23.813
542.44	23.905
542.78	23.262
543.12	23.901
543.46	24.061
543.80	24.497
544.14	23.298
544.48	25.583
544.82	24.949
545.16	24.522
545.50	25.567
545.84	25.425
546.18	25.035
546.52	24.658
546.86	24.874
547.20	25.036
547.54	23.534
547.88	24.321
548.22	24.260
548.56	24.208
548.90	25.674
549.24	24.656
549.58	25.176
549.92	24.589
550.26	25.348
550.60	25.428
550.94	25.541
551.28	25.502
551.62	26.385
551.96	25.263
552.30	25.877
552.64	25.882
552.98	25.176
553.32	25.107
553.66	24.456
554.00	25.912
554.34	26.145
554.68	25.147
555.02	27.083
555.36	24.757
555.69	25.421
556.03	24.483
556.37	25.125
556.71	25.343
557.05	26.696
557.39	25.130
557.73	25.562
558.07	26.772
558.41	26.723
558.75	27.124
559.08	27.423
559.42	26.587
559.76	26.902
560.10	25.765
560.44	25.540
560.78	25.734
561.12	25.670
561.45	25.369
561.79	26.681
562.13	27.537
562.47	26.043
562.81	26.225
563.15	26.375
563.48	25.177
563.82	25.669
564.16	26.323
564.50	25.338
564.84	26.238
565.17	26.090
565.51	26.503
565.85	26.886
566.19	25.796
566.52	26.139
566.86	26.928
567.20	25.342
567.54	25.182
567.88	26.596
568.21	25.566
568.55	25.326
568.89	26.129
569.23	25.325
569.56	24.869
569.90	25.173
570.24	24.042
570.57	23.964
570.91	24.399
571.25	23.907
571.59	23.451
571.92	22.963
572.26	23.913
572.60	23.504
572.93	23.784
573.27	23.417
573.61	23.031
573.95	23.321
574.28	22.961
574.62	23.214
574.96	22.887
575.29	22.817
575.63	22.493
575.97	22.554
576.30	22.772
576.64	22.914
576.98	22.986
577.31	23.347
577.65	22.752
577.98	23.035
578.32	22.544
578.66	22.330
578.99	22.836
579.33	22.708
579.67	22.559
580.00	23.190
580.34	23.060
580.67	22.577
581.01	22.863
581.35	23.062
581.68	22.909
582.02	22.830
582.35	22.711
582.69	23.490
583.02	23.008
583.36	23.303
583.70	23.754
584.03	24.270
584.37	24.478
584.70	24.231
585.04	23.627
585.37	23.587
585.71	23.648
586.04	23.525
586.38	23.473
586.72	24.161
587.05	24.119
587.39	24.713
587.72	24.631
588.06	23.969
588.39	24.694
588.73	24.573
589.06	25.049
589.40	25.372
589.73	26.214
590.07	26.133
590.40	25.697
590.73	26.071
591.07	25.742
591.40	25.646
591.74	25.611
592.07	26.438
592.41	26.855
592.74	25.169
593.08	24.939
593.41	24.811
593.75	24.697
594.08	25.163
594.41	25.218
594.75	25.191
595.08	25.955
595.42	25.948
595.75	26.249
596.09	25.684
596.42	26.457
596.75	26.465
597.09	26.606
597.42	27.191
597.75	26.981
598.09	25.713
598.42	26.986
598.76	26.684
599.09	26.082
599.42	25.616
599.76	25.959
600.09	25.943
600.42	25.474
600.76	25.483
601.09	25.725
601.42	25.813
601.76	25.844
602.09	25.908
602.42	26.832
602.76	26.570
603.09	26.163
603.42	26.923
603.76	26.210
604.09	26.286
604.42	27.115
604.76	27.370
605.09	26.463
605.42	26.682
605.75	27.014
606.09	26.454
606.42	26.022
606.75	26.580
607.09	26.769
607.42	26.362
607.75	25.666
608.08	25.427
608.42	26.587
608.75	26.988
609.08	26.557
609.41	27.360
609.75	26.966
610.08	27.209
610.41	26.425
610.74	27.986
611.07	27.494
611.41	27.504
611.74	28.145
612.07	27.248
612.40	27.790
612.73	28.079
613.07	27.222
613.40	27.352
613.73	27.644
614.06	27.824
614.39	28.257
614.72	27.059
615.06	28.715
615.39	26.583
615.72	26.911
616.05	27.654
616.38	27.521
616.71	28.196
617.05	28.721
617.38	28.536
617.71	27.421
618.04	28.825
618.37	28.941
618.70	29.043
619.03	29.514
619.36	27.786
619.69	29.265
620.03	29.072
620.36	28.684
620.69	29.122
621.02	29.969
621.35	30.456
621.68	30.017
622.01	29.333
622.34	30.008
622.67	29.890
623.00	29.709
623.33	28.582
623.66	29.544
623.99	28.669
624.32	29.810
624.65	29.549
624.99	29.797
625.32	28.127
625.65	30.872
625.98	30.620
626.31	30.341
626.64	31.802
626.97	31.414
627.30	30.035
627.63	30.676
627.96	31.716
628.29	32.470
628.62	31.957
628.95	32.665
629.28	31.855
629.61	30.209
629.94	31.281
630.26	31.423
630.59	32.466
630.92	32.103
631.25	30.564
631.58	32.709
631.91	32.456
632.24	33.257
632.57	34.205
632.90	31.673
633.23	32.353
633.56	34.509
633.89	34.649
634.22	33.457
634.55	34.562
634.88	34.738
635.20	32.564
635.53	34.400
635.86	33.420
636.19	35.188
636.52	34.311
636.85	31.762
637.18	32.579
637.51	34.088
637.83	32.852
638.16	35.880
638.49	33.243
638.82	33.553
639.15	34.600
639.48	32.325
639.81	32.636
640.13	35.786
640.46	34.840
640.79	34.315
641.12	34.564
641.45	36.036
641.77	33.037
642.10	37.441
642.43	35.209
642.76	34.323
643.09	37.318
643.41	35.599
643.74	36.573
644.07	34.483
644.40	38.514
644.73	37.128
645.05	37.248
645.38	36.861
645.71	35.106
646.04	35.907
646.36	35.638
646.69	38.489
647.02	38.752
647.35	35.261
647.67	37.112
648.00	37.500
648.33	37.031
648.66	36.610
648.98	34.171
649.31	36.198
649.64	32.653
649.96	34.360
650.29	35.945
650.62	34.701
650.94	37.037
651.27	35.568
651.60	38.018
651.92	36.014
652.25	34.103
652.58	36.000
652.90	38.079
653.23	33.782
653.56	33.841
653.88	34.536
654.21	33.450
654.54	32.598
654.86	38.710
655.19	35.819
655.52	31.192
655.84	25.543
656.17	28.264
656.49	38.148
656.82	40.928
657.15	31.746
657.47	23.737
657.80	17.902
658.13	17.765
658.45	27.929
658.78	27.566
659.10	28.339
659.43	29.295
659.75	29.798
660.08	30.759
660.41	33.095
660.73	36.464
661.06	38.475
661.38	37.182
661.71	36.345
662.03	40.558
662.36	37.143
662.68	37.389
663.01	39.083
663.33	37.819
663.66	36.512
663.98	36.279
664.31	38.166
664.63	37.097
664.96	35.435
665.28	36.203
665.61	36.364
665.93	38.261
666.26	37.744
666.58	38.702
666.91	39.765
667.23	37.736
667.56	41.469
667.88	38.369
668.21	39.618
668.53	39.480
668.86	38.208
669.18	38.679
669.50	36.077
669.83	36.744
670.15	40.793
670.48	38.756
670.80	37.558
671.13	37.360
671.45	36.530
671.77	41.202
672.10	35.842
672.42	34.644
672.75	34.813
673.07	37.925
673.39	36.147
673.72	36.292
674.04	37.292
674.37	40.042
674.69	38.544
675.01	37.333
675.34	37.613
675.66	41.435
675.98	39.024
676.31	39.450
676.63	36.105
676.95	38.409
677.28	36.471
677.60	38.072
677.92	38.532
678.25	36.543
678.57	38.961
678.89	37.185
679.22	37.136
679.54	36.747
679.86	35.785
680.18	35.340
680.51	34.848
680.83	35.785
681.15	35.600
681.48	41.598
681.80	36.157
682.12	35.887
682.44	34.937
682.77	34.658
683.09	38.215
683.41	36.364
683.73	38.018
684.06	35.398
684.38	37.204
684.70	39.651
685.02	38.797
685.34	35.178
685.67	33.208
685.99	37.975
686.31	33.274
686.63	33.024
686.96	34.221
687.28	33.333
687.60	34.411
687.92	40.606
688.24	37.500
688.56	38.646
688.89	37.946
689.21	35.111
689.53	35.963
689.85	37.907
690.17	39.509
690.49	37.352
690.82	37.136
691.14	37.619
691.46	34.813
691.78	34.009
692.10	36.559
692.42	36.797
692.74	35.256
693.06	34.234
693.39	33.937
693.71	35.294
694.03	35.335
694.35	35.280
694.67	40.404
694.99	34.465
695.31	41.253
695.63	38.500
695.95	36.364
696.27	37.306
696.59	40.556
696.91	37.535
697.23	36.247
697.56	38.861
697.88	35.699
698.20	36.902
698.52	38.118
698.84	34.689
699.16	37.250
699.48	35.840
699.80	40.199
700.12	39.892
700.44	40.336
700.76	36.919
701.08	38.182
701.40	35.241
701.72	45.062
702.04	40.924
702.36	40.468
702.68	40.841
703.00	39.394
703.32	38.416
703.64	38.418
703.96	37.101
704.28	38.650
704.60	38.095
704.91	33.123
705.23	40.864
705.55	43.463
705.87	40.794
706.19	41.852
706.51	41.237
706.83	42.765
707.15	33.022
707.47	40.616
707.79	36.458
708.11	38.750
708.43	39.250
708.74	37.726
709.06	39.155
709.38	40.367
709.70	40.533
710.02	42.994
710.34	41.486
710.66	38.782
710.98	37.748
711.29	40.984
711.61	36.271
711.93	40.391
712.25	40.893
712.57	44.322
712.89	39.179
713.20	39.100
713.52	39.721
713.84	38.908
714.16	37.801
714.48	37.419
714.80	43.590
715.11	33.739
715.43	34.796
715.75	39.667
716.07	37.209
716.39	40.268
716.70	39.852
717.02	39.695
717.34	36.032
717.66	42.035
717.97	40.000
718.29	40.167
718.61	41.732
718.93	38.372
719.24	41.445
719.56	34.538
719.88	42.268
720.20	35.985
720.51	34.866
720.83	39.382
721.15	48.739
721.46	40.726
721.78	35.573
722.10	39.033
722.42	35.270
722.73	38.776
723.05	35.918
723.37	41.949
723.68	40.541
724.00	45.299
724.32	40.444
724.63	39.091
724.95	37.991
725.27	43.318
725.58	44.915
725.90	35.714
726.22	37.838
726.53	36.271
726.85	42.697
727.16	41.887
727.48	31.984
727.80	39.271
728.11	39.407
728.43	38.039
728.74	36.694
729.06	40.400
729.38	44.737
729.69	34.263
730.01	32.692
730.32	41.418
730.64	42.049
730.96	42.264
731.27	38.333
731.59	35.932
731.90	39.490
732.22	39.117
732.53	38.538
732.85	41.844
733.16	40.067
733.48	31.655
733.80	36.594
734.11	38.983
734.43	36.770
734.74	35.455
735.06	34.853
735.37	36.254
735.69	38.384
736.00	40.418
736.32	32.215
736.63	39.437
736.95	35.836
737.26	39.502
737.58	33.893
737.89	38.095
738.21	40.226
738.52	39.918
738.83	38.428
739.15	35.808
739.46	38.583
739.78	35.531
740.09	33.987
740.41	36.232
740.72	33.858
741.04	40.891
741.35	38.723
741.66	37.915
741.98	41.837
742.29	37.129
742.61	42.932
742.92	41.232
743.23	34.722
743.55	39.367
743.86	39.713
744.18	39.234
744.49	40.957
744.80	42.391
745.12	42.246
745.43	38.049
745.74	44.271
746.06	38.537
746.37	40.838
746.68	39.336
747.00	40.957
747.31	42.289
747.62	38.350
747.94	44.498
748.25	39.109
748.56	40.437
748.88	45.026
749.19	46.809
749.50	40.394
749.82	33.962
750.13	31.651
750.44	41.353
750.75	41.418
751.07	42.701
751.38	39.080
751.69	37.647
752.01	40.310
752.32	36.255
752.63	34.783
752.94	37.931
753.26	43.096
753.57	40.724
753.88	37.168
754.19	40.833
754.51	39.669
754.82	34.818
755.13	43.333
755.44	38.710
755.75	41.016
756.07	38.911
756.38	35.472
756.69	35.249
757.00	38.333
757.31	38.235
757.63	38.415
757.94	35.000
758.25	32.603
758.56	35.904
758.87	32.295
759.18	35.514
759.50	33.455
759.81	41.137
760.12	35.161
760.43	35.455
760.74	34.568
761.05	33.846
761.36	33.807
761.67	36.364
761.99	37.755
762.30	32.364
762.61	37.154
762.92	34.842
763.23	38.288
763.54	35.514
763.85	44.915
764.16	36.929
764.47	34.274
764.78	32.234
765.10	41.077
765.41	36.278
765.72	36.825
766.03	35.338
766.34	33.212
766.65	41.434
766.96	42.424
767.27	42.021
767.58	31.609
767.89	39.716
768.20	33.523
768.51	33.516
768.82	40.887
769.13	32.719
769.44	35.622
769.75	34.703
770.06	31.897
770.37	37.500
770.68	40.102
770.99	41.176
771.30	36.275
771.61	36.199
771.92	41.379
772.23	39.901
772.54	39.785
772.85	40.123
773.16	40.449
773.47	41.176
773.78	41.830
774.09	37.725
774.39	36.000
774.70	35.032
775.01	40.690
775.32	43.571
775.63	39.669
775.94	40.458
776.25	41.732
776.56	42.500
776.87	45.192
777.18	37.607
777.48	42.241
777.79	34.783
778.10	39.048
778.41	44.144
778.72	50.000
779.03	34.586
779.34	34.752
779.65	45.890
779.95	35.616
780.26	39.310
780.57	42.276
780.88	37.008
781.19	43.103
781.50	37.209
781.80	32.544
782.11	30.818
782.42	41.538
782.73	31.655
783.04	35.556
783.34	29.167
783.65	32.479
783.96	34.426
784.27	42.069
784.57	47.154
784.88	30.469
785.19	50.000
785.50	49.000
785.81	42.241
786.11	40.517
786.42	38.835
786.73	47.273
787.04	32.653
787.34	33.929
787.65	36.190
787.96	34.513
788.26	44.545
788.57	39.316
788.88	42.188
789.19	35.714
789.49	32.174
789.80	40.816
790.11	37.374
790.41	34.545
790.72	42.391
791.03	12.500
791.33	51.250
791.64	36.250
791.95	34.884
792.25	32.979
792.56	44.944
792.87	32.877
793.17	40.580
793.48	32.000
793.79	33.750
794.09	45.000
794.40	33.962
794.70	30.097
795.01	31.707
795.32	40.171
795.62	33.333
795.93	33.333
796.23	37.736
796.54	38.542
796.85	55.882
797.15	35.211
797.46	34.722
797.76	43.939
798.07	41.860
798.37	27.632
798.68	36.364
798.99	35.802
799.29	48.571
799.60	40.580
799.90	37.333
800.21	39.344
800.51	43.077
800.82	40.678
801.12	31.884
801.43	36.066
801.73	50.794
802.04	24.000
802.34	52.239
802.65	65.385
802.95	23.214
803.26	44.231
803.56	37.255
803.87	41.304
804.17	41.333
804.48	36.508
804.78	35.185
805.09	43.478
805.39	37.778
805.70	40.741
806.00	10.526
806.30	32.394
806.61	58.571
806.91	19.444
807.22	47.368
807.52	37.333
807.83	32.727
808.13	40.278
808.43	55.882
808.74	29.851
809.04	33.898
809.35	51.923
809.65	31.250
809.95	24.324
810.26	34.091
810.56	38.356
810.86	54.762
811.17	50.000
811.47	24.490
811.77	28.947
812.08	27.273
812.38	26.415
812.69	45.000
812.99	33.333
813.29	42.105
813.59	28.571
813.90	15.909
814.20	33.333
814.50	34.615
814.81	43.396
815.11	23.404
815.41	42.373
815.72	54.762
816.02	50.980
816.32	33.333
816.62	51.220
816.93	32.432
817.23	28.571
817.53	52.083
817.84	39.130
818.14	25.000
818.44	28.947
818.74	67.391
819.04	20.000
819.35	45.946
819.65	20.588
819.95	13.889
820.25	52.381
820.56	67.500
820.86	27.586
821.16	67.500
821.46	34.043
821.76	42.500
822.07	41.860
822.37	21.622
822.67	34.375
822.97	54.762
823.27	39.286
823.57	40.000
823.88	3.704
824.18	53.571
824.48	26.471
824.78	32.258
825.08	8.696
825.38	48.485
825.69	50.000
825.99	50.000
826.29	36.111
826.59	106.667
826.89	42.857
827.19	28.261
827.49	37.500
827.79	28.571
828.09	42.857
828.39	69.697
828.70	75.676
829.00	50.000
829.30	90.476
829.60	40.000
829.90	59.375
830.20	26.316
830.50	11.111
830.80	47.826
831.10	36.364
831.40	100.000
831.70	54.839
832.00	90.476
832.30	33.333
832.60	25.000
832.90	55.172
833.20	55.000
833.50	39.394
833.80	11.111
834.10	34.615
834.40	46.875
834.70	122.222
835.00	31.579
835.30	73.077
835.60	106.667
835.90	41.935
836.20	54.545
836.50	42.857
836.80	-26.923
837.10	39.286
837.40	300.000
837.70	22.727
838.00	0.000
838.30	56.522
838.60	15.385
838.90	-4.545
839.19	21.429
839.49	36.667
839.79	69.231
840.09	33.333
840.39	53.571
840.69	50.000
840.99	15.385
841.29	-5.263
841.59	-40.000
841.88	-9.091
842.18	80.000
842.48	37.500
842.78	-53.333
843.08	29.630
843.38	-20.000
843.68	13.043
843.97	60.000
844.27	40.000
844.57	20.000
844.87	77.778
845.17	33.333
845.47	66.667
845.76	9.524
846.06	47.059
846.36	100.000
846.66	42.857
846.96	60.000
847.25	-12.500
847.55	57.143
847.85	112.500
848.15	40.909
848.44	-466.667
848.74	60.000
849.04	55.556
849.34	18.182
849.63	-50.000
849.93	-40.000
850.23	16.667
850.53	140.000
850.82	15.385
851.12	-55.556
851.42	60.000
851.71	46.154
852.01	57.143
852.31	-150.000
852.61	-90.909
852.90	35.000
853.20	68.421
853.50	58.333
853.79	78.261
854.09	70.833
854.39	63.158
854.68	8.333
854.98	29.032
855.28	53.846
855.57	25.000
855.87	61.111
856.17	55.556
856.46	50.000
856.76	-53.333
857.05	77.778
857.35	44.000
857.65	5.556
857.94	30.769
858.24	68.966
858.53	33.333
858.83	44.444
859.13	59.091
859.42	-8.696
859.72	-150.000
860.01	-166.667
860.31	48.000
860.60	9.524
860.90	-333.333
861.20	13.333
861.49	-50.000
861.79	-6.667
862.08	35.000
862.38	46.667
862.67	-220.000
862.97	33.333
863.26	33.333
863.56	61.111
863.85	-100.000
864.15	72.222
864.44	-30.000
864.74	92.857
865.03	150.000
865.33	60.000
865.62	166.667
865.92	-33.333
866.21	-16.667
866.51	68.750
866.80	36.364
867.10	-150.000
867.39	108.333
867.69	0.000
867.98	38.462
868.27	-33.333
868.57	53.333
868.86	27.778
869.16	23.077
869.45	73.333
869.75	-600.000
870.04	0.000
870.33	28.571
870.63	14.286
870.92	100.000
871.22	-160.000
871.51	-600.000
871.80	233.333
872.10	266.667
>>>>>End Processed Spectral Data<<<<<
