SpectraSuite Data File
++++++++++++++++++++++++++++++++++++
Date: Fri May 15 17:29:27 PDT 2015
User: schluterlab
Dark Spectrum Present: Yes
Reference Spectrum Present: Yes
Number of Sampled Component Spectra: 1
Spectrometers: USB2E3373
Integration Time (usec): 3000 (USB2E3373)
Spectra Averaged: 3 (USB2E3373)
Boxcar Smoothing: 0 (USB2E3373)
Correct for Electrical Dark: No (USB2E3373)
Strobe/Lamp Enabled: No (USB2E3373)
Correct for Detector Non-linearity: No (USB2E3373)
Correct for Stray Light: No (USB2E3373)
Number of Pixels in Processed Spectrum: 2048
>>>>>Begin Processed Spectral Data<<<<<
178.53	0.000
178.91	0.000
179.29	50.000
179.67	-300.000
180.04	-71.429
180.42	300.000
180.80	100.000
181.18	-366.667
181.56	400.000
181.94	200.000
182.31	900.000
182.69	-40.000
183.07	33.333
183.45	0.000
183.83	133.333
184.20	63.636
184.58	44.444
184.96	100.000
185.34	66.667
185.72	-150.000
186.09	23.077
186.47	-1200.000
186.85	50.000
187.23	133.333
187.61	100.000
187.98	-33.333
188.36	88.889
188.74	-200.000
189.12	47.059
189.49	22.222
189.87	0.000
190.25	35.714
190.63	-50.000
191.00	-100.000
191.38	47.368
191.76	150.000
192.14	100.000
192.51	100.000
192.89	-11.111
193.27	-71.429
193.65	33.333
194.02	90.909
194.40	30.000
194.78	-62.500
195.15	-33.333
195.53	-12.500
195.91	100.000
196.29	0.000
196.66	69.231
197.04	-14.286
197.42	188.889
197.79	-500.000
198.17	-107.692
198.55	700.000
198.92	-66.667
199.30	0.000
199.68	80.000
200.05	-33.333
200.43	0.000
200.81	133.333
201.18	-266.667
201.56	200.000
201.94	-450.000
202.31	-0.000
202.69	-140.000
203.07	-0.000
203.44	300.000
203.82	0.000
204.19	92.857
204.57	-333.333
204.95	50.000
205.32	20.000
205.70	14.286
206.08	50.000
206.45	233.333
206.83	92.857
207.20	-185.714
207.58	400.000
207.96	-66.667
208.33	-40.000
208.71	25.000
209.08	-150.000
209.46	-900.000
209.84	20.000
210.21	-2000.000
210.59	28.571
210.96	-50.000
211.34	-50.000
211.71	13.333
212.09	-71.429
212.46	-1700.000
212.84	0.000
213.22	30.000
213.59	300.000
213.97	38.462
214.34	9.091
214.72	0.000
215.09	225.000
215.47	23.077
215.84	-45.455
216.22	100.000
216.59	-37.500
216.97	400.000
217.34	100.000
217.72	-100.000
218.09	50.000
218.47	137.500
218.84	300.000
219.22	88.889
219.59	-20.000
219.97	266.667
220.34	225.000
220.72	85.714
221.09	50.000
221.47	0.000
221.84	-350.000
222.22	-650.000
222.59	72.727
222.97	75.000
223.34	-100.000
223.72	7.143
224.09	66.667
224.46	-10.714
224.84	266.667
225.21	30.000
225.59	53.333
225.96	0.000
226.34	225.000
226.71	-128.571
227.08	33.333
227.46	75.000
227.83	-350.000
228.21	-44.444
228.58	18.182
228.95	62.500
229.33	50.000
229.70	0.000
230.08	37.500
230.45	-42.857
230.82	185.714
231.20	-33.333
231.57	28.571
231.95	128.571
232.32	-20.000
232.69	28.571
233.07	233.333
233.44	40.000
233.81	60.000
234.19	111.111
234.56	52.941
234.93	-0.000
235.31	75.000
235.68	-140.000
236.05	61.538
236.43	10.000
236.80	117.647
237.17	9.375
237.55	25.000
237.92	18.519
238.29	22.222
238.67	73.333
239.04	52.941
239.41	53.659
239.79	43.333
240.16	43.902
240.53	21.053
240.91	39.130
241.28	39.683
241.65	57.143
242.02	30.137
242.40	40.000
242.77	42.373
243.14	40.909
243.51	57.500
243.89	57.471
244.26	31.034
244.63	42.857
245.00	38.144
245.38	45.361
245.75	43.820
246.12	34.483
246.49	33.884
246.87	40.385
247.24	38.655
247.61	39.474
247.98	37.398
248.36	46.875
248.73	42.105
249.10	38.312
249.47	40.506
249.84	43.791
250.22	37.059
250.59	41.830
250.96	40.376
251.33	44.186
251.70	47.647
252.08	36.548
252.45	39.604
252.82	43.719
253.19	46.083
253.56	38.785
253.94	42.793
254.31	40.000
254.68	43.860
255.05	40.157
255.42	37.991
255.79	38.996
256.16	40.078
256.54	39.925
256.91	37.262
257.28	42.379
257.65	39.700
258.02	41.135
258.39	43.098
258.76	40.659
259.14	41.528
259.51	39.806
259.88	41.924
260.25	35.948
260.62	41.667
260.99	40.678
261.36	38.699
261.73	40.190
262.10	39.818
262.47	38.344
262.85	41.693
263.22	40.923
263.59	36.449
263.96	40.994
264.33	40.909
264.70	41.071
265.07	38.690
265.44	43.059
265.81	41.243
266.18	39.344
266.55	40.103
266.92	42.487
267.29	41.775
267.66	38.363
268.03	42.670
268.40	38.903
268.77	41.979
269.14	37.650
269.51	37.789
269.88	38.404
270.25	37.500
270.62	37.073
270.99	36.317
271.36	35.208
271.73	36.620
272.10	41.606
272.47	37.352
272.84	38.861
273.21	39.907
273.58	39.518
273.95	37.071
274.32	34.642
274.69	35.973
275.06	39.509
275.43	37.642
275.80	37.748
276.17	34.253
276.54	34.690
276.91	37.281
277.28	36.245
277.65	33.264
278.02	34.681
278.39	35.230
278.76	36.059
279.13	31.535
279.50	37.395
279.87	36.069
280.23	32.043
280.60	36.062
280.97	37.172
281.34	35.000
281.71	33.881
282.08	36.196
282.45	32.681
282.82	30.502
283.19	35.590
283.56	35.645
283.92	35.294
284.29	32.692
284.66	34.109
285.03	30.452
285.40	33.648
285.77	34.271
286.14	32.491
286.51	33.948
286.87	30.896
287.24	35.359
287.61	30.511
287.98	31.754
288.35	30.676
288.72	32.049
289.08	32.292
289.45	32.513
289.82	30.245
290.19	32.082
290.56	28.473
290.93	29.798
291.29	28.351
291.66	29.291
292.03	29.984
292.40	28.065
292.77	28.389
293.13	25.000
293.50	28.376
293.87	27.328
294.24	29.057
294.60	28.465
294.97	26.935
295.34	26.840
295.71	27.273
296.08	27.205
296.44	24.893
296.81	26.250
297.18	26.812
297.55	26.829
297.91	24.932
298.28	26.781
298.65	24.830
299.02	24.798
299.38	23.529
299.75	24.000
300.12	23.429
300.48	24.374
300.85	23.954
301.22	25.455
301.59	23.289
301.95	24.304
302.32	26.329
302.69	22.139
303.05	23.515
303.42	24.284
303.79	25.117
304.15	24.373
304.52	21.998
304.89	23.860
305.25	22.276
305.62	20.653
305.99	22.222
306.35	23.237
306.72	20.922
307.09	20.753
307.45	22.158
307.82	20.486
308.19	23.345
308.55	21.374
308.92	22.440
309.29	22.011
309.65	21.744
310.02	20.572
310.38	22.942
310.75	21.530
311.12	22.174
311.48	21.421
311.85	21.675
312.22	21.203
312.58	21.338
312.95	20.277
313.31	20.393
313.68	19.581
314.05	20.204
314.41	20.515
314.78	20.206
315.14	20.555
315.51	21.118
315.87	20.287
316.24	22.548
316.61	21.063
316.97	19.246
317.34	20.020
317.70	20.554
318.07	19.712
318.43	20.980
318.80	20.549
319.16	20.508
319.53	20.038
319.89	19.587
320.26	20.243
320.62	21.163
320.99	19.207
321.35	20.658
321.72	20.249
322.08	19.738
322.45	19.289
322.81	18.861
323.18	18.646
323.54	19.305
323.91	18.987
324.27	19.629
324.64	20.599
325.00	19.982
325.37	19.651
325.73	19.039
326.10	19.891
326.46	20.628
326.83	19.510
327.19	18.745
327.56	19.983
327.92	20.335
328.29	20.000
328.65	19.340
329.01	18.474
329.38	19.447
329.74	18.886
330.11	18.536
330.47	19.109
330.84	18.365
331.20	20.437
331.56	18.241
331.93	19.269
332.29	19.615
332.66	18.643
333.02	19.424
333.38	18.790
333.75	19.780
334.11	18.442
334.48	19.130
334.84	18.681
335.20	19.488
335.57	18.495
335.93	18.428
336.29	18.969
336.66	17.984
337.02	16.078
337.38	17.500
337.75	18.909
338.11	18.034
338.47	18.887
338.84	19.224
339.20	18.373
339.56	18.165
339.93	18.890
340.29	17.706
340.65	18.996
341.02	18.085
341.38	17.257
341.74	16.696
342.11	16.638
342.47	18.416
342.83	18.599
343.20	17.944
343.56	17.739
343.92	18.955
344.28	18.190
344.65	16.667
345.01	16.854
345.37	17.830
345.73	19.331
346.10	17.947
346.46	17.662
346.82	17.349
347.19	17.290
347.55	17.794
347.91	18.123
348.27	16.330
348.63	17.888
349.00	16.489
349.36	17.872
349.72	17.413
350.08	17.705
350.45	17.797
350.81	17.276
351.17	16.775
351.53	17.143
351.89	16.185
352.26	17.600
352.62	17.177
352.98	17.510
353.34	17.069
353.70	17.152
354.07	17.742
354.43	16.413
354.79	16.350
355.15	17.302
355.51	16.614
355.87	16.586
356.24	15.742
356.60	15.683
356.96	17.063
357.32	15.655
357.68	15.794
358.04	16.882
358.40	15.916
358.77	17.305
359.13	16.413
359.49	16.025
359.85	16.303
360.21	15.949
360.57	17.445
360.93	16.112
361.29	14.653
361.66	16.379
362.02	15.985
362.38	15.689
362.74	16.276
363.10	17.231
363.46	15.419
363.82	17.806
364.18	15.572
364.54	15.368
364.90	16.272
365.26	14.920
365.62	16.204
365.98	16.716
366.35	15.950
366.71	15.743
367.07	15.239
367.43	15.025
367.79	15.336
368.15	15.434
368.51	16.169
368.87	15.219
369.23	15.668
369.59	16.108
369.95	16.496
370.31	16.618
370.67	16.418
371.03	15.758
371.39	14.953
371.75	16.484
372.11	15.264
372.47	15.385
372.83	16.182
373.19	16.476
373.55	14.729
373.91	15.407
374.27	15.096
374.63	15.506
374.99	14.468
375.35	15.877
375.71	15.804
376.07	14.466
376.42	17.075
376.78	15.235
377.14	15.572
377.50	14.608
377.86	15.060
378.22	15.252
378.58	15.641
378.94	15.060
379.30	15.908
379.66	15.172
380.02	14.960
380.38	14.242
380.74	15.021
381.09	15.153
381.45	14.251
381.81	15.484
382.17	15.165
382.53	14.991
382.89	15.505
383.25	15.681
383.61	15.610
383.97	14.540
384.32	15.385
384.68	15.046
385.04	14.583
385.40	14.312
385.76	14.780
386.12	15.395
386.48	15.709
386.83	15.346
387.19	15.385
387.55	14.743
387.91	14.487
388.27	14.591
388.62	15.356
388.98	15.347
389.34	14.304
389.70	15.475
390.06	14.852
390.42	15.155
390.77	14.977
391.13	14.691
391.49	14.877
391.85	15.400
392.20	15.003
392.56	15.067
392.92	15.854
393.28	14.917
393.64	14.955
393.99	15.737
394.35	14.105
394.71	15.390
395.07	14.645
395.42	15.361
395.78	15.049
396.14	15.195
396.50	15.536
396.85	15.454
397.21	14.474
397.57	14.922
397.92	15.339
398.28	14.885
398.64	13.976
399.00	15.406
399.35	14.391
399.71	14.762
400.07	15.357
400.42	14.871
400.78	15.003
401.14	15.547
401.49	15.485
401.85	15.478
402.21	15.783
402.57	15.750
402.92	13.802
403.28	14.850
403.63	15.259
403.99	14.923
404.35	15.053
404.70	14.643
405.06	14.571
405.42	14.481
405.77	13.539
406.13	15.192
406.49	14.624
406.84	14.487
407.20	14.389
407.55	13.844
407.91	14.773
408.27	13.512
408.62	14.646
408.98	15.096
409.34	15.613
409.69	14.729
410.05	13.916
410.40	14.568
410.76	14.777
411.11	15.375
411.47	14.727
411.83	14.689
412.18	14.028
412.54	14.607
412.89	13.916
413.25	14.440
413.60	15.155
413.96	13.865
414.31	15.183
414.67	14.176
415.03	14.714
415.38	14.556
415.74	14.463
416.09	15.545
416.45	14.720
416.80	14.541
417.16	15.055
417.51	14.990
417.87	14.733
418.22	14.508
418.58	14.916
418.93	14.169
419.29	14.597
419.64	13.934
420.00	16.121
420.35	13.791
420.71	15.006
421.06	13.689
421.42	14.724
421.77	14.624
422.12	14.415
422.48	14.997
422.83	14.617
423.19	14.673
423.54	13.874
423.90	13.840
424.25	14.753
424.61	14.443
424.96	15.157
425.31	14.731
425.67	14.437
426.02	14.547
426.38	15.091
426.73	14.952
427.09	14.557
427.44	14.824
427.79	14.673
428.15	15.231
428.50	14.416
428.85	13.575
429.21	15.393
429.56	15.256
429.92	15.460
430.27	14.586
430.62	14.480
430.98	14.862
431.33	15.037
431.68	14.757
432.04	14.533
432.39	14.033
432.74	14.913
433.10	14.655
433.45	14.875
433.80	14.742
434.16	14.183
434.51	15.484
434.86	14.983
435.22	15.031
435.57	14.972
435.92	15.150
436.28	13.894
436.63	14.318
436.98	14.195
437.34	14.035
437.69	15.027
438.04	14.188
438.39	14.050
438.75	14.268
439.10	14.714
439.45	14.364
439.81	14.312
440.16	15.143
440.51	14.567
440.86	16.012
441.22	14.367
441.57	14.238
441.92	15.582
442.27	15.355
442.63	15.418
442.98	15.336
443.33	15.526
443.68	15.013
444.03	15.350
444.39	15.691
444.74	15.440
445.09	14.811
445.44	14.644
445.79	15.781
446.15	14.648
446.50	14.365
446.85	15.356
447.20	14.442
447.55	15.625
447.91	14.608
448.26	15.026
448.61	15.544
448.96	15.089
449.31	14.913
449.66	15.505
450.02	14.775
450.37	15.056
450.72	15.349
451.07	15.823
451.42	15.980
451.77	14.587
452.12	13.995
452.47	14.231
452.83	15.194
453.18	14.674
453.53	15.107
453.88	14.633
454.23	14.382
454.58	15.365
454.93	14.562
455.28	14.476
455.63	15.127
455.98	15.274
456.34	14.687
456.69	14.994
457.04	15.186
457.39	14.156
457.74	14.027
458.09	13.537
458.44	14.862
458.79	14.454
459.14	15.103
459.49	15.343
459.84	14.890
460.19	14.684
460.54	15.220
460.89	14.830
461.24	15.280
461.59	15.380
461.94	14.591
462.29	15.802
462.64	15.083
462.99	14.353
463.34	14.186
463.69	14.221
464.04	15.133
464.39	15.282
464.74	14.479
465.09	14.910
465.44	14.945
465.79	14.626
466.14	14.880
466.49	14.606
466.84	15.526
467.19	14.581
467.54	14.815
467.89	14.466
468.24	14.294
468.59	15.937
468.94	14.286
469.29	15.279
469.64	15.038
469.99	14.085
470.34	14.471
470.68	14.019
471.03	14.154
471.38	13.980
471.73	14.426
472.08	13.772
472.43	13.557
472.78	13.708
473.13	14.966
473.48	14.919
473.83	14.010
474.17	14.054
474.52	13.465
474.87	14.182
475.22	15.070
475.57	13.947
475.92	14.372
476.27	14.959
476.61	14.583
476.96	14.166
477.31	14.494
477.66	13.708
478.01	13.644
478.36	13.943
478.70	15.063
479.05	14.725
479.40	13.990
479.75	14.234
480.10	13.569
480.45	13.700
480.79	14.703
481.14	14.908
481.49	13.842
481.84	14.189
482.19	13.985
482.53	14.341
482.88	14.463
483.23	13.676
483.58	14.198
483.92	14.134
484.27	13.719
484.62	14.388
484.97	13.599
485.31	14.415
485.66	15.261
486.01	16.618
486.36	16.074
486.70	15.730
487.05	15.189
487.40	14.969
487.75	14.423
488.09	13.844
488.44	13.652
488.79	13.074
489.13	13.742
489.48	13.724
489.83	13.901
490.17	12.899
490.52	13.487
490.87	13.142
491.22	13.563
491.56	13.235
491.91	13.576
492.26	13.418
492.60	14.251
492.95	13.822
493.30	13.776
493.64	13.802
493.99	14.155
494.34	13.204
494.68	13.381
495.03	13.187
495.37	13.984
495.72	13.680
496.07	13.463
496.41	13.632
496.76	13.726
497.11	13.600
497.45	13.174
497.80	14.279
498.14	13.413
498.49	13.205
498.84	13.673
499.18	13.906
499.53	14.187
499.87	12.549
500.22	12.809
500.56	13.414
500.91	13.203
501.26	12.704
501.60	13.035
501.95	12.615
502.29	13.269
502.64	14.093
502.98	13.518
503.33	12.920
503.67	13.398
504.02	13.587
504.36	14.003
504.71	13.131
505.06	13.387
505.40	12.893
505.75	13.041
506.09	13.533
506.44	13.912
506.78	13.469
507.13	13.340
507.47	12.898
507.82	12.126
508.16	12.203
508.51	12.907
508.85	12.768
509.19	12.453
509.54	12.708
509.88	12.945
510.23	13.072
510.57	13.148
510.92	11.514
511.26	13.093
511.61	13.366
511.95	13.041
512.30	12.417
512.64	13.244
512.98	12.240
513.33	12.871
513.67	12.280
514.02	12.471
514.36	13.600
514.70	13.170
515.05	13.455
515.39	11.865
515.74	13.174
516.08	12.194
516.42	12.780
516.77	12.580
517.11	12.463
517.46	12.867
517.80	12.217
518.14	11.574
518.49	12.500
518.83	11.543
519.17	12.310
519.52	11.841
519.86	11.405
520.20	11.604
520.55	11.570
520.89	12.673
521.23	12.096
521.58	12.681
521.92	12.500
522.26	11.256
522.61	11.753
522.95	12.318
523.29	11.944
523.64	12.198
523.98	12.119
524.32	11.405
524.66	12.356
525.01	13.052
525.35	12.184
525.69	11.785
526.04	11.706
526.38	12.062
526.72	11.380
527.06	11.219
527.41	12.203
527.75	11.930
528.09	11.827
528.43	12.492
528.78	12.013
529.12	12.645
529.46	12.346
529.80	12.350
530.15	12.541
530.49	11.650
530.83	11.833
531.17	11.014
531.51	11.833
531.86	11.761
532.20	11.482
532.54	12.321
532.88	12.183
533.22	12.634
533.57	12.779
533.91	11.684
534.25	12.435
534.59	11.995
534.93	11.705
535.27	12.373
535.62	11.925
535.96	12.590
536.30	12.731
536.64	12.612
536.98	11.220
537.32	12.304
537.66	12.553
538.01	12.797
538.35	11.581
538.69	12.383
539.03	11.688
539.37	12.517
539.71	12.202
540.05	12.695
540.39	12.050
540.73	11.855
541.07	12.569
541.42	12.634
541.76	12.113
542.10	11.425
542.44	12.231
542.78	11.218
543.12	11.332
543.46	12.239
543.80	12.283
544.14	12.350
544.48	12.592
544.82	13.124
545.16	12.978
545.50	12.817
545.84	12.181
546.18	12.340
546.52	11.680
546.86	11.574
547.20	12.804
547.54	11.590
547.88	12.636
548.22	12.163
548.56	11.873
548.90	12.534
549.24	12.121
549.58	12.482
549.92	11.294
550.26	11.795
550.60	12.714
550.94	11.875
551.28	11.051
551.62	11.769
551.96	11.504
552.30	12.939
552.64	12.059
552.98	12.307
553.32	13.124
553.66	11.756
554.00	12.190
554.34	11.891
554.68	11.136
555.02	11.607
555.36	11.967
555.69	12.015
556.03	11.991
556.37	11.815
556.71	11.913
557.05	11.708
557.39	11.450
557.73	11.994
558.07	12.368
558.41	11.868
558.75	11.613
559.08	10.875
559.42	11.746
559.76	11.849
560.10	12.156
560.44	11.095
560.78	12.448
561.12	12.482
561.45	12.509
561.79	12.325
562.13	11.852
562.47	11.942
562.81	12.248
563.15	12.835
563.48	12.871
563.82	13.178
564.16	12.047
564.50	12.500
564.84	13.052
565.17	12.810
565.51	12.432
565.85	12.757
566.19	12.401
566.52	13.271
566.86	12.982
567.20	12.827
567.54	12.895
567.88	14.001
568.21	13.462
568.55	13.315
568.89	14.117
569.23	14.203
569.56	14.054
569.90	14.535
570.24	14.365
570.57	14.691
570.91	15.092
571.25	14.765
571.59	14.668
571.92	14.815
572.26	14.946
572.60	15.039
572.93	14.591
573.27	14.671
573.61	14.678
573.95	14.937
574.28	14.804
574.62	14.874
574.96	15.009
575.29	14.690
575.63	14.123
575.97	14.367
576.30	14.535
576.64	14.649
576.98	15.290
577.31	14.918
577.65	15.872
577.98	15.110
578.32	15.412
578.66	15.087
578.99	15.185
579.33	14.714
579.67	14.307
580.00	14.987
580.34	14.527
580.67	14.466
581.01	14.817
581.35	15.030
581.68	15.292
582.02	15.342
582.35	15.227
582.69	15.388
583.02	15.317
583.36	14.810
583.70	15.187
584.03	14.429
584.37	14.794
584.70	15.275
585.04	14.663
585.37	14.914
585.71	15.231
586.04	14.523
586.38	15.044
586.72	15.151
587.05	15.598
587.39	16.159
587.72	15.637
588.06	15.195
588.39	14.754
588.73	14.652
589.06	15.199
589.40	15.105
589.73	14.969
590.07	14.841
590.40	14.977
590.73	14.703
591.07	14.122
591.40	14.381
591.74	14.299
592.07	14.889
592.41	14.841
592.74	14.616
593.08	15.229
593.41	15.058
593.75	14.818
594.08	15.070
594.41	15.211
594.75	14.771
595.08	14.756
595.42	14.796
595.75	14.946
596.09	14.425
596.42	14.841
596.75	14.876
597.09	14.396
597.42	13.957
597.75	14.567
598.09	14.215
598.42	14.711
598.76	13.857
599.09	14.944
599.42	14.968
599.76	15.124
600.09	14.857
600.42	14.746
600.76	14.376
601.09	14.847
601.42	14.767
601.76	14.887
602.09	14.769
602.42	15.206
602.76	14.431
603.09	14.826
603.42	15.134
603.76	14.435
604.09	14.864
604.42	15.102
604.76	14.909
605.09	14.625
605.42	14.041
605.75	14.623
606.09	14.098
606.42	14.470
606.75	14.156
607.09	15.121
607.42	13.912
607.75	14.210
608.08	14.106
608.42	14.299
608.75	14.313
609.08	14.549
609.41	14.010
609.75	14.365
610.08	14.528
610.41	14.203
610.74	13.554
611.07	13.850
611.41	14.530
611.74	15.192
612.07	13.972
612.40	14.442
612.73	13.955
613.07	13.836
613.40	14.497
613.73	13.430
614.06	14.079
614.39	14.326
614.72	13.782
615.06	14.581
615.39	14.465
615.72	14.047
616.05	14.749
616.38	13.105
616.71	13.639
617.05	13.033
617.38	14.393
617.71	13.648
618.04	13.651
618.37	14.502
618.70	13.993
619.03	13.472
619.36	11.939
619.69	13.874
620.03	14.171
620.36	13.662
620.69	12.991
621.02	12.768
621.35	12.863
621.68	13.520
622.01	13.250
622.34	13.328
622.67	12.934
623.00	13.706
623.33	13.186
623.66	13.912
623.99	12.103
624.32	13.080
624.65	12.707
624.99	13.093
625.32	11.600
625.65	13.904
625.98	12.168
626.31	12.386
626.64	13.172
626.97	13.351
627.30	13.047
627.63	12.045
627.96	12.938
628.29	12.396
628.62	12.389
628.95	13.026
629.28	11.694
629.61	12.064
629.94	12.708
630.26	11.561
630.59	11.967
630.92	12.410
631.25	10.769
631.58	12.445
631.91	11.404
632.24	10.550
632.57	12.727
632.90	10.795
633.23	12.588
633.56	9.950
633.89	10.727
634.22	11.481
634.55	10.801
634.88	10.728
635.20	11.410
635.53	9.333
635.86	9.883
636.19	11.772
636.52	10.714
636.85	10.298
637.18	11.698
637.51	9.434
637.83	10.381
638.16	12.278
638.49	8.447
638.82	12.500
639.15	10.583
639.48	12.380
639.81	11.018
640.13	13.131
640.46	10.496
640.79	9.867
641.12	10.340
641.45	10.210
641.77	11.556
642.10	11.848
642.43	8.360
642.76	10.726
643.09	9.693
643.41	11.327
643.74	10.708
644.07	12.151
644.40	10.980
644.73	10.158
645.05	10.906
645.38	9.700
645.71	7.092
646.04	10.413
646.36	9.929
646.69	13.309
647.02	11.531
647.35	10.075
647.67	11.883
648.00	9.328
648.33	12.287
648.66	11.525
648.98	10.050
649.31	9.917
649.64	10.989
649.96	10.211
650.29	11.584
650.62	11.453
650.94	11.296
651.27	8.939
651.60	10.991
651.92	9.441
652.25	9.591
652.58	10.500
652.90	11.835
653.23	12.941
653.56	9.475
653.88	9.450
654.21	9.282
654.54	10.187
654.86	11.885
655.19	9.649
655.52	15.944
655.84	16.936
656.17	20.327
656.49	27.464
656.82	27.658
657.15	20.312
657.47	14.317
657.80	10.361
658.13	9.907
658.45	14.283
658.78	13.655
659.10	12.626
659.43	12.224
659.75	11.889
660.08	11.793
660.41	11.645
660.73	9.807
661.06	10.919
661.38	8.611
661.71	6.366
662.03	12.232
662.36	9.670
662.68	10.841
663.01	9.607
663.33	9.745
663.66	9.070
663.98	6.744
664.31	11.940
664.63	6.452
664.96	6.522
665.28	8.830
665.61	10.606
665.93	9.783
666.26	11.714
666.58	9.396
666.91	9.882
667.23	9.906
667.56	8.294
667.88	11.031
668.21	10.501
668.53	9.929
668.86	10.142
669.18	8.255
669.50	7.990
669.83	10.000
670.15	10.723
670.48	8.852
670.80	7.834
671.13	6.488
671.45	8.676
671.77	12.017
672.10	10.297
672.42	10.487
672.75	12.433
673.07	12.343
673.39	12.661
673.72	10.059
674.04	10.000
674.37	11.017
674.69	11.349
675.01	10.889
675.34	7.658
675.66	8.333
675.98	11.308
676.31	9.404
676.63	8.076
676.95	10.682
677.28	11.059
677.60	10.361
677.92	9.404
678.25	12.254
678.57	8.009
678.89	11.555
679.22	11.186
679.54	10.843
679.86	9.940
680.18	10.680
680.51	11.364
680.83	10.537
681.15	10.800
681.48	13.115
681.80	10.124
682.12	13.105
682.44	8.996
682.77	11.479
683.09	10.297
683.41	10.000
683.73	10.829
684.06	11.726
684.38	8.602
684.70	11.765
685.02	9.959
685.34	10.474
685.67	12.946
685.99	14.105
686.31	12.566
686.63	11.132
686.96	10.646
687.28	9.091
687.60	9.506
687.92	12.323
688.24	10.484
688.56	10.480
688.89	11.384
689.21	14.444
689.53	9.977
689.85	10.000
690.17	10.268
690.49	9.929
690.82	10.680
691.14	9.048
691.46	12.850
691.78	13.288
692.10	11.613
692.42	8.442
692.74	12.179
693.06	10.135
693.39	10.633
693.71	10.181
694.03	10.624
694.35	13.318
694.67	9.343
694.99	7.833
695.31	10.966
695.63	11.000
695.95	9.596
696.27	11.399
696.59	11.667
696.91	8.403
697.23	7.969
697.56	10.891
697.88	17.419
698.20	10.934
698.52	9.882
698.84	9.330
699.16	9.500
699.48	15.038
699.80	10.670
700.12	10.782
700.44	11.485
700.76	7.558
701.08	7.576
701.40	8.735
701.72	11.420
702.04	9.241
702.36	12.040
702.68	8.709
703.00	7.879
703.32	9.971
703.64	9.605
703.96	8.116
704.28	9.509
704.60	7.937
704.91	5.678
705.23	8.970
705.55	10.601
705.87	6.859
706.19	10.000
706.51	8.591
706.83	10.611
707.15	7.165
707.47	13.725
707.79	10.417
708.11	11.500
708.43	9.000
708.74	11.370
709.06	14.085
709.38	10.398
709.70	12.130
710.02	12.739
710.34	15.480
710.66	5.449
710.98	8.278
711.29	12.131
711.61	8.814
711.93	13.029
712.25	13.058
712.57	6.227
712.89	6.716
713.20	14.533
713.52	10.801
713.84	8.191
714.16	9.622
714.48	10.323
714.80	11.218
715.11	12.158
715.43	10.658
715.75	12.000
716.07	9.967
716.39	10.738
716.70	9.225
717.02	11.450
717.34	8.907
717.66	8.850
717.97	6.087
718.29	9.623
718.61	10.630
718.93	7.364
719.24	11.787
719.56	9.639
719.88	10.997
720.20	8.333
720.51	9.962
720.83	11.197
721.15	11.765
721.46	8.468
721.78	11.067
722.10	12.268
722.42	8.299
722.73	9.796
723.05	17.143
723.37	20.763
723.68	11.712
724.00	8.974
724.32	11.111
724.63	9.545
724.95	8.734
725.27	10.138
725.58	13.559
725.90	5.556
726.22	12.741
726.53	11.186
726.85	15.356
727.16	14.340
727.48	6.478
727.80	13.360
728.11	14.407
728.43	14.118
728.74	4.839
729.06	15.200
729.38	12.782
729.69	6.375
730.01	10.000
730.32	13.060
730.64	14.488
730.96	14.340
731.27	10.000
731.59	10.169
731.90	14.013
732.22	17.035
732.53	14.618
732.85	15.957
733.16	13.131
733.48	10.432
733.80	11.232
734.11	15.254
734.43	10.653
734.74	11.515
735.06	13.029
735.37	14.502
735.69	15.152
736.00	7.666
736.32	10.738
736.63	11.620
736.95	13.993
737.26	11.744
737.58	12.416
737.89	9.158
738.21	13.534
738.52	13.580
738.83	16.594
739.15	11.354
739.46	12.992
739.78	10.256
740.09	12.745
740.41	14.130
740.72	9.055
741.04	9.717
741.35	10.638
741.66	7.583
741.98	9.694
742.29	14.356
742.61	9.424
742.92	9.005
743.23	7.407
743.55	14.932
743.86	11.962
744.18	11.962
744.49	2.660
744.80	2.174
745.12	15.508
745.43	8.780
745.74	15.625
746.06	14.634
746.37	9.424
746.68	16.114
747.00	11.170
747.31	20.896
747.62	7.767
747.94	5.263
748.25	11.386
748.56	8.197
748.88	10.995
749.19	15.426
749.50	17.734
749.82	6.604
750.13	6.422
750.44	16.165
750.75	17.910
751.07	17.883
751.38	13.410
751.69	15.294
752.01	14.729
752.32	17.530
752.63	8.300
752.94	4.310
753.26	24.268
753.57	12.217
753.88	6.637
754.19	10.833
754.51	12.397
754.82	10.121
755.13	16.250
755.44	12.500
755.75	16.797
756.07	10.895
756.38	7.925
756.69	7.280
757.00	16.000
757.31	14.706
757.63	14.329
757.94	14.722
758.25	12.055
758.56	12.234
758.87	12.181
759.18	14.642
759.50	7.636
759.81	13.712
760.12	15.161
760.43	11.515
760.74	14.506
761.05	12.000
761.36	14.489
761.67	16.667
761.99	13.946
762.30	9.818
762.61	15.415
762.92	9.050
763.23	11.712
763.54	10.280
763.85	15.254
764.16	13.693
764.47	12.097
764.78	11.722
765.10	16.162
765.41	10.410
765.72	17.460
766.03	13.910
766.34	12.774
766.65	16.733
766.96	18.182
767.27	7.447
767.58	6.897
767.89	4.965
768.20	11.364
768.51	7.692
768.82	9.360
769.13	9.217
769.44	12.446
769.75	15.068
770.06	13.362
770.37	12.981
770.68	12.183
770.99	13.122
771.30	19.118
771.61	17.647
771.92	17.672
772.23	13.300
772.54	16.667
772.85	14.198
773.16	8.427
773.47	18.954
773.78	15.686
774.09	15.569
774.39	6.667
774.70	10.191
775.01	22.759
775.32	16.429
775.63	5.785
775.94	12.214
776.25	14.173
776.56	12.500
776.87	9.615
777.18	13.675
777.48	6.034
777.79	-3.478
778.10	2.857
778.41	18.018
778.72	15.079
779.03	9.774
779.34	4.255
779.65	20.548
779.95	6.164
780.26	8.276
780.57	4.878
780.88	7.874
781.19	9.483
781.50	13.178
781.80	13.609
782.11	6.289
782.42	12.308
782.73	2.158
783.04	11.852
783.34	13.194
783.65	3.419
783.96	5.738
784.27	13.793
784.57	8.943
784.88	7.031
785.19	23.000
785.50	7.000
785.81	12.931
786.11	9.483
786.42	-1.942
786.73	14.545
787.04	8.163
787.34	0.893
787.65	13.333
787.96	6.195
788.26	13.636
788.57	12.821
788.88	14.844
789.19	20.635
789.49	10.435
789.80	20.408
790.11	15.152
790.41	12.727
790.72	9.783
791.03	14.773
791.33	16.250
791.64	-3.750
791.95	6.977
792.25	8.511
792.56	17.978
792.87	5.479
793.17	4.348
793.48	0.000
793.79	8.750
794.09	23.750
794.40	10.377
794.70	11.650
795.01	3.252
795.32	11.111
795.62	9.524
795.93	9.804
796.23	9.434
796.54	11.458
796.85	19.118
797.15	16.901
797.46	16.667
797.76	25.758
798.07	18.605
798.37	3.947
798.68	4.545
798.99	11.111
799.29	21.429
799.60	15.942
799.90	16.000
800.21	14.754
800.51	30.769
800.82	6.780
801.12	18.841
801.43	1.639
801.73	19.048
802.04	-2.000
802.34	8.955
802.65	13.462
802.95	7.143
803.26	-3.846
803.56	19.608
803.87	-10.870
804.17	13.333
804.48	22.222
804.78	-11.111
805.09	13.043
805.39	-11.111
805.70	11.111
806.00	-5.263
806.30	15.493
806.61	32.857
806.91	8.333
807.22	21.053
807.52	13.333
807.83	14.545
808.13	19.444
808.43	16.176
808.74	4.478
809.04	-10.169
809.35	3.846
809.65	17.188
809.95	-5.405
810.26	6.818
810.56	17.808
810.86	9.524
811.17	34.000
811.47	12.245
811.77	-18.421
812.08	4.545
812.38	9.434
812.69	5.000
812.99	-12.121
813.29	10.526
813.59	-2.857
813.90	6.818
814.20	2.564
814.50	17.308
814.81	-16.981
815.11	8.511
815.41	27.119
815.72	14.286
816.02	23.529
816.32	4.167
816.62	-2.439
816.93	-10.811
817.23	22.857
817.53	8.333
817.84	19.565
818.14	13.462
818.44	-34.211
818.74	28.261
819.04	-30.000
819.35	5.405
819.65	11.765
819.95	16.667
820.25	33.333
820.56	27.500
820.86	-34.483
821.16	22.500
821.46	10.638
821.76	12.500
822.07	25.581
822.37	-18.919
822.67	-15.625
822.97	35.714
823.27	-32.143
823.57	-28.000
823.88	-14.815
824.18	46.429
824.48	11.765
824.78	19.355
825.08	-34.783
825.38	12.121
825.69	-54.167
825.99	0.000
826.29	19.444
826.59	0.000
826.89	-19.048
827.19	-2.174
827.49	5.000
827.79	14.286
828.09	10.714
828.39	24.242
828.70	51.351
829.00	-25.000
829.30	23.810
829.60	23.333
829.90	6.250
830.20	-5.263
830.50	-25.926
830.80	34.783
831.10	9.091
831.40	36.364
831.70	41.935
832.00	23.810
832.30	-28.571
832.60	-16.667
832.90	13.793
833.20	5.000
833.50	6.061
833.80	11.111
834.10	30.769
834.40	43.750
834.70	-66.667
835.00	10.526
835.30	15.385
835.60	40.000
835.90	22.581
836.20	-22.727
836.50	57.143
836.80	-23.077
837.10	-7.143
837.40	-400.000
837.70	22.727
838.00	0.000
838.30	-26.087
838.60	61.538
838.90	4.545
839.19	10.714
839.49	53.333
839.79	-46.154
840.09	8.333
840.39	57.143
840.69	0.000
840.99	11.538
841.29	-5.263
841.59	-190.000
841.88	-9.091
842.18	-40.000
842.48	18.750
842.78	40.000
843.08	7.407
843.38	30.000
843.68	-26.087
843.97	-26.667
844.27	-20.000
844.57	-30.000
844.87	11.111
845.17	-52.381
845.47	40.000
845.76	-19.048
846.06	-17.647
846.36	10.000
846.66	-100.000
846.96	-46.667
847.25	-112.500
847.55	71.429
847.85	25.000
848.15	-9.091
848.44	-266.667
848.74	0.000
849.04	22.222
849.34	63.636
849.63	-150.000
849.93	-160.000
850.23	22.222
850.53	80.000
850.82	53.846
851.12	-11.111
851.42	33.333
851.71	23.077
852.01	-28.571
852.31	25.000
852.61	63.636
852.90	-5.000
853.20	73.684
853.50	8.333
853.79	34.783
854.09	16.667
854.39	-5.263
854.68	20.833
854.98	29.032
855.28	65.385
855.57	-5.000
855.87	72.222
856.17	48.148
856.46	21.429
856.76	0.000
857.05	77.778
857.35	24.000
857.65	11.111
857.94	23.077
858.24	17.241
858.53	0.000
858.83	11.111
859.13	50.000
859.42	8.696
859.72	-100.000
860.01	-133.333
860.31	28.000
860.60	28.571
860.90	-166.667
861.20	-20.000
861.49	-650.000
861.79	-13.333
862.08	25.000
862.38	106.667
862.67	40.000
862.97	-133.333
863.26	66.667
863.56	38.889
863.85	-33.333
864.15	-55.556
864.44	70.000
864.74	35.714
865.03	125.000
865.33	-240.000
865.62	16.667
865.92	41.667
866.21	-133.333
866.51	25.000
866.80	0.000
867.10	-550.000
867.39	58.333
867.69	0.000
867.98	15.385
868.27	-300.000
868.57	-66.667
868.86	-33.333
869.16	-92.308
869.45	0.000
869.75	-400.000
870.04	0.000
870.33	-100.000
870.63	-4.762
870.92	300.000
871.22	0.000
871.51	500.000
871.80	77.778
872.10	433.333
>>>>>End Processed Spectral Data<<<<<
