SpectraSuite Data File
++++++++++++++++++++++++++++++++++++
Date: Fri May 15 17:03:06 PDT 2015
User: schluterlab
Dark Spectrum Present: Yes
Reference Spectrum Present: Yes
Number of Sampled Component Spectra: 1
Spectrometers: USB2E3373
Integration Time (usec): 3000 (USB2E3373)
Spectra Averaged: 3 (USB2E3373)
Boxcar Smoothing: 0 (USB2E3373)
Correct for Electrical Dark: No (USB2E3373)
Strobe/Lamp Enabled: No (USB2E3373)
Correct for Detector Non-linearity: No (USB2E3373)
Correct for Stray Light: No (USB2E3373)
Number of Pixels in Processed Spectrum: 2048
>>>>>Begin Processed Spectral Data<<<<<
178.53	0.000
178.91	0.000
179.29	137.500
179.67	-250.000
180.04	-128.571
180.42	225.000
180.80	800.000
181.18	-66.667
181.56	-50.000
181.94	450.000
182.31	-300.000
182.69	0.000
183.07	0.000
183.45	100.000
183.83	-0.000
184.20	-27.273
184.58	-22.222
184.96	-275.000
185.34	-66.667
185.72	-300.000
186.09	46.154
186.47	-500.000
186.85	-50.000
187.23	33.333
187.61	-400.000
187.98	-100.000
188.36	144.444
188.74	-166.667
189.12	94.118
189.49	5.556
189.87	0.000
190.25	50.000
190.63	500.000
191.00	100.000
191.38	-5.263
191.76	550.000
192.14	-75.000
192.51	350.000
192.89	88.889
193.27	-57.143
193.65	116.667
194.02	90.909
194.40	110.000
194.78	-100.000
195.15	8.333
195.53	-12.500
195.91	225.000
196.29	75.000
196.66	107.692
197.04	71.429
197.42	44.444
197.79	-366.667
198.17	-23.077
198.55	-100.000
198.92	-133.333
199.30	500.000
199.68	-40.000
200.05	0.000
200.43	0.000
200.81	-233.333
201.18	300.000
201.56	900.000
201.94	400.000
202.31	-466.667
202.69	0.000
203.07	-50.000
203.44	800.000
203.82	0.000
204.19	71.429
204.57	-466.667
204.95	125.000
205.32	30.000
205.70	14.286
206.08	75.000
206.45	122.222
206.83	92.857
207.20	-14.286
207.58	-300.000
207.96	-100.000
208.33	-100.000
208.71	-200.000
209.08	-50.000
209.46	-200.000
209.84	-60.000
210.21	100.000
210.59	71.429
210.96	-33.333
211.34	100.000
211.71	73.333
212.09	-100.000
212.46	-1300.000
212.84	0.000
213.22	40.000
213.59	500.000
213.97	46.154
214.34	90.909
214.72	-16.667
215.09	25.000
215.47	15.385
215.84	-36.364
216.22	-266.667
216.59	0.000
216.97	200.000
217.34	75.000
217.72	-80.000
218.09	12.500
218.47	112.500
218.84	600.000
219.22	-11.111
219.59	140.000
219.97	233.333
220.34	175.000
220.72	142.857
221.09	-75.000
221.47	100.000
221.84	-250.000
222.22	-550.000
222.59	45.455
222.97	125.000
223.34	133.333
223.72	-7.143
224.09	42.857
224.46	35.714
224.84	-233.333
225.21	50.000
225.59	26.667
225.96	300.000
226.34	175.000
226.71	-14.286
227.08	-66.667
227.46	37.500
227.83	200.000
228.21	77.778
228.58	100.000
228.95	0.000
229.33	40.000
229.70	68.750
230.08	50.000
230.45	28.571
230.82	157.143
231.20	46.667
231.57	21.429
231.95	157.143
232.32	-50.000
232.69	71.429
233.07	166.667
233.44	-20.000
233.81	-20.000
234.19	0.000
234.56	17.647
234.93	150.000
235.31	150.000
235.68	-140.000
236.05	-46.154
236.43	10.000
236.80	64.706
237.17	31.250
237.55	35.000
237.92	18.519
238.29	25.000
238.67	40.000
239.04	14.706
239.41	-24.390
239.79	-3.333
240.16	-2.439
240.53	5.263
240.91	19.565
241.28	33.333
241.65	35.714
242.02	26.027
242.40	23.333
242.77	6.780
243.14	15.152
243.51	16.250
243.89	22.989
244.26	13.793
244.63	5.952
245.00	17.526
245.38	11.340
245.75	4.494
246.12	6.034
246.49	5.785
246.87	6.731
247.24	5.042
247.61	15.789
247.98	5.691
248.36	15.625
248.73	15.789
249.10	11.688
249.47	10.759
249.84	5.229
250.22	11.176
250.59	2.614
250.96	13.615
251.33	9.884
251.70	7.647
252.08	8.629
252.45	5.941
252.82	12.563
253.19	10.599
253.56	9.346
253.94	12.162
254.31	10.000
254.68	13.158
255.05	10.236
255.42	10.044
255.79	13.127
256.16	10.117
256.54	13.060
256.91	12.167
257.28	8.178
257.65	6.742
258.02	9.574
258.39	13.131
258.76	14.286
259.14	11.296
259.51	12.621
259.88	8.591
260.25	11.111
260.62	11.111
260.99	8.814
261.36	9.247
261.73	10.759
262.10	8.511
262.47	8.896
262.85	10.658
263.22	8.308
263.59	11.838
263.96	11.491
264.33	10.000
264.70	9.821
265.07	10.417
265.44	10.198
265.81	9.605
266.18	11.475
266.55	11.311
266.92	11.140
267.29	9.138
267.66	9.719
268.03	8.639
268.40	11.749
268.77	14.171
269.14	10.312
269.51	8.997
269.88	9.726
270.25	7.143
270.62	8.049
270.99	8.184
271.36	6.357
271.73	12.676
272.10	8.273
272.47	9.456
272.84	9.158
273.21	12.297
273.58	11.807
273.95	8.924
274.32	8.314
274.69	6.335
275.06	7.589
275.43	9.524
275.80	9.051
276.17	7.816
276.54	9.636
276.91	8.991
277.28	9.825
277.65	8.678
278.02	10.851
278.39	9.628
278.76	9.434
279.13	5.809
279.50	9.034
279.87	11.231
280.23	8.817
280.60	12.281
280.97	8.889
281.34	9.423
281.71	11.088
282.08	7.566
282.45	10.372
282.82	9.073
283.19	8.897
283.56	9.056
283.92	7.780
284.29	8.654
284.66	7.752
285.03	9.234
285.40	9.452
285.77	8.260
286.14	10.108
286.51	9.041
286.87	8.592
287.24	7.551
287.61	5.115
287.98	8.947
288.35	8.319
288.72	10.158
289.08	8.507
289.45	8.787
289.82	9.790
290.19	9.044
290.56	5.832
290.93	6.734
291.29	8.320
291.66	8.819
292.03	7.974
292.40	9.032
292.77	7.337
293.13	6.006
293.50	8.498
293.87	7.176
294.24	7.728
294.60	7.899
294.97	8.482
295.34	7.209
295.71	6.706
296.08	7.773
296.44	4.552
296.81	7.639
297.18	7.536
297.55	8.672
297.91	7.534
298.28	9.367
298.65	6.920
299.02	7.008
299.38	5.335
299.75	6.069
300.12	6.152
300.48	6.192
300.85	7.605
301.22	7.143
301.59	4.211
301.95	8.354
302.32	7.004
302.69	7.090
303.05	5.941
303.42	6.725
303.79	7.126
304.15	6.332
304.52	5.113
304.89	6.667
305.25	5.569
305.62	5.484
305.99	6.784
306.35	6.127
306.72	5.287
307.09	4.903
307.45	6.315
307.82	6.134
308.19	6.969
308.55	6.216
308.92	7.734
309.29	6.704
309.65	5.597
310.02	6.491
310.38	5.928
310.75	6.557
311.12	5.274
311.48	5.726
311.85	5.340
312.22	4.958
312.58	5.945
312.95	4.376
313.31	5.797
313.68	5.445
314.05	5.408
314.41	6.907
314.78	6.495
315.14	5.961
315.51	6.004
315.87	4.303
316.24	7.583
316.61	5.512
316.97	5.952
317.34	6.055
317.70	5.927
318.07	5.769
318.43	7.059
318.80	5.777
319.16	5.762
319.53	6.838
319.89	5.413
320.26	6.073
320.62	6.319
320.99	5.219
321.35	6.166
321.72	6.750
322.08	5.035
322.45	6.701
322.81	6.090
323.18	6.183
323.54	6.274
323.91	5.940
324.27	5.273
324.64	5.712
325.00	7.299
325.37	7.805
325.73	6.618
326.10	7.175
326.46	7.175
326.83	6.387
327.19	6.364
327.56	6.082
327.92	7.218
328.29	6.607
328.65	5.472
329.01	7.721
329.38	6.452
329.74	6.421
330.11	6.209
330.47	5.566
330.84	4.519
331.20	7.605
331.56	5.556
331.93	6.941
332.29	6.416
332.66	6.968
333.02	6.134
333.38	6.233
333.75	7.418
334.11	5.551
334.48	5.984
334.84	6.777
335.20	7.136
335.57	5.802
335.93	6.504
336.29	7.366
336.66	6.630
337.02	4.740
337.38	5.833
337.75	6.273
338.11	5.591
338.47	7.208
338.84	6.932
339.20	6.764
339.56	7.248
339.93	7.341
340.29	6.789
340.65	7.348
341.02	6.206
341.38	7.257
341.74	4.859
342.11	5.199
342.47	6.940
342.83	6.488
343.20	6.882
343.56	6.087
343.92	6.820
344.28	7.430
344.65	5.354
345.01	5.704
345.37	6.140
345.73	6.946
346.10	6.903
346.46	7.065
346.82	7.365
347.19	5.653
347.55	6.433
347.91	6.958
348.27	6.225
348.63	7.325
349.00	6.235
349.36	6.650
349.72	7.546
350.08	6.557
350.45	5.986
350.81	5.897
351.17	5.782
351.53	6.939
351.89	5.120
352.26	6.400
352.62	6.935
352.98	6.345
353.34	5.395
353.70	7.605
354.07	6.532
354.43	6.645
354.79	5.945
355.15	6.984
355.51	6.487
355.87	6.472
356.24	4.568
356.60	6.548
356.96	6.825
357.32	6.230
357.68	6.646
358.04	5.412
358.40	6.752
358.77	6.459
359.13	5.765
359.49	6.086
359.85	5.538
360.21	5.662
360.57	6.963
360.93	6.732
361.29	5.514
361.66	6.113
362.02	6.818
362.38	5.407
362.74	6.510
363.10	6.245
363.46	6.227
363.82	7.062
364.18	6.199
364.54	6.029
364.90	5.950
365.26	5.604
365.62	7.226
365.98	6.598
366.35	6.846
366.71	7.021
367.07	6.168
367.43	5.895
367.79	6.996
368.15	6.174
368.51	6.336
368.87	5.887
369.23	6.065
369.59	6.487
369.95	6.012
370.31	6.864
370.67	5.821
371.03	5.228
371.39	5.179
371.75	6.886
372.11	6.063
372.47	6.287
372.83	5.962
373.19	7.061
373.55	5.632
373.91	6.120
374.27	5.811
374.63	6.102
374.99	6.170
375.35	6.476
375.71	6.294
376.07	5.899
376.42	6.190
376.78	6.711
377.14	6.297
377.50	6.175
377.86	6.693
378.22	6.509
378.58	6.090
378.94	5.356
379.30	6.363
379.66	7.335
380.02	6.376
380.38	5.843
380.74	5.685
381.09	7.607
381.45	6.422
381.81	5.614
382.17	6.472
382.53	5.684
382.89	5.712
383.25	6.409
383.61	7.012
383.97	5.778
384.32	7.129
384.68	6.006
385.04	5.760
385.40	6.409
385.76	7.421
386.12	7.891
386.48	7.344
386.83	5.834
387.19	6.838
387.55	7.026
387.91	6.235
388.27	6.044
388.62	7.111
388.98	6.323
389.34	7.245
389.70	6.464
390.06	5.727
390.42	6.477
390.77	6.540
391.13	6.494
391.49	6.468
391.85	6.498
392.20	6.654
392.56	6.993
392.92	7.164
393.28	6.191
393.64	6.366
393.99	7.837
394.35	6.199
394.71	7.471
395.07	6.914
395.42	6.679
395.78	7.231
396.14	6.999
396.50	7.166
396.85	6.954
397.21	7.393
397.57	7.273
397.92	7.849
398.28	7.184
398.64	6.988
399.00	7.393
399.35	6.772
399.71	7.180
400.07	7.981
400.42	6.610
400.78	7.655
401.14	7.743
401.49	7.564
401.85	7.191
402.21	7.349
402.57	7.750
402.92	6.274
403.28	8.020
403.63	7.945
403.99	7.079
404.35	8.307
404.70	8.095
405.06	7.756
405.42	6.899
405.77	7.263
406.13	8.033
406.49	8.348
406.84	7.763
407.20	7.766
407.55	6.310
407.91	7.019
408.27	7.967
408.62	7.754
408.98	7.763
409.34	8.798
409.69	7.623
410.05	7.328
410.40	8.580
410.76	8.203
411.11	8.000
411.47	7.627
411.83	7.407
412.18	8.559
412.54	8.052
412.89	8.251
413.25	8.785
413.60	8.012
413.96	8.037
414.31	8.171
414.67	8.467
415.03	7.856
415.38	8.616
415.74	9.121
416.09	8.230
416.45	8.373
416.80	8.394
417.16	8.771
417.51	8.994
417.87	7.953
418.22	9.326
418.58	8.629
418.93	9.342
419.29	7.939
419.64	8.814
420.00	9.446
420.35	8.239
420.71	8.688
421.06	8.778
421.42	9.255
421.77	8.902
422.12	8.229
422.48	8.771
422.83	9.223
423.19	8.916
423.54	8.583
423.90	8.304
424.25	9.472
424.61	9.364
424.96	9.640
425.31	9.417
425.67	9.214
426.02	8.952
426.38	9.455
426.73	9.201
427.09	9.177
427.44	9.941
427.79	8.957
428.15	9.345
428.50	8.904
428.85	8.722
429.21	9.960
429.56	9.057
429.92	10.015
430.27	9.023
430.62	8.887
430.98	8.811
431.33	9.937
431.68	9.785
432.04	9.503
432.39	8.614
432.74	9.561
433.10	10.460
433.45	9.498
433.80	9.692
434.16	8.698
434.51	9.194
434.86	10.046
435.22	9.366
435.57	10.418
435.92	10.120
436.28	9.541
436.63	10.040
436.98	9.907
437.34	9.498
437.69	10.197
438.04	9.687
438.39	9.591
438.75	9.472
439.10	9.791
439.45	10.225
439.81	8.502
440.16	9.620
440.51	9.552
440.86	10.634
441.22	10.351
441.57	10.210
441.92	11.018
442.27	9.812
442.63	10.867
442.98	10.454
443.33	10.017
443.68	9.443
444.03	10.631
444.39	9.887
444.74	11.204
445.09	9.800
445.44	10.370
445.79	11.191
446.15	9.306
446.50	9.429
446.85	10.096
447.20	9.645
447.55	10.658
447.91	10.321
448.26	10.245
448.61	10.248
448.96	10.212
449.31	10.636
449.66	10.163
450.02	10.610
450.37	9.959
450.72	10.023
451.07	11.076
451.42	10.362
451.77	10.910
452.12	9.689
452.47	10.045
452.83	11.013
453.18	10.247
453.53	10.746
453.88	10.747
454.23	9.896
454.58	10.831
454.93	11.727
455.28	9.651
455.63	11.035
455.98	11.004
456.34	10.473
456.69	10.610
457.04	10.586
457.39	9.964
457.74	9.915
458.09	9.712
458.44	10.240
458.79	10.196
459.14	11.613
459.49	10.567
459.84	11.224
460.19	9.891
460.54	10.024
460.89	10.227
461.24	10.683
461.59	11.639
461.94	10.881
462.29	11.580
462.64	12.093
462.99	10.833
463.34	9.179
463.69	10.875
464.04	10.412
464.39	10.855
464.74	9.877
465.09	10.979
465.44	10.733
465.79	9.751
466.14	11.117
466.49	10.351
466.84	11.957
467.19	10.576
467.54	11.239
467.89	10.865
468.24	10.888
468.59	11.175
468.94	10.603
469.29	10.820
469.64	10.185
469.99	10.652
470.34	10.034
470.68	11.409
471.03	11.253
471.38	11.412
471.73	9.944
472.08	10.787
472.43	10.134
472.78	10.555
473.13	10.748
473.48	11.075
473.83	11.270
474.17	10.298
474.52	10.976
474.87	11.333
475.22	10.311
475.57	10.220
475.92	10.532
476.27	10.419
476.61	10.938
476.96	10.206
477.31	11.195
477.66	10.618
478.01	10.219
478.36	10.621
478.70	10.984
479.05	11.264
479.40	10.599
479.75	10.428
480.10	10.855
480.45	10.100
480.79	11.027
481.14	11.117
481.49	10.345
481.84	11.197
482.19	10.103
482.53	10.839
482.88	11.360
483.23	10.653
483.58	11.179
483.92	10.794
484.27	10.483
484.62	10.668
484.97	10.862
485.31	10.332
485.66	9.968
486.01	10.646
486.36	10.416
486.70	10.342
487.05	10.677
487.40	10.884
487.75	11.127
488.09	10.847
488.44	10.867
488.79	10.572
489.13	11.098
489.48	10.688
489.83	10.628
490.17	10.742
490.52	10.300
490.87	10.828
491.22	10.840
491.56	10.389
491.91	10.660
492.26	11.133
492.60	11.276
492.95	11.904
493.30	10.161
493.64	10.756
493.99	10.821
494.34	10.631
494.68	11.000
495.03	10.122
495.37	10.844
495.72	10.601
496.07	11.122
496.41	11.274
496.76	10.778
497.11	10.619
497.45	12.029
497.80	10.999
498.14	11.326
498.49	10.716
498.84	10.778
499.18	10.944
499.53	11.260
499.87	10.700
500.22	11.128
500.56	11.397
500.91	10.643
501.26	10.875
501.60	10.182
501.95	11.596
502.29	10.751
502.64	11.149
502.98	10.607
503.33	10.471
503.67	10.506
504.02	10.899
504.36	11.381
504.71	10.808
505.06	11.424
505.40	10.761
505.75	10.619
506.09	10.897
506.44	11.037
506.78	11.276
507.13	10.962
507.47	10.496
507.82	10.363
508.16	11.358
508.51	11.228
508.85	10.989
509.19	9.633
509.54	11.475
509.88	10.680
510.23	11.027
510.57	11.117
510.92	10.448
511.26	11.457
511.61	11.606
511.95	11.014
512.30	11.419
512.64	11.630
512.98	10.107
513.33	11.584
513.67	10.688
514.02	12.471
514.36	11.429
514.70	12.063
515.05	11.633
515.39	11.098
515.74	11.617
516.08	11.775
516.42	11.661
516.77	12.288
517.11	11.039
517.46	11.251
517.80	11.025
518.14	11.574
518.49	10.637
518.83	11.057
519.17	10.612
519.52	11.131
519.86	10.804
520.20	11.543
520.55	10.819
520.89	11.920
521.23	11.400
521.58	12.492
521.92	11.346
522.26	11.126
522.61	11.364
522.95	11.987
523.29	11.499
523.64	11.563
523.98	11.601
524.32	11.276
524.66	11.652
525.01	11.818
525.35	11.925
525.69	11.313
526.04	10.119
526.38	12.646
526.72	10.726
527.06	11.479
527.41	12.665
527.75	11.796
528.09	10.764
528.43	12.762
528.78	11.221
529.12	11.548
529.46	11.501
529.80	12.223
530.15	12.343
530.49	10.976
530.83	11.218
531.17	11.216
531.51	11.833
531.86	11.013
532.20	10.856
532.54	12.662
532.88	12.799
533.22	11.559
533.57	11.664
533.91	10.901
534.25	12.109
534.59	10.840
534.93	10.699
535.27	10.977
535.62	11.082
535.96	11.807
536.30	11.675
536.64	11.165
536.98	11.010
537.32	11.522
537.66	13.184
538.01	11.608
538.35	10.957
538.69	11.518
539.03	11.483
539.37	12.248
539.71	12.815
540.05	11.473
540.39	12.050
540.73	11.715
541.07	12.914
541.42	12.970
541.76	13.214
542.10	12.388
542.44	11.953
542.78	10.874
543.12	12.019
543.46	11.683
543.80	12.006
544.14	10.948
544.48	11.592
544.82	12.303
545.16	13.046
545.50	12.750
545.84	12.819
546.18	12.270
546.52	11.896
546.86	11.574
547.20	11.946
547.54	11.943
547.88	12.024
548.22	10.980
548.56	11.807
548.90	12.534
549.24	11.501
549.58	10.719
549.92	11.222
550.26	12.234
550.60	12.193
550.94	12.024
551.28	11.515
551.62	12.308
551.96	11.353
552.30	11.330
552.64	11.777
552.98	12.166
553.32	11.127
553.66	11.538
554.00	11.898
554.34	12.186
554.68	11.799
555.02	12.872
555.36	11.518
555.69	11.282
556.03	10.707
556.37	11.174
556.71	12.058
557.05	11.409
557.39	12.045
557.73	12.444
558.07	12.217
558.41	12.328
558.75	12.705
559.08	11.584
559.42	10.635
559.76	11.849
560.10	11.697
560.44	11.095
560.78	12.587
561.12	11.777
561.45	12.720
561.79	12.045
562.13	11.852
562.47	10.504
562.81	12.464
563.15	12.341
563.48	11.881
563.82	12.697
564.16	12.744
564.50	11.486
564.84	12.115
565.17	11.737
565.51	12.295
565.85	11.728
566.19	11.472
566.52	11.997
566.86	12.918
567.20	11.083
567.54	11.740
567.88	11.482
568.21	11.708
568.55	11.196
568.89	12.269
569.23	11.651
569.56	11.427
569.90	12.140
570.24	11.165
570.57	11.309
570.91	12.269
571.25	11.345
571.59	11.274
571.92	10.785
572.26	10.990
572.60	11.504
572.93	11.861
573.27	11.630
573.61	11.247
573.95	11.824
574.28	11.282
574.62	11.137
574.96	11.194
575.29	11.408
575.63	11.117
575.97	11.168
576.30	11.442
576.64	11.205
576.98	11.429
577.31	11.182
577.65	11.468
577.98	11.243
578.32	11.408
578.66	11.111
578.99	11.277
579.33	11.067
579.67	10.901
580.00	11.139
580.34	11.368
580.67	11.474
581.01	11.599
581.35	11.240
581.68	11.651
582.02	11.158
582.35	11.216
582.69	11.161
583.02	11.237
583.36	11.403
583.70	11.786
584.03	11.676
584.37	12.055
584.70	11.374
585.04	11.218
585.37	11.548
585.71	11.232
586.04	11.599
586.38	11.096
586.72	11.621
587.05	11.554
587.39	11.490
587.72	11.482
588.06	11.735
588.39	11.848
588.73	11.630
589.06	11.546
589.40	11.994
589.73	12.304
590.07	12.236
590.40	11.958
590.73	12.191
591.07	11.874
591.40	11.932
591.74	11.855
592.07	11.874
592.41	12.544
592.74	11.908
593.08	11.037
593.41	11.367
593.75	11.286
594.08	11.535
594.41	11.645
594.75	11.260
595.08	11.994
595.42	11.667
595.75	11.641
596.09	11.572
596.42	11.947
596.75	12.078
597.09	11.800
597.42	11.563
597.75	12.002
598.09	11.317
598.42	11.146
598.76	11.240
599.09	12.179
599.42	11.027
599.76	11.287
600.09	11.425
600.42	11.448
600.76	11.330
601.09	11.450
601.42	11.281
601.76	11.314
602.09	11.510
602.42	11.921
602.76	11.205
603.09	11.877
603.42	11.747
603.76	11.048
604.09	11.341
604.42	11.887
604.76	12.016
605.09	11.152
605.42	11.558
605.75	11.165
606.09	11.423
606.42	11.760
606.75	11.775
607.09	12.308
607.42	11.431
607.75	11.234
608.08	11.141
608.42	11.695
608.75	12.337
609.08	12.407
609.41	12.030
609.75	12.097
610.08	11.483
610.41	11.739
610.74	11.458
611.07	11.990
611.41	12.455
611.74	11.354
612.07	10.974
612.40	12.090
612.73	10.960
613.07	11.642
613.40	11.597
613.73	10.632
614.06	12.855
614.39	11.788
614.72	11.709
615.06	11.341
615.39	11.572
615.72	11.249
616.05	11.285
616.38	11.054
616.71	11.621
617.05	11.921
617.38	11.314
617.71	11.698
618.04	11.810
618.37	12.736
618.70	11.947
619.03	13.194
619.36	10.492
619.69	11.827
620.03	12.637
620.36	12.017
620.69	11.135
621.02	11.850
621.35	12.033
621.68	12.585
622.01	12.333
622.34	12.051
622.67	12.145
623.00	12.098
623.33	12.271
623.66	11.294
623.99	11.725
624.32	12.167
624.65	10.827
624.99	11.437
625.32	10.993
625.65	12.569
625.98	12.006
626.31	11.139
626.64	11.179
626.97	11.867
627.30	12.434
627.63	11.958
627.96	11.590
628.29	12.858
628.62	11.308
628.95	12.024
629.28	12.702
629.61	11.067
629.94	12.414
630.26	12.846
630.59	12.071
630.92	10.667
631.25	12.615
631.58	11.674
631.91	9.978
632.24	10.894
632.57	11.591
632.90	11.269
633.23	12.000
633.56	11.335
633.89	12.207
634.22	12.716
634.55	12.071
634.88	12.261
635.20	11.667
635.53	10.267
635.86	12.094
636.19	12.549
636.52	10.332
636.85	10.794
637.18	13.082
637.51	11.572
637.83	12.746
638.16	12.960
638.49	10.354
638.82	13.026
639.15	11.398
639.48	10.867
639.81	11.855
640.13	10.678
640.46	11.808
640.79	11.340
641.12	12.112
641.45	12.312
641.77	13.037
642.10	13.586
642.43	11.576
642.76	12.046
643.09	13.570
643.41	12.298
643.74	11.532
644.07	12.151
644.40	14.020
644.73	11.909
645.05	12.752
645.38	12.875
645.71	10.816
646.04	13.465
646.36	12.411
646.69	13.129
647.02	11.342
647.35	11.940
647.67	11.335
648.00	12.687
648.33	13.652
648.66	13.051
648.98	9.380
649.31	9.917
649.64	10.832
649.96	9.887
650.29	13.799
650.62	11.282
650.94	11.481
651.27	10.987
651.60	13.153
651.92	13.112
652.25	11.368
652.58	10.833
652.90	13.036
653.23	10.420
653.56	11.506
653.88	12.371
654.21	10.508
654.54	12.903
654.86	12.564
655.19	11.696
655.52	11.687
655.84	9.992
656.17	11.207
656.49	15.911
656.82	17.087
657.15	13.189
657.47	9.922
657.80	7.439
658.13	7.636
658.45	11.538
658.78	12.007
659.10	12.037
659.43	12.658
659.75	13.370
660.08	12.138
660.41	13.177
660.73	14.227
661.06	13.345
661.38	11.546
661.71	10.472
662.03	11.803
662.36	12.967
662.68	12.168
663.01	12.227
663.33	11.369
663.66	12.093
663.98	13.256
664.31	15.352
664.63	12.212
664.96	9.783
665.28	12.804
665.61	13.203
665.93	14.130
666.26	13.883
666.58	11.633
666.91	12.941
667.23	13.208
667.56	13.981
667.88	11.271
668.21	11.933
668.53	12.530
668.86	12.028
669.18	10.613
669.50	11.380
669.83	10.698
670.15	11.422
670.48	14.833
670.80	11.290
671.13	12.752
671.45	11.872
671.77	12.446
672.10	11.089
672.42	10.487
672.75	13.677
673.07	13.596
673.39	13.394
673.72	10.256
674.04	13.542
674.37	13.347
674.69	10.278
675.01	13.556
675.34	13.063
675.66	13.657
675.98	13.304
676.31	13.303
676.63	10.689
676.95	11.591
677.28	14.824
677.60	11.807
677.92	12.156
678.25	12.691
678.57	12.554
678.89	12.395
679.22	12.752
679.54	12.651
679.86	9.742
680.18	13.010
680.51	11.364
680.83	9.742
681.15	12.400
681.48	14.549
681.80	13.843
682.12	13.105
682.44	11.506
682.77	11.921
683.09	11.213
683.41	11.818
683.73	11.521
684.06	14.159
684.38	9.462
684.70	12.854
685.02	10.373
685.34	9.486
685.67	10.882
685.99	11.573
686.31	12.212
686.63	10.946
686.96	12.548
687.28	9.899
687.60	8.745
687.92	12.525
688.24	14.113
688.56	13.100
688.89	12.054
689.21	14.667
689.53	12.297
689.85	11.860
690.17	13.616
690.49	10.638
690.82	9.951
691.14	13.810
691.46	14.252
691.78	9.685
692.10	13.978
692.42	12.554
692.74	13.675
693.06	11.261
693.39	12.217
693.71	9.050
694.03	10.393
694.35	11.215
694.67	12.626
694.99	10.183
695.31	13.577
695.63	12.250
695.95	6.313
696.27	11.917
696.59	10.278
696.91	14.566
697.23	9.254
697.56	10.891
697.88	12.903
698.20	13.440
698.52	9.176
698.84	10.287
699.16	11.500
699.48	13.534
699.80	9.181
700.12	12.668
700.44	11.765
700.76	11.047
701.08	10.000
701.40	10.542
701.72	13.889
702.04	9.901
702.36	9.030
702.68	11.411
703.00	12.121
703.32	10.264
703.64	8.475
703.96	10.145
704.28	11.656
704.60	12.063
704.91	8.202
705.23	11.960
705.55	16.961
705.87	12.635
706.19	10.741
706.51	10.997
706.83	14.148
707.15	10.280
707.47	9.244
707.79	11.458
708.11	13.500
708.43	11.750
708.74	10.853
709.06	12.676
709.38	11.315
709.70	10.947
710.02	12.102
710.34	14.551
710.66	9.615
710.98	10.265
711.29	15.082
711.61	12.203
711.93	12.378
712.25	16.495
712.57	13.919
712.89	11.940
713.20	14.879
713.52	11.847
713.84	12.628
714.16	10.309
714.48	6.452
714.80	12.179
715.11	12.158
715.43	8.150
715.75	11.667
716.07	9.635
716.39	13.087
716.70	11.070
717.02	12.595
717.34	9.312
717.66	11.504
717.97	3.478
718.29	13.389
718.61	13.386
718.93	13.178
719.24	9.506
719.56	10.442
719.88	13.746
720.20	10.606
720.51	9.579
720.83	13.127
721.15	10.924
721.46	6.855
721.78	8.300
722.10	15.242
722.42	10.788
722.73	12.245
723.05	12.245
723.37	12.712
723.68	12.613
724.00	13.248
724.32	6.222
724.63	6.818
724.95	13.100
725.27	15.668
725.58	10.593
725.90	12.698
726.22	11.197
726.53	17.288
726.85	10.861
727.16	15.849
727.48	11.336
727.80	15.385
728.11	11.864
728.43	10.196
728.74	7.258
729.06	13.200
729.38	21.053
729.69	13.147
730.01	8.462
730.32	14.179
730.64	14.841
730.96	15.472
731.27	11.000
731.59	8.136
731.90	10.510
732.22	16.404
732.53	11.960
732.85	12.766
733.16	14.815
733.48	5.755
733.80	12.319
734.11	11.864
734.43	10.309
734.74	9.697
735.06	12.052
735.37	12.991
735.69	17.172
736.00	11.498
736.32	10.067
736.63	10.563
736.95	14.676
737.26	11.744
737.58	11.074
737.89	7.692
738.21	11.654
738.52	14.403
738.83	14.410
739.15	9.607
739.46	15.354
739.78	8.059
740.09	8.824
740.41	13.768
740.72	6.299
741.04	10.121
741.35	10.213
741.66	8.531
741.98	13.265
742.29	14.851
742.61	10.995
742.92	7.583
743.23	6.481
743.55	15.837
743.86	10.048
744.18	11.962
744.49	13.830
744.80	4.348
745.12	19.786
745.43	9.756
745.74	11.458
746.06	12.195
746.37	7.330
746.68	16.114
747.00	9.574
747.31	11.940
747.62	11.165
747.94	10.526
748.25	10.396
748.56	14.754
748.88	8.377
749.19	12.234
749.50	14.286
749.82	8.491
750.13	4.587
750.44	15.414
750.75	12.687
751.07	12.044
751.38	11.877
751.69	10.588
752.01	10.465
752.32	10.359
752.63	7.510
752.94	5.603
753.26	18.828
753.57	6.787
753.88	13.274
754.19	7.917
754.51	10.331
754.82	11.741
755.13	18.333
755.44	13.306
755.75	13.672
756.07	12.840
756.38	11.698
756.69	8.046
757.00	10.333
757.31	17.647
757.63	9.451
757.94	11.111
758.25	9.589
758.56	8.245
758.87	7.932
759.18	11.215
759.50	5.455
759.81	14.381
760.12	10.000
760.43	11.212
760.74	10.185
761.05	10.769
761.36	10.795
761.67	13.030
761.99	13.605
762.30	9.455
762.61	10.672
762.92	10.407
763.23	6.306
763.54	9.346
763.85	13.559
764.16	11.203
764.47	10.484
764.78	10.989
765.10	12.121
765.41	9.148
765.72	14.603
766.03	6.015
766.34	7.664
766.65	15.139
766.96	14.141
767.27	7.447
767.58	7.471
767.89	4.255
768.20	13.636
768.51	8.242
768.82	8.374
769.13	8.756
769.44	10.730
769.75	9.589
770.06	10.776
770.37	10.577
770.68	13.706
770.99	14.480
771.30	13.235
771.61	13.122
771.92	13.362
772.23	17.241
772.54	13.441
772.85	14.815
773.16	14.045
773.47	9.150
773.78	16.340
774.09	6.587
774.39	9.333
774.70	15.287
775.01	19.310
775.32	16.429
775.63	14.876
775.94	15.267
776.25	22.835
776.56	10.000
776.87	13.462
777.18	13.675
777.48	8.621
777.79	7.826
778.10	0.000
778.41	8.108
778.72	18.254
779.03	15.038
779.34	14.184
779.65	14.384
779.95	6.849
780.26	15.862
780.57	3.252
780.88	11.811
781.19	4.310
781.50	13.953
781.80	13.018
782.11	10.063
782.42	9.231
782.73	15.827
783.04	17.778
783.34	11.111
783.65	-1.709
783.96	9.836
784.27	16.552
784.57	16.260
784.88	13.281
785.19	22.000
785.50	20.000
785.81	18.966
786.11	17.241
786.42	12.621
786.73	16.364
787.04	14.286
787.34	16.964
787.65	14.286
787.96	14.159
788.26	15.455
788.57	13.675
788.88	12.500
789.19	10.317
789.49	10.435
789.80	13.265
790.11	23.232
790.41	5.455
790.72	17.391
791.03	19.318
791.33	22.500
791.64	15.000
791.95	10.465
792.25	19.149
792.56	19.101
792.87	9.589
793.17	5.797
793.48	0.000
793.79	0.000
794.09	22.500
794.40	8.491
794.70	8.738
795.01	8.130
795.32	6.838
795.62	5.714
795.93	22.549
796.23	16.981
796.54	21.875
796.85	8.824
797.15	7.042
797.46	23.611
797.76	31.818
798.07	12.791
798.37	1.316
798.68	4.545
798.99	20.988
799.29	21.429
799.60	-8.696
799.90	21.333
800.21	11.475
800.51	20.000
800.82	1.695
801.12	7.246
801.43	18.033
801.73	33.333
802.04	12.000
802.34	16.418
802.65	19.231
802.95	10.714
803.26	9.615
803.56	33.333
803.87	-15.217
804.17	1.333
804.48	31.746
804.78	12.963
805.09	-6.522
805.39	13.333
805.70	27.778
806.00	0.000
806.30	23.944
806.61	20.000
806.91	2.778
807.22	32.895
807.52	14.667
807.83	-3.636
808.13	9.722
808.43	33.824
808.74	5.970
809.04	16.949
809.35	-7.692
809.65	23.437
809.95	-29.730
810.26	-4.545
810.56	17.808
810.86	16.667
811.17	36.000
811.47	34.694
811.77	0.000
812.08	18.182
812.38	13.208
812.69	15.000
812.99	6.061
813.29	15.789
813.59	14.286
813.90	15.909
814.20	2.564
814.50	30.769
814.81	28.302
815.11	-4.255
815.41	30.508
815.72	11.905
816.02	27.451
816.32	10.417
816.62	2.439
816.93	-13.514
817.23	31.429
817.53	25.000
817.84	13.043
818.14	19.231
818.44	-18.421
818.74	39.130
819.04	-25.000
819.35	35.135
819.65	5.882
819.95	5.556
820.25	7.143
820.56	45.000
820.86	-13.793
821.16	-2.500
821.46	-6.383
821.76	17.500
822.07	16.279
822.37	-16.216
822.67	12.500
822.97	19.048
823.27	25.000
823.57	0.000
823.88	25.926
824.18	10.714
824.48	17.647
824.78	35.484
825.08	-17.391
825.38	0.000
825.69	0.000
825.99	13.158
826.29	5.556
826.59	13.333
826.89	-42.857
827.19	10.870
827.49	22.500
827.79	11.429
828.09	7.143
828.39	3.030
828.70	29.730
829.00	-10.714
829.30	23.810
829.60	0.000
829.90	3.125
830.20	5.263
830.50	33.333
830.80	4.348
831.10	-4.545
831.40	39.394
831.70	29.032
832.00	57.143
832.30	-38.095
832.60	58.333
832.90	24.138
833.20	15.000
833.50	27.273
833.80	29.630
834.10	26.923
834.40	25.000
834.70	-55.556
835.00	47.368
835.30	69.231
835.60	133.333
835.90	38.710
836.20	13.636
836.50	32.143
836.80	-15.385
837.10	10.714
837.40	-266.667
837.70	13.636
838.00	0.000
838.30	21.739
838.60	46.154
838.90	9.091
839.19	42.857
839.49	50.000
839.79	53.846
840.09	-41.667
840.39	35.714
840.69	42.857
840.99	-19.231
841.29	-15.789
841.59	-100.000
841.88	63.636
842.18	-10.000
842.48	37.500
842.78	13.333
843.08	25.926
843.38	80.000
843.68	26.087
843.97	40.000
844.27	-40.000
844.57	30.000
844.87	44.444
845.17	28.571
845.47	33.333
845.76	52.381
846.06	17.647
846.36	-20.000
846.66	28.571
846.96	60.000
847.25	-12.500
847.55	100.000
847.85	62.500
848.15	-40.909
848.44	-233.333
848.74	55.000
849.04	88.889
849.34	9.091
849.63	-133.333
849.93	-120.000
850.23	22.222
850.53	130.000
850.82	7.692
851.12	77.778
851.42	80.000
851.71	73.077
852.01	42.857
852.31	-125.000
852.61	45.455
852.90	10.000
853.20	15.789
853.50	-75.000
853.79	34.783
854.09	37.500
854.39	21.053
854.68	41.667
854.98	41.935
855.28	34.615
855.57	20.000
855.87	33.333
856.17	51.852
856.46	64.286
856.76	33.333
857.05	-22.222
857.35	36.000
857.65	55.556
857.94	46.154
858.24	48.276
858.53	11.111
858.83	25.926
859.13	63.636
859.42	17.391
859.72	-150.000
860.01	-500.000
860.31	56.000
860.60	57.143
860.90	-100.000
861.20	20.000
861.49	150.000
861.79	-13.333
862.08	35.000
862.38	66.667
862.67	-160.000
862.97	-133.333
863.26	75.000
863.56	72.222
863.85	-233.333
864.15	50.000
864.44	-50.000
864.74	35.714
865.03	-25.000
865.33	-40.000
865.62	50.000
865.92	66.667
866.21	16.667
866.51	75.000
866.80	-36.364
867.10	200.000
867.39	41.667
867.69	0.000
867.98	7.692
868.27	-133.333
868.57	33.333
868.86	44.444
869.16	0.000
869.45	40.000
869.75	-900.000
870.04	0.000
870.33	-114.286
870.63	57.143
870.92	100.000
871.22	-180.000
871.51	-1000.000
871.80	111.111
872.10	66.667
>>>>>End Processed Spectral Data<<<<<
