SpectraSuite Data File
++++++++++++++++++++++++++++++++++++
Date: Fri May 15 20:00:33 PDT 2015
User: schluterlab
Dark Spectrum Present: Yes
Reference Spectrum Present: Yes
Number of Sampled Component Spectra: 1
Spectrometers: USB2E3373
Integration Time (usec): 3000 (USB2E3373)
Spectra Averaged: 3 (USB2E3373)
Boxcar Smoothing: 0 (USB2E3373)
Correct for Electrical Dark: No (USB2E3373)
Strobe/Lamp Enabled: No (USB2E3373)
Correct for Detector Non-linearity: No (USB2E3373)
Correct for Stray Light: No (USB2E3373)
Number of Pixels in Processed Spectrum: 2048
>>>>>Begin Processed Spectral Data<<<<<
178.53	0.000
178.91	0.000
179.29	200.000
179.67	200.000
180.04	-85.714
180.42	75.000
180.80	0.000
181.18	200.000
181.56	250.000
181.94	550.000
182.31	500.000
182.69	140.000
183.07	-66.667
183.45	80.000
183.83	50.000
184.20	27.273
184.58	100.000
184.96	-300.000
185.34	166.667
185.72	-650.000
186.09	38.462
186.47	500.000
186.85	200.000
187.23	55.556
187.61	-400.000
187.98	-166.667
188.36	11.111
188.74	-166.667
189.12	23.529
189.49	72.222
189.87	0.000
190.25	85.714
190.63	200.000
191.00	-33.333
191.38	5.263
191.76	150.000
192.14	-25.000
192.51	-50.000
192.89	100.000
193.27	-14.286
193.65	16.667
194.02	118.182
194.40	110.000
194.78	-37.500
195.15	-8.333
195.53	-25.000
195.91	150.000
196.29	-50.000
196.66	61.538
197.04	28.571
197.42	88.889
197.79	-666.667
198.17	-30.769
198.55	400.000
198.92	0.000
199.30	800.000
199.68	-20.000
200.05	33.333
200.43	0.000
200.81	133.333
201.18	-100.000
201.56	700.000
201.94	100.000
202.31	-400.000
202.69	-60.000
203.07	-25.000
203.44	1100.000
203.82	0.000
204.19	28.571
204.57	-466.667
204.95	-0.000
205.32	60.000
205.70	14.286
206.08	125.000
206.45	55.556
206.83	107.143
207.20	-28.571
207.58	100.000
207.96	-133.333
208.33	-90.000
208.71	-25.000
209.08	-100.000
209.46	1000.000
209.84	-160.000
210.21	-600.000
210.59	128.571
210.96	100.000
211.34	100.000
211.71	26.667
212.09	114.286
212.46	-1100.000
212.84	0.000
213.22	30.000
213.59	200.000
213.97	61.538
214.34	109.091
214.72	-50.000
215.09	200.000
215.47	23.077
215.84	36.364
216.22	-233.333
216.59	37.500
216.97	400.000
217.34	175.000
217.72	-20.000
218.09	87.500
218.47	-50.000
218.84	1100.000
219.22	-44.444
219.59	-100.000
219.97	300.000
220.34	-50.000
220.72	171.429
221.09	-150.000
221.47	50.000
221.84	-250.000
222.22	-550.000
222.59	0.000
222.97	108.333
223.34	-33.333
223.72	-14.286
224.09	9.524
224.46	50.000
224.84	66.667
225.21	40.000
225.59	26.667
225.96	0.000
226.34	150.000
226.71	0.000
227.08	50.000
227.46	62.500
227.83	-400.000
228.21	200.000
228.58	81.818
228.95	112.500
229.33	90.000
229.70	56.250
230.08	112.500
230.45	71.429
230.82	-14.286
231.20	40.000
231.57	71.429
231.95	42.857
232.32	10.000
232.69	42.857
233.07	533.333
233.44	120.000
233.81	-30.000
234.19	0.000
234.56	0.000
234.93	-250.000
235.31	175.000
235.68	-20.000
236.05	23.077
236.43	0.000
236.80	58.824
237.17	62.500
237.55	100.000
237.92	25.926
238.29	44.444
238.67	40.000
239.04	38.235
239.41	9.756
239.79	30.000
240.16	19.512
240.53	13.158
240.91	17.391
241.28	1.587
241.65	46.429
242.02	32.877
242.40	28.333
242.77	18.644
243.14	15.152
243.51	27.500
243.89	33.333
244.26	22.989
244.63	15.476
245.00	23.711
245.38	25.773
245.75	10.112
246.12	13.793
246.49	33.058
246.87	26.923
247.24	21.849
247.61	20.175
247.98	23.577
248.36	26.875
248.73	23.684
249.10	28.571
249.47	20.886
249.84	26.797
250.22	25.882
250.59	25.490
250.96	24.413
251.33	25.000
251.70	27.059
252.08	22.843
252.45	24.257
252.82	25.628
253.19	28.111
253.56	23.364
253.94	22.973
254.31	23.478
254.68	27.632
255.05	23.622
255.42	21.834
255.79	22.394
256.16	22.957
256.54	25.000
256.91	20.532
257.28	22.305
257.65	23.221
258.02	21.986
258.39	25.926
258.76	28.205
259.14	19.934
259.51	22.654
259.88	27.148
260.25	23.529
260.62	28.472
260.99	25.085
261.36	19.521
261.73	21.519
262.10	22.796
262.47	22.699
262.85	21.944
263.22	20.923
263.59	23.364
263.96	25.466
264.33	23.939
264.70	20.238
265.07	22.917
265.44	24.079
265.81	23.729
266.18	25.137
266.55	26.221
266.92	25.389
267.29	23.499
267.66	24.552
268.03	21.204
268.40	22.977
268.77	27.540
269.14	23.022
269.51	21.594
269.88	22.943
270.25	20.663
270.62	20.244
270.99	21.228
271.36	22.005
271.73	23.005
272.10	23.601
272.47	24.113
272.84	22.277
273.21	20.650
273.58	23.133
273.95	23.112
274.32	18.707
274.69	23.077
275.06	24.554
275.43	21.995
275.80	24.503
276.17	18.161
276.54	19.914
276.91	23.026
277.28	19.869
277.65	24.587
278.02	20.000
278.39	23.414
278.76	20.126
279.13	18.880
279.50	24.160
279.87	22.030
280.23	23.226
280.60	20.858
280.97	22.020
281.34	19.808
281.71	24.025
282.08	20.859
282.45	19.569
282.82	19.884
283.19	20.696
283.56	20.809
283.92	20.873
284.29	20.385
284.66	20.543
285.03	18.861
285.40	22.873
285.77	19.684
286.14	21.661
286.51	21.771
286.87	22.486
287.24	19.890
287.61	17.813
287.98	20.000
288.35	21.317
288.72	20.315
289.08	19.618
289.45	19.156
289.82	20.979
290.19	19.795
290.56	17.324
290.93	19.192
291.29	17.874
291.66	17.638
292.03	17.384
292.40	17.742
292.77	18.182
293.13	17.532
293.50	15.933
293.87	18.321
294.24	17.929
294.60	17.735
294.97	16.815
295.34	17.485
295.71	17.288
296.08	16.741
296.44	14.225
296.81	15.556
297.18	17.971
297.55	16.396
297.91	16.712
298.28	17.546
298.65	15.061
299.02	16.307
299.38	14.227
299.75	16.414
300.12	16.754
300.48	15.810
300.85	15.463
301.22	17.013
301.59	13.816
301.95	16.076
302.32	15.045
302.69	16.791
303.05	15.842
303.42	16.189
303.79	16.005
304.15	16.129
304.52	14.982
304.89	13.333
305.25	14.891
305.62	13.769
305.99	13.684
306.35	15.376
306.72	13.836
307.09	15.507
307.45	16.188
307.82	14.699
308.19	15.912
308.55	15.812
308.92	16.340
309.29	16.089
309.65	14.424
310.02	15.402
310.38	14.819
310.75	15.410
311.12	17.115
311.48	14.846
311.85	14.346
312.22	14.241
312.58	15.924
312.95	14.728
313.31	14.182
313.68	14.346
314.05	15.408
314.41	15.464
314.78	16.701
315.14	16.650
315.51	15.735
315.87	15.266
316.24	18.200
316.61	16.240
316.97	16.071
317.34	16.602
317.70	15.679
318.07	16.635
318.43	17.451
318.80	15.909
319.16	17.383
319.53	16.904
319.89	19.193
320.26	18.219
320.62	18.355
320.99	16.806
321.35	18.397
321.72	19.938
322.08	17.925
322.45	18.883
322.81	19.155
323.18	19.038
323.54	20.270
323.91	18.306
324.27	20.312
324.64	20.880
325.00	21.168
325.37	21.855
325.73	20.852
326.10	21.798
326.46	22.511
326.83	22.310
327.19	22.319
327.56	22.676
327.92	23.680
328.29	21.875
328.65	23.491
329.01	23.989
329.38	24.608
329.74	24.551
330.11	24.189
330.47	25.139
330.84	23.654
331.20	25.570
331.56	24.815
331.93	25.023
332.29	24.198
332.66	24.525
333.02	24.907
333.38	23.190
333.75	26.099
334.11	24.261
334.48	25.839
334.84	24.451
335.20	25.252
335.57	24.932
335.93	25.294
336.29	24.770
336.66	25.522
337.02	23.978
337.38	23.981
337.75	24.000
338.11	24.346
338.47	24.909
338.84	26.710
339.20	23.949
339.56	25.138
339.93	24.709
340.29	25.046
340.65	25.627
341.02	25.089
341.38	25.044
341.74	24.647
342.11	22.704
342.47	23.665
342.83	25.346
343.20	23.084
343.56	24.087
343.92	25.686
344.28	25.278
344.65	24.352
345.01	23.682
345.37	23.633
345.73	24.686
346.10	25.971
346.46	25.484
346.82	23.895
347.19	23.026
347.55	23.977
347.91	23.786
348.27	23.686
348.63	24.532
349.00	23.544
349.36	24.106
349.72	25.622
350.08	23.607
350.45	24.342
350.81	22.841
351.17	24.349
351.53	25.224
351.89	23.534
352.26	24.320
352.62	22.339
352.98	23.614
353.34	22.866
353.70	23.867
354.07	24.274
354.43	23.779
354.79	25.186
355.15	24.921
355.51	24.446
355.87	24.595
356.24	23.491
356.60	23.848
356.96	24.286
357.32	22.604
357.68	23.456
358.04	23.748
358.40	23.875
358.77	23.525
359.13	23.299
359.49	23.652
359.85	22.933
360.21	23.126
360.57	24.407
360.93	24.206
361.29	23.263
361.66	23.824
362.02	24.242
362.38	23.534
362.74	24.300
363.10	24.229
363.46	23.573
363.82	24.568
364.18	24.207
364.54	24.265
364.90	23.584
365.26	24.017
365.62	25.547
365.98	24.853
366.35	24.909
366.71	24.390
367.07	23.875
367.43	24.659
367.79	24.170
368.15	23.833
368.51	24.399
368.87	23.546
369.23	23.466
369.59	23.469
369.95	25.440
370.31	25.506
370.67	24.552
371.03	25.093
371.39	24.508
371.75	24.469
372.11	24.822
372.47	24.926
372.83	24.273
373.19	25.535
373.55	24.838
373.91	25.486
374.27	25.514
374.63	25.126
374.99	24.965
375.35	24.582
375.71	25.385
376.07	25.983
376.42	25.306
376.78	24.899
377.14	25.389
377.50	25.299
377.86	25.301
378.22	25.399
378.58	25.962
378.94	26.591
379.30	26.700
379.66	26.959
380.02	26.671
380.38	26.659
380.74	25.733
381.09	27.485
381.45	26.972
381.81	27.020
382.17	26.269
382.53	26.733
382.89	27.495
383.25	27.754
383.61	28.354
383.97	27.619
384.32	28.330
384.68	28.421
385.04	27.574
385.40	28.314
385.76	29.182
386.12	28.655
386.48	28.799
386.83	28.282
387.19	27.778
387.55	29.423
387.91	28.851
388.27	28.327
388.62	29.075
388.98	28.975
389.34	30.044
389.70	29.770
390.06	28.697
390.42	28.562
390.77	29.627
391.13	29.193
391.49	29.366
391.85	30.344
392.20	29.881
392.56	29.371
392.92	29.888
393.28	29.776
393.64	30.931
393.99	30.909
394.35	29.349
394.71	30.140
395.07	30.358
395.42	29.387
395.78	29.902
396.14	30.265
396.50	30.374
396.85	30.650
397.21	30.263
397.57	30.596
397.92	30.377
398.28	31.207
398.64	30.181
399.00	31.264
399.35	30.926
399.71	30.615
400.07	31.197
400.42	31.273
400.78	30.557
401.14	30.430
401.49	30.256
401.85	30.652
402.21	30.542
402.57	30.062
402.92	30.238
403.28	30.890
403.63	30.643
403.99	29.847
404.35	31.605
404.70	29.940
405.06	29.847
405.42	31.075
405.77	30.447
406.13	30.501
406.49	30.195
406.84	30.562
407.20	30.825
407.55	29.491
407.91	30.548
408.27	29.700
408.62	30.831
408.98	30.992
409.34	31.227
409.69	30.039
410.05	30.419
410.40	30.185
410.76	30.820
411.11	30.000
411.47	30.638
411.83	31.073
412.18	30.952
412.54	29.838
412.89	29.926
413.25	30.866
413.60	30.248
413.96	31.656
414.31	30.854
414.67	30.661
415.03	30.626
415.38	29.700
415.74	30.033
416.09	30.895
416.45	30.182
416.80	30.337
417.16	31.215
417.51	30.713
417.87	30.117
418.22	31.088
418.58	30.033
418.93	30.909
419.29	30.154
419.64	29.877
420.00	31.549
420.35	30.209
420.71	30.498
421.06	30.448
421.42	31.490
421.77	30.058
422.12	30.533
422.48	29.886
422.83	30.394
423.19	30.079
423.54	30.923
423.90	31.213
424.25	30.425
424.61	30.416
424.96	30.546
425.31	31.311
425.67	31.455
426.02	31.567
426.38	31.058
426.73	30.751
427.09	31.076
427.44	31.176
427.79	31.526
428.15	30.522
428.50	30.648
428.85	31.081
429.21	31.353
429.56	32.129
429.92	31.022
430.27	31.128
430.62	30.476
430.98	31.423
431.33	31.178
431.68	30.769
432.04	31.135
432.39	30.462
432.74	30.848
433.10	31.264
433.45	31.302
433.80	31.283
434.16	31.468
434.51	31.505
434.86	31.185
435.22	32.361
435.57	31.067
435.92	31.796
436.28	31.306
436.63	31.831
436.98	31.112
437.34	31.155
437.69	31.366
438.04	31.795
438.39	30.666
438.75	32.423
439.10	31.579
439.45	32.319
439.81	31.743
440.16	32.007
440.51	32.358
440.86	32.387
441.22	31.165
441.57	32.009
441.92	32.109
442.27	31.375
442.63	32.655
442.98	32.051
443.33	31.497
443.68	31.618
444.03	32.737
444.39	32.120
444.74	34.114
445.09	32.739
445.44	31.225
445.79	32.800
446.15	32.269
446.50	31.780
446.85	33.103
447.20	32.586
447.55	32.422
447.91	32.092
448.26	33.125
448.61	32.182
448.96	32.989
449.31	32.659
449.66	32.288
450.02	33.029
450.37	32.484
450.72	32.360
451.07	32.532
451.42	32.147
451.77	32.610
452.12	33.313
452.47	32.646
452.83	31.684
453.18	31.689
453.53	32.491
453.88	33.030
454.23	32.391
454.58	33.375
454.93	33.441
455.28	32.508
455.63	31.990
455.98	32.712
456.34	33.397
456.69	32.592
457.04	33.837
457.39	33.718
457.74	32.709
458.09	32.490
458.44	32.826
458.79	32.605
459.14	33.066
459.49	33.194
459.84	33.559
460.19	33.010
460.54	33.068
460.89	33.636
461.24	32.981
461.59	32.542
461.94	31.950
462.29	33.474
462.64	32.625
462.99	33.311
463.34	32.684
463.69	32.175
464.04	33.232
464.39	33.232
464.74	32.147
465.09	34.186
465.44	33.583
465.79	32.596
466.14	34.379
466.49	33.122
466.84	33.849
467.19	33.041
467.54	32.759
467.89	32.912
468.24	33.151
468.59	33.651
468.94	32.889
469.29	33.508
469.64	33.698
469.99	34.478
470.34	33.720
470.68	34.899
471.03	33.121
471.38	33.809
471.73	34.314
472.08	33.243
472.43	33.020
472.78	33.310
473.13	33.129
473.48	33.160
473.83	33.499
474.17	33.938
474.52	34.078
474.87	34.061
475.22	33.252
475.57	33.879
475.92	32.693
476.27	33.818
476.61	33.681
476.96	33.408
477.31	34.451
477.66	32.584
478.01	32.734
478.36	34.314
478.70	33.442
479.05	33.846
479.40	33.651
479.75	33.055
480.10	33.077
480.45	32.950
480.79	33.686
481.14	35.092
481.49	32.857
481.84	34.508
482.19	33.068
482.53	33.573
482.88	33.270
483.23	34.357
483.58	34.292
483.92	33.349
484.27	32.954
484.62	34.110
484.97	32.711
485.31	33.273
485.66	32.939
486.01	33.137
486.36	33.367
486.70	32.685
487.05	33.170
487.40	32.756
487.75	32.986
488.09	32.355
488.44	32.462
488.79	32.985
489.13	33.454
489.48	33.476
489.83	32.960
490.17	32.674
490.52	33.811
490.87	32.994
491.22	33.954
491.56	34.583
491.91	33.413
492.26	34.468
492.60	34.261
492.95	34.186
493.30	33.952
493.64	33.988
493.99	34.058
494.34	33.398
494.68	34.048
495.03	33.285
495.37	33.906
495.72	33.720
496.07	35.073
496.41	32.642
496.76	34.270
497.11	33.163
497.45	33.890
497.80	33.653
498.14	33.979
498.49	33.977
498.84	33.882
499.18	34.337
499.53	34.772
499.87	33.804
500.22	33.383
500.56	34.594
500.91	34.337
501.26	32.378
501.60	33.645
501.95	34.546
502.29	33.898
502.64	33.542
502.98	34.336
503.33	33.525
503.67	33.880
504.02	33.920
504.36	33.548
504.71	33.889
505.06	33.820
505.40	33.959
505.75	34.124
506.09	33.401
506.44	34.548
506.78	34.847
507.13	34.230
507.47	33.995
507.82	33.280
508.16	33.703
508.51	34.575
508.85	34.014
509.19	33.262
509.54	34.316
509.88	33.711
510.23	34.481
510.57	34.260
510.92	33.795
511.26	34.206
511.61	35.699
511.95	33.863
512.30	34.701
512.64	33.890
512.98	35.036
513.33	34.751
513.67	34.395
514.02	34.725
514.36	35.086
514.70	36.072
515.05	34.900
515.39	34.947
515.74	34.731
516.08	35.386
516.42	35.159
516.77	34.465
517.11	34.659
517.46	34.949
517.80	35.161
518.14	34.109
518.49	34.315
518.83	34.872
519.17	33.899
519.52	34.517
519.86	33.854
520.20	34.204
520.55	33.834
520.89	34.755
521.23	33.882
521.58	35.268
521.92	35.128
522.26	35.068
522.61	34.870
522.95	36.954
523.29	34.053
523.64	34.689
523.98	35.969
524.32	34.149
524.66	36.876
525.01	34.805
525.35	35.774
525.69	35.219
526.04	34.259
526.38	34.890
526.72	34.663
527.06	34.241
527.41	34.763
527.75	34.651
528.09	34.485
528.43	35.787
528.78	35.644
529.12	35.677
529.46	35.218
529.80	35.149
530.15	35.248
530.49	35.421
530.83	35.499
531.17	34.923
531.51	35.705
531.86	35.146
532.20	35.003
532.54	35.534
532.88	36.071
533.22	35.081
533.57	35.387
533.91	35.313
534.25	35.742
534.59	35.985
534.93	34.110
535.27	34.137
535.62	34.673
535.96	34.508
536.30	36.346
536.64	34.528
536.98	35.401
537.32	35.277
537.66	35.764
538.01	36.364
538.35	34.743
538.69	35.553
539.03	34.450
539.37	36.070
539.71	35.855
540.05	35.709
540.39	35.249
540.73	35.495
541.07	36.602
541.42	35.887
541.76	35.513
542.10	35.719
542.44	35.094
542.78	34.136
543.12	36.264
543.46	35.605
543.80	35.323
544.14	33.845
544.48	35.376
544.82	36.979
545.16	35.519
545.50	35.180
545.84	35.340
546.18	35.887
546.52	34.679
546.86	35.370
547.20	34.835
547.54	34.770
547.88	34.239
548.22	34.583
548.56	35.092
548.90	36.051
549.24	35.055
549.58	35.614
549.92	33.738
550.26	35.092
550.60	35.613
550.94	34.503
551.28	35.394
551.62	35.923
551.96	34.812
552.30	35.526
552.64	35.190
552.98	35.091
553.32	35.235
553.66	35.631
554.00	35.328
554.34	35.451
554.68	35.472
555.02	36.235
555.36	34.705
555.69	35.238
556.03	35.261
556.37	34.875
556.71	34.874
557.05	35.645
557.39	34.201
557.73	35.757
558.07	36.501
558.41	34.992
558.75	34.684
559.08	36.249
559.42	35.635
559.76	35.308
560.10	36.239
560.44	35.369
560.78	35.664
561.12	35.684
561.45	35.840
561.79	35.644
562.13	36.409
562.47	35.899
562.81	35.519
563.15	35.261
563.48	34.795
563.82	36.307
564.16	34.958
564.50	34.459
564.84	35.609
565.17	35.547
565.51	35.929
565.85	35.185
566.19	35.610
566.52	35.992
566.86	35.925
567.20	34.994
567.54	35.584
567.88	36.087
568.21	35.916
568.55	35.163
568.89	35.164
569.23	35.002
569.56	35.070
569.90	35.648
570.24	35.393
570.57	34.545
570.91	35.239
571.25	34.199
571.59	33.946
571.92	34.222
572.26	34.118
572.60	33.736
572.93	33.856
573.27	34.263
573.61	34.159
573.95	33.807
574.28	33.686
574.62	33.740
574.96	33.757
575.29	34.427
575.63	33.428
575.97	33.776
576.30	34.327
576.64	33.536
576.98	34.234
577.31	33.620
577.65	34.381
577.98	34.235
578.32	33.869
578.66	33.742
578.99	33.879
579.33	33.425
579.67	33.131
580.00	33.772
580.34	33.905
580.67	33.457
581.01	33.718
581.35	33.592
581.68	33.930
582.02	33.933
582.35	33.928
582.69	33.093
583.02	33.070
583.36	33.688
583.70	33.775
584.03	33.500
584.37	34.387
584.70	34.066
585.04	33.083
585.37	34.079
585.71	33.992
586.04	34.014
586.38	32.942
586.72	33.257
587.05	33.969
587.39	33.855
587.72	34.910
588.06	34.016
588.39	33.438
588.73	33.913
589.06	34.279
589.40	33.598
589.73	34.173
590.07	34.215
590.40	34.868
590.73	34.226
591.07	33.715
591.40	33.526
591.74	34.796
592.07	33.998
592.41	35.247
592.74	34.090
593.08	34.090
593.41	34.728
593.75	33.857
594.08	34.089
594.41	34.461
594.75	33.626
595.08	34.166
595.42	33.898
595.75	34.210
596.09	34.206
596.42	34.560
596.75	34.813
597.09	34.487
597.42	34.508
597.75	34.814
598.09	33.409
598.42	33.890
598.76	34.406
599.09	33.974
599.42	33.611
599.76	34.011
600.09	34.540
600.42	33.548
600.76	33.730
601.09	33.702
601.42	33.333
601.76	34.339
602.09	34.035
602.42	35.131
602.76	34.168
603.09	33.887
603.42	35.242
603.76	34.355
604.09	33.536
604.42	34.222
604.76	34.891
605.09	33.729
605.42	34.312
605.75	34.370
606.09	34.437
606.42	32.777
606.75	34.113
607.09	34.813
607.42	32.964
607.75	34.591
608.08	33.513
608.42	34.399
608.75	34.506
609.08	34.778
609.41	34.670
609.75	33.972
610.08	35.896
610.41	34.155
610.74	33.447
611.07	34.109
611.41	35.184
611.74	35.021
612.07	34.208
612.40	35.120
612.73	33.616
613.07	32.677
613.40	34.573
613.73	34.079
614.06	34.001
614.39	35.025
614.72	33.501
615.06	34.134
615.39	32.751
615.72	34.123
616.05	34.413
616.38	32.536
616.71	34.557
617.05	34.775
617.38	33.690
617.71	33.962
618.04	35.556
618.37	34.994
618.70	34.917
619.03	34.097
619.36	33.719
619.69	34.647
620.03	35.354
620.36	34.549
620.69	34.761
621.02	33.563
621.35	35.602
621.68	34.099
622.01	35.333
622.34	34.956
622.67	35.410
623.00	33.614
623.33	34.451
623.66	33.807
623.99	33.510
624.32	34.829
624.65	33.910
624.99	35.290
625.32	32.752
625.65	35.114
625.98	34.811
626.31	33.583
626.64	33.969
626.97	34.904
627.30	35.026
627.63	33.709
627.96	34.771
628.29	35.523
628.62	34.513
628.95	35.371
629.28	36.492
629.61	35.494
629.94	35.679
630.26	34.091
630.59	36.420
630.92	35.590
631.25	33.538
631.58	36.674
631.91	33.662
632.24	36.583
632.57	35.114
632.90	36.299
633.23	36.706
633.56	36.020
633.89	34.895
634.22	37.160
634.55	35.070
634.88	34.738
635.20	34.103
635.53	35.600
635.86	34.720
636.19	36.481
636.52	35.714
636.85	32.506
637.18	34.465
637.51	34.969
637.83	35.085
638.16	36.153
638.49	34.877
638.82	36.184
639.15	35.278
639.48	35.076
639.81	34.170
640.13	34.488
640.46	33.819
640.79	33.726
641.12	34.121
641.45	35.285
641.77	34.370
642.10	35.861
642.43	34.566
642.76	35.314
643.09	36.511
643.41	35.113
643.74	34.102
644.07	36.289
644.40	34.628
644.73	36.778
645.05	34.228
645.38	38.095
645.71	37.057
646.04	36.804
646.36	35.816
646.69	38.489
647.02	36.106
647.35	35.448
647.67	35.283
648.00	36.940
648.33	34.642
648.66	35.424
648.98	33.836
649.31	34.215
649.64	34.066
649.96	31.767
650.29	38.160
650.62	34.530
650.94	35.185
651.27	33.892
651.60	37.117
651.92	35.140
652.25	35.346
652.58	36.500
652.90	36.707
653.23	34.286
653.56	34.179
653.88	33.849
654.21	33.975
654.54	33.956
654.86	33.107
655.19	34.357
655.52	34.288
655.84	33.641
656.17	37.307
656.49	50.239
656.82	51.431
657.15	38.519
657.47	28.515
657.80	21.174
658.13	20.416
658.45	31.390
658.78	30.283
659.10	29.882
659.43	30.163
659.75	30.439
660.08	31.448
660.41	33.708
660.73	29.696
661.06	35.182
661.38	33.464
661.71	33.881
662.03	38.197
662.36	35.604
662.68	33.186
663.01	33.406
663.33	31.323
663.66	34.884
663.98	34.651
664.31	33.902
664.63	33.180
664.96	32.609
665.28	33.554
665.61	36.147
665.93	36.087
666.26	36.443
666.58	30.872
666.91	35.294
667.23	35.849
667.56	32.701
667.88	34.772
668.21	36.993
668.53	39.007
668.86	33.726
669.18	33.019
669.50	33.414
669.83	33.488
670.15	34.033
670.48	38.756
670.80	36.866
671.13	34.676
671.45	32.192
671.77	33.476
672.10	35.644
672.42	31.648
672.75	33.393
673.07	34.705
673.39	35.413
673.72	32.939
674.04	35.000
674.37	35.169
674.69	34.690
675.01	33.556
675.34	35.811
675.66	36.574
675.98	35.033
676.31	35.092
676.63	33.967
676.95	32.727
677.28	35.765
677.60	37.590
677.92	32.798
678.25	34.136
678.57	31.602
678.89	31.933
679.22	32.438
679.54	34.739
679.86	31.809
680.18	34.175
680.51	32.955
680.83	32.207
681.15	35.400
681.48	37.090
681.80	33.264
682.12	31.250
682.44	31.172
682.77	32.450
683.09	33.867
683.41	32.500
683.73	31.567
684.06	32.965
684.38	29.462
684.70	33.769
685.02	31.535
685.34	32.609
685.67	33.396
685.99	34.177
686.31	31.327
686.63	33.395
686.96	32.319
687.28	33.535
687.60	29.848
687.92	33.131
688.24	33.468
688.56	33.624
688.89	33.929
689.21	36.000
689.53	31.323
689.85	35.581
690.17	34.598
690.49	32.624
690.82	33.981
691.14	32.619
691.46	35.280
691.78	32.658
692.10	33.763
692.42	34.848
692.74	32.692
693.06	31.982
693.39	29.864
693.71	28.959
694.03	31.640
694.35	30.841
694.67	34.848
694.99	31.070
695.31	33.681
695.63	33.000
695.95	32.828
696.27	31.088
696.59	32.500
696.91	34.174
697.23	29.563
697.56	35.396
697.88	33.763
698.20	33.485
698.52	34.118
698.84	28.947
699.16	31.750
699.48	33.584
699.80	33.002
700.12	35.040
700.44	35.294
700.76	29.651
701.08	32.727
701.40	29.819
701.72	40.741
702.04	32.673
702.36	34.783
702.68	29.429
703.00	31.515
703.32	28.446
703.64	34.181
703.96	30.435
704.28	30.061
704.60	33.968
704.91	30.599
705.23	34.551
705.55	33.569
705.87	33.935
706.19	35.556
706.51	31.615
706.83	36.334
707.15	30.530
707.47	31.933
707.79	29.688
708.11	34.500
708.43	33.500
708.74	32.817
709.06	31.549
709.38	34.251
709.70	31.953
710.02	33.439
710.34	35.913
710.66	29.487
710.98	35.099
711.29	38.689
711.61	35.932
711.93	35.505
712.25	32.302
712.57	28.938
712.89	32.463
713.20	33.218
713.52	32.404
713.84	29.693
714.16	33.333
714.48	29.032
714.80	33.654
715.11	30.395
715.43	31.975
715.75	34.333
716.07	31.894
716.39	29.530
716.70	26.199
717.02	31.679
717.34	33.603
717.66	30.973
717.97	32.609
718.29	34.310
718.61	27.953
718.93	29.457
719.24	26.236
719.56	37.349
719.88	29.553
720.20	36.364
720.51	30.268
720.83	32.046
721.15	35.294
721.46	31.855
721.78	28.063
722.10	32.714
722.42	29.461
722.73	31.429
723.05	34.694
723.37	36.864
723.68	39.189
724.00	29.060
724.32	29.778
724.63	30.000
724.95	34.498
725.27	34.101
725.58	33.898
725.90	30.159
726.22	32.432
726.53	31.186
726.85	31.461
727.16	33.585
727.48	30.769
727.80	34.008
728.11	25.847
728.43	31.765
728.74	27.419
729.06	29.600
729.38	37.218
729.69	29.482
730.01	26.923
730.32	34.701
730.64	30.389
730.96	35.094
731.27	34.333
731.59	33.220
731.90	30.255
732.22	32.177
732.53	34.551
732.85	35.816
733.16	32.660
733.48	31.295
733.80	36.957
734.11	31.186
734.43	35.739
734.74	34.545
735.06	28.013
735.37	35.347
735.69	33.333
736.00	28.920
736.32	28.859
736.63	29.577
736.95	32.082
737.26	32.740
737.58	27.852
737.89	31.502
738.21	27.068
738.52	37.037
738.83	33.624
739.15	24.454
739.46	30.315
739.78	28.205
740.09	29.739
740.41	36.594
740.72	21.654
741.04	36.437
741.35	28.085
741.66	27.962
741.98	35.714
742.29	28.218
742.61	36.649
742.92	24.645
743.23	29.167
743.55	31.674
743.86	33.971
744.18	28.230
744.49	32.447
744.80	29.348
745.12	33.690
745.43	25.366
745.74	32.812
746.06	29.756
746.37	35.079
746.68	36.967
747.00	28.723
747.31	34.328
747.62	28.641
747.94	35.885
748.25	27.228
748.56	31.148
748.88	26.702
749.19	34.043
749.50	27.586
749.82	18.396
750.13	27.523
750.44	33.459
750.75	32.090
751.07	33.942
751.38	29.119
751.69	27.059
752.01	31.395
752.32	29.084
752.63	25.296
752.94	27.586
753.26	39.749
753.57	27.149
753.88	30.973
754.19	27.917
754.51	30.165
754.82	28.340
755.13	32.083
755.44	31.048
755.75	32.031
756.07	29.572
756.38	30.566
756.69	27.969
757.00	29.000
757.31	31.699
757.63	27.134
757.94	28.333
758.25	30.137
758.56	26.862
758.87	26.346
759.18	27.726
759.50	28.000
759.81	29.431
760.12	28.387
760.43	27.576
760.74	31.481
761.05	27.385
761.36	25.284
761.67	31.212
761.99	31.973
762.30	22.909
762.61	31.225
762.92	32.579
763.23	28.378
763.54	28.505
763.85	28.814
764.16	27.386
764.47	28.226
764.78	27.473
765.10	30.976
765.41	31.546
765.72	30.476
766.03	25.940
766.34	30.657
766.65	29.084
766.96	29.293
767.27	29.255
767.58	28.161
767.89	22.695
768.20	26.136
768.51	25.824
768.82	26.601
769.13	29.493
769.44	26.609
769.75	31.963
770.06	27.586
770.37	24.519
770.68	34.518
770.99	23.982
771.30	31.863
771.61	28.507
771.92	31.034
772.23	32.512
772.54	33.333
772.85	27.778
773.16	27.528
773.47	41.176
773.78	30.065
774.09	35.928
774.39	32.000
774.70	35.669
775.01	33.793
775.32	27.857
775.63	26.446
775.94	27.481
776.25	36.220
776.56	22.500
776.87	22.115
777.18	31.624
777.48	32.759
777.79	31.304
778.10	21.905
778.41	25.225
778.72	33.333
779.03	20.301
779.34	29.078
779.65	30.822
779.95	24.658
780.26	26.897
780.57	22.764
780.88	31.496
781.19	30.172
781.50	34.109
781.80	28.994
782.11	23.270
782.42	27.692
782.73	19.424
783.04	30.370
783.34	29.167
783.65	12.821
783.96	32.787
784.27	30.345
784.57	27.642
784.88	26.563
785.19	36.000
785.50	39.000
785.81	36.207
786.11	26.724
786.42	20.388
786.73	37.273
787.04	25.510
787.34	25.893
787.65	29.524
787.96	27.434
788.26	23.636
788.57	24.786
788.88	32.031
789.19	25.397
789.49	32.174
789.80	36.735
790.11	28.283
790.41	23.636
790.72	33.696
791.03	36.364
791.33	32.500
791.64	27.500
791.95	34.884
792.25	29.787
792.56	29.213
792.87	24.658
793.17	26.087
793.48	13.333
793.79	30.000
794.09	36.250
794.40	31.132
794.70	26.214
795.01	19.512
795.32	26.496
795.62	34.286
795.93	40.196
796.23	28.302
796.54	29.167
796.85	30.882
797.15	39.437
797.46	50.000
797.76	59.091
798.07	40.698
798.37	19.737
798.68	24.242
798.99	35.802
799.29	40.000
799.60	42.029
799.90	29.333
800.21	34.426
800.51	24.615
800.82	23.729
801.12	39.130
801.43	29.508
801.73	23.810
802.04	8.000
802.34	37.313
802.65	19.231
802.95	23.214
803.26	28.846
803.56	47.059
803.87	10.870
804.17	33.333
804.48	33.333
804.78	9.259
805.09	50.000
805.39	20.000
805.70	38.889
806.00	5.263
806.30	19.718
806.61	24.286
806.91	12.500
807.22	36.842
807.52	33.333
807.83	30.909
808.13	25.000
808.43	32.353
808.74	13.433
809.04	15.254
809.35	25.000
809.65	29.688
809.95	-8.108
810.26	25.000
810.56	28.767
810.86	38.095
811.17	14.000
811.47	22.449
811.77	15.789
812.08	18.182
812.38	16.981
812.69	42.500
812.99	12.121
813.29	47.368
813.59	14.286
813.90	25.000
814.20	5.128
814.50	36.538
814.81	32.075
815.11	14.894
815.41	32.203
815.72	23.810
816.02	25.490
816.32	31.250
816.62	29.268
816.93	40.541
817.23	17.143
817.53	6.250
817.84	13.043
818.14	21.154
818.44	10.526
818.74	39.130
819.04	25.000
819.35	27.027
819.65	32.353
819.95	36.111
820.25	35.714
820.56	32.500
820.86	-6.897
821.16	55.000
821.46	31.915
821.76	52.500
822.07	46.512
822.37	21.622
822.67	43.750
822.97	26.190
823.27	-3.571
823.57	36.000
823.88	-29.630
824.18	67.857
824.48	23.529
824.78	35.484
825.08	39.130
825.38	15.152
825.69	12.500
825.99	44.737
826.29	19.444
826.59	66.667
826.89	4.762
827.19	45.652
827.49	22.500
827.79	20.000
828.09	57.143
828.39	54.545
828.70	48.649
829.00	32.143
829.30	42.857
829.60	23.333
829.90	34.375
830.20	39.474
830.50	22.222
830.80	17.391
831.10	-4.545
831.40	78.788
831.70	64.516
832.00	23.810
832.30	19.048
832.60	16.667
832.90	44.828
833.20	-5.000
833.50	24.242
833.80	33.333
834.10	46.154
834.40	43.750
834.70	11.111
835.00	21.053
835.30	34.615
835.60	26.667
835.90	32.258
836.20	72.727
836.50	60.714
836.80	3.846
837.10	28.571
837.40	0.000
837.70	50.000
838.00	9.091
838.30	4.348
838.60	115.385
838.90	18.182
839.19	35.714
839.49	40.000
839.79	-61.538
840.09	75.000
840.39	39.286
840.69	53.571
840.99	-15.385
841.29	-47.368
841.59	-60.000
841.88	-27.273
842.18	60.000
842.48	0.000
842.78	26.667
843.08	18.519
843.38	-100.000
843.68	43.478
843.97	146.667
844.27	33.333
844.57	30.000
844.87	77.778
845.17	14.286
845.47	46.667
845.76	-23.810
846.06	35.294
846.36	40.000
846.66	-28.571
846.96	-6.667
847.25	-12.500
847.55	78.571
847.85	0.000
848.15	0.000
848.44	-500.000
848.74	-5.000
849.04	55.556
849.34	18.182
849.63	-50.000
849.93	-180.000
850.23	27.778
850.53	90.000
850.82	23.077
851.12	-22.222
851.42	60.000
851.71	34.615
852.01	107.143
852.31	-150.000
852.61	-18.182
852.90	0.000
853.20	47.368
853.50	0.000
853.79	52.174
854.09	58.333
854.39	78.947
854.68	16.667
854.98	22.581
855.28	46.154
855.57	85.000
855.87	61.111
856.17	22.222
856.46	14.286
856.76	0.000
857.05	44.444
857.35	36.000
857.65	61.111
857.94	38.462
858.24	55.172
858.53	5.556
858.83	22.222
859.13	54.545
859.42	43.478
859.72	50.000
860.01	-166.667
860.31	32.000
860.60	9.524
860.90	200.000
861.20	46.667
861.49	-150.000
861.79	-20.000
862.08	-5.000
862.38	106.667
862.67	60.000
862.97	-16.667
863.26	100.000
863.56	83.333
863.85	-166.667
864.15	27.778
864.44	10.000
864.74	64.286
865.03	-25.000
865.33	20.000
865.62	183.333
865.92	16.667
866.21	-133.333
866.51	12.500
866.80	-63.636
867.10	650.000
867.39	66.667
867.69	0.000
867.98	38.462
868.27	66.667
868.57	0.000
868.86	94.444
869.16	7.692
869.45	106.667
869.75	-400.000
870.04	0.000
870.33	71.429
870.63	14.286
870.92	-0.000
871.22	-200.000
871.51	700.000
871.80	111.111
872.10	100.000
>>>>>End Processed Spectral Data<<<<<
