SpectraSuite Data File
++++++++++++++++++++++++++++++++++++
Date: Fri May 15 17:29:50 PDT 2015
User: schluterlab
Dark Spectrum Present: Yes
Reference Spectrum Present: Yes
Number of Sampled Component Spectra: 1
Spectrometers: USB2E3373
Integration Time (usec): 3000 (USB2E3373)
Spectra Averaged: 3 (USB2E3373)
Boxcar Smoothing: 0 (USB2E3373)
Correct for Electrical Dark: No (USB2E3373)
Strobe/Lamp Enabled: No (USB2E3373)
Correct for Detector Non-linearity: No (USB2E3373)
Correct for Stray Light: No (USB2E3373)
Number of Pixels in Processed Spectrum: 2048
>>>>>Begin Processed Spectral Data<<<<<
178.53	0.000
178.91	0.000
179.29	100.000
179.67	-350.000
180.04	-0.000
180.42	300.000
180.80	-900.000
181.18	33.333
181.56	500.000
181.94	-100.000
182.31	-0.000
182.69	220.000
183.07	-366.667
183.45	40.000
183.83	66.667
184.20	0.000
184.58	66.667
184.96	50.000
185.34	-0.000
185.72	-250.000
186.09	84.615
186.47	-200.000
186.85	-16.667
187.23	111.111
187.61	-1600.000
187.98	-400.000
188.36	44.444
188.74	-66.667
189.12	17.647
189.49	94.444
189.87	0.000
190.25	78.571
190.63	250.000
191.00	133.333
191.38	31.579
191.76	200.000
192.14	-50.000
192.51	300.000
192.89	44.444
193.27	-42.857
193.65	150.000
194.02	90.909
194.40	100.000
194.78	-87.500
195.15	-25.000
195.53	-62.500
195.91	400.000
196.29	-50.000
196.66	-0.000
197.04	-42.857
197.42	11.111
197.79	-266.667
198.17	-53.846
198.55	1300.000
198.92	-33.333
199.30	-100.000
199.68	-40.000
200.05	133.333
200.43	0.000
200.81	100.000
201.18	0.000
201.56	200.000
201.94	100.000
202.31	-366.667
202.69	-280.000
203.07	150.000
203.44	700.000
203.82	0.000
204.19	28.571
204.57	-266.667
204.95	-75.000
205.32	50.000
205.70	71.429
206.08	75.000
206.45	155.556
206.83	35.714
207.20	-142.857
207.58	-500.000
207.96	100.000
208.33	-50.000
208.71	50.000
209.08	-166.667
209.46	-900.000
209.84	-60.000
210.21	-600.000
210.59	14.286
210.96	66.667
211.34	-50.000
211.71	113.333
212.09	-42.857
212.46	-600.000
212.84	0.000
213.22	60.000
213.59	100.000
213.97	92.308
214.34	72.727
214.72	50.000
215.09	475.000
215.47	38.462
215.84	-45.455
216.22	66.667
216.59	-62.500
216.97	400.000
217.34	450.000
217.72	60.000
218.09	-62.500
218.47	-62.500
218.84	-1100.000
219.22	-66.667
219.59	-20.000
219.97	266.667
220.34	175.000
220.72	-85.714
221.09	-125.000
221.47	200.000
221.84	-400.000
222.22	-150.000
222.59	63.636
222.97	58.333
223.34	0.000
223.72	-50.000
224.09	-4.762
224.46	39.286
224.84	266.667
225.21	30.000
225.59	66.667
225.96	-50.000
226.34	-0.000
226.71	57.143
227.08	0.000
227.46	100.000
227.83	-550.000
228.21	144.444
228.58	36.364
228.95	-12.500
229.33	-30.000
229.70	-6.250
230.08	0.000
230.45	-14.286
230.82	128.571
231.20	-6.667
231.57	121.429
231.95	-42.857
232.32	-60.000
232.69	35.714
233.07	166.667
233.44	-20.000
233.81	10.000
234.19	0.000
234.56	76.471
234.93	-0.000
235.31	175.000
235.68	-40.000
236.05	15.385
236.43	-5.000
236.80	70.588
237.17	53.125
237.55	15.000
237.92	33.333
238.29	38.889
238.67	0.000
239.04	8.824
239.41	12.195
239.79	46.667
240.16	56.098
240.53	42.105
240.91	26.087
241.28	41.270
241.65	53.571
242.02	30.137
242.40	53.333
242.77	40.678
243.14	43.939
243.51	23.750
243.89	39.080
244.26	36.782
244.63	48.810
245.00	32.990
245.38	40.206
245.75	31.461
246.12	30.172
246.49	37.190
246.87	36.538
247.24	36.975
247.61	35.088
247.98	39.837
248.36	38.125
248.73	36.842
249.10	32.468
249.47	35.443
249.84	44.444
250.22	32.353
250.59	40.523
250.96	36.150
251.33	40.116
251.70	44.118
252.08	39.594
252.45	35.149
252.82	36.181
253.19	43.318
253.56	35.514
253.94	40.541
254.31	34.348
254.68	43.421
255.05	35.827
255.42	45.415
255.79	37.066
256.16	35.409
256.54	41.791
256.91	37.262
257.28	36.803
257.65	34.831
258.02	33.688
258.39	38.384
258.76	39.927
259.14	38.870
259.51	37.864
259.88	39.519
260.25	39.869
260.62	45.139
260.99	36.271
261.36	32.534
261.73	37.975
262.10	37.386
262.47	38.650
262.85	38.245
263.22	36.000
263.59	35.826
263.96	39.752
264.33	38.485
264.70	36.012
265.07	33.929
265.44	37.110
265.81	38.418
266.18	37.432
266.55	37.532
266.92	38.860
267.29	38.903
267.66	38.107
268.03	37.958
268.40	36.292
268.77	38.235
269.14	34.772
269.51	38.817
269.88	35.910
270.25	34.949
270.62	34.146
270.99	35.038
271.36	36.919
271.73	38.263
272.10	35.280
272.47	35.225
272.84	37.129
273.21	36.659
273.58	35.663
273.95	33.867
274.32	32.794
274.69	33.032
275.06	36.830
275.43	32.880
275.80	35.982
276.17	32.644
276.54	34.047
276.91	35.965
277.28	32.314
277.65	35.950
278.02	31.915
278.39	33.479
278.76	35.430
279.13	32.573
279.50	34.664
279.87	33.261
280.23	32.473
280.60	33.528
280.97	32.929
281.34	31.923
281.71	36.550
282.08	33.333
282.45	32.290
282.82	30.695
283.19	34.236
283.56	33.719
283.92	30.171
284.29	31.154
284.66	30.039
285.03	32.024
285.40	31.002
285.77	27.592
286.14	29.964
286.51	32.103
286.87	28.519
287.24	31.308
287.61	29.453
287.98	30.702
288.35	29.809
288.72	31.524
289.08	29.688
289.45	30.404
289.82	27.797
290.19	27.986
290.56	28.302
290.93	28.283
291.29	24.961
291.66	27.244
292.03	26.316
292.40	27.419
292.77	27.751
293.13	24.838
293.50	25.797
293.87	24.122
294.24	23.184
294.60	25.335
294.97	24.554
295.34	23.466
295.71	25.037
296.08	23.468
296.44	23.755
296.81	23.056
297.18	22.464
297.55	22.764
297.91	22.603
298.28	24.538
298.65	21.845
299.02	23.585
299.38	21.888
299.75	22.621
300.12	21.466
300.48	20.685
300.85	22.053
301.22	21.169
301.59	21.447
301.95	22.532
302.32	21.660
302.69	21.517
303.05	22.030
303.42	22.167
303.79	20.561
304.15	20.430
304.52	19.738
304.89	19.415
305.25	19.492
305.62	18.086
305.99	20.000
306.35	21.040
306.72	18.335
307.09	19.042
307.45	19.518
307.82	19.560
308.19	19.280
308.55	20.502
308.92	21.569
309.29	18.659
309.65	18.407
310.02	19.142
310.38	18.990
310.75	19.563
311.12	19.806
311.48	19.088
311.85	18.953
312.22	18.249
312.58	17.834
312.95	18.783
313.31	18.944
313.68	19.372
314.05	18.163
314.41	18.557
314.78	17.835
315.14	20.247
315.51	20.704
315.87	19.467
316.24	20.324
316.61	19.685
316.97	20.040
317.34	20.312
317.70	18.738
318.07	20.288
318.43	21.275
318.80	19.413
319.16	19.727
319.53	21.937
319.89	19.587
320.26	21.255
320.62	21.665
320.99	20.146
321.35	20.863
321.72	20.665
322.08	21.752
322.45	22.843
322.81	22.692
323.18	22.473
323.54	22.008
323.91	23.174
324.27	23.828
324.64	25.094
325.00	25.365
325.37	26.997
325.73	26.655
326.10	28.338
326.46	28.610
326.83	28.346
327.19	29.294
327.56	30.756
327.92	31.426
328.29	30.804
328.65	33.396
329.01	33.364
329.38	33.364
329.74	33.522
330.11	34.013
330.47	34.137
330.84	33.750
331.20	39.259
331.56	36.111
331.93	36.804
332.29	38.772
332.66	39.095
333.02	39.219
333.38	39.230
333.75	39.377
334.11	39.391
334.48	40.435
334.84	40.476
335.20	40.988
335.57	39.891
335.93	40.560
336.29	42.173
336.66	40.690
337.02	41.171
337.38	41.759
337.75	42.909
338.11	42.561
338.47	42.518
338.84	44.362
339.20	42.962
339.56	42.844
339.93	43.420
340.29	43.119
340.65	44.086
341.02	45.035
341.38	42.920
341.74	43.198
342.11	41.941
342.47	43.416
342.83	43.166
343.20	42.683
343.56	44.087
343.92	44.198
344.28	45.175
344.65	43.869
345.01	43.388
345.37	42.725
345.73	44.184
346.10	44.435
346.46	43.650
346.82	43.863
347.19	43.807
347.55	43.525
347.91	44.903
348.27	43.735
348.63	45.486
349.00	44.381
349.36	44.306
349.72	45.688
350.08	44.262
350.45	45.092
350.81	44.435
351.17	43.648
351.53	45.061
351.89	44.261
352.26	44.800
352.62	45.161
352.98	44.257
353.34	43.237
353.70	45.307
354.07	45.000
354.43	44.596
354.79	45.500
355.15	45.714
355.51	44.146
355.87	44.741
356.24	44.780
356.60	45.594
356.96	46.508
357.32	45.288
357.68	43.628
358.04	44.426
358.40	45.016
358.77	46.252
359.13	46.517
359.49	44.607
359.85	45.632
360.21	45.534
360.57	46.060
360.93	45.310
361.29	46.526
361.66	46.317
362.02	47.576
362.38	47.296
362.74	48.372
363.10	47.856
363.46	46.108
363.82	47.258
364.18	47.232
364.54	46.471
364.90	46.165
365.26	47.307
365.62	47.226
365.98	47.874
366.35	46.613
366.71	46.933
367.07	48.113
367.43	47.448
367.79	48.269
368.15	46.231
368.51	47.342
368.87	48.528
369.23	47.798
369.59	47.522
369.95	49.047
370.31	48.121
370.67	48.806
371.03	47.125
371.39	48.942
371.75	48.132
372.11	48.288
372.47	50.148
372.83	50.248
373.19	49.358
373.55	48.809
373.91	49.532
374.27	49.894
374.63	50.036
374.99	49.716
375.35	49.930
375.71	50.769
376.07	50.000
376.42	49.932
376.78	50.872
377.14	49.560
377.50	50.930
377.86	51.740
378.22	50.479
378.58	52.821
378.94	50.032
379.30	50.218
379.66	51.912
380.02	50.950
380.38	50.943
380.74	50.030
381.09	51.595
381.45	51.315
381.81	50.586
382.17	51.459
382.53	51.468
382.89	52.166
383.25	54.138
383.61	53.049
383.97	52.825
384.32	53.283
384.68	51.827
385.04	51.961
385.40	51.960
385.76	53.711
386.12	51.746
386.48	54.278
386.83	54.217
387.19	52.442
387.55	52.258
387.91	52.934
388.27	52.137
388.62	54.185
388.98	52.793
389.34	53.342
389.70	53.449
390.06	52.675
390.42	52.785
390.77	53.368
391.13	53.657
391.49	54.657
391.85	53.216
392.20	54.112
392.56	52.893
392.92	54.903
393.28	53.656
393.64	53.694
393.99	53.918
394.35	53.763
394.71	54.151
395.07	53.488
395.42	51.670
395.78	53.094
396.14	53.468
396.50	53.900
396.85	54.218
397.21	53.070
397.57	53.605
397.92	54.284
398.28	53.851
398.64	52.169
399.00	52.765
399.35	52.596
399.71	52.384
400.07	53.325
400.42	52.570
400.78	53.337
401.14	52.511
401.49	53.127
401.85	53.077
402.21	52.771
402.57	53.437
402.92	51.443
403.28	52.820
403.63	53.909
403.99	51.849
404.35	53.654
404.70	51.548
405.06	51.998
405.42	51.833
405.77	51.714
406.13	51.863
406.49	51.510
406.84	51.956
407.20	51.716
407.55	50.869
407.91	50.869
408.27	52.326
408.62	51.323
408.98	51.818
409.34	51.611
409.69	50.581
410.05	50.554
410.40	50.988
410.76	51.146
411.11	52.625
411.47	52.137
411.83	51.036
412.18	52.124
412.54	50.562
412.89	49.815
413.25	52.166
413.60	50.994
413.96	50.000
414.31	50.366
414.67	50.160
415.03	50.333
415.38	50.587
415.74	50.228
416.09	51.012
416.45	51.047
416.80	51.751
417.16	52.693
417.51	50.566
417.87	50.326
418.22	52.008
418.58	51.104
418.93	51.034
419.29	49.936
419.64	52.495
420.00	52.708
420.35	50.985
420.71	51.640
421.06	51.504
421.42	52.344
421.77	52.543
422.12	51.589
422.48	52.518
422.83	52.088
423.19	52.032
423.54	52.087
423.90	52.591
424.25	52.813
424.61	52.938
424.96	52.787
425.31	54.766
425.67	53.521
426.02	54.122
426.38	53.914
426.73	53.753
427.09	53.797
427.44	54.529
427.79	53.329
428.15	54.066
428.50	54.149
428.85	53.870
429.21	54.329
429.56	55.633
429.92	54.854
430.27	54.085
430.62	54.417
430.98	55.042
431.33	54.679
431.68	53.898
432.04	54.276
432.39	53.736
432.74	53.037
433.10	55.575
433.45	54.480
433.80	56.471
434.16	54.404
434.51	56.398
434.86	56.678
435.22	55.861
435.57	56.145
435.92	55.269
436.28	54.800
436.63	54.763
436.98	55.330
437.34	55.112
437.69	57.603
438.04	55.271
438.39	55.712
438.75	55.920
439.10	55.914
439.45	57.152
439.81	56.514
440.16	57.898
440.51	56.537
440.86	58.006
441.22	57.975
441.57	60.155
441.92	59.549
442.27	58.592
442.63	59.047
442.98	58.357
443.33	58.264
443.68	58.143
444.03	58.470
444.39	57.649
444.74	58.640
445.09	59.298
445.44	58.462
445.79	60.083
446.15	58.756
446.50	57.626
446.85	59.192
447.20	58.551
447.55	59.152
447.91	58.094
448.26	59.306
448.61	58.434
448.96	59.380
449.31	58.555
449.66	58.362
450.02	58.871
450.37	58.803
450.72	57.274
451.07	59.747
451.42	58.115
451.77	58.107
452.12	56.699
452.47	58.789
452.83	58.186
453.18	58.634
453.53	58.850
453.88	58.227
454.23	58.636
454.58	59.005
454.93	59.472
455.28	57.270
455.63	59.640
455.98	59.351
456.34	58.621
456.69	58.513
457.04	59.168
457.39	57.959
457.74	58.646
458.09	57.916
458.44	59.684
458.79	58.936
459.14	58.810
459.49	58.687
459.84	58.545
460.19	59.648
460.54	59.841
460.89	59.886
461.24	58.385
461.59	58.729
461.94	57.925
462.29	57.901
462.64	58.206
462.99	58.023
463.34	58.484
463.69	59.073
464.04	58.051
464.39	58.096
464.74	57.607
465.09	59.326
465.44	59.550
465.79	58.107
466.14	58.096
466.49	58.884
466.84	58.001
467.19	58.385
467.54	58.110
467.89	57.233
468.24	58.698
468.59	58.984
468.94	57.905
469.29	57.902
469.64	57.895
469.99	59.075
470.34	56.382
470.68	58.538
471.03	57.962
471.38	57.133
471.73	57.143
472.08	56.649
472.43	56.309
472.78	56.340
473.13	57.687
473.48	56.482
473.83	56.725
474.17	57.513
474.52	57.307
474.87	56.606
475.22	58.267
475.57	57.425
475.92	57.488
476.27	57.683
476.61	57.523
476.96	56.609
477.31	56.355
477.66	55.562
478.01	57.440
478.36	56.863
478.70	56.933
479.05	57.582
479.40	55.432
479.75	56.726
480.10	56.375
480.45	56.600
480.79	56.848
481.14	57.684
481.49	56.601
481.84	57.529
482.19	56.455
482.53	56.882
482.88	56.038
483.23	54.319
483.58	56.179
483.92	55.712
484.27	56.882
484.62	55.984
484.97	56.136
485.31	57.406
485.66	61.069
486.01	62.601
486.36	63.028
486.70	60.955
487.05	59.035
487.40	58.221
487.75	57.493
488.09	55.192
488.44	53.989
488.79	54.950
489.13	55.208
489.48	54.639
489.83	53.901
490.17	55.326
490.52	54.781
490.87	53.725
491.22	55.492
491.56	54.791
491.91	53.250
492.26	55.761
492.60	53.599
492.95	55.730
493.30	53.249
493.64	54.912
493.99	53.671
494.34	54.660
494.68	54.048
495.03	54.258
495.37	53.925
495.72	53.559
496.07	54.439
496.41	55.896
496.76	54.675
497.11	53.843
497.45	54.654
497.80	53.885
498.14	53.105
498.49	53.327
498.84	52.695
499.18	53.715
499.53	53.869
499.87	53.988
500.22	53.165
500.56	53.555
500.91	52.610
501.26	52.447
501.60	53.665
501.95	53.954
502.29	54.286
502.64	53.861
502.98	54.859
503.33	53.458
503.67	53.831
504.02	54.448
504.36	52.895
504.71	52.475
505.06	52.793
505.40	52.183
505.75	52.732
506.09	52.154
506.44	53.542
506.78	52.908
507.13	52.275
507.47	51.593
507.82	51.923
508.16	52.404
508.51	53.410
508.85	52.172
509.19	52.155
509.54	51.957
509.88	52.481
510.23	51.694
510.57	51.309
510.92	50.533
511.26	52.591
511.61	53.080
511.95	51.562
512.30	51.109
512.64	50.195
512.98	51.151
513.33	51.315
513.67	50.881
514.02	52.574
514.36	52.057
514.70	51.865
515.05	52.115
515.39	51.476
515.74	51.737
516.08	50.209
516.42	50.766
516.77	51.141
517.11	50.267
517.46	51.287
517.80	50.358
518.14	50.643
518.49	49.519
518.83	50.851
519.17	50.030
519.52	49.378
519.86	49.820
520.20	49.635
520.55	48.906
520.89	48.557
521.23	49.082
521.58	49.338
521.92	49.295
522.26	48.926
522.61	49.545
522.95	49.139
523.29	49.365
523.64	48.793
523.98	49.708
524.32	48.325
524.66	49.616
525.01	49.026
525.35	48.347
525.69	49.091
526.04	48.677
526.38	49.222
526.72	46.893
527.06	48.833
527.41	47.955
527.75	48.391
528.09	47.110
528.43	50.236
528.78	49.109
529.12	48.710
529.46	49.123
529.80	48.322
530.15	49.769
530.49	49.024
530.83	49.042
531.17	47.683
531.51	48.290
531.86	46.975
532.20	48.365
532.54	48.264
532.88	48.528
533.22	49.261
533.57	48.493
533.91	50.131
534.25	50.781
534.59	48.300
534.93	48.143
535.27	48.477
535.62	48.347
535.96	47.945
536.30	47.889
536.64	48.794
536.98	46.620
537.32	48.862
537.66	49.018
538.01	48.462
538.35	48.474
538.69	48.735
539.03	48.667
539.37	48.789
539.71	48.943
540.05	48.269
540.39	49.169
540.73	49.163
541.07	48.757
541.42	49.664
541.76	48.796
542.10	49.415
542.44	48.436
542.78	46.937
543.12	49.107
543.46	48.331
543.80	48.786
544.14	47.130
544.48	49.300
544.82	48.941
545.16	49.590
545.50	49.199
545.84	48.796
546.18	49.220
546.52	48.522
546.86	47.520
547.20	49.428
547.54	48.339
547.88	49.796
548.22	47.535
548.56	47.955
548.90	50.135
549.24	48.416
549.58	47.814
549.92	46.748
550.26	47.106
550.60	48.773
550.94	48.469
551.28	47.604
551.62	48.385
551.96	49.173
552.30	49.123
552.64	48.449
552.98	48.664
553.32	48.859
553.66	47.823
554.00	49.708
554.34	48.671
554.68	47.050
555.02	48.512
555.36	48.766
555.69	48.205
556.03	48.537
556.37	47.687
556.71	48.881
557.05	48.098
557.39	46.840
557.73	47.601
558.07	48.643
558.41	48.239
558.75	47.545
559.08	48.542
559.42	47.302
559.76	48.519
560.10	48.394
560.44	48.176
560.78	49.091
561.12	48.590
561.45	49.965
561.79	49.580
562.13	49.397
562.47	47.410
562.81	48.127
563.15	48.378
563.48	50.212
563.82	48.662
564.16	49.861
564.50	48.851
564.84	50.469
565.17	48.960
565.51	50.956
565.85	51.029
566.19	49.801
566.52	49.799
566.86	51.221
567.20	50.996
567.54	52.494
567.88	53.368
568.21	53.394
568.55	52.663
568.89	53.234
569.23	54.405
569.56	55.911
569.90	57.572
570.24	55.527
570.57	57.164
570.91	56.257
571.25	56.429
571.59	56.213
571.92	55.822
572.26	57.367
572.60	55.690
572.93	54.848
573.27	55.580
573.61	56.504
573.95	56.253
574.28	56.568
574.62	56.344
574.96	56.569
575.29	56.815
575.63	54.341
575.97	54.812
576.30	55.468
576.64	55.629
576.98	57.169
577.31	57.459
577.65	57.890
577.98	58.474
578.32	57.560
578.66	56.802
578.99	56.434
579.33	55.783
579.67	55.085
580.00	56.177
580.34	56.443
580.67	55.539
581.01	57.181
581.35	58.333
581.68	59.201
582.02	60.360
582.35	59.294
582.69	58.629
583.02	58.000
583.36	56.731
583.70	56.490
584.03	56.297
584.37	56.352
584.70	56.813
585.04	56.399
585.37	57.150
585.71	57.912
586.04	57.388
586.38	58.282
586.72	57.389
587.05	57.770
587.39	58.457
587.72	59.705
588.06	57.376
588.39	56.964
588.73	56.838
589.06	57.371
589.40	55.513
589.73	56.188
590.07	55.325
590.40	56.502
590.73	56.919
591.07	55.980
591.40	55.922
591.74	56.244
592.07	55.659
592.41	55.875
592.74	56.073
593.08	57.806
593.41	58.880
593.75	58.031
594.08	56.471
594.41	56.477
594.75	56.832
595.08	56.565
595.42	57.968
595.75	57.604
596.09	55.825
596.42	55.436
596.75	55.684
597.09	55.080
597.42	55.736
597.75	56.482
598.09	54.323
598.42	54.919
598.76	56.456
599.09	56.851
599.42	56.915
599.76	56.960
600.09	57.164
600.42	57.278
600.76	56.686
601.09	56.183
601.42	55.856
601.76	56.451
602.09	55.693
602.42	56.992
602.76	57.046
603.09	57.350
603.42	58.194
603.76	56.331
604.09	57.675
604.42	56.641
604.76	56.653
605.09	55.896
605.42	55.801
605.75	56.830
606.09	57.155
606.42	56.839
606.75	55.758
607.09	55.824
607.42	55.383
607.75	55.995
608.08	55.391
608.42	54.820
608.75	56.096
609.08	56.702
609.41	54.365
609.75	55.192
610.08	56.565
610.41	55.217
610.74	56.168
611.07	55.969
611.41	56.461
611.74	57.036
612.07	55.139
612.40	55.306
612.73	56.102
613.07	55.343
613.40	54.759
613.73	55.288
614.06	54.925
614.39	56.063
614.72	54.566
615.06	55.084
615.39	55.295
615.72	54.413
616.05	55.028
616.38	54.302
616.71	53.578
617.05	55.034
617.38	54.243
617.71	55.723
618.04	55.683
618.37	55.864
618.70	54.851
619.03	54.583
619.36	52.243
619.69	53.753
620.03	54.127
620.36	53.791
620.69	53.319
621.02	52.370
621.35	52.116
621.68	51.276
622.01	51.250
622.34	52.275
622.67	52.524
623.00	51.685
623.33	52.134
623.66	53.403
623.99	53.328
624.32	54.221
624.65	53.534
624.99	54.628
625.32	53.829
625.65	53.260
625.98	52.216
626.31	53.034
626.64	52.513
626.97	51.832
627.30	51.051
627.63	52.080
627.96	50.854
628.29	50.139
628.62	49.066
628.95	50.100
629.28	51.109
629.61	50.947
629.94	51.026
630.26	50.494
630.59	51.925
630.92	49.744
631.25	48.718
631.58	48.458
631.91	48.465
632.24	47.936
632.57	49.659
632.90	48.399
633.23	46.824
633.56	48.741
633.89	48.212
634.22	49.012
634.55	47.776
634.88	48.787
635.20	45.641
635.53	47.600
635.86	46.294
636.19	48.642
636.52	49.490
636.85	47.395
637.18	46.541
637.51	47.673
637.83	46.255
638.16	49.795
638.49	45.640
638.82	46.711
639.15	48.575
639.48	48.418
639.81	46.025
640.13	45.887
640.46	46.501
640.79	45.214
641.12	45.790
641.45	44.294
641.77	46.667
642.10	46.445
642.43	47.267
642.76	45.710
643.09	46.204
643.41	43.689
643.74	45.305
644.07	44.171
644.40	46.453
644.73	45.009
645.05	45.302
645.38	45.855
645.71	43.440
646.04	48.654
646.36	43.440
646.69	45.504
647.02	41.777
647.35	44.776
647.67	43.876
648.00	46.642
648.33	43.515
648.66	48.983
648.98	46.566
649.31	48.926
649.64	45.526
649.96	46.191
650.29	48.893
650.62	46.496
650.94	47.778
651.27	44.134
651.60	46.847
651.92	45.804
652.25	47.780
652.58	45.833
652.90	50.429
653.23	46.723
653.56	46.193
653.88	47.251
654.21	45.184
654.54	46.350
654.86	47.708
655.19	49.561
655.52	61.068
655.84	70.485
656.17	79.818
656.49	100.000
656.82	100.000
657.15	83.769
657.47	55.515
657.80	40.738
658.13	38.519
658.45	56.972
658.78	53.600
659.10	50.842
659.43	49.259
659.75	48.545
660.08	47.310
660.41	47.600
660.73	45.442
661.06	43.154
661.38	44.618
661.71	42.710
662.03	45.708
662.36	42.857
662.68	42.257
663.01	41.703
663.33	40.371
663.66	43.023
663.98	42.093
664.31	43.497
664.63	43.088
664.96	41.522
665.28	45.033
665.61	43.506
665.93	42.174
666.26	43.384
666.58	41.387
666.91	43.529
667.23	43.396
667.56	42.417
667.88	43.165
668.21	43.675
668.53	44.444
668.86	44.575
669.18	41.981
669.50	38.257
669.83	40.000
670.15	42.657
670.48	42.105
670.80	42.627
671.13	42.729
671.45	42.237
671.77	46.996
672.10	46.337
672.42	49.625
672.75	50.977
673.07	51.163
673.39	50.459
673.72	42.012
674.04	45.000
674.37	46.186
674.69	43.683
675.01	44.667
675.34	38.739
675.66	46.296
675.98	46.120
676.31	44.037
676.63	44.418
676.95	46.136
677.28	43.765
677.60	45.301
677.92	44.495
678.25	48.578
678.57	46.753
678.89	46.639
679.22	46.756
679.54	47.390
679.86	48.907
680.18	51.068
680.51	50.189
680.83	48.907
681.15	46.800
681.48	49.590
681.80	48.347
682.12	48.992
682.44	50.837
682.77	47.020
683.09	40.961
683.41	45.682
683.73	42.396
684.06	44.248
684.38	47.957
684.70	48.584
685.02	49.585
685.34	50.198
685.67	50.657
685.99	51.175
686.31	50.796
686.63	49.722
686.96	47.148
687.28	46.061
687.60	47.909
687.92	53.131
688.24	49.597
688.56	47.817
688.89	47.321
689.21	46.444
689.53	47.332
689.85	46.512
690.17	49.554
690.49	46.809
690.82	45.631
691.14	46.190
691.46	47.664
691.78	51.351
692.10	48.602
692.42	48.485
692.74	48.291
693.06	49.550
693.39	46.380
693.71	48.416
694.03	46.882
694.35	48.832
694.67	45.455
694.99	41.775
695.31	47.520
695.63	46.500
695.95	44.192
696.27	48.964
696.59	50.000
696.91	44.818
697.23	45.244
697.56	52.970
697.88	51.828
698.20	52.620
698.52	49.882
698.84	43.780
699.16	49.250
699.48	47.619
699.80	46.898
700.12	47.709
700.44	45.658
700.76	43.605
701.08	44.545
701.40	43.072
701.72	54.012
702.04	46.535
702.36	56.187
702.68	42.643
703.00	49.091
703.32	43.988
703.64	43.220
703.96	46.377
704.28	46.626
704.60	49.524
704.91	44.164
705.23	45.515
705.55	50.530
705.87	43.321
706.19	39.630
706.51	46.392
706.83	44.373
707.15	44.860
707.47	55.182
707.79	50.000
708.11	51.250
708.43	49.750
708.74	47.028
709.06	50.141
709.38	49.235
709.70	46.154
710.02	46.178
710.34	47.059
710.66	44.231
710.98	49.338
711.29	49.836
711.61	52.881
711.93	48.534
712.25	47.766
712.57	45.055
712.89	48.507
713.20	43.599
713.52	45.993
713.84	50.512
714.16	49.485
714.48	55.161
714.80	57.051
715.11	47.416
715.43	47.022
715.75	52.667
716.07	50.831
716.39	50.336
716.70	45.756
717.02	47.328
717.34	45.749
717.66	53.097
717.97	43.913
718.29	42.678
718.61	44.882
718.93	49.225
719.24	46.388
719.56	50.201
719.88	49.141
720.20	51.894
720.51	47.126
720.83	46.332
721.15	52.521
721.46	52.016
721.78	45.455
722.10	47.955
722.42	46.888
722.73	53.469
723.05	51.429
723.37	50.424
723.68	48.649
724.00	49.573
724.32	44.444
724.63	47.273
724.95	51.092
725.27	50.691
725.58	51.271
725.90	51.587
726.22	49.035
726.53	53.898
726.85	53.184
727.16	54.340
727.48	46.559
727.80	49.798
728.11	48.305
728.43	49.020
728.74	50.403
729.06	52.800
729.38	55.639
729.69	49.402
730.01	49.231
730.32	57.836
730.64	53.004
730.96	57.736
731.27	58.333
731.59	57.288
731.90	56.369
732.22	51.420
732.53	54.485
732.85	53.191
733.16	54.209
733.48	48.201
733.80	59.420
734.11	52.203
734.43	59.107
734.74	56.364
735.06	57.329
735.37	57.402
735.69	54.882
736.00	57.143
736.32	54.362
736.63	54.577
736.95	55.290
737.26	58.007
737.58	54.027
737.89	54.945
738.21	53.383
738.52	53.909
738.83	56.332
739.15	55.459
739.46	54.331
739.78	56.044
740.09	54.575
740.41	52.899
740.72	55.118
741.04	53.846
741.35	45.957
741.66	46.919
741.98	58.163
742.29	46.040
742.61	51.309
742.92	43.128
743.23	49.074
743.55	50.679
743.86	55.024
744.18	45.455
744.49	43.617
744.80	48.913
745.12	55.615
745.43	44.878
745.74	55.729
746.06	46.341
746.37	50.785
746.68	53.081
747.00	52.128
747.31	48.259
747.62	53.398
747.94	52.153
748.25	53.960
748.56	55.191
748.88	51.832
749.19	56.383
749.50	53.695
749.82	52.830
750.13	59.174
750.44	53.759
750.75	61.567
751.07	60.219
751.38	62.452
751.69	58.039
752.01	58.527
752.32	53.785
752.63	52.569
752.94	46.983
753.26	56.485
753.57	51.131
753.88	56.637
754.19	57.083
754.51	59.917
754.82	54.656
755.13	58.333
755.44	53.629
755.75	57.422
756.07	55.253
756.38	56.604
756.69	60.153
757.00	56.333
757.31	60.458
757.63	60.671
757.94	58.333
758.25	58.630
758.56	57.447
758.87	54.958
759.18	51.713
759.50	54.909
759.81	55.184
760.12	60.968
760.43	58.788
760.74	61.728
761.05	60.923
761.36	61.648
761.67	61.515
761.99	59.184
762.30	57.818
762.61	57.312
762.92	48.869
763.23	57.207
763.54	49.065
763.85	55.932
764.16	56.017
764.47	59.677
764.78	55.311
765.10	61.953
765.41	59.937
765.72	57.460
766.03	57.143
766.34	58.759
766.65	55.378
766.96	61.616
767.27	50.532
767.58	52.299
767.89	47.518
768.20	53.409
768.51	51.648
768.82	54.680
769.13	56.221
769.44	55.794
769.75	57.991
770.06	52.155
770.37	55.769
770.68	60.914
770.99	55.656
771.30	64.706
771.61	59.729
771.92	59.052
772.23	56.650
772.54	54.301
772.85	55.556
773.16	49.438
773.47	58.170
773.78	63.399
774.09	49.701
774.39	54.667
774.70	50.955
775.01	55.862
775.32	49.286
775.63	43.802
775.94	51.908
776.25	54.331
776.56	49.167
776.87	49.038
777.18	57.265
777.48	47.414
777.79	46.087
778.10	47.619
778.41	45.045
778.72	58.730
779.03	57.895
779.34	51.064
779.65	56.849
779.95	59.589
780.26	57.931
780.57	47.154
780.88	50.394
781.19	56.897
781.50	55.039
781.80	51.479
782.11	46.541
782.42	69.231
782.73	59.712
783.04	54.074
783.34	57.639
783.65	52.137
783.96	58.197
784.27	57.241
784.57	58.537
784.88	50.000
785.19	55.000
785.50	59.000
785.81	41.379
786.11	55.172
786.42	59.223
786.73	53.636
787.04	42.857
787.34	49.107
787.65	62.857
787.96	52.212
788.26	77.273
788.57	49.573
788.88	60.938
789.19	53.968
789.49	50.435
789.80	75.510
790.11	52.525
790.41	37.273
790.72	48.913
791.03	39.773
791.33	47.500
791.64	46.250
791.95	50.000
792.25	47.872
792.56	41.573
792.87	50.685
793.17	47.826
793.48	34.667
793.79	38.750
794.09	51.250
794.40	52.830
794.70	59.223
795.01	48.780
795.32	49.573
795.62	59.048
795.93	44.118
796.23	50.943
796.54	45.833
796.85	48.529
797.15	33.803
797.46	51.389
797.76	56.061
798.07	47.674
798.37	38.158
798.68	42.424
798.99	43.210
799.29	58.571
799.60	37.681
799.90	52.000
800.21	65.574
800.51	49.231
800.82	62.712
801.12	47.826
801.43	49.180
801.73	50.794
802.04	48.000
802.34	40.299
802.65	42.308
802.95	39.286
803.26	46.154
803.56	60.784
803.87	47.826
804.17	29.333
804.48	46.032
804.78	50.000
805.09	56.522
805.39	37.778
805.70	46.296
806.00	24.561
806.30	53.521
806.61	55.714
806.91	30.556
807.22	52.632
807.52	53.333
807.83	67.273
808.13	50.000
808.43	54.412
808.74	40.299
809.04	28.814
809.35	50.000
809.65	50.000
809.95	40.541
810.26	50.000
810.56	28.767
810.86	50.000
811.17	52.000
811.47	61.224
811.77	15.789
812.08	68.182
812.38	39.623
812.69	20.000
812.99	15.152
813.29	13.158
813.59	11.429
813.90	31.818
814.20	35.897
814.50	55.769
814.81	39.623
815.11	25.532
815.41	45.763
815.72	59.524
816.02	49.020
816.32	31.250
816.62	46.341
816.93	21.622
817.23	11.429
817.53	52.083
817.84	32.609
818.14	57.692
818.44	36.842
818.74	50.000
819.04	15.000
819.35	45.946
819.65	35.294
819.95	25.000
820.25	40.476
820.56	60.000
820.86	31.034
821.16	80.000
821.46	61.702
821.76	47.500
822.07	25.581
822.37	8.108
822.67	34.375
822.97	57.143
823.27	25.000
823.57	76.000
823.88	44.444
824.18	46.429
824.48	41.176
824.78	45.161
825.08	17.391
825.38	33.333
825.69	50.000
825.99	44.737
826.29	8.333
826.59	40.000
826.89	-19.048
827.19	34.783
827.49	45.000
827.79	25.714
828.09	50.000
828.39	63.636
828.70	78.378
829.00	17.857
829.30	23.810
829.60	33.333
829.90	68.750
830.20	44.737
830.50	3.704
830.80	-4.348
831.10	36.364
831.40	87.879
831.70	48.387
832.00	52.381
832.30	19.048
832.60	-8.333
832.90	17.241
833.20	10.000
833.50	60.606
833.80	11.111
834.10	61.538
834.40	62.500
834.70	100.000
835.00	10.526
835.30	61.538
835.60	66.667
835.90	38.710
836.20	18.182
836.50	46.429
836.80	11.538
837.10	-3.571
837.40	0.000
837.70	31.818
838.00	18.182
838.30	8.696
838.60	-15.385
838.90	36.364
839.19	14.286
839.49	16.667
839.79	-38.462
840.09	-50.000
840.39	42.857
840.69	39.286
840.99	-19.231
841.29	-47.368
841.59	30.000
841.88	54.545
842.18	90.000
842.48	50.000
842.78	60.000
843.08	44.444
843.38	-60.000
843.68	56.522
843.97	26.667
844.27	-80.000
844.57	20.000
844.87	11.111
845.17	0.000
845.47	60.000
845.76	0.000
846.06	64.706
846.36	-30.000
846.66	0.000
846.96	86.667
847.25	-37.500
847.55	-7.143
847.85	37.500
848.15	31.818
848.44	-400.000
848.74	-10.000
849.04	22.222
849.34	9.091
849.63	-66.667
849.93	-60.000
850.23	61.111
850.53	130.000
850.82	-7.692
851.12	0.000
851.42	66.667
851.71	11.538
852.01	7.143
852.31	100.000
852.61	127.273
852.90	-10.000
853.20	-36.842
853.50	-8.333
853.79	17.391
854.09	66.667
854.39	47.368
854.68	66.667
854.98	41.935
855.28	46.154
855.57	45.000
855.87	27.778
856.17	51.852
856.46	57.143
856.76	73.333
857.05	88.889
857.35	68.000
857.65	27.778
857.94	23.077
858.24	72.414
858.53	50.000
858.83	48.148
859.13	31.818
859.42	34.783
859.72	100.000
860.01	-300.000
860.31	48.000
860.60	95.238
860.90	66.667
861.20	-60.000
861.49	-650.000
861.79	-13.333
862.08	30.000
862.38	113.333
862.67	80.000
862.97	66.667
863.26	25.000
863.56	55.556
863.85	-566.667
864.15	116.667
864.44	80.000
864.74	135.714
865.03	25.000
865.33	60.000
865.62	200.000
865.92	91.667
866.21	-250.000
866.51	37.500
866.80	27.273
867.10	300.000
867.39	125.000
867.69	0.000
867.98	46.154
868.27	233.333
868.57	-40.000
868.86	27.778
869.16	30.769
869.45	53.333
869.75	-300.000
870.04	0.000
870.33	-28.571
870.63	0.000
870.92	433.333
871.22	-240.000
871.51	-100.000
871.80	-55.556
872.10	-33.333
>>>>>End Processed Spectral Data<<<<<
