SpectraSuite Data File
++++++++++++++++++++++++++++++++++++
Date: Wed May 13 20:23:27 PDT 2015
User: schluterlab
Dark Spectrum Present: Yes
Reference Spectrum Present: Yes
Number of Sampled Component Spectra: 1
Spectrometers: USB2E3373
Integration Time (usec): 3000 (USB2E3373)
Spectra Averaged: 3 (USB2E3373)
Boxcar Smoothing: 0 (USB2E3373)
Correct for Electrical Dark: No (USB2E3373)
Strobe/Lamp Enabled: No (USB2E3373)
Correct for Detector Non-linearity: No (USB2E3373)
Correct for Stray Light: No (USB2E3373)
Number of Pixels in Processed Spectrum: 2048
>>>>>Begin Processed Spectral Data<<<<<
178.53	0.000
178.91	-1200.000
179.29	-1225.000
179.67	-183.333
180.04	-1325.000
180.42	2550.000
180.80	1040.000
181.18	-1225.000
181.56	700.000
181.94	0.000
182.31	-571.429
182.69	1800.000
183.07	-487.500
183.45	-477.778
183.83	554.545
184.20	-390.000
184.58	2400.000
184.96	5300.000
185.34	-920.000
185.72	-562.500
186.09	-2150.000
186.47	2550.000
186.85	2450.000
187.23	4100.000
187.61	-1433.333
187.98	1100.000
188.36	554.545
188.74	454.545
189.12	-980.000
189.49	610.000
189.87	-4300.000
190.25	-1225.000
190.63	435.714
191.00	392.308
191.38	833.333
191.76	-1200.000
192.14	1300.000
192.51	562.500
192.89	1016.667
193.27	512.500
193.65	-1000.000
194.02	580.000
194.40	1020.000
194.78	600.000
195.15	500.000
195.53	630.000
195.91	-2100.000
196.29	387.500
196.66	289.474
197.04	-330.000
197.42	0.000
197.79	600.000
198.17	-3500.000
198.55	557.143
198.92	537.500
199.30	800.000
199.68	0.000
200.05	322.222
200.43	700.000
200.81	3800.000
201.18	1533.333
201.56	-1333.333
201.94	544.444
202.31	577.778
202.69	383.333
203.07	470.000
203.44	0.000
203.82	1250.000
204.19	785.714
204.57	442.857
204.95	637.500
205.32	1433.333
205.70	363.636
206.08	385.714
206.45	2750.000
206.83	393.750
207.20	900.000
207.58	780.000
207.96	277.778
208.33	737.500
208.71	-750.000
209.08	642.857
209.46	522.222
209.84	509.091
210.21	-1566.667
210.59	1325.000
210.96	-400.000
211.34	2450.000
211.71	600.000
212.09	533.333
212.46	0.000
212.84	1766.667
213.22	1350.000
213.59	-4500.000
213.97	966.667
214.34	671.429
214.72	600.000
215.09	1080.000
215.47	-2300.000
215.84	-2450.000
216.22	1800.000
216.59	364.286
216.97	1250.000
217.34	518.182
217.72	-833.333
218.09	0.000
218.47	-5100.000
218.84	555.556
219.22	757.143
219.59	1633.333
219.97	-642.857
220.34	960.000
220.72	-1666.667
221.09	457.143
221.47	1350.000
221.84	-866.667
222.22	0.000
222.59	1375.000
222.97	-2750.000
223.34	1200.000
223.72	507.692
224.09	1240.000
224.46	2450.000
224.84	-4500.000
225.21	-1020.000
225.59	-4400.000
225.96	640.000
226.34	345.000
226.71	2900.000
227.08	600.000
227.46	600.000
227.83	-1200.000
228.21	-2500.000
228.58	677.778
228.95	-2800.000
229.33	-1900.000
229.70	1333.333
230.08	728.571
230.45	-780.000
230.82	475.000
231.20	866.667
231.57	628.571
231.95	566.667
232.32	254.545
232.69	445.455
233.07	657.143
233.44	330.769
233.81	-1266.667
234.19	226.316
234.56	408.333
234.93	441.667
235.31	427.273
235.68	323.077
236.05	457.143
236.43	178.788
236.80	252.632
237.17	4300.000
237.55	228.571
237.92	217.857
238.29	285.714
238.67	180.645
239.04	227.586
239.41	158.333
239.79	108.696
240.16	161.905
240.53	152.273
240.91	121.569
241.28	110.000
241.65	128.000
242.02	115.942
242.40	101.613
242.77	121.667
243.14	88.172
243.51	92.135
243.89	70.588
244.26	93.333
244.63	79.570
245.00	79.787
245.38	81.188
245.75	67.290
246.12	67.890
246.49	76.642
246.87	75.200
247.24	78.462
247.61	63.571
247.98	64.706
248.36	59.459
248.73	56.688
249.10	71.338
249.47	56.497
249.84	61.497
250.22	67.380
250.59	53.846
250.96	59.091
251.33	58.294
251.70	59.901
252.08	54.762
252.45	55.605
252.82	55.652
253.19	58.298
253.56	50.980
253.94	52.282
254.31	54.687
254.68	51.923
255.05	51.292
255.42	52.846
255.79	50.735
256.16	51.264
256.54	44.876
256.91	54.093
257.28	46.403
257.65	48.515
258.02	47.516
258.39	47.950
258.76	48.161
259.14	45.536
259.51	51.368
259.88	47.205
260.25	49.245
260.62	46.243
260.99	45.652
261.36	48.348
261.73	47.564
262.10	46.221
262.47	44.789
262.85	42.061
263.22	44.160
263.59	49.288
263.96	42.308
264.33	46.997
264.70	45.000
265.07	45.013
265.44	44.192
265.81	39.416
266.18	45.477
266.55	43.415
266.92	43.980
267.29	44.907
267.66	44.725
268.03	41.591
268.40	43.692
268.77	41.527
269.14	43.694
269.51	43.115
269.88	44.522
270.25	43.567
270.62	42.697
270.99	42.796
271.36	43.777
271.73	40.421
272.10	36.739
272.47	42.796
272.84	40.260
273.21	43.187
273.58	41.703
273.95	37.945
274.32	38.430
274.69	43.683
275.06	40.157
275.43	38.298
275.80	40.882
276.17	43.177
276.54	40.125
276.91	42.688
277.28	38.281
277.65	40.232
278.02	37.060
278.39	39.648
278.76	38.364
279.13	39.434
279.50	39.106
279.87	39.044
280.23	39.122
280.60	38.685
280.97	37.338
281.34	39.115
281.71	38.727
282.08	41.459
282.45	39.455
282.82	38.721
283.19	34.403
283.56	38.421
283.92	40.102
284.29	37.743
284.66	40.472
285.03	38.156
285.40	37.676
285.77	38.215
286.14	37.997
286.51	36.167
286.87	36.752
287.24	35.831
287.61	34.671
287.98	36.526
288.35	36.609
288.72	34.579
289.08	34.742
289.45	35.420
289.82	38.374
290.19	31.868
290.56	34.150
290.93	32.326
291.29	32.055
291.66	31.858
292.03	34.012
292.40	34.068
292.77	32.249
293.13	31.791
293.50	31.633
293.87	32.148
294.24	32.000
294.60	32.023
294.97	31.686
295.34	32.299
295.71	30.540
296.08	30.199
296.44	31.499
296.81	30.119
297.18	32.249
297.55	28.364
297.91	27.573
298.28	31.191
298.65	28.851
299.02	30.435
299.38	29.615
299.75	28.167
300.12	27.714
300.48	30.375
300.85	28.977
301.22	27.134
301.59	27.020
301.95	29.723
302.32	28.755
302.69	28.076
303.05	27.273
303.42	27.407
303.79	28.086
304.15	25.758
304.52	28.042
304.89	28.339
305.25	25.638
305.62	27.293
305.99	28.335
306.35	28.076
306.72	27.354
307.09	27.081
307.45	29.167
307.82	25.558
308.19	26.600
308.55	27.292
308.92	26.853
309.29	26.294
309.65	25.981
310.02	27.378
310.38	27.849
310.75	26.822
311.12	26.714
311.48	28.004
311.85	28.302
312.22	27.055
312.58	26.819
312.95	26.927
313.31	26.602
313.68	27.443
314.05	29.684
314.41	28.643
314.78	28.802
315.14	28.997
315.51	31.411
315.87	29.505
316.24	29.196
316.61	29.532
316.97	29.354
317.34	29.452
317.70	30.975
318.07	31.280
318.43	31.703
318.80	32.615
319.16	31.262
319.53	31.801
319.89	32.476
320.26	34.100
320.62	33.433
320.99	34.040
321.35	33.535
321.72	36.242
322.08	37.710
322.45	39.303
322.81	37.984
323.18	40.655
323.54	38.126
323.91	38.491
324.27	39.866
324.64	41.100
325.00	41.118
325.37	43.403
325.73	42.998
326.10	44.219
326.46	44.265
326.83	45.902
327.19	45.517
327.56	47.997
327.92	48.906
328.29	50.222
328.65	51.105
329.01	50.090
329.38	50.694
329.74	51.708
330.11	51.649
330.47	52.984
330.84	53.125
331.20	53.916
331.56	53.486
331.93	55.833
332.29	54.570
332.66	55.221
333.02	56.581
333.38	56.459
333.75	56.506
334.11	57.117
334.48	56.699
334.84	57.537
335.20	57.727
335.57	57.752
335.93	57.679
336.29	58.974
336.66	58.702
337.02	58.733
337.38	59.630
337.75	58.200
338.11	60.072
338.47	62.615
338.84	60.128
339.20	61.651
339.56	63.139
339.93	61.818
340.29	62.319
340.65	60.963
341.02	63.438
341.38	62.900
341.74	61.930
342.11	64.192
342.47	63.260
342.83	64.041
343.20	63.810
343.56	62.005
343.92	64.123
344.28	64.031
344.65	64.230
345.01	62.374
345.37	62.436
345.73	63.029
346.10	65.729
346.46	64.407
346.82	65.157
347.19	65.246
347.55	63.465
347.91	63.511
348.27	67.132
348.63	66.472
349.00	64.806
349.36	65.517
349.72	64.555
350.08	66.370
350.45	67.209
350.81	65.556
351.17	65.964
351.53	68.059
351.89	65.924
352.26	65.588
352.62	68.725
352.98	67.423
353.34	66.968
353.70	67.103
354.07	67.823
354.43	66.667
354.79	66.452
355.15	67.757
355.51	69.704
355.87	70.531
356.24	68.567
356.60	67.201
356.96	70.233
357.32	70.155
357.68	68.740
358.04	69.279
358.40	69.834
358.77	68.936
359.13	69.219
359.49	70.196
359.85	69.444
360.21	71.372
360.57	69.805
360.93	71.154
361.29	69.010
361.66	69.118
362.02	69.328
362.38	69.202
362.74	70.610
363.10	69.430
363.46	69.846
363.82	72.033
364.18	70.117
364.54	71.991
364.90	71.246
365.26	72.353
365.62	71.804
365.98	70.416
366.35	69.699
366.71	71.294
367.07	72.323
367.43	73.077
367.79	71.163
368.15	72.917
368.51	72.820
368.87	72.163
369.23	73.519
369.59	73.353
369.95	71.176
370.31	72.222
370.67	70.870
371.03	72.434
371.39	72.668
371.75	73.824
372.11	70.768
372.47	73.021
372.83	73.919
373.19	72.905
373.55	73.984
373.91	74.080
374.27	71.684
374.63	71.418
374.99	72.105
375.35	71.179
375.71	71.076
376.07	72.222
376.42	73.590
376.78	72.233
377.14	72.388
377.50	72.185
377.86	70.745
378.22	72.819
378.58	72.055
378.94	73.350
379.30	73.346
379.66	73.541
380.02	72.236
380.38	72.131
380.74	73.770
381.09	72.922
381.45	73.264
381.81	71.806
382.17	72.293
382.53	72.893
382.89	72.469
383.25	72.670
383.61	73.916
383.97	71.044
384.32	72.614
384.68	73.110
385.04	71.666
385.40	71.641
385.76	73.219
386.12	71.891
386.48	73.757
386.83	73.060
387.19	73.036
387.55	72.109
387.91	72.068
388.27	71.919
388.62	71.850
388.98	70.823
389.34	72.466
389.70	70.754
390.06	73.131
390.42	72.438
390.77	70.802
391.13	73.708
391.49	72.652
391.85	70.719
392.20	70.662
392.56	72.727
392.92	71.454
393.28	72.071
393.64	72.002
393.99	70.800
394.35	71.712
394.71	70.640
395.07	70.467
395.42	72.497
395.78	70.802
396.14	71.136
396.50	71.930
396.85	71.265
397.21	69.420
397.57	70.986
397.92	71.334
398.28	70.684
398.64	70.370
399.00	69.334
399.35	69.656
399.71	70.949
400.07	69.722
400.42	71.166
400.78	70.748
401.14	69.329
401.49	70.746
401.85	69.570
402.21	69.281
402.57	69.895
402.92	68.348
403.28	70.956
403.63	68.626
403.99	70.446
404.35	69.333
404.70	68.585
405.06	69.598
405.42	68.434
405.77	69.257
406.13	69.187
406.49	68.303
406.84	68.990
407.20	67.849
407.55	69.560
407.91	69.600
408.27	69.560
408.62	68.212
408.98	68.627
409.34	68.573
409.69	69.097
410.05	68.401
410.40	67.706
410.76	68.459
411.11	66.647
411.47	65.815
411.83	67.379
412.18	67.656
412.54	68.493
412.89	66.506
413.25	66.470
413.60	68.314
413.96	65.938
414.31	65.796
414.67	67.300
415.03	67.483
415.38	67.075
415.74	67.203
416.09	67.929
416.45	67.470
416.80	67.019
417.16	67.024
417.51	66.423
417.87	66.731
418.22	66.625
418.58	68.044
418.93	65.848
419.29	65.372
419.64	65.554
420.00	65.549
420.35	64.406
420.71	66.647
421.06	65.215
421.42	64.444
421.77	65.415
422.12	65.525
422.48	64.922
422.83	65.871
423.19	65.138
423.54	66.222
423.90	65.159
424.25	64.489
424.61	63.810
424.96	65.656
425.31	62.680
425.67	63.371
426.02	62.971
426.38	65.812
426.73	64.716
427.09	63.891
427.44	64.175
427.79	63.197
428.15	64.643
428.50	63.487
428.85	63.290
429.21	63.114
429.56	63.919
429.92	63.312
430.27	63.555
430.62	63.185
430.98	61.702
431.33	62.268
431.68	62.880
432.04	63.472
432.39	63.621
432.74	63.734
433.10	64.403
433.45	62.915
433.80	63.027
434.16	62.073
434.51	62.316
434.86	61.802
435.22	63.091
435.57	62.006
435.92	62.668
436.28	63.405
436.63	63.852
436.98	62.507
437.34	64.341
437.69	64.294
438.04	62.788
438.39	62.448
438.75	63.219
439.10	62.011
439.45	61.275
439.81	63.082
440.16	60.813
440.51	62.332
440.86	62.999
441.22	62.403
441.57	61.571
441.92	62.129
442.27	60.926
442.63	60.716
442.98	61.408
443.33	60.924
443.68	60.919
444.03	61.103
444.39	60.175
444.74	61.742
445.09	59.946
445.44	59.923
445.79	60.317
446.15	59.661
446.50	61.174
446.85	61.202
447.20	60.530
447.55	61.642
447.91	60.507
448.26	60.712
448.61	60.373
448.96	59.967
449.31	60.799
449.66	60.833
450.02	59.944
450.37	58.900
450.72	60.068
451.07	59.963
451.42	59.635
451.77	60.834
452.12	59.527
452.47	60.386
452.83	60.198
453.18	59.230
453.53	60.730
453.88	58.476
454.23	59.414
454.58	58.692
454.93	61.284
455.28	58.791
455.63	59.891
455.98	59.345
456.34	58.606
456.69	60.238
457.04	60.000
457.39	58.212
457.74	57.864
458.09	57.734
458.44	57.982
458.79	57.267
459.14	57.054
459.49	59.078
459.84	57.784
460.19	57.513
460.54	57.002
460.89	57.762
461.24	59.016
461.59	59.849
461.94	55.857
462.29	58.694
462.64	57.562
462.99	57.059
463.34	58.200
463.69	57.098
464.04	55.884
464.39	56.870
464.74	57.398
465.09	56.273
465.44	56.510
465.79	55.201
466.14	56.486
466.49	56.174
466.84	57.501
467.19	57.393
467.54	56.812
467.89	55.042
468.24	56.021
468.59	57.204
468.94	56.323
469.29	56.491
469.64	56.894
469.99	57.375
470.34	56.737
470.68	56.897
471.03	56.327
471.38	57.748
471.73	55.630
472.08	55.789
472.43	55.339
472.78	56.945
473.13	55.648
473.48	54.744
473.83	56.951
474.17	54.200
474.52	55.335
474.87	54.991
475.22	54.498
475.57	54.111
475.92	54.010
476.27	53.946
476.61	55.323
476.96	54.096
477.31	53.218
477.66	54.267
478.01	52.849
478.36	54.310
478.70	53.634
479.05	53.301
479.40	53.173
479.75	53.635
480.10	52.932
480.45	52.880
480.79	52.699
481.14	53.180
481.49	52.729
481.84	52.675
482.19	53.339
482.53	52.890
482.88	52.722
483.23	52.150
483.58	51.683
483.92	52.484
484.27	50.980
484.62	51.379
484.97	51.951
485.31	52.500
485.66	51.647
486.01	50.608
486.36	49.323
486.70	49.396
487.05	49.594
487.40	50.383
487.75	50.356
488.09	51.198
488.44	51.067
488.79	52.622
489.13	51.337
489.48	50.734
489.83	51.403
490.17	51.206
490.52	50.266
490.87	50.656
491.22	51.160
491.56	50.296
491.91	50.535
492.26	50.436
492.60	49.631
492.95	49.719
493.30	49.626
493.64	50.583
493.99	50.279
494.34	50.139
494.68	50.092
495.03	50.564
495.37	49.977
495.72	50.487
496.07	50.626
496.41	48.850
496.76	49.648
497.11	49.617
497.45	49.371
497.80	49.328
498.14	49.565
498.49	49.561
498.84	48.849
499.18	50.143
499.53	49.525
499.87	48.555
500.22	48.799
500.56	49.369
500.91	48.750
501.26	49.170
501.60	50.166
501.95	48.625
502.29	49.391
502.64	49.162
502.98	48.668
503.33	47.989
503.67	49.095
504.02	48.644
504.36	48.620
504.71	49.731
505.06	48.867
505.40	48.663
505.75	47.830
506.09	48.445
506.44	48.841
506.78	47.930
507.13	49.117
507.47	48.333
507.82	48.278
508.16	47.619
508.51	48.148
508.85	47.021
509.19	47.653
509.54	47.806
509.88	47.141
510.23	47.506
510.57	48.658
510.92	48.731
511.26	47.020
511.61	48.081
511.95	46.921
512.30	47.137
512.64	47.448
512.98	47.588
513.33	47.270
513.67	46.371
514.02	46.591
514.36	47.297
514.70	47.537
515.05	47.351
515.39	47.672
515.74	47.297
516.08	46.283
516.42	46.781
516.77	48.384
517.11	46.448
517.46	46.840
517.80	47.619
518.14	46.671
518.49	47.200
518.83	46.193
519.17	46.132
519.52	46.123
519.86	45.921
520.20	45.434
520.55	47.217
520.89	46.350
521.23	49.216
521.58	46.038
521.92	46.969
522.26	45.516
522.61	47.788
522.95	45.734
523.29	46.683
523.64	45.915
523.98	47.073
524.32	45.296
524.66	45.219
525.01	46.201
525.35	46.344
525.69	44.951
526.04	45.732
526.38	45.638
526.72	44.847
527.06	46.139
527.41	44.802
527.75	45.080
528.09	46.628
528.43	45.443
528.78	45.544
529.12	45.455
529.46	46.295
529.80	44.802
530.15	45.545
530.49	44.062
530.83	44.494
531.17	46.606
531.51	46.822
531.86	45.032
532.20	45.111
532.54	45.740
532.88	44.673
533.22	44.160
533.57	43.889
533.91	44.431
534.25	45.140
534.59	43.319
534.93	42.653
535.27	44.176
535.62	43.712
535.96	45.135
536.30	44.501
536.64	44.430
536.98	44.326
537.32	44.042
537.66	44.067
538.01	44.898
538.35	44.279
538.69	44.225
539.03	43.535
539.37	42.173
539.71	42.579
540.05	44.183
540.39	44.983
540.73	42.885
541.07	43.868
541.42	44.162
541.76	44.000
542.10	43.079
542.44	43.576
542.78	43.610
543.12	42.610
543.46	42.820
543.80	42.746
544.14	42.747
544.48	43.238
544.82	42.399
545.16	43.136
545.50	42.481
545.84	42.742
546.18	43.165
546.52	43.427
546.86	42.543
547.20	43.830
547.54	42.752
547.88	43.559
548.22	41.968
548.56	42.579
548.90	42.830
549.24	43.232
549.58	42.565
549.92	43.269
550.26	43.892
550.60	41.840
550.94	42.113
551.28	43.819
551.62	42.559
551.96	42.807
552.30	43.140
552.64	43.272
552.98	42.576
553.32	42.751
553.66	43.490
554.00	43.514
554.34	42.029
554.68	43.133
555.02	42.595
555.36	41.545
555.69	40.866
556.03	41.588
556.37	40.996
556.71	41.337
557.05	41.527
557.39	41.847
557.73	41.567
558.07	41.987
558.41	41.968
558.75	42.175
559.08	41.984
559.42	40.438
559.76	41.765
560.10	39.615
560.44	41.440
560.78	40.186
561.12	41.095
561.45	40.548
561.79	41.200
562.13	40.711
562.47	41.189
562.81	42.469
563.15	40.870
563.48	40.782
563.82	40.117
564.16	40.419
564.50	40.299
564.84	40.265
565.17	40.219
565.51	40.000
565.85	40.038
566.19	39.324
566.52	39.899
566.86	40.325
567.20	40.743
567.54	39.897
567.88	39.055
568.21	39.947
568.55	39.282
568.89	40.613
569.23	39.305
569.56	38.138
569.90	38.264
570.24	38.177
570.57	38.082
570.91	37.233
571.25	37.956
571.59	38.203
571.92	38.306
572.26	39.024
572.60	38.649
572.93	38.201
573.27	38.361
573.61	38.163
573.95	38.682
574.28	37.739
574.62	37.464
574.96	37.563
575.29	37.464
575.63	38.237
575.97	37.438
576.30	38.157
576.64	37.554
576.98	36.996
577.31	37.523
577.65	37.264
577.98	37.053
578.32	37.311
578.66	37.715
578.99	37.800
579.33	37.328
579.67	37.655
580.00	37.018
580.34	37.803
580.67	36.823
581.01	36.969
581.35	37.104
581.68	37.214
582.02	36.907
582.35	36.763
582.69	37.142
583.02	36.995
583.36	37.007
583.70	37.562
584.03	37.147
584.37	37.391
584.70	37.618
585.04	36.937
585.37	37.162
585.71	36.537
586.04	36.337
586.38	36.703
586.72	36.896
587.05	36.838
587.39	36.332
587.72	36.666
588.06	36.526
588.39	37.037
588.73	36.902
589.06	37.177
589.40	37.374
589.73	37.557
590.07	36.797
590.40	36.756
590.73	37.549
591.07	37.851
591.40	37.242
591.74	38.009
592.07	37.565
592.41	37.247
592.74	35.955
593.08	35.943
593.41	36.539
593.75	35.572
594.08	36.239
594.41	36.515
594.75	36.636
595.08	36.042
595.42	37.058
595.75	35.969
596.09	37.026
596.42	37.485
596.75	35.838
597.09	36.883
597.42	35.835
597.75	36.352
598.09	35.870
598.42	36.125
598.76	36.522
599.09	36.222
599.42	35.444
599.76	36.896
600.09	35.301
600.42	35.683
600.76	35.643
601.09	35.811
601.42	35.997
601.76	36.243
602.09	35.652
602.42	36.385
602.76	36.276
603.09	35.917
603.42	35.728
603.76	34.909
604.09	36.022
604.42	36.404
604.76	36.482
605.09	36.173
605.42	36.084
605.75	35.803
606.09	35.746
606.42	35.758
606.75	35.670
607.09	35.161
607.42	35.558
607.75	34.641
608.08	35.302
608.42	36.351
608.75	34.941
609.08	35.569
609.41	34.745
609.75	35.350
610.08	35.485
610.41	35.149
610.74	35.714
611.07	36.265
611.41	35.329
611.74	36.702
612.07	36.232
612.40	36.464
612.73	35.000
613.07	35.776
613.40	36.230
613.73	34.976
614.06	34.624
614.39	34.033
614.72	34.474
615.06	35.452
615.39	35.244
615.72	35.481
616.05	34.131
616.38	35.019
616.71	36.580
617.05	35.925
617.38	35.358
617.71	35.195
618.04	35.517
618.37	34.063
618.70	35.283
619.03	35.395
619.36	35.777
619.69	35.423
620.03	35.714
620.36	35.495
620.69	35.959
621.02	35.546
621.35	34.926
621.68	34.735
622.01	35.449
622.34	35.628
622.67	35.665
623.00	34.556
623.33	34.811
623.66	35.096
623.99	35.346
624.32	34.593
624.65	35.593
624.99	35.057
625.32	34.468
625.65	34.636
625.98	35.511
626.31	35.925
626.64	35.429
626.97	34.663
627.30	35.578
627.63	35.439
627.96	35.240
628.29	35.433
628.62	36.139
628.95	36.887
629.28	35.493
629.61	35.472
629.94	36.190
630.26	34.986
630.59	35.558
630.92	35.824
631.25	34.255
631.58	34.535
631.91	35.091
632.24	33.966
632.57	35.152
632.90	34.759
633.23	36.130
633.56	36.836
633.89	34.202
634.22	35.301
634.55	36.805
634.88	35.449
635.20	35.245
635.53	35.422
635.86	35.520
636.19	35.176
636.52	36.217
636.85	34.937
637.18	33.756
637.51	35.225
637.83	33.046
638.16	35.550
638.49	35.642
638.82	37.927
639.15	34.250
639.48	34.788
639.81	34.987
640.13	35.677
640.46	34.094
640.79	35.667
641.12	34.250
641.45	34.497
641.77	36.966
642.10	35.088
642.43	34.535
642.76	36.842
643.09	34.356
643.41	35.053
643.74	38.426
644.07	37.043
644.40	35.276
644.73	35.433
645.05	37.084
645.38	35.703
645.71	34.622
646.04	36.379
646.36	36.895
646.69	36.789
647.02	37.755
647.35	36.254
647.67	34.867
648.00	35.610
648.33	36.634
648.66	35.455
648.98	35.082
649.31	34.230
649.64	36.323
649.96	36.215
650.29	34.597
650.62	36.731
650.94	35.494
651.27	35.811
651.60	34.775
651.92	37.380
652.25	34.039
652.58	36.137
652.90	35.229
653.23	34.052
653.56	35.591
653.88	34.548
654.21	36.335
654.54	36.964
654.86	33.956
655.19	33.919
655.52	27.436
655.84	26.473
656.17	34.729
656.49	47.230
656.82	48.600
657.15	37.237
657.47	27.775
657.80	21.198
658.13	22.128
658.45	32.371
658.78	32.814
659.10	33.853
659.43	35.194
659.75	35.239
660.08	36.392
660.41	38.641
660.73	39.009
661.06	36.146
661.38	37.273
661.71	38.654
662.03	37.475
662.36	33.400
662.68	37.751
663.01	36.970
663.33	33.758
663.66	36.134
663.98	35.637
664.31	34.454
664.63	36.640
664.96	36.016
665.28	39.139
665.61	35.088
665.93	35.614
666.26	34.686
666.58	37.657
666.91	37.844
667.23	36.404
667.56	35.637
667.88	35.684
668.21	37.953
668.53	35.792
668.86	35.281
669.18	37.953
669.50	35.217
669.83	40.305
670.15	38.444
670.48	36.601
670.80	36.638
671.13	37.367
671.45	37.447
671.77	36.660
672.10	35.675
672.42	32.686
672.75	37.645
673.07	35.915
673.39	33.996
673.72	36.328
674.04	36.078
674.37	36.505
674.69	35.174
675.01	34.728
675.34	38.398
675.66	34.947
675.98	39.308
676.31	35.924
676.63	34.183
676.95	37.317
677.28	35.748
677.60	35.824
677.92	36.920
678.25	36.140
678.57	36.853
678.89	39.279
679.22	36.346
679.54	36.260
679.86	35.963
680.18	35.063
680.51	34.574
680.83	33.274
681.15	33.962
681.48	37.996
681.80	35.397
682.12	32.759
682.44	33.462
682.77	35.031
683.09	36.695
683.41	38.359
683.73	37.748
684.06	37.397
684.38	35.616
684.70	37.403
685.02	36.585
685.34	37.363
685.67	33.741
685.99	35.911
686.31	36.177
686.63	30.919
686.96	33.750
687.28	33.755
687.60	33.514
687.92	38.208
688.24	38.213
688.56	36.546
688.89	36.307
689.21	37.118
689.53	33.403
689.85	36.364
690.17	35.404
690.49	36.730
690.82	37.383
691.14	31.920
691.46	35.865
691.78	35.743
692.10	35.744
692.42	37.924
692.74	35.892
693.06	35.106
693.39	36.345
693.71	40.175
694.03	35.579
694.35	36.797
694.67	33.638
694.99	38.293
695.31	32.843
695.63	37.081
695.95	39.609
696.27	33.503
696.59	34.715
696.91	37.306
697.23	34.038
697.56	35.608
697.88	32.311
698.20	34.167
698.52	34.624
698.84	36.526
699.16	34.332
699.48	36.342
699.80	37.681
700.12	41.558
700.44	38.462
700.76	39.503
701.08	36.782
701.40	36.034
701.72	37.026
702.04	39.489
702.36	38.244
702.68	36.544
703.00	36.288
703.32	35.638
703.64	35.657
703.96	37.883
704.28	39.535
704.60	39.003
704.91	39.763
705.23	38.123
705.55	43.854
705.87	42.525
706.19	42.049
706.51	40.810
706.83	42.121
707.15	40.896
707.47	34.848
707.79	37.592
708.11	37.900
708.43	39.048
708.74	36.480
709.06	37.143
709.38	39.370
709.70	37.500
710.02	40.059
710.34	36.970
710.66	39.701
710.98	40.057
711.29	39.826
711.61	40.413
711.93	38.462
712.25	43.730
712.57	40.809
712.89	44.291
713.20	37.690
713.52	39.145
713.84	37.025
714.16	40.549
714.48	36.782
714.80	39.818
715.11	38.040
715.43	38.279
715.75	37.971
716.07	34.505
716.39	38.558
716.70	43.522
717.02	40.288
717.34	42.756
717.66	42.910
717.97	42.629
718.29	41.111
718.61	40.876
718.93	41.544
719.24	40.830
719.56	37.288
719.88	40.678
720.20	45.270
720.51	43.902
720.83	40.892
721.15	41.045
721.46	41.844
721.78	39.785
722.10	43.019
722.42	43.609
722.73	43.820
723.05	43.852
723.37	38.866
723.68	44.015
724.00	43.089
724.32	41.532
724.63	41.057
724.95	44.351
725.27	45.749
725.58	43.750
725.90	45.985
726.22	43.019
726.53	38.542
726.85	42.321
727.16	41.281
727.48	39.716
727.80	39.773
728.11	39.493
728.43	40.385
728.74	41.577
729.06	46.715
729.38	46.324
729.69	41.993
730.01	36.177
730.32	39.236
730.64	39.465
730.96	41.584
731.27	45.364
731.59	40.673
731.90	41.983
732.22	42.236
732.53	36.223
732.85	39.103
733.16	36.656
733.48	41.196
733.80	39.286
734.11	42.038
734.43	36.686
734.74	39.714
735.06	40.688
735.37	39.017
735.69	38.217
736.00	38.562
736.32	40.498
736.63	38.658
736.95	39.936
737.26	32.653
737.58	36.452
737.89	38.127
738.21	44.710
738.52	40.357
738.83	38.868
739.15	39.615
739.46	41.241
739.78	44.097
740.09	39.692
740.41	43.871
740.72	37.979
741.04	39.630
741.35	40.833
741.66	45.778
741.98	44.811
742.29	45.933
742.61	45.259
742.92	44.796
743.23	43.590
743.55	39.600
743.86	44.737
744.18	46.903
744.49	48.325
744.80	43.192
745.12	48.182
745.43	45.815
745.74	47.297
746.06	49.541
746.37	43.498
746.68	40.724
747.00	46.759
747.31	47.619
747.62	40.265
747.94	44.053
748.25	42.979
748.56	44.493
748.88	43.564
749.19	45.000
749.50	48.372
749.82	38.618
750.13	39.592
750.44	43.431
750.75	39.298
751.07	40.836
751.38	40.070
751.69	43.682
752.01	39.850
752.32	39.711
752.63	39.716
752.94	43.033
753.26	45.600
753.57	39.431
753.88	41.797
754.19	44.286
754.51	43.750
754.82	40.433
755.13	41.132
755.44	38.722
755.75	40.876
756.07	36.525
756.38	39.051
756.69	40.604
757.00	35.030
757.31	33.828
757.63	39.766
757.94	38.338
758.25	35.539
758.56	33.333
758.87	37.634
759.18	39.394
759.50	36.677
759.81	38.006
760.12	38.125
760.43	39.255
760.74	33.152
761.05	36.723
761.36	36.631
761.67	36.364
761.99	36.335
762.30	39.931
762.61	43.130
762.92	46.094
763.23	41.176
763.54	42.000
763.85	41.406
764.16	47.692
764.47	45.247
764.78	38.516
765.10	35.759
765.41	39.528
765.72	39.521
766.03	35.737
766.34	39.000
766.65	45.957
766.96	42.308
767.27	51.269
767.58	50.521
767.89	48.947
768.20	51.149
768.51	45.178
768.82	48.624
769.13	39.431
769.44	41.700
769.75	46.781
770.06	38.991
770.37	46.606
770.68	47.685
770.99	42.222
771.30	38.115
771.61	44.395
771.92	45.492
772.23	47.479
772.54	43.590
772.85	47.644
773.16	51.596
773.47	53.261
773.78	51.269
774.09	46.429
774.39	56.140
774.70	53.704
775.01	60.870
775.32	64.052
775.63	58.553
775.94	53.237
776.25	57.480
776.56	66.418
776.87	60.656
777.18	66.406
777.48	61.832
777.79	64.394
778.10	57.037
778.41	66.964
778.72	54.745
779.03	47.651
779.34	51.678
779.65	52.027
779.95	46.626
780.26	59.477
780.57	58.621
780.88	71.094
781.19	60.902
781.50	53.378
781.80	49.686
782.11	45.763
782.42	51.899
782.73	49.693
783.04	54.730
783.34	60.563
783.65	67.808
783.96	57.463
784.27	52.448
784.57	51.799
784.88	66.667
785.19	68.254
785.50	63.208
785.81	61.194
786.11	66.393
786.42	66.667
786.73	73.451
787.04	75.472
787.34	61.607
787.65	66.000
787.96	52.252
788.26	62.810
788.57	71.186
788.88	69.421
789.19	56.944
789.49	65.909
789.80	64.122
790.11	79.048
790.41	76.238
790.72	66.265
791.03	65.217
791.33	82.558
791.64	77.320
791.95	89.109
792.25	77.778
792.56	83.117
792.87	88.462
793.17	91.139
793.48	72.414
793.79	77.011
794.09	87.500
794.40	63.025
794.70	66.176
795.01	51.111
795.32	51.799
795.62	55.118
795.93	62.069
796.23	64.602
796.54	75.294
796.85	66.216
797.15	90.141
797.46	86.364
797.76	85.542
798.07	83.544
798.37	92.308
798.68	86.364
798.99	78.873
799.29	80.519
799.60	79.545
799.90	95.890
800.21	100.000
800.51	96.552
800.82	107.018
801.12	100.000
801.43	83.333
801.73	82.432
802.04	106.349
802.34	87.654
802.65	98.437
802.95	106.780
803.26	85.937
803.56	78.571
803.87	92.308
804.17	97.059
804.48	109.259
804.78	108.621
805.09	72.059
805.39	107.692
805.70	100.000
806.00	109.836
806.30	92.424
806.61	80.488
806.91	81.013
807.22	96.053
807.52	82.090
807.83	100.000
808.13	103.125
808.43	100.000
808.74	84.211
809.04	95.652
809.35	92.537
809.65	77.632
809.95	103.226
810.26	103.390
810.56	92.063
810.86	129.545
811.17	138.095
811.47	115.000
811.77	100.000
812.08	130.909
812.38	124.000
812.69	155.556
812.99	177.273
813.29	114.286
813.59	116.667
813.90	140.816
814.20	120.000
814.50	107.692
814.81	110.294
815.11	120.408
815.41	118.033
815.72	161.905
816.02	121.818
816.32	111.905
816.62	135.000
816.93	156.098
817.23	135.714
817.53	115.909
817.84	196.970
818.14	141.304
818.44	126.667
818.74	161.765
819.04	122.500
819.35	142.857
819.65	138.235
819.95	203.571
820.25	215.000
820.56	182.051
820.86	156.818
821.16	139.535
821.46	138.462
821.76	118.000
822.07	171.429
822.37	135.000
822.67	160.606
822.97	111.765
823.27	203.571
823.57	143.243
823.88	155.000
824.18	193.333
824.48	150.000
824.78	192.000
825.08	195.833
825.38	186.486
825.69	160.976
825.99	212.500
826.29	193.103
826.59	157.895
826.89	144.737
827.19	173.529
827.49	209.677
827.79	168.182
828.09	140.909
828.39	123.404
828.70	146.939
829.00	177.778
829.30	164.516
829.60	167.500
829.90	326.667
830.20	171.429
830.50	204.348
830.80	165.217
831.10	200.000
831.40	180.000
831.70	191.304
832.00	215.385
832.30	211.111
832.60	300.000
832.90	193.333
833.20	392.857
833.50	209.677
833.80	189.655
834.10	206.250
834.40	234.615
834.70	283.333
835.00	309.524
835.30	188.571
835.60	369.231
835.90	203.448
836.20	364.286
836.50	186.207
836.80	184.000
837.10	152.778
837.40	266.667
837.70	323.529
838.00	214.815
838.30	238.095
838.60	338.095
838.90	207.692
839.19	240.000
839.49	371.429
839.79	310.000
840.09	265.000
840.39	276.190
840.69	213.043
840.99	272.222
841.29	520.000
841.59	425.000
841.88	318.750
842.18	196.552
842.48	257.143
842.78	183.333
843.08	256.522
843.38	190.625
843.68	750.000
843.97	230.769
844.27	203.448
844.57	285.714
844.87	381.250
845.17	214.815
845.47	1233.333
845.76	444.444
846.06	294.118
846.36	487.500
846.66	400.000
846.96	243.750
847.25	372.727
847.55	354.545
847.85	278.261
848.15	480.000
848.44	364.286
848.74	244.444
849.04	300.000
849.34	500.000
849.63	252.632
849.93	490.909
850.23	1080.000
850.53	400.000
850.82	1850.000
851.12	-3900.000
851.42	4500.000
851.71	280.000
852.01	-1033.333
852.31	183.333
852.61	1566.667
852.90	300.000
853.20	212.000
853.50	317.647
853.79	242.857
854.09	254.167
854.39	375.000
854.68	151.351
854.98	187.097
855.28	166.667
855.57	186.207
855.87	222.222
856.17	242.105
856.46	260.000
856.76	276.471
857.05	182.759
857.35	241.667
857.65	380.000
857.94	260.870
858.24	234.615
858.53	295.000
858.83	227.273
859.13	360.000
859.42	0.000
859.72	544.444
860.01	509.091
860.31	304.545
860.60	284.211
860.90	234.783
861.20	544.444
861.49	433.333
861.79	-4400.000
862.08	562.500
862.38	304.762
862.67	338.462
862.97	311.765
863.26	644.444
863.56	288.889
863.85	425.000
864.15	512.500
864.44	346.667
864.74	750.000
865.03	700.000
865.33	305.263
865.62	472.727
865.92	430.769
866.21	433.333
866.51	0.000
866.80	436.364
867.10	1100.000
867.39	484.615
867.69	472.727
867.98	257.895
868.27	481.818
868.57	278.947
868.86	-4400.000
869.16	356.250
869.45	2250.000
869.75	-5400.000
870.04	416.667
870.33	628.571
870.63	1125.000
870.92	2600.000
871.22	814.286
871.51	352.941
871.80	238.095
872.10	371.429
>>>>>End Processed Spectral Data<<<<<
