SpectraSuite Data File
++++++++++++++++++++++++++++++++++++
Date: Wed May 13 20:23:37 PDT 2015
User: schluterlab
Dark Spectrum Present: Yes
Reference Spectrum Present: Yes
Number of Sampled Component Spectra: 1
Spectrometers: USB2E3373
Integration Time (usec): 3000 (USB2E3373)
Spectra Averaged: 3 (USB2E3373)
Boxcar Smoothing: 0 (USB2E3373)
Correct for Electrical Dark: No (USB2E3373)
Strobe/Lamp Enabled: No (USB2E3373)
Correct for Detector Non-linearity: No (USB2E3373)
Correct for Stray Light: No (USB2E3373)
Number of Pixels in Processed Spectrum: 2048
>>>>>Begin Processed Spectral Data<<<<<
178.53	0.000
178.91	-1425.000
179.29	-1300.000
179.67	-238.889
180.04	-1025.000
180.42	2350.000
180.80	1060.000
181.18	-1050.000
181.56	671.429
181.94	0.000
182.31	-657.143
182.69	1666.667
183.07	-462.500
183.45	-533.333
183.83	463.636
184.20	-470.000
184.58	2100.000
184.96	5600.000
185.34	-920.000
185.72	-637.500
186.09	-2250.000
186.47	2700.000
186.85	2350.000
187.23	4700.000
187.61	-1566.667
187.98	1225.000
188.36	618.182
188.74	527.273
189.12	-840.000
189.49	440.000
189.87	-4200.000
190.25	-1275.000
190.63	464.286
191.00	376.923
191.38	800.000
191.76	-1175.000
192.14	1375.000
192.51	600.000
192.89	966.667
193.27	600.000
193.65	-1425.000
194.02	470.000
194.40	1000.000
194.78	550.000
195.15	475.000
195.53	650.000
195.91	-1900.000
196.29	350.000
196.66	294.737
197.04	-330.000
197.42	0.000
197.79	590.000
198.17	-4100.000
198.55	714.286
198.92	587.500
199.30	840.000
199.68	0.000
200.05	316.667
200.43	742.857
200.81	5200.000
201.18	1833.333
201.56	-1666.667
201.94	533.333
202.31	488.889
202.69	466.667
203.07	530.000
203.44	0.000
203.82	1275.000
204.19	742.857
204.57	478.571
204.95	662.500
205.32	1466.667
205.70	518.182
206.08	307.143
206.45	2700.000
206.83	356.250
207.20	916.667
207.58	680.000
207.96	327.778
208.33	712.500
208.71	-800.000
209.08	800.000
209.46	588.889
209.84	472.727
210.21	-1733.333
210.59	1525.000
210.96	-475.000
211.34	2550.000
211.71	530.000
212.09	833.333
212.46	0.000
212.84	1366.667
213.22	1300.000
213.59	-3600.000
213.97	816.667
214.34	814.286
214.72	509.091
215.09	1120.000
215.47	-1900.000
215.84	-2500.000
216.22	1866.667
216.59	485.714
216.97	1350.000
217.34	463.636
217.72	-816.667
218.09	0.000
218.47	-5400.000
218.84	633.333
219.22	742.857
219.59	1533.333
219.97	-557.143
220.34	920.000
220.72	-1200.000
221.09	428.571
221.47	1525.000
221.84	-900.000
222.22	0.000
222.59	1500.000
222.97	-2700.000
223.34	1140.000
223.72	469.231
224.09	1020.000
224.46	2300.000
224.84	-4200.000
225.21	-960.000
225.59	-4400.000
225.96	580.000
226.34	300.000
226.71	2800.000
227.08	487.500
227.46	570.000
227.83	-1350.000
228.21	-2350.000
228.58	511.111
228.95	-2300.000
229.33	-2500.000
229.70	1433.333
230.08	885.714
230.45	-900.000
230.82	541.667
231.20	733.333
231.57	671.429
231.95	383.333
232.32	236.364
232.69	354.545
233.07	628.571
233.44	300.000
233.81	-1133.333
234.19	347.368
234.56	466.667
234.93	333.333
235.31	436.364
235.68	315.385
236.05	314.286
236.43	203.030
236.80	263.158
237.17	4700.000
237.55	257.143
237.92	214.286
238.29	280.952
238.67	187.097
239.04	179.310
239.41	144.444
239.79	115.217
240.16	135.714
240.53	156.818
240.91	98.039
241.28	120.000
241.65	98.000
242.02	105.797
242.40	82.258
242.77	88.333
243.14	72.043
243.51	78.652
243.89	69.412
244.26	60.000
244.63	63.441
245.00	54.255
245.38	65.347
245.75	71.028
246.12	49.541
246.49	60.584
246.87	64.800
247.24	61.538
247.61	50.000
247.98	49.673
248.36	47.973
248.73	46.497
249.10	52.229
249.47	41.243
249.84	50.267
250.22	44.920
250.59	47.337
250.96	42.424
251.33	38.863
251.70	41.584
252.08	41.429
252.45	40.807
252.82	37.391
253.19	37.447
253.56	40.392
253.94	37.344
254.31	35.156
254.68	37.308
255.05	35.055
255.42	36.585
255.79	40.074
256.16	40.794
256.54	30.035
256.91	35.231
257.28	33.094
257.65	35.644
258.02	31.366
258.39	31.230
258.76	33.445
259.14	35.119
259.51	31.003
259.88	29.814
260.25	32.024
260.62	29.480
260.99	29.503
261.36	34.535
261.73	33.811
262.10	30.233
262.47	31.268
262.85	28.412
263.22	27.635
263.59	31.054
263.96	30.769
264.33	32.898
264.70	28.684
265.07	30.179
265.44	29.293
265.81	24.818
266.18	28.392
266.55	31.707
266.92	31.450
267.29	27.778
267.66	27.064
268.03	28.864
268.40	29.673
268.77	25.060
269.14	26.126
269.51	28.668
269.88	29.138
270.25	25.959
270.62	28.315
270.99	28.817
271.36	26.395
271.73	24.533
272.10	27.391
272.47	25.161
272.84	28.355
273.21	25.157
273.58	26.201
273.95	25.786
274.32	26.240
274.69	25.910
275.06	24.803
275.43	26.809
275.80	28.056
276.17	26.680
276.54	24.324
276.91	27.273
277.28	25.586
277.65	27.273
278.02	25.880
278.39	26.172
278.76	27.273
279.13	24.151
279.50	25.512
279.87	27.092
280.23	24.152
280.60	24.565
280.97	25.139
281.34	25.664
281.71	26.000
282.08	25.144
282.45	24.545
282.82	24.867
283.19	22.282
283.56	25.088
283.92	24.535
284.29	22.928
284.66	24.138
285.03	21.881
285.40	23.592
285.77	24.747
286.14	21.589
286.51	24.167
286.87	23.590
287.24	22.801
287.61	24.398
287.98	23.701
288.35	22.029
288.72	20.717
289.08	22.692
289.45	22.241
289.82	22.276
290.19	20.251
290.56	21.286
290.93	21.148
291.29	22.546
291.66	22.566
292.03	23.547
292.40	22.761
292.77	21.154
293.13	23.433
293.50	21.137
293.87	19.407
294.24	21.037
294.60	20.961
294.97	20.349
295.34	21.298
295.71	22.017
296.08	17.949
296.44	19.395
296.81	18.758
297.18	19.241
297.55	18.602
297.91	19.129
298.28	19.545
298.65	20.235
299.02	20.553
299.38	18.194
299.75	17.790
300.12	19.157
300.48	17.375
300.85	18.496
301.22	19.108
301.59	16.540
301.95	17.254
302.32	18.742
302.69	16.726
303.05	18.303
303.42	18.272
303.79	18.120
304.15	15.967
304.52	16.338
304.89	16.609
305.25	17.865
305.62	17.327
305.99	17.946
306.35	16.779
306.72	16.928
307.09	18.091
307.45	17.005
307.82	17.299
308.19	17.660
308.55	16.181
308.92	17.186
309.29	16.790
309.65	16.437
310.02	16.490
310.38	16.989
310.75	15.945
311.12	16.684
311.48	16.928
311.85	16.667
312.22	16.857
312.58	17.152
312.95	16.473
313.31	15.922
313.68	16.632
314.05	18.146
314.41	17.889
314.78	16.717
315.14	17.378
315.51	17.302
315.87	17.921
316.24	16.981
316.61	17.251
316.97	16.928
317.34	16.830
317.70	18.738
318.07	17.421
318.43	17.808
318.80	20.056
319.16	19.397
319.53	18.386
319.89	19.619
320.26	20.000
320.62	19.940
320.99	20.707
321.35	20.808
321.72	21.253
322.08	22.507
322.45	22.090
322.81	23.256
323.18	23.507
323.54	21.429
323.91	23.113
324.27	23.136
324.64	22.926
325.00	23.354
325.37	23.749
325.73	25.135
326.10	25.508
326.46	25.090
326.83	26.143
327.19	26.302
327.56	25.958
327.92	26.334
328.29	26.442
328.65	27.716
329.01	28.339
329.38	27.660
329.74	27.886
330.11	27.992
330.47	29.017
330.84	29.136
331.20	29.326
331.56	28.991
331.93	30.463
332.29	28.838
332.66	30.088
333.02	28.976
333.38	31.256
333.75	29.947
334.11	29.448
334.48	29.991
334.84	30.147
335.20	31.727
335.57	31.641
335.93	30.179
336.29	31.685
336.66	31.830
337.02	30.136
337.38	31.852
337.75	31.194
338.11	31.244
338.47	30.755
338.84	31.897
339.20	30.092
339.56	32.482
339.93	31.455
340.29	31.250
340.65	31.729
341.02	32.548
341.38	31.851
341.74	30.789
342.11	32.402
342.47	32.159
342.83	31.336
343.20	31.429
343.56	29.992
343.92	31.842
344.28	33.078
344.65	33.104
345.01	32.407
345.37	29.760
345.73	31.303
346.10	31.799
346.46	32.119
346.82	32.619
347.19	32.414
347.55	32.102
347.91	32.686
348.27	33.279
348.63	33.779
349.00	32.524
349.36	32.266
349.72	32.237
350.08	32.658
350.45	32.791
350.81	32.900
351.17	33.063
351.53	32.924
351.89	33.416
352.26	33.228
352.62	33.440
352.98	32.901
353.34	33.607
353.70	32.651
354.07	33.065
354.43	32.619
354.79	32.502
355.15	33.599
355.51	35.811
355.87	34.286
356.24	34.691
356.60	34.242
356.96	33.950
357.32	34.914
357.68	34.646
358.04	34.996
358.40	34.838
358.77	34.977
359.13	34.254
359.49	35.686
359.85	33.810
360.21	35.088
360.57	36.420
360.93	35.385
361.29	35.072
361.66	35.139
362.02	35.970
362.38	37.338
362.74	36.235
363.10	35.899
363.46	36.904
363.82	37.113
364.18	36.564
364.54	37.741
364.90	38.456
365.26	37.794
365.62	37.107
365.98	37.692
366.35	37.321
366.71	37.383
367.07	37.873
367.43	38.897
367.79	39.686
368.15	39.009
368.51	37.791
368.87	39.400
369.23	38.625
369.59	39.681
369.95	38.824
370.31	38.889
370.67	39.348
371.03	40.599
371.39	40.525
371.75	40.588
372.11	39.474
372.47	40.909
372.83	42.435
373.19	40.101
373.55	41.463
373.91	41.753
374.27	40.962
374.63	40.509
374.99	42.302
375.35	40.754
375.71	40.781
376.07	41.770
376.42	42.916
376.78	43.274
377.14	43.080
377.50	43.775
377.86	42.553
378.22	43.616
378.58	41.416
378.94	43.243
379.30	43.639
379.66	43.782
380.02	43.980
380.38	42.805
380.74	42.677
381.09	44.927
381.45	44.991
381.81	44.226
382.17	44.968
382.53	45.409
382.89	45.123
383.25	46.279
383.61	45.291
383.97	45.028
384.32	45.041
384.68	45.167
385.04	45.913
385.40	44.954
385.76	45.946
386.12	47.215
386.48	47.011
386.83	48.172
387.19	47.990
387.55	47.928
387.91	47.340
388.27	46.965
388.62	48.679
388.98	46.990
389.34	47.434
389.70	47.394
390.06	48.162
390.42	48.379
390.77	48.028
391.13	49.075
391.49	47.652
391.85	47.486
392.20	47.571
392.56	48.359
392.92	48.793
393.28	47.692
393.64	47.662
393.99	47.709
394.35	48.449
394.71	47.992
395.07	48.660
395.42	49.197
395.78	49.173
396.14	48.727
396.50	50.439
396.85	48.951
397.21	47.781
397.57	49.473
397.92	49.159
398.28	48.543
398.64	49.223
399.00	50.084
399.35	49.069
399.71	49.248
400.07	49.083
400.42	49.877
400.78	50.422
401.14	49.939
401.49	50.149
401.85	49.849
402.21	49.341
402.57	49.661
402.92	49.937
403.28	49.969
403.63	49.876
403.99	50.637
404.35	49.758
404.70	49.341
405.06	49.272
405.42	51.154
405.77	51.029
406.13	49.774
406.49	48.965
406.84	50.207
407.20	49.527
407.55	49.713
407.91	50.200
408.27	51.117
408.62	49.187
408.98	50.551
409.34	50.185
409.69	50.516
410.05	50.372
410.40	50.398
410.76	49.761
411.11	50.302
411.47	49.073
411.83	50.275
412.18	51.082
412.54	50.000
412.89	50.120
413.25	50.531
413.60	49.969
413.96	48.634
414.31	48.967
414.67	49.810
415.03	49.536
415.38	50.258
415.74	50.096
416.09	50.294
416.45	50.469
416.80	50.562
417.16	50.938
417.51	50.166
417.87	49.454
418.22	50.347
418.58	50.549
418.93	49.631
419.29	49.141
419.64	49.622
420.00	50.183
420.35	49.681
420.71	49.372
421.06	49.224
421.42	49.240
421.77	50.168
422.12	49.074
422.48	48.246
422.83	49.214
423.19	49.116
423.54	49.797
423.90	49.913
424.25	49.972
424.61	48.988
424.96	48.688
425.31	47.453
425.67	48.034
426.02	47.486
426.38	49.084
426.73	48.332
427.09	47.964
427.44	49.224
427.79	48.246
428.15	49.226
428.50	48.332
428.85	49.404
429.21	48.205
429.56	48.471
429.92	48.666
430.27	48.163
430.62	46.493
430.98	47.898
431.33	48.196
431.68	48.429
432.04	46.645
432.39	48.087
432.74	48.893
433.10	48.557
433.45	47.580
433.80	48.171
434.16	46.795
434.51	47.474
434.86	47.834
435.22	48.638
435.57	48.997
435.92	47.396
436.28	48.161
436.63	48.068
436.98	47.911
437.34	48.241
437.69	48.308
438.04	49.185
438.39	47.522
438.75	48.867
439.10	47.709
439.45	48.583
439.81	46.828
440.16	46.471
440.51	47.686
440.86	48.350
441.22	46.997
441.57	47.877
441.92	47.492
442.27	46.771
442.63	46.340
442.98	46.986
443.33	46.359
443.68	45.741
444.03	47.926
444.39	46.933
444.74	46.158
445.09	47.385
445.44	45.380
445.79	46.363
446.15	46.427
446.50	45.827
446.85	46.146
447.20	46.303
447.55	46.231
447.91	46.773
448.26	46.132
448.61	45.506
448.96	45.903
449.31	46.682
449.66	45.751
450.02	46.852
450.37	46.088
450.72	46.080
451.07	44.851
451.42	44.802
451.77	45.802
452.12	45.092
452.47	44.403
452.83	45.804
453.18	44.866
453.53	46.444
453.88	44.477
454.23	45.188
454.58	46.033
454.93	45.963
455.28	43.890
455.63	44.235
455.98	45.893
456.34	44.975
456.69	45.398
457.04	45.759
457.39	44.828
457.74	44.457
458.09	43.991
458.44	44.926
458.79	43.221
459.14	45.429
459.49	44.250
459.84	43.657
460.19	44.137
460.54	43.056
460.89	44.103
461.24	44.262
461.59	44.509
461.94	43.835
462.29	43.739
462.64	43.714
462.99	42.615
463.34	44.200
463.69	44.090
464.04	42.957
464.39	43.130
464.74	43.256
465.09	42.762
465.44	42.105
465.79	43.177
466.14	42.693
466.49	41.880
466.84	43.141
467.19	42.366
467.54	42.750
467.89	42.977
468.24	43.165
468.59	44.200
468.94	41.784
469.29	42.674
469.64	42.570
469.99	44.114
470.34	43.725
470.68	42.888
471.03	42.721
471.38	43.641
471.73	42.372
472.08	42.895
472.43	42.714
472.78	42.725
473.13	41.784
473.48	42.385
473.83	42.500
474.17	41.133
474.52	41.749
474.87	42.207
475.22	41.033
475.57	40.247
475.92	41.529
476.27	41.263
476.61	41.147
476.96	41.176
477.31	41.026
477.66	40.481
478.01	40.199
478.36	41.777
478.70	40.239
479.05	41.054
479.40	39.765
479.75	40.519
480.10	39.662
480.45	39.695
480.79	39.130
481.14	40.117
481.49	39.867
481.84	39.598
482.19	39.573
482.53	38.899
482.88	39.832
483.23	39.299
483.58	38.535
483.92	39.410
484.27	37.778
484.62	38.319
484.97	38.431
485.31	38.733
485.66	36.873
486.01	36.330
486.36	35.820
486.70	35.340
487.05	35.927
487.40	36.108
487.75	36.555
488.09	37.034
488.44	36.624
488.79	37.251
489.13	37.051
489.48	37.561
489.83	37.246
490.17	38.404
490.52	36.492
490.87	37.404
491.22	36.744
491.56	36.856
491.91	36.901
492.26	37.299
492.60	36.774
492.95	36.015
493.30	36.121
493.64	36.398
493.99	36.212
494.34	36.818
494.68	36.722
495.03	36.325
495.37	35.598
495.72	36.842
496.07	36.381
496.41	35.310
496.76	35.708
497.11	35.705
497.45	36.330
497.80	36.276
498.14	35.845
498.49	35.805
498.84	35.139
499.18	36.095
499.53	35.375
499.87	35.368
500.22	35.469
500.56	36.068
500.91	35.000
501.26	35.799
501.60	36.118
501.95	34.830
502.29	35.614
502.64	35.382
502.98	35.250
503.33	34.598
503.67	35.220
504.02	34.518
504.36	34.675
504.71	34.734
505.06	35.277
505.40	35.343
505.75	34.523
506.09	34.014
506.44	35.668
506.78	34.340
507.13	34.629
507.47	35.354
507.82	34.802
508.16	34.296
508.51	35.261
508.85	34.062
509.19	34.184
509.54	34.082
509.88	34.621
510.23	34.602
510.57	35.397
510.92	34.386
511.26	34.738
511.61	34.077
511.95	33.716
512.30	33.245
512.64	34.659
512.98	34.512
513.33	35.011
513.67	33.351
514.02	32.576
514.36	34.353
514.70	34.256
515.05	33.854
515.39	34.100
515.74	34.516
516.08	34.544
516.42	34.129
516.77	35.117
517.11	33.629
517.46	34.199
517.80	34.495
518.14	33.758
518.49	34.947
518.83	34.943
519.17	34.758
519.52	33.560
519.86	34.056
520.20	33.584
520.55	33.752
520.89	34.185
521.23	34.801
521.58	33.433
521.92	34.109
522.26	32.764
522.61	33.333
522.95	33.088
523.29	32.562
523.64	33.171
523.98	34.073
524.32	33.776
524.66	33.794
525.01	33.578
525.35	32.652
525.69	32.389
526.04	32.336
526.38	33.130
526.72	33.558
527.06	33.271
527.41	31.126
527.75	34.598
528.09	33.398
528.43	32.823
528.78	32.698
529.12	32.727
529.46	32.333
529.80	31.993
530.15	32.710
530.49	31.446
530.83	33.544
531.17	33.029
531.51	33.139
531.86	32.129
532.20	34.029
532.54	32.287
532.88	33.055
533.22	31.418
533.57	31.296
533.91	31.246
534.25	31.227
534.59	32.276
534.93	31.469
535.27	31.442
535.62	31.380
535.96	31.827
536.30	31.659
536.64	30.972
536.98	31.453
537.32	32.258
537.66	30.933
538.01	31.468
538.35	31.416
538.69	31.908
539.03	30.539
539.37	30.351
539.71	30.201
540.05	31.503
540.39	31.960
540.73	31.436
541.07	31.084
541.42	32.159
541.76	30.645
542.10	31.113
542.44	30.927
542.78	31.621
543.12	30.006
543.46	31.475
543.80	31.295
544.14	29.268
544.48	31.048
544.82	29.314
545.16	29.798
545.50	28.856
545.84	30.376
546.18	29.562
546.52	30.489
546.86	30.447
547.20	30.344
547.54	29.325
547.88	30.421
548.22	29.203
548.56	29.811
548.90	28.681
549.24	29.562
549.58	30.832
549.92	30.632
550.26	30.256
550.60	29.530
550.94	29.930
551.28	29.261
551.62	29.978
551.96	29.825
552.30	30.307
552.64	30.561
552.98	29.831
553.32	30.276
553.66	30.061
554.00	30.336
554.34	30.021
554.68	30.615
555.02	29.267
555.36	29.088
555.69	28.552
556.03	28.129
556.37	28.104
556.71	28.377
557.05	28.852
557.39	28.621
557.73	28.723
558.07	29.442
558.41	28.944
558.75	29.243
559.08	29.083
559.42	29.101
559.76	28.235
560.10	28.337
560.44	27.883
560.78	27.146
561.12	27.309
561.45	28.944
561.79	28.016
562.13	29.108
562.47	29.098
562.81	28.033
563.15	27.224
563.48	27.586
563.82	27.462
564.16	27.142
564.50	27.083
564.84	27.370
565.17	27.735
565.51	27.796
565.85	27.157
566.19	26.612
566.52	26.662
566.86	26.763
567.20	27.535
567.54	26.941
567.88	26.018
568.21	27.249
568.55	26.036
568.89	25.973
569.23	25.357
569.56	24.939
569.90	25.434
570.24	25.188
570.57	24.583
570.91	23.820
571.25	24.552
571.59	24.389
571.92	24.078
572.26	24.495
572.60	24.985
572.93	24.228
573.27	24.135
573.61	23.506
573.95	24.160
574.28	23.191
574.62	23.688
574.96	23.489
575.29	23.594
575.63	23.831
575.97	23.379
576.30	23.765
576.64	23.225
576.98	23.189
577.31	22.990
577.65	23.018
577.98	22.437
578.32	22.836
578.66	23.543
578.99	23.282
579.33	23.263
579.67	22.233
580.00	23.088
580.34	23.256
580.67	23.233
581.01	22.959
581.35	22.929
581.68	22.596
582.02	22.022
582.35	22.604
582.69	22.589
583.02	22.934
583.36	22.642
583.70	23.002
584.03	22.701
584.37	23.241
584.70	22.989
585.04	22.945
585.37	22.390
585.71	22.674
586.04	22.662
586.38	23.093
586.72	22.618
587.05	22.141
587.39	22.454
587.72	22.494
588.06	22.892
588.39	23.182
588.73	22.529
589.06	23.247
589.40	22.492
589.73	22.703
590.07	23.132
590.40	22.908
590.73	23.107
591.07	23.158
591.40	23.366
591.74	23.723
592.07	23.255
592.41	23.067
592.74	22.547
593.08	22.751
593.41	22.461
593.75	21.955
594.08	23.198
594.41	22.340
594.75	22.440
595.08	22.513
595.42	22.347
595.75	22.685
596.09	22.569
596.42	22.633
596.75	22.921
597.09	22.944
597.42	22.049
597.75	22.251
598.09	23.304
598.42	22.766
598.76	22.375
599.09	22.235
599.42	21.543
599.76	22.255
600.09	21.858
600.42	21.877
600.76	22.071
601.09	21.457
601.42	22.374
601.76	22.277
602.09	21.700
602.42	22.611
602.76	22.572
603.09	22.109
603.42	21.476
603.76	21.608
604.09	21.985
604.42	22.462
604.76	22.269
605.09	22.193
605.42	21.847
605.75	21.896
606.09	22.204
606.42	21.945
606.75	22.066
607.09	22.227
607.42	21.866
607.75	21.392
608.08	21.841
608.42	22.636
608.75	22.002
609.08	20.999
609.41	22.085
609.75	22.296
610.08	22.385
610.41	21.322
610.74	21.429
611.07	22.283
611.41	22.326
611.74	22.021
612.07	23.137
612.40	22.246
612.73	21.895
613.07	22.414
613.40	22.170
613.73	21.709
614.06	22.419
614.39	21.500
614.72	22.053
615.06	22.742
615.39	21.762
615.72	21.677
616.05	21.903
616.38	22.012
616.71	22.684
617.05	21.967
617.38	22.670
617.71	21.982
618.04	22.776
618.37	22.058
618.70	22.340
619.03	22.829
619.36	22.878
619.69	22.113
620.03	22.390
620.36	22.193
620.69	23.151
621.02	22.861
621.35	21.848
621.68	22.118
622.01	23.839
622.34	22.466
622.67	23.954
623.00	22.084
623.33	22.731
623.66	23.302
623.99	24.153
624.32	22.825
624.65	22.105
624.99	22.167
625.32	21.868
625.65	22.840
625.98	23.213
626.31	22.706
626.64	22.694
626.97	24.522
627.30	23.026
627.63	23.380
627.96	23.381
628.29	23.710
628.62	24.154
628.95	24.623
629.28	22.445
629.61	24.290
629.94	24.381
630.26	24.595
630.59	23.642
630.92	22.893
631.25	23.791
631.58	23.123
631.91	23.732
632.24	23.207
632.57	23.610
632.90	23.355
633.23	24.273
633.56	24.520
633.89	25.481
634.22	25.426
634.55	25.207
634.88	23.952
635.20	24.731
635.53	23.855
635.86	24.752
636.19	23.882
636.52	24.106
636.85	24.628
637.18	22.465
637.51	26.005
637.83	23.551
638.16	24.936
638.49	24.307
638.82	25.411
639.15	25.000
639.48	25.062
639.81	27.078
640.13	26.042
640.46	24.027
640.79	25.099
641.12	22.146
641.45	25.559
641.77	25.184
642.10	27.485
642.43	25.676
642.76	25.542
643.09	27.454
643.41	23.369
643.74	26.235
644.07	25.915
644.40	26.687
644.73	28.976
645.05	27.100
645.38	26.540
645.71	26.731
646.04	25.581
646.36	27.546
646.69	27.592
647.02	25.170
647.35	27.663
647.67	26.549
648.00	26.992
648.33	28.053
648.66	27.121
648.98	25.337
649.31	24.215
649.64	26.158
649.96	24.739
650.29	26.540
650.62	25.728
650.94	26.580
651.27	27.365
651.60	28.619
651.92	26.997
652.25	26.710
652.58	27.259
652.90	27.488
653.23	24.345
653.56	22.835
653.88	26.307
654.21	25.908
654.54	24.092
654.86	23.520
655.19	23.514
655.52	16.079
655.84	14.520
656.17	19.020
656.49	25.982
656.82	26.965
657.15	20.963
657.47	15.648
657.80	12.028
658.13	12.729
658.45	19.092
658.78	18.823
659.10	19.662
659.43	20.286
659.75	20.992
660.08	22.405
660.41	23.184
660.73	25.540
661.06	24.522
661.38	27.273
661.71	25.385
662.03	28.600
662.36	23.062
662.68	26.908
663.01	26.667
663.33	26.115
663.66	30.462
663.98	27.862
664.31	26.471
664.63	25.709
664.96	25.151
665.28	26.230
665.61	26.316
665.93	27.565
666.26	26.166
666.58	27.406
666.91	29.598
667.23	32.360
667.56	26.566
667.88	27.778
668.21	27.079
668.53	27.549
668.86	26.840
669.18	30.277
669.50	28.913
669.83	26.580
670.15	30.889
670.48	25.708
670.80	27.802
671.13	27.176
671.45	26.596
671.77	27.495
672.10	26.063
672.42	25.088
672.75	25.207
673.07	25.528
673.39	24.774
673.72	24.609
674.04	27.255
674.37	26.408
674.69	28.016
675.01	24.895
675.34	28.131
675.66	29.263
675.98	28.106
676.31	27.941
676.63	28.450
676.95	28.931
677.28	26.402
677.60	27.912
677.92	29.536
678.25	27.310
678.57	26.494
678.89	25.651
679.22	25.344
679.54	26.718
679.86	28.073
680.18	25.224
680.51	25.177
680.83	25.623
681.15	25.472
681.48	25.709
681.80	26.692
682.12	23.946
682.44	24.178
682.77	26.477
683.09	29.614
683.41	24.612
683.73	28.918
684.06	27.066
684.38	22.896
684.70	25.775
685.02	26.642
685.34	23.810
685.67	22.727
685.99	25.430
686.31	23.549
686.63	24.205
686.96	23.929
687.28	24.188
687.60	23.370
687.92	24.132
688.24	26.426
688.56	25.703
688.89	26.971
689.21	28.821
689.53	26.514
689.85	26.608
690.17	22.360
690.49	27.813
690.82	27.570
691.14	25.223
691.46	25.738
691.78	25.904
692.10	26.446
692.42	26.547
692.74	26.349
693.06	26.383
693.39	27.721
693.71	29.476
694.03	26.947
694.35	25.108
694.67	28.375
694.99	29.268
695.31	27.206
695.63	25.837
695.95	28.851
696.27	25.888
696.59	29.534
696.91	29.793
697.23	23.239
697.56	27.079
697.88	23.926
698.20	25.417
698.52	27.742
698.84	28.508
699.16	25.806
699.48	28.741
699.80	26.570
700.12	32.727
700.44	28.912
700.76	28.177
701.08	30.747
701.40	30.447
701.72	31.778
702.04	31.534
702.36	27.195
702.68	28.612
703.00	29.640
703.32	27.660
703.64	27.882
703.96	30.919
704.28	28.779
704.60	33.138
704.91	31.454
705.23	34.311
705.55	33.223
705.87	35.880
706.19	31.095
706.51	30.530
706.83	30.606
707.15	32.213
707.47	29.293
707.79	31.695
708.11	26.941
708.43	26.905
708.74	27.551
709.06	31.688
709.38	27.822
709.70	32.267
710.02	33.828
710.34	27.576
710.66	30.746
710.98	32.102
711.29	32.849
711.61	31.563
711.93	28.526
712.25	33.119
712.57	29.412
712.89	30.450
713.20	28.875
713.52	33.224
713.84	29.114
714.16	30.793
714.48	29.885
714.80	34.347
715.11	29.971
715.43	27.003
715.75	28.116
716.07	28.115
716.39	29.781
716.70	29.568
717.02	33.453
717.34	33.216
717.66	33.955
717.97	35.060
718.29	33.333
718.61	33.942
718.93	33.824
719.24	32.180
719.56	32.542
719.88	30.169
720.20	35.473
720.51	29.617
720.83	32.342
721.15	30.970
721.46	32.270
721.78	32.258
722.10	35.472
722.42	34.211
722.73	32.210
723.05	32.787
723.37	29.960
723.68	35.135
724.00	34.959
724.32	38.710
724.63	35.772
724.95	33.473
725.27	34.413
725.58	32.031
725.90	36.861
726.22	33.962
726.53	31.944
726.85	35.495
727.16	32.384
727.48	29.787
727.80	32.576
728.11	30.797
728.43	33.846
728.74	31.900
729.06	30.292
729.38	31.618
729.69	34.520
730.01	29.352
730.32	31.944
730.64	30.769
730.96	28.713
731.27	34.437
731.59	29.052
731.90	32.653
732.22	32.298
732.53	28.793
732.85	32.372
733.16	33.119
733.48	32.558
733.80	31.169
734.11	30.892
734.43	30.769
734.74	27.143
735.06	27.794
735.37	32.370
735.69	27.389
736.00	31.046
736.32	34.268
736.63	30.990
736.95	30.032
737.26	28.571
737.58	28.065
737.89	30.769
738.21	31.741
738.52	35.000
738.83	29.434
739.15	32.308
739.46	29.562
739.78	29.861
740.09	29.538
740.41	30.968
740.72	34.843
741.04	38.148
741.35	28.333
741.66	40.889
741.98	32.075
742.29	36.364
742.61	39.655
742.92	34.389
743.23	30.769
743.55	36.400
743.86	36.842
744.18	41.593
744.49	39.713
744.80	39.437
745.12	39.545
745.43	40.969
745.74	39.189
746.06	35.321
746.37	39.910
746.68	34.842
747.00	41.667
747.31	39.524
747.62	30.088
747.94	37.445
748.25	32.340
748.56	39.207
748.88	35.149
749.19	47.000
749.50	38.140
749.82	28.862
750.13	25.714
750.44	31.022
750.75	30.877
751.07	35.370
751.38	33.101
751.69	31.769
752.01	31.579
752.32	29.242
752.63	33.688
752.94	30.738
753.26	41.200
753.57	34.146
753.88	35.547
754.19	30.357
754.51	35.764
754.82	29.603
755.13	30.943
755.44	32.707
755.75	32.117
756.07	29.787
756.38	30.657
756.69	33.557
757.00	29.940
757.31	27.596
757.63	30.117
757.94	25.469
758.25	26.716
758.56	25.432
758.87	25.538
759.18	29.697
759.50	28.527
759.81	27.414
760.12	25.625
760.43	29.799
760.74	25.815
761.05	30.791
761.36	27.540
761.67	25.284
761.99	28.261
762.30	28.472
762.61	34.351
762.92	36.719
763.23	30.672
763.54	34.800
763.85	35.547
764.16	36.923
764.47	30.798
764.78	25.795
765.10	26.266
765.41	28.614
765.72	31.138
766.03	30.408
766.34	28.333
766.65	33.617
766.96	32.051
767.27	33.503
767.58	39.583
767.89	36.842
768.20	39.655
768.51	36.548
768.82	37.615
769.13	32.114
769.44	34.008
769.75	32.189
770.06	32.110
770.37	39.819
770.68	35.185
770.99	34.222
771.30	34.836
771.61	38.565
771.92	34.426
772.23	37.815
772.54	33.333
772.85	36.649
773.16	42.553
773.47	42.935
773.78	41.624
774.09	41.667
774.39	47.368
774.70	44.444
775.01	43.478
775.32	49.673
775.63	50.000
775.94	40.288
776.25	55.118
776.56	60.448
776.87	50.000
777.18	52.344
777.48	61.069
777.79	54.545
778.10	45.926
778.41	52.679
778.72	42.336
779.03	51.678
779.34	45.638
779.65	44.595
779.95	42.331
780.26	47.712
780.57	46.207
780.88	56.250
781.19	46.617
781.50	47.297
781.80	45.912
782.11	42.373
782.42	39.873
782.73	41.104
783.04	47.297
783.34	50.000
783.65	54.795
783.96	53.731
784.27	44.056
784.57	46.763
784.88	41.667
785.19	49.206
785.50	50.000
785.81	56.716
786.11	62.295
786.42	48.062
786.73	52.212
787.04	61.321
787.34	47.321
787.65	60.000
787.96	60.360
788.26	53.719
788.57	63.559
788.88	57.851
789.19	52.778
789.49	56.818
789.80	46.565
790.11	64.762
790.41	60.396
790.72	60.241
791.03	69.565
791.33	74.419
791.64	70.103
791.95	66.337
792.25	76.667
792.56	77.922
792.87	80.769
793.17	83.544
793.48	78.161
793.79	68.966
794.09	60.227
794.40	51.261
794.70	53.676
795.01	54.074
795.32	51.799
795.62	53.543
795.93	60.345
796.23	52.212
796.54	58.824
796.85	79.730
797.15	81.690
797.46	89.394
797.76	81.928
798.07	91.139
798.37	95.385
798.68	80.303
798.99	60.563
799.29	89.610
799.60	69.318
799.90	79.452
800.21	91.045
800.51	86.207
800.82	103.509
801.12	106.557
801.43	89.394
801.73	72.973
802.04	111.111
802.34	81.481
802.65	95.312
802.95	103.390
803.26	89.063
803.56	65.714
803.87	81.538
804.17	91.176
804.48	109.259
804.78	96.552
805.09	75.000
805.39	96.154
805.70	107.143
806.00	98.361
806.30	96.970
806.61	80.488
806.91	78.481
807.22	73.684
807.52	74.627
807.83	80.282
808.13	95.312
808.43	93.333
808.74	78.947
809.04	82.609
809.35	73.134
809.65	61.842
809.95	111.290
810.26	91.525
810.56	84.127
810.86	127.273
811.17	130.952
811.47	96.667
811.77	118.519
812.08	107.273
812.38	106.000
812.69	136.111
812.99	145.455
813.29	120.408
813.59	100.000
813.90	122.449
814.20	90.909
814.50	86.154
814.81	100.000
815.11	126.531
815.41	109.836
815.72	119.048
816.02	110.909
816.32	123.810
816.62	132.500
816.93	131.707
817.23	150.000
817.53	138.636
817.84	130.303
818.14	134.783
818.44	120.000
818.74	147.059
819.04	140.000
819.35	128.571
819.65	188.235
819.95	167.857
820.25	205.000
820.56	169.231
820.86	129.545
821.16	132.558
821.46	110.256
821.76	112.000
822.07	154.286
822.37	132.500
822.67	160.606
822.97	103.922
823.27	182.143
823.57	154.054
823.88	147.500
824.18	210.000
824.48	152.381
824.78	188.000
825.08	200.000
825.38	143.243
825.69	136.585
825.99	212.500
826.29	182.759
826.59	134.211
826.89	171.053
827.19	147.059
827.49	164.516
827.79	129.545
828.09	129.545
828.39	114.894
828.70	122.449
829.00	155.556
829.30	141.935
829.60	135.000
829.90	273.333
830.20	185.714
830.50	165.217
830.80	182.609
831.10	150.000
831.40	160.000
831.70	186.957
832.00	234.615
832.30	229.630
832.60	256.250
832.90	203.333
833.20	392.857
833.50	206.452
833.80	206.897
834.10	196.875
834.40	226.923
834.70	272.222
835.00	323.810
835.30	134.286
835.60	300.000
835.90	182.759
836.20	300.000
836.50	206.897
836.80	220.000
837.10	163.889
837.40	219.048
837.70	282.353
838.00	196.296
838.30	228.571
838.60	257.143
838.90	215.385
839.19	245.000
839.49	400.000
839.79	320.000
840.09	260.000
840.39	285.714
840.69	204.348
840.99	300.000
841.29	480.000
841.59	416.667
841.88	287.500
842.18	182.759
842.48	242.857
842.78	203.333
843.08	221.739
843.38	193.750
843.68	800.000
843.97	246.154
844.27	210.345
844.57	271.429
844.87	343.750
845.17	211.111
845.47	1533.333
845.76	444.444
846.06	323.529
846.36	512.500
846.66	371.429
846.96	262.500
847.25	454.545
847.55	363.636
847.85	239.130
848.15	430.000
848.44	328.571
848.74	216.667
849.04	235.294
849.34	570.000
849.63	226.316
849.93	445.455
850.23	980.000
850.53	392.857
850.82	1700.000
851.12	-4400.000
851.42	4100.000
851.71	280.000
852.01	-1366.667
852.31	183.333
852.61	1400.000
852.90	242.857
853.20	200.000
853.50	241.176
853.79	238.095
854.09	204.167
854.39	293.750
854.68	175.676
854.98	177.419
855.28	170.000
855.57	193.103
855.87	192.593
856.17	215.789
856.46	226.667
856.76	270.588
857.05	179.310
857.35	179.167
857.65	353.333
857.94	221.739
858.24	234.615
858.53	245.000
858.83	250.000
859.13	346.667
859.42	0.000
859.72	522.222
860.01	481.818
860.31	245.455
860.60	236.842
860.90	217.391
861.20	488.889
861.49	425.000
861.79	-4700.000
862.08	662.500
862.38	276.190
862.67	353.846
862.97	358.824
863.26	400.000
863.56	311.111
863.85	400.000
864.15	587.500
864.44	393.333
864.74	783.333
865.03	712.500
865.33	315.789
865.62	409.091
865.92	423.077
866.21	333.333
866.51	0.000
866.80	445.455
867.10	1100.000
867.39	369.231
867.69	418.182
867.98	300.000
868.27	445.455
868.57	263.158
868.86	-3800.000
869.16	318.750
869.45	2000.000
869.75	-4100.000
870.04	433.333
870.33	628.571
870.63	925.000
870.92	2600.000
871.22	642.857
871.51	352.941
871.80	223.810
872.10	350.000
>>>>>End Processed Spectral Data<<<<<
