SpectraSuite Data File
++++++++++++++++++++++++++++++++++++
Date: Wed May 13 20:26:57 PDT 2015
User: schluterlab
Dark Spectrum Present: Yes
Reference Spectrum Present: Yes
Number of Sampled Component Spectra: 1
Spectrometers: USB2E3373
Integration Time (usec): 3000 (USB2E3373)
Spectra Averaged: 3 (USB2E3373)
Boxcar Smoothing: 0 (USB2E3373)
Correct for Electrical Dark: No (USB2E3373)
Strobe/Lamp Enabled: No (USB2E3373)
Correct for Detector Non-linearity: No (USB2E3373)
Correct for Stray Light: No (USB2E3373)
Number of Pixels in Processed Spectrum: 2048
>>>>>Begin Processed Spectral Data<<<<<
178.53	0.000
178.91	-1200.000
179.29	-1275.000
179.67	-244.444
180.04	-1075.000
180.42	2200.000
180.80	740.000
181.18	-850.000
181.56	657.143
181.94	0.000
182.31	-614.286
182.69	1566.667
183.07	-462.500
183.45	-477.778
183.83	454.545
184.20	-430.000
184.58	2450.000
184.96	5100.000
185.34	-840.000
185.72	-600.000
186.09	-2100.000
186.47	2350.000
186.85	1800.000
187.23	3400.000
187.61	-1166.667
187.98	1275.000
188.36	527.273
188.74	454.545
189.12	-760.000
189.49	510.000
189.87	-4100.000
190.25	-1075.000
190.63	385.714
191.00	415.385
191.38	566.667
191.76	-1125.000
192.14	1300.000
192.51	562.500
192.89	683.333
193.27	537.500
193.65	-875.000
194.02	530.000
194.40	860.000
194.78	470.000
195.15	408.333
195.53	560.000
195.91	-1400.000
196.29	337.500
196.66	305.263
197.04	-410.000
197.42	0.000
197.79	590.000
198.17	-5000.000
198.55	614.286
198.92	562.500
199.30	780.000
199.68	0.000
200.05	216.667
200.43	728.571
200.81	4000.000
201.18	1366.667
201.56	-1266.667
201.94	555.556
202.31	611.111
202.69	408.333
203.07	460.000
203.44	0.000
203.82	1050.000
204.19	714.286
204.57	435.714
204.95	600.000
205.32	1400.000
205.70	481.818
206.08	392.857
206.45	1650.000
206.83	268.750
207.20	833.333
207.58	480.000
207.96	250.000
208.33	687.500
208.71	-650.000
209.08	771.429
209.46	533.333
209.84	354.545
210.21	-1300.000
210.59	1300.000
210.96	-262.500
211.34	2600.000
211.71	480.000
212.09	600.000
212.46	0.000
212.84	1533.333
213.22	1075.000
213.59	-3500.000
213.97	833.333
214.34	771.429
214.72	527.273
215.09	940.000
215.47	-2000.000
215.84	-1800.000
216.22	1900.000
216.59	314.286
216.97	1025.000
217.34	445.455
217.72	-566.667
218.09	0.000
218.47	-4300.000
218.84	555.556
219.22	628.571
219.59	1466.667
219.97	-471.429
220.34	760.000
220.72	-1700.000
221.09	307.143
221.47	1100.000
221.84	-783.333
222.22	0.000
222.59	1275.000
222.97	-2200.000
223.34	1080.000
223.72	384.615
224.09	940.000
224.46	1850.000
224.84	-4200.000
225.21	-740.000
225.59	-3700.000
225.96	530.000
226.34	270.000
226.71	2250.000
227.08	575.000
227.46	410.000
227.83	-900.000
228.21	-1850.000
228.58	566.667
228.95	-2250.000
229.33	-2400.000
229.70	1600.000
230.08	657.143
230.45	-780.000
230.82	350.000
231.20	866.667
231.57	557.143
231.95	441.667
232.32	218.182
232.69	372.727
233.07	528.571
233.44	300.000
233.81	-1366.667
234.19	252.632
234.56	300.000
234.93	308.333
235.31	400.000
235.68	300.000
236.05	278.571
236.43	163.636
236.80	152.632
237.17	3000.000
237.55	223.810
237.92	171.429
238.29	238.095
238.67	132.258
239.04	168.966
239.41	125.000
239.79	91.304
240.16	88.095
240.53	102.273
240.91	100.000
241.28	88.000
241.65	66.000
242.02	91.304
242.40	64.516
242.77	60.000
243.14	52.688
243.51	62.921
243.89	60.000
244.26	43.333
244.63	45.161
245.00	42.553
245.38	46.535
245.75	44.860
246.12	44.954
246.49	51.095
246.87	47.200
247.24	32.308
247.61	35.000
247.98	32.680
248.36	22.297
248.73	28.662
249.10	34.395
249.47	25.989
249.84	28.342
250.22	26.203
250.59	21.893
250.96	20.202
251.33	28.436
251.70	30.198
252.08	27.619
252.45	22.870
252.82	20.435
253.19	20.851
253.56	25.490
253.94	20.332
254.31	19.141
254.68	19.615
255.05	19.557
255.42	21.545
255.79	18.750
256.16	25.271
256.54	20.141
256.91	21.352
257.28	14.388
257.65	19.802
258.02	18.012
258.39	17.035
258.76	18.729
259.14	15.179
259.51	16.109
259.88	14.907
260.25	18.127
260.62	17.052
260.99	17.391
261.36	18.619
261.73	16.046
262.10	15.698
262.47	15.493
262.85	11.978
263.22	15.670
263.59	16.524
263.96	15.659
264.33	15.144
264.70	14.474
265.07	15.857
265.44	15.404
265.81	12.165
266.18	15.578
266.55	13.415
266.92	14.496
267.29	16.898
267.66	15.596
268.03	13.182
268.40	14.019
268.77	14.797
269.14	14.189
269.51	13.770
269.88	13.520
270.25	13.770
270.62	13.483
270.99	14.839
271.36	16.094
271.73	13.318
272.10	13.696
272.47	15.054
272.84	14.935
273.21	13.836
273.58	10.699
273.95	12.998
274.32	10.950
274.69	13.062
275.06	12.795
275.43	12.766
275.80	14.830
276.17	11.405
276.54	13.306
276.91	12.253
277.28	11.523
277.65	14.313
278.02	10.766
278.39	12.695
278.76	10.545
279.13	13.019
279.50	12.849
279.87	10.558
280.23	9.780
280.60	11.992
280.97	10.906
281.34	11.681
281.71	12.727
282.08	12.860
282.45	9.273
282.82	12.256
283.19	9.804
283.56	12.105
283.92	12.014
284.29	11.287
284.66	10.708
285.03	10.488
285.40	11.444
285.77	11.448
286.14	10.017
286.51	12.333
286.87	12.991
287.24	10.586
287.61	11.396
287.98	11.526
288.35	10.618
288.72	11.059
289.08	10.485
289.45	10.708
289.82	9.268
290.19	10.204
290.56	10.413
290.93	8.157
291.29	10.276
291.66	9.882
292.03	12.791
292.40	10.426
292.77	10.059
293.13	9.254
293.50	9.621
293.87	9.185
294.24	9.333
294.60	8.297
294.97	11.773
295.34	9.732
295.71	9.233
296.08	8.689
296.44	8.803
296.81	9.247
297.18	10.434
297.55	6.728
297.91	9.499
298.28	9.906
298.65	9.138
299.02	8.169
299.38	8.632
299.75	6.873
300.12	8.429
300.48	9.375
300.85	8.631
301.22	8.280
301.59	7.955
301.95	8.438
302.32	8.087
302.69	8.483
303.05	9.697
303.42	8.765
303.79	6.908
304.15	8.042
304.52	7.648
304.89	7.898
305.25	7.773
305.62	8.720
305.99	8.501
306.35	7.830
306.72	8.744
307.09	8.990
307.45	8.333
307.82	7.589
308.19	8.278
308.55	8.306
308.92	7.841
309.29	8.553
309.65	7.105
310.02	6.448
310.38	8.065
310.75	8.448
311.12	7.062
311.48	8.464
311.85	8.805
312.22	8.117
312.58	8.108
312.95	7.181
313.31	8.350
313.68	8.732
314.05	9.961
314.41	8.241
314.78	7.251
315.14	8.540
315.51	7.621
315.87	7.129
316.24	6.653
316.61	7.992
316.97	7.143
317.34	7.436
317.70	9.369
318.07	8.181
318.43	8.219
318.80	7.685
319.16	8.098
319.53	7.129
319.89	8.381
320.26	9.300
320.62	8.333
320.99	8.384
321.35	9.697
321.72	8.830
322.08	8.885
322.45	9.254
322.81	9.399
323.18	8.767
323.54	8.534
323.91	8.962
324.27	7.457
324.64	6.803
325.00	7.124
325.37	8.371
325.73	7.989
326.10	6.708
326.46	7.527
326.83	8.714
327.19	8.625
327.56	7.491
327.92	8.749
328.29	8.518
328.65	8.011
329.01	8.394
329.38	7.956
329.74	7.018
330.11	7.634
330.47	8.632
330.84	10.018
331.20	8.288
331.56	9.083
331.93	7.593
332.29	8.962
332.66	9.292
333.02	8.135
333.38	8.582
333.75	9.091
334.11	7.651
334.48	8.252
334.84	8.732
335.20	8.182
335.57	8.069
335.93	7.857
336.29	7.234
336.66	8.025
337.02	7.511
337.38	8.333
337.75	7.308
338.11	7.968
338.47	7.735
338.84	9.258
339.20	6.697
339.56	8.303
339.93	7.091
340.29	7.246
340.65	9.091
341.02	7.766
341.38	8.096
341.74	7.544
342.11	8.297
342.47	7.577
342.83	7.962
343.20	8.312
343.56	8.509
343.92	7.456
344.28	7.568
344.65	7.653
345.01	7.912
345.37	6.690
345.73	7.953
346.10	7.928
346.46	7.542
346.82	7.661
347.19	7.185
347.55	6.568
347.91	7.929
348.27	8.053
348.63	7.441
349.00	7.524
349.36	7.389
349.72	7.779
350.08	7.618
350.45	7.730
350.81	7.392
351.17	8.104
351.53	8.026
351.89	7.591
352.26	8.919
352.62	7.538
352.98	7.861
353.34	7.067
353.70	6.137
354.07	7.823
354.43	6.905
354.79	7.160
355.15	7.662
355.51	7.674
355.87	7.102
356.24	7.166
356.60	6.816
356.96	7.241
357.32	6.787
357.68	7.953
358.04	7.205
358.40	8.155
358.77	7.668
359.13	7.182
359.49	7.608
359.85	5.000
360.21	6.858
360.57	8.249
360.93	6.769
361.29	7.634
361.66	6.734
362.02	7.164
362.38	6.464
362.74	7.738
363.10	6.588
363.46	6.456
363.82	6.349
364.18	7.195
364.54	7.801
364.90	6.445
365.26	6.985
365.62	6.647
365.98	6.209
366.35	6.447
366.71	7.448
367.07	5.899
367.43	6.313
367.79	7.138
368.15	7.471
368.51	6.977
368.87	7.066
369.23	6.876
369.59	7.241
369.95	6.029
370.31	7.479
370.67	6.232
371.03	7.191
371.39	7.653
371.75	5.882
372.11	6.188
372.47	6.965
372.83	6.340
373.19	5.708
373.55	6.578
373.91	6.996
374.27	6.735
374.63	6.109
374.99	7.203
375.35	6.490
375.71	5.620
376.07	7.476
376.42	6.259
376.78	6.561
377.14	6.106
377.50	6.623
377.86	5.120
378.22	6.131
378.58	6.454
378.94	5.720
379.30	5.534
379.66	6.345
380.02	6.204
380.38	5.647
380.74	6.002
381.09	6.663
381.45	6.269
381.81	6.388
382.17	6.115
382.53	5.094
382.89	6.852
383.25	5.503
383.61	6.382
383.97	6.316
384.32	6.613
384.68	5.576
385.04	6.146
385.40	6.006
385.76	5.897
386.12	5.829
386.48	6.608
386.83	5.837
387.19	6.617
387.55	5.442
387.91	5.865
388.27	5.763
388.62	6.085
388.98	5.405
389.34	6.508
389.70	5.641
390.06	6.401
390.42	5.707
390.77	6.043
391.13	6.254
391.49	6.218
391.85	5.665
392.20	5.678
392.56	6.313
392.92	5.650
393.28	4.734
393.64	5.516
393.99	5.925
394.35	5.769
394.71	5.709
395.07	6.168
395.42	5.253
395.78	5.280
396.14	5.773
396.50	6.830
396.85	6.039
397.21	6.227
397.57	5.642
397.92	5.649
398.28	4.989
398.64	5.496
399.00	5.428
399.35	5.979
399.71	5.787
400.07	6.387
400.42	5.644
400.78	5.790
401.14	5.366
401.49	5.970
401.85	5.687
402.21	5.868
402.57	5.614
402.92	5.990
403.28	6.371
403.63	5.260
403.99	5.223
404.35	5.818
404.70	4.976
405.06	4.718
405.42	5.365
405.77	4.971
406.13	4.910
406.49	5.618
406.84	5.789
407.20	4.728
407.55	6.063
407.91	5.000
408.27	4.403
408.62	5.659
408.98	4.902
409.34	5.351
409.69	4.903
410.05	5.452
410.40	5.260
410.76	5.317
411.11	5.971
411.47	5.304
411.83	5.437
412.18	4.947
412.54	5.604
412.89	5.783
413.25	5.254
413.60	5.868
413.96	5.282
414.31	4.921
414.67	6.401
415.03	5.828
415.38	6.057
415.74	5.595
416.09	5.356
416.45	5.689
416.80	5.948
417.16	6.300
417.51	6.238
417.87	4.945
418.22	5.426
418.58	5.875
418.93	5.590
419.29	5.856
419.64	5.856
420.00	5.244
420.35	5.449
420.71	5.918
421.06	5.191
421.42	6.433
421.77	5.830
422.12	4.548
422.48	4.479
422.83	5.300
423.19	5.856
423.54	5.281
423.90	5.449
424.25	5.416
424.61	5.179
424.96	5.248
425.31	5.371
425.67	4.944
426.02	5.200
426.38	4.762
426.73	4.564
427.09	4.802
427.44	5.405
427.79	4.830
428.15	5.476
428.50	5.559
428.85	5.840
429.21	5.135
429.56	4.873
429.92	5.133
430.27	4.270
430.62	4.864
430.98	4.826
431.33	4.948
431.68	5.131
432.04	5.538
432.39	4.340
432.74	5.027
433.10	4.810
433.45	5.481
433.80	4.823
434.16	5.235
434.51	5.158
434.86	5.644
435.22	5.003
435.57	5.653
435.92	5.383
436.28	5.872
436.63	5.519
436.98	4.808
437.34	5.844
437.69	5.309
438.04	5.396
438.39	5.015
438.75	5.752
439.10	5.028
439.45	5.431
439.81	4.894
440.16	5.364
440.51	5.097
440.86	6.196
441.22	4.894
441.57	5.786
441.92	5.374
442.27	5.113
442.63	5.055
442.98	5.465
443.33	5.598
443.68	4.853
444.03	4.929
444.39	4.430
444.74	4.870
445.09	5.499
445.44	5.413
445.79	5.591
446.15	5.453
446.50	4.847
446.85	4.933
447.20	4.539
447.55	5.360
447.91	4.578
448.26	4.897
448.61	4.805
448.96	5.648
449.31	5.174
449.66	5.065
450.02	4.011
450.37	4.365
450.72	4.851
451.07	5.363
451.42	5.289
451.77	5.696
452.12	5.600
452.47	5.908
452.83	4.604
453.18	5.440
453.53	5.504
453.88	5.080
454.23	5.380
454.58	5.936
454.93	5.277
455.28	4.676
455.63	5.158
455.98	5.833
456.34	5.779
456.69	5.322
457.04	5.325
457.39	5.143
457.74	5.107
458.09	5.060
458.44	5.074
458.79	4.501
459.14	5.079
459.49	4.845
459.84	5.928
460.19	4.773
460.54	5.440
460.89	4.443
461.24	5.100
461.59	6.624
461.94	4.747
462.29	5.163
462.64	5.297
462.99	4.619
463.34	6.133
463.69	5.816
464.04	4.986
464.39	5.971
464.74	5.348
465.09	4.825
465.44	4.765
465.79	4.027
466.14	4.981
466.49	5.061
466.84	5.371
467.19	5.854
467.54	6.000
467.89	5.162
468.24	5.701
468.59	5.372
468.94	5.620
469.29	5.013
469.64	6.359
469.99	6.089
470.34	5.218
470.68	5.532
471.03	5.714
471.38	5.698
471.73	5.530
472.08	5.724
472.43	5.528
472.78	6.122
473.13	5.584
473.48	5.743
473.83	5.000
474.17	5.289
474.52	5.583
474.87	5.838
475.22	5.398
475.57	5.373
475.92	5.098
476.27	5.975
476.61	4.688
476.96	5.278
477.31	4.762
477.66	4.978
478.01	5.332
478.36	5.394
478.70	4.465
479.05	4.899
479.40	5.067
479.75	4.931
480.10	4.423
480.45	4.807
480.79	5.017
481.14	4.746
481.49	4.983
481.84	4.664
482.19	4.453
482.53	4.541
482.88	4.933
483.23	4.860
483.58	5.323
483.92	4.171
484.27	4.227
484.62	4.569
484.97	4.060
485.31	4.726
485.66	3.638
486.01	3.298
486.36	3.142
486.70	3.477
487.05	3.631
487.40	3.703
487.75	3.724
488.09	3.973
488.44	3.736
488.79	4.051
489.13	4.431
489.48	4.445
489.83	4.230
490.17	4.779
490.52	4.429
490.87	4.613
491.22	4.548
491.56	4.191
491.91	4.328
492.26	4.180
492.60	4.654
492.95	4.022
493.30	4.299
493.64	4.106
493.99	4.132
494.34	4.625
494.68	4.762
495.03	5.122
495.37	4.560
495.72	4.386
496.07	5.151
496.41	4.115
496.76	4.398
497.11	4.683
497.45	4.145
497.80	4.894
498.14	4.638
498.49	4.146
498.84	4.554
499.18	4.429
499.53	4.463
499.87	4.473
500.22	4.899
500.56	4.612
500.91	4.423
501.26	4.647
501.60	5.173
501.95	4.583
502.29	4.827
502.64	4.749
502.98	4.722
503.33	4.570
503.67	4.362
504.02	4.350
504.36	4.773
504.71	4.690
505.06	5.012
505.40	4.521
505.75	4.677
506.09	4.810
506.44	4.637
506.78	4.530
507.13	4.745
507.47	5.000
507.82	4.357
508.16	4.813
508.51	4.871
508.85	4.916
509.19	4.847
509.54	4.541
509.88	4.791
510.23	4.781
510.57	6.295
510.92	4.247
511.26	5.396
511.61	5.602
511.95	4.802
512.30	4.719
512.64	5.266
512.98	5.305
513.33	5.675
513.67	4.909
514.02	4.491
514.36	5.134
514.70	4.981
515.05	4.183
515.39	4.823
515.74	5.349
516.08	5.534
516.42	5.438
516.77	5.630
517.11	4.495
517.46	5.700
517.80	5.110
518.14	4.690
518.49	5.076
518.83	5.398
519.17	5.543
519.52	5.093
519.86	5.305
520.20	6.243
520.55	5.566
520.89	5.109
521.23	5.066
521.58	5.582
521.92	5.389
522.26	4.515
522.61	5.234
522.95	5.648
523.29	5.052
523.64	5.366
523.98	5.545
524.32	5.247
524.66	6.073
525.01	5.944
525.35	5.143
525.69	5.111
526.04	5.296
526.38	5.613
526.72	5.521
527.06	5.085
527.41	4.950
527.75	5.145
528.09	5.202
528.43	5.290
528.78	5.532
529.12	5.333
529.46	5.818
529.80	5.693
530.15	5.794
530.49	5.538
530.83	6.013
531.17	5.614
531.51	6.550
531.86	5.097
532.20	6.258
532.54	6.022
532.88	5.135
533.22	5.497
533.57	5.926
533.91	5.418
534.25	5.468
534.59	5.857
534.93	5.770
535.27	5.250
535.62	6.105
535.96	5.336
536.30	4.577
536.64	6.117
536.98	5.309
537.32	5.332
537.66	5.667
538.01	5.398
538.35	5.818
538.69	6.445
539.03	5.653
539.37	4.984
539.71	4.666
540.05	5.621
540.39	5.714
540.73	5.563
541.07	6.424
541.42	6.001
541.76	6.065
542.10	5.239
542.44	5.298
542.78	6.588
543.12	5.246
543.46	5.574
543.80	5.660
544.14	4.878
544.48	5.651
544.82	5.131
545.16	4.945
545.50	4.627
545.84	5.444
546.18	5.724
546.52	5.643
546.86	5.704
547.20	5.327
547.54	5.878
547.88	6.250
548.22	5.915
548.56	5.912
548.90	5.698
549.24	4.848
549.58	5.321
549.92	5.975
550.26	5.469
550.60	5.809
550.94	6.197
551.28	4.974
551.62	5.536
551.96	5.684
552.30	6.007
552.64	5.477
552.98	5.695
553.32	5.799
553.66	6.612
554.00	6.589
554.34	5.314
554.68	6.509
555.02	5.571
555.36	5.219
555.69	5.683
556.03	5.922
556.37	5.116
556.71	5.048
557.05	5.602
557.39	6.648
557.73	5.646
558.07	5.584
558.41	5.861
558.75	6.098
559.08	6.339
559.42	5.896
559.76	6.250
560.10	6.210
560.44	5.590
560.78	5.323
561.12	5.475
561.45	5.932
561.79	5.867
562.13	5.634
562.47	5.123
562.81	5.579
563.15	5.686
563.48	6.300
563.82	5.675
564.16	4.382
564.50	5.078
564.84	5.815
565.17	4.955
565.51	5.048
565.85	5.584
566.19	4.571
566.52	5.510
566.86	4.822
567.20	5.660
567.54	5.080
567.88	4.671
568.21	5.873
568.55	4.499
568.89	4.815
569.23	4.902
569.56	4.615
569.90	4.302
570.24	4.342
570.57	4.148
570.91	4.137
571.25	4.200
571.59	4.330
571.92	4.119
572.26	4.102
572.60	4.174
572.93	3.808
573.27	4.348
573.61	3.797
573.95	3.979
574.28	3.618
574.62	3.717
574.96	3.823
575.29	3.831
575.63	4.090
575.97	4.035
576.30	4.328
576.64	3.487
576.98	3.768
577.31	3.789
577.65	3.757
577.98	3.498
578.32	3.574
578.66	3.627
578.99	3.812
579.33	3.801
579.67	3.770
580.00	3.692
580.34	3.797
580.67	3.734
581.01	4.025
581.35	3.743
581.68	3.645
582.02	3.446
582.35	3.526
582.69	3.544
583.02	3.599
583.36	4.127
583.70	3.721
584.03	4.049
584.37	4.163
584.70	3.866
585.04	3.792
585.37	4.077
585.71	3.971
586.04	4.035
586.38	3.892
586.72	4.308
587.05	4.075
587.39	3.931
587.72	3.659
588.06	3.842
588.39	4.170
588.73	4.195
589.06	4.145
589.40	3.838
589.73	4.048
590.07	4.306
590.40	4.275
590.73	4.411
591.07	4.965
591.40	5.103
591.74	4.978
592.07	4.581
592.41	4.961
592.74	4.419
593.08	4.797
593.41	4.176
593.75	3.779
594.08	4.559
594.41	4.595
594.75	4.621
595.08	4.331
595.42	4.483
595.75	4.452
596.09	4.581
596.42	5.265
596.75	4.517
597.09	5.541
597.42	4.469
597.75	4.398
598.09	5.087
598.42	4.854
598.76	4.135
599.09	4.295
599.42	4.876
599.76	4.575
600.09	4.444
600.42	4.273
600.76	4.286
601.09	4.408
601.42	4.718
601.76	4.896
602.09	4.190
602.42	4.817
602.76	4.716
603.09	4.603
603.42	4.608
603.76	4.421
604.09	4.498
604.42	4.770
604.76	5.146
605.09	4.806
605.42	4.660
605.75	4.843
606.09	4.148
606.42	4.454
606.75	4.853
607.09	4.939
607.42	4.621
607.75	4.219
608.08	4.863
608.42	4.572
608.75	5.140
609.08	4.857
609.41	5.093
609.75	5.050
610.08	5.467
610.41	4.749
610.74	5.014
611.07	4.941
611.41	5.152
611.74	5.329
612.07	4.814
612.40	5.037
612.73	4.789
613.07	5.280
613.40	5.529
613.73	4.510
614.06	5.591
614.39	5.454
614.72	5.579
615.06	4.884
615.39	5.042
615.72	4.959
616.05	5.423
616.38	5.225
616.71	4.810
617.05	6.007
617.38	5.652
617.71	5.045
618.04	5.469
618.37	6.091
618.70	5.227
619.03	5.855
619.36	5.635
619.69	5.563
620.03	6.387
620.36	6.751
620.69	6.575
621.02	6.785
621.35	5.873
621.68	6.308
622.01	5.728
622.34	6.278
622.67	6.540
623.00	5.796
623.33	6.648
623.66	5.504
623.99	5.744
624.32	5.563
624.65	6.215
624.99	5.666
625.32	5.214
625.65	5.034
625.98	5.611
626.31	6.687
626.64	6.531
626.97	6.733
627.30	6.234
627.63	7.547
627.96	6.308
628.29	6.912
628.62	7.594
628.95	7.925
629.28	6.843
629.61	7.608
629.94	8.095
630.26	6.482
630.59	6.292
630.92	7.471
631.25	7.206
631.58	7.407
631.91	6.288
632.24	7.068
632.57	7.555
632.90	7.566
633.23	8.389
633.56	8.475
633.89	7.588
634.22	8.400
634.55	8.639
634.88	7.305
635.20	9.200
635.53	9.036
635.86	7.921
636.19	8.000
636.52	8.189
636.85	7.102
637.18	7.488
637.51	8.983
637.83	6.905
638.16	7.289
638.49	8.312
638.82	10.114
639.15	8.375
639.48	9.227
639.81	8.713
640.13	9.635
640.46	9.128
640.79	9.247
641.12	7.428
641.45	9.358
641.77	9.573
642.10	9.064
642.43	7.508
642.76	8.359
643.09	11.196
643.41	8.953
643.74	10.340
644.07	9.299
644.40	10.890
644.73	10.079
645.05	10.935
645.38	8.057
645.71	10.628
646.04	9.967
646.36	9.850
646.69	11.706
647.02	10.884
647.35	9.794
647.67	11.327
648.00	10.894
648.33	8.086
648.66	10.909
648.98	9.745
649.31	8.969
649.64	10.314
649.96	10.730
650.29	9.953
650.62	8.900
650.94	11.345
651.27	10.304
651.60	9.484
651.92	9.904
652.25	7.492
652.58	9.657
652.90	10.427
653.23	9.399
653.56	8.819
653.88	9.667
654.21	9.953
654.54	10.726
654.86	9.969
655.19	8.649
655.52	4.363
655.84	3.133
656.17	3.575
656.49	4.828
656.82	5.186
657.15	4.003
657.47	3.063
657.80	2.443
658.13	2.544
658.45	3.894
658.78	4.151
659.10	4.572
659.43	4.357
659.75	5.360
660.08	5.570
660.41	7.076
660.73	9.911
661.06	7.643
661.38	10.364
661.71	10.385
662.03	10.651
662.36	9.145
662.68	12.249
663.01	11.717
663.33	11.253
663.66	12.815
663.98	10.799
664.31	11.134
664.63	10.931
664.96	7.847
665.28	13.320
665.61	10.526
665.93	9.256
666.26	11.359
666.58	10.879
666.91	9.725
667.23	13.258
667.56	11.447
667.88	14.744
668.21	13.006
668.53	10.412
668.86	11.905
669.18	12.793
669.50	11.957
669.83	13.943
670.15	11.111
670.48	10.022
670.80	12.931
671.13	14.013
671.45	11.489
671.77	12.627
672.10	11.645
672.42	10.954
672.75	11.774
673.07	8.803
673.39	9.765
673.72	9.180
674.04	11.569
674.37	10.874
674.69	10.020
675.01	10.042
675.34	14.990
675.66	14.737
675.98	14.664
676.31	14.286
676.63	12.951
676.95	12.788
677.28	12.383
677.60	12.527
677.92	13.924
678.25	11.910
678.57	13.147
678.89	10.621
679.22	11.002
679.54	11.260
679.86	12.661
680.18	11.449
680.51	11.170
680.83	12.811
681.15	10.377
681.48	12.287
681.80	11.799
682.12	8.812
682.44	9.478
682.77	12.220
683.09	12.017
683.41	11.530
683.73	13.466
684.06	13.430
684.38	12.329
684.70	11.628
685.02	12.570
685.34	9.890
685.67	10.664
685.99	8.763
686.31	8.874
686.63	7.067
686.96	9.821
687.28	12.996
687.60	10.507
687.92	11.517
688.24	11.027
688.56	12.651
688.89	12.241
689.21	12.009
689.53	13.361
689.85	12.195
690.17	9.731
690.49	15.499
690.82	12.383
691.14	10.268
691.46	12.025
691.78	12.450
692.10	13.223
692.42	13.972
692.74	10.996
693.06	12.553
693.39	12.115
693.71	10.917
694.03	12.421
694.35	11.688
694.67	12.815
694.99	15.610
695.31	12.500
695.63	14.833
695.95	12.714
696.27	8.376
696.59	11.917
696.91	15.285
697.23	10.329
697.56	10.874
697.88	9.816
698.20	9.583
698.52	11.828
698.84	12.918
699.16	10.599
699.48	11.639
699.80	13.043
700.12	14.545
700.44	15.385
700.76	15.470
701.08	15.517
701.40	16.201
701.72	16.035
702.04	21.591
702.36	14.164
702.68	15.014
703.00	13.019
703.32	13.298
703.64	14.209
703.96	18.106
704.28	15.407
704.60	15.543
704.91	16.024
705.23	19.355
705.55	18.272
705.87	18.605
706.19	12.367
706.51	13.084
706.83	17.576
707.15	17.087
707.47	13.889
707.79	13.759
708.11	16.210
708.43	13.810
708.74	11.990
709.06	16.104
709.38	17.585
709.70	17.151
710.02	18.398
710.34	14.545
710.66	16.418
710.98	15.625
711.29	13.953
711.61	19.174
711.93	14.103
712.25	19.614
712.57	17.279
712.89	16.263
713.20	17.629
713.52	17.763
713.84	13.608
714.16	17.988
714.48	16.667
714.80	16.413
715.11	17.579
715.43	12.463
715.75	16.812
716.07	16.933
716.39	18.809
716.70	17.608
717.02	15.468
717.34	18.375
717.66	23.507
717.97	25.100
718.29	16.667
718.61	22.628
718.93	18.750
719.24	19.377
719.56	16.271
719.88	18.983
720.20	21.284
720.51	17.770
720.83	20.446
721.15	16.791
721.46	17.730
721.78	18.638
722.10	15.472
722.42	18.045
722.73	16.854
723.05	18.033
723.37	19.028
723.68	22.394
724.00	17.073
724.32	23.387
724.63	21.951
724.95	19.665
725.27	26.721
725.58	19.922
725.90	18.978
726.22	18.491
726.53	19.097
726.85	17.747
727.16	20.641
727.48	19.149
727.80	18.939
728.11	20.290
728.43	20.000
728.74	18.638
729.06	22.993
729.38	24.265
729.69	21.708
730.01	16.382
730.32	16.319
730.64	16.388
730.96	15.842
731.27	19.868
731.59	18.349
731.90	19.825
732.22	16.770
732.53	17.028
732.85	16.346
733.16	16.077
733.48	17.940
733.80	15.584
734.11	18.153
734.43	16.864
734.74	13.429
735.06	12.321
735.37	17.052
735.69	16.879
736.00	20.261
736.32	19.315
736.63	15.335
736.95	18.211
737.26	10.544
737.58	14.839
737.89	17.057
738.21	19.454
738.52	18.571
738.83	19.623
739.15	20.769
739.46	18.613
739.78	19.792
740.09	17.846
740.41	18.710
740.72	18.815
741.04	20.370
741.35	23.750
741.66	24.889
741.98	19.340
742.29	25.837
742.61	28.879
742.92	20.814
743.23	22.650
743.55	22.800
743.86	28.509
744.18	28.319
744.49	26.794
744.80	20.657
745.12	24.091
745.43	21.586
745.74	26.577
746.06	23.394
746.37	21.973
746.68	23.077
747.00	25.000
747.31	26.667
747.62	19.469
747.94	21.586
748.25	21.277
748.56	23.348
748.88	21.287
749.19	30.500
749.50	26.047
749.82	23.984
750.13	24.082
750.44	19.343
750.75	20.702
751.07	24.759
751.38	18.815
751.69	16.606
752.01	18.797
752.32	17.690
752.63	18.085
752.94	20.902
753.26	25.600
753.57	19.106
753.88	20.703
754.19	22.500
754.51	20.833
754.82	15.162
755.13	23.774
755.44	20.677
755.75	20.073
756.07	19.858
756.38	14.599
756.69	18.121
757.00	15.868
757.31	19.288
757.63	13.743
757.94	13.405
758.25	15.686
758.56	14.321
758.87	16.398
759.18	17.273
759.50	17.241
759.81	16.199
760.12	13.438
760.43	18.625
760.74	17.391
761.05	15.537
761.36	12.834
761.67	17.898
761.99	18.012
762.30	16.667
762.61	20.229
762.92	22.656
763.23	24.790
763.54	25.600
763.85	21.484
764.16	25.000
764.47	21.673
764.78	18.728
765.10	16.456
765.41	17.404
765.72	17.365
766.03	17.241
766.34	18.000
766.65	24.681
766.96	28.205
767.27	26.904
767.58	28.125
767.89	27.895
768.20	31.609
768.51	18.782
768.82	23.853
769.13	17.886
769.44	18.623
769.75	22.318
770.06	20.183
770.37	25.339
770.68	25.926
770.99	20.444
771.30	16.803
771.61	19.731
771.92	25.000
772.23	27.311
772.54	22.564
772.85	29.319
773.16	23.404
773.47	28.804
773.78	26.904
774.09	33.333
774.39	30.994
774.70	25.309
775.01	35.507
775.32	39.869
775.63	31.579
775.94	27.338
776.25	45.669
776.56	32.836
776.87	36.066
777.18	41.406
777.48	41.221
777.79	37.121
778.10	39.259
778.41	35.714
778.72	29.197
779.03	32.886
779.34	32.886
779.65	25.676
779.95	31.288
780.26	35.948
780.57	36.552
780.88	45.312
781.19	36.090
781.50	40.541
781.80	33.962
782.11	24.859
782.42	32.278
782.73	33.129
783.04	28.378
783.34	39.437
783.65	45.890
783.96	42.537
784.27	27.273
784.57	25.899
784.88	28.704
785.19	39.683
785.50	36.792
785.81	44.030
786.11	42.623
786.42	37.209
786.73	46.018
787.04	45.283
787.34	45.536
787.65	37.000
787.96	41.441
788.26	43.802
788.57	40.678
788.88	47.934
789.19	45.139
789.49	44.697
789.80	35.878
790.11	49.524
790.41	53.465
790.72	39.759
791.03	58.696
791.33	54.651
791.64	50.515
791.95	51.485
792.25	55.556
792.56	62.338
792.87	73.077
793.17	63.291
793.48	62.069
793.79	57.471
794.09	53.409
794.40	40.336
794.70	41.912
795.01	42.963
795.32	38.849
795.62	37.008
795.93	44.828
796.23	36.283
796.54	44.706
796.85	67.568
797.15	80.282
797.46	56.061
797.76	75.904
798.07	56.962
798.37	55.385
798.68	72.727
798.99	53.521
799.29	72.727
799.60	56.818
799.90	65.753
800.21	52.239
800.51	62.069
800.82	71.930
801.12	60.656
801.43	72.727
801.73	67.568
802.04	82.540
802.34	58.025
802.65	75.000
802.95	79.661
803.26	73.438
803.56	57.143
803.87	75.385
804.17	80.882
804.48	88.889
804.78	67.241
805.09	69.118
805.39	59.615
805.70	85.714
806.00	73.770
806.30	74.242
806.61	65.854
806.91	56.962
807.22	56.579
807.52	70.149
807.83	60.563
808.13	64.063
808.43	76.667
808.74	64.474
809.04	82.609
809.35	64.179
809.65	68.421
809.95	88.710
810.26	81.356
810.56	92.063
810.86	115.909
811.17	111.905
811.47	86.667
811.77	90.741
812.08	87.273
812.38	92.000
812.69	147.222
812.99	118.182
813.29	104.082
813.59	64.286
813.90	112.245
814.20	87.273
814.50	66.154
814.81	83.824
815.11	102.041
815.41	73.770
815.72	133.333
816.02	81.818
816.32	104.762
816.62	97.500
816.93	92.683
817.23	130.952
817.53	134.091
817.84	145.455
818.14	117.391
818.44	97.778
818.74	147.059
819.04	92.500
819.35	114.286
819.65	167.647
819.95	164.286
820.25	165.000
820.56	143.590
820.86	111.364
821.16	130.233
821.46	123.077
821.76	118.000
822.07	145.714
822.37	137.500
822.67	142.424
822.97	96.078
823.27	167.857
823.57	143.243
823.88	150.000
824.18	153.333
824.48	109.524
824.78	228.000
825.08	145.833
825.38	118.919
825.69	107.317
825.99	175.000
826.29	141.379
826.59	160.526
826.89	139.474
827.19	138.235
827.49	161.290
827.79	106.818
828.09	109.091
828.39	112.766
828.70	106.122
829.00	159.259
829.30	164.516
829.60	102.500
829.90	293.333
830.20	178.571
830.50	152.174
830.80	156.522
831.10	183.333
831.40	146.667
831.70	182.609
832.00	173.077
832.30	188.889
832.60	212.500
832.90	160.000
833.20	335.714
833.50	161.290
833.80	179.310
834.10	178.125
834.40	211.538
834.70	222.222
835.00	242.857
835.30	180.000
835.60	307.692
835.90	179.310
836.20	264.286
836.50	175.862
836.80	176.000
837.10	141.667
837.40	190.476
837.70	229.412
838.00	174.074
838.30	223.810
838.60	261.905
838.90	173.077
839.19	190.000
839.49	321.429
839.79	295.000
840.09	225.000
840.39	180.952
840.69	195.652
840.99	255.556
841.29	410.000
841.59	308.333
841.88	275.000
842.18	179.310
842.48	204.762
842.78	166.667
843.08	234.783
843.38	168.750
843.68	683.333
843.97	196.154
844.27	189.655
844.57	266.667
844.87	337.500
845.17	207.407
845.47	1433.333
845.76	411.111
846.06	241.176
846.36	487.500
846.66	321.429
846.96	243.750
847.25	309.091
847.55	390.909
847.85	217.391
848.15	400.000
848.44	257.143
848.74	238.889
849.04	300.000
849.34	490.000
849.63	205.263
849.93	381.818
850.23	980.000
850.53	342.857
850.82	1950.000
851.12	-3000.000
851.42	4400.000
851.71	255.000
852.01	-1166.667
852.31	258.333
852.61	1400.000
852.90	242.857
853.20	192.000
853.50	329.412
853.79	204.762
854.09	175.000
854.39	337.500
854.68	143.243
854.98	151.613
855.28	150.000
855.57	168.966
855.87	192.593
856.17	178.947
856.46	280.000
856.76	247.059
857.05	175.862
857.35	254.167
857.65	286.667
857.94	256.522
858.24	176.923
858.53	285.000
858.83	204.545
859.13	320.000
859.42	0.000
859.72	544.444
860.01	427.273
860.31	263.636
860.60	278.947
860.90	226.087
861.20	511.111
861.49	466.667
861.79	-4300.000
862.08	600.000
862.38	214.286
862.67	338.462
862.97	288.235
863.26	466.667
863.56	233.333
863.85	300.000
864.15	525.000
864.44	326.667
864.74	666.667
865.03	575.000
865.33	289.474
865.62	409.091
865.92	415.385
866.21	383.333
866.51	0.000
866.80	381.818
867.10	900.000
867.39	400.000
867.69	354.545
867.98	236.842
868.27	445.455
868.57	278.947
868.86	-4300.000
869.16	312.500
869.45	1800.000
869.75	-4200.000
870.04	358.333
870.33	528.571
870.63	825.000
870.92	1900.000
871.22	528.571
871.51	347.059
871.80	233.333
872.10	364.286
>>>>>End Processed Spectral Data<<<<<
