SpectraSuite Data File
++++++++++++++++++++++++++++++++++++
Date: Wed May 13 20:32:18 PDT 2015
User: schluterlab
Dark Spectrum Present: Yes
Reference Spectrum Present: Yes
Number of Sampled Component Spectra: 1
Spectrometers: USB2E3373
Integration Time (usec): 3000 (USB2E3373)
Spectra Averaged: 3 (USB2E3373)
Boxcar Smoothing: 0 (USB2E3373)
Correct for Electrical Dark: No (USB2E3373)
Strobe/Lamp Enabled: No (USB2E3373)
Correct for Detector Non-linearity: No (USB2E3373)
Correct for Stray Light: No (USB2E3373)
Number of Pixels in Processed Spectrum: 2048
>>>>>Begin Processed Spectral Data<<<<<
178.53	0.000
178.91	-750.000
179.29	-975.000
179.67	-144.444
180.04	-975.000
180.42	1850.000
180.80	880.000
181.18	-575.000
181.56	500.000
181.94	0.000
182.31	-557.143
182.69	966.667
183.07	-425.000
183.45	-366.667
183.83	390.909
184.20	-350.000
184.58	1500.000
184.96	3200.000
185.34	-520.000
185.72	-412.500
186.09	-1900.000
186.47	2300.000
186.85	2000.000
187.23	2900.000
187.61	-1133.333
187.98	1025.000
188.36	409.091
188.74	390.909
189.12	-680.000
189.49	530.000
189.87	-3900.000
190.25	-975.000
190.63	335.714
191.00	338.462
191.38	600.000
191.76	-775.000
192.14	1025.000
192.51	537.500
192.89	733.333
193.27	425.000
193.65	-925.000
194.02	460.000
194.40	840.000
194.78	370.000
195.15	416.667
195.53	500.000
195.91	-1450.000
196.29	225.000
196.66	247.368
197.04	-280.000
197.42	0.000
197.79	570.000
198.17	-3600.000
198.55	585.714
198.92	637.500
199.30	640.000
199.68	0.000
200.05	238.889
200.43	600.000
200.81	3600.000
201.18	1600.000
201.56	-900.000
201.94	355.556
202.31	422.222
202.69	366.667
203.07	420.000
203.44	0.000
203.82	1025.000
204.19	657.143
204.57	321.429
204.95	475.000
205.32	1100.000
205.70	418.182
206.08	292.857
206.45	1800.000
206.83	268.750
207.20	733.333
207.58	580.000
207.96	250.000
208.33	600.000
208.71	-683.333
209.08	528.571
209.46	444.444
209.84	454.545
210.21	-1233.333
210.59	1225.000
210.96	-350.000
211.34	1500.000
211.71	330.000
212.09	500.000
212.46	0.000
212.84	1166.667
213.22	825.000
213.59	-3600.000
213.97	533.333
214.34	528.571
214.72	527.273
215.09	860.000
215.47	-1550.000
215.84	-2100.000
216.22	1233.333
216.59	335.714
216.97	1050.000
217.34	363.636
217.72	-583.333
218.09	0.000
218.47	-3800.000
218.84	566.667
219.22	671.429
219.59	1366.667
219.97	-471.429
220.34	720.000
220.72	-1366.667
221.09	321.429
221.47	850.000
221.84	-733.333
222.22	0.000
222.59	950.000
222.97	-2200.000
223.34	900.000
223.72	292.308
224.09	740.000
224.46	2150.000
224.84	-3100.000
225.21	-680.000
225.59	-3600.000
225.96	530.000
226.34	270.000
226.71	2400.000
227.08	525.000
227.46	400.000
227.83	-850.000
228.21	-1300.000
228.58	455.556
228.95	-1800.000
229.33	-1450.000
229.70	1466.667
230.08	600.000
230.45	-600.000
230.82	375.000
231.20	533.333
231.57	542.857
231.95	383.333
232.32	186.364
232.69	263.636
233.07	557.143
233.44	215.385
233.81	-1233.333
234.19	257.895
234.56	341.667
234.93	283.333
235.31	390.909
235.68	261.538
236.05	285.714
236.43	139.394
236.80	194.737
237.17	4600.000
237.55	214.286
237.92	146.429
238.29	190.476
238.67	154.839
239.04	155.172
239.41	119.444
239.79	117.391
240.16	109.524
240.53	104.545
240.91	107.843
241.28	94.000
241.65	96.000
242.02	82.609
242.40	82.258
242.77	88.333
243.14	62.366
243.51	74.157
243.89	58.824
244.26	58.889
244.63	54.839
245.00	69.149
245.38	49.505
245.75	46.729
246.12	50.459
246.49	59.124
246.87	58.400
247.24	53.846
247.61	50.714
247.98	47.712
248.36	41.892
248.73	45.860
249.10	42.675
249.47	41.243
249.84	40.642
250.22	44.920
250.59	41.420
250.96	41.919
251.33	42.180
251.70	40.594
252.08	40.952
252.45	41.704
252.82	37.826
253.19	41.277
253.56	34.510
253.94	38.174
254.31	37.109
254.68	42.692
255.05	39.852
255.42	34.959
255.79	38.971
256.16	37.906
256.54	33.216
256.91	38.790
257.28	33.453
257.65	35.644
258.02	33.230
258.39	31.230
258.76	31.773
259.14	34.821
259.51	32.523
259.88	30.745
260.25	33.233
260.62	32.370
260.99	31.056
261.36	33.033
261.73	33.238
262.10	29.942
262.47	34.366
262.85	31.198
263.22	31.054
263.59	33.903
263.96	28.846
264.33	32.898
264.70	32.105
265.07	30.435
265.44	31.818
265.81	27.981
266.18	32.412
266.55	30.244
266.92	28.256
267.29	29.167
267.66	28.440
268.03	30.000
268.40	30.140
268.77	29.356
269.14	27.928
269.51	29.120
269.88	31.235
270.25	29.797
270.62	26.292
270.99	30.538
271.36	30.043
271.73	26.636
272.10	29.565
272.47	30.753
272.84	29.654
273.21	31.237
273.58	29.039
273.95	26.205
274.32	26.860
274.69	29.336
275.06	26.969
275.43	28.298
275.80	26.653
276.17	27.699
276.54	29.314
276.91	27.668
277.28	27.734
277.65	27.466
278.02	29.193
278.39	28.906
278.76	27.636
279.13	28.868
279.50	25.698
279.87	28.287
280.23	27.146
280.60	27.079
280.97	24.214
281.34	26.549
281.71	27.455
282.08	27.639
282.45	26.545
282.82	28.419
283.19	24.777
283.56	24.386
283.92	27.073
284.29	25.926
284.66	26.316
285.03	26.401
285.40	28.521
285.77	25.421
286.14	23.834
286.51	26.500
286.87	26.325
287.24	26.384
287.61	24.880
287.98	25.325
288.35	24.881
288.72	24.611
289.08	25.665
289.45	22.900
289.82	22.276
290.19	23.862
290.56	24.809
290.93	22.961
291.29	23.620
291.66	24.041
292.03	25.291
292.40	23.201
292.77	22.633
293.13	22.836
293.50	23.178
293.87	21.481
294.24	21.037
294.60	21.106
294.97	21.512
295.34	24.401
295.71	21.023
296.08	19.373
296.44	21.320
296.81	19.419
297.18	22.087
297.55	19.789
297.91	20.976
298.28	22.088
298.65	21.932
299.02	20.553
299.38	20.053
299.75	20.485
300.12	19.796
300.48	20.125
300.85	18.619
301.22	19.745
301.59	19.949
301.95	19.144
302.32	20.539
302.69	20.072
303.05	19.515
303.42	17.654
303.79	19.932
304.15	18.998
304.52	18.424
304.89	19.396
305.25	19.374
305.62	20.045
305.99	20.071
306.35	19.463
306.72	18.722
307.09	18.202
307.45	20.608
307.82	17.746
308.19	18.764
308.55	19.741
308.92	18.153
309.29	17.423
309.65	18.346
310.02	18.605
310.38	19.785
310.75	18.479
311.12	18.833
311.48	19.645
311.85	19.811
312.22	19.251
312.58	17.360
312.95	19.113
313.31	19.320
313.68	19.543
314.05	19.724
314.41	20.101
314.78	20.242
315.14	19.265
315.51	20.597
315.87	21.287
316.24	20.556
316.61	21.345
316.97	19.863
317.34	20.352
317.70	21.033
318.07	21.655
318.43	22.505
318.80	20.806
319.16	22.316
319.53	21.388
319.89	22.857
320.26	23.300
320.62	23.512
320.99	24.242
321.35	24.242
321.72	23.922
322.08	23.889
322.45	26.269
322.81	24.806
323.18	25.241
323.54	26.067
323.91	26.226
324.27	26.482
324.64	27.027
325.00	26.510
325.37	27.298
325.73	29.803
326.10	27.096
326.46	28.136
326.83	29.508
327.19	30.658
327.56	30.052
327.92	30.621
328.29	30.878
328.65	32.044
329.01	31.588
329.38	32.562
329.74	29.548
330.11	31.857
330.47	32.507
330.84	34.559
331.20	32.240
331.56	34.220
331.93	32.593
332.29	33.540
332.66	34.867
333.02	32.815
333.38	33.966
333.75	34.225
334.11	33.808
334.48	34.339
334.84	35.478
335.20	35.000
335.57	34.814
335.93	34.286
336.29	34.982
336.66	35.528
337.02	34.389
337.38	34.537
337.75	33.333
338.11	35.989
338.47	37.109
338.84	37.030
339.20	34.862
339.56	36.770
339.93	35.000
340.29	35.598
340.65	35.383
341.02	37.609
341.38	37.633
341.74	36.404
342.11	35.546
342.47	37.533
342.83	36.473
343.20	37.835
343.56	36.394
343.92	36.754
344.28	37.075
344.65	35.770
345.01	35.943
345.37	35.849
345.73	38.494
346.10	36.743
346.46	37.627
346.82	36.079
347.19	35.505
347.55	35.714
347.91	37.136
348.27	37.880
348.63	37.124
349.00	37.379
349.36	36.782
349.72	37.370
350.08	36.953
350.45	37.754
350.81	37.693
351.17	37.115
351.53	37.920
351.89	37.211
352.26	38.043
352.62	37.690
352.98	37.520
353.34	37.387
353.70	37.725
354.07	37.339
354.43	38.254
354.79	36.766
355.15	37.350
355.51	38.209
355.87	38.449
356.24	38.111
356.60	37.289
356.96	38.697
357.32	38.839
357.68	38.898
358.04	38.876
358.40	38.797
358.77	39.045
359.13	38.200
359.49	38.824
359.85	37.222
360.21	39.075
360.57	40.000
360.93	40.538
361.29	38.322
361.66	38.235
362.02	38.358
362.38	39.696
362.74	40.699
363.10	39.526
363.46	39.252
363.82	40.287
364.18	39.280
364.54	41.159
364.90	40.368
365.26	41.176
365.62	41.271
365.98	39.226
366.35	39.327
366.71	39.407
367.07	40.058
367.43	41.001
367.79	41.542
368.15	42.098
368.51	40.480
368.87	41.328
369.23	40.966
369.59	41.492
369.95	41.029
370.31	40.812
370.67	41.522
371.03	42.772
371.39	43.513
371.75	42.868
372.11	41.892
372.47	43.182
372.83	43.516
373.19	41.980
373.55	42.720
373.91	44.256
374.27	42.612
374.63	42.691
374.99	43.785
375.35	42.498
375.71	42.289
376.07	44.170
376.42	43.054
376.78	44.400
377.14	43.826
377.50	44.305
377.86	43.883
378.22	44.501
378.58	43.170
378.94	43.809
379.30	44.656
379.66	45.114
380.02	44.226
380.38	44.809
380.74	44.958
381.09	45.721
381.45	46.036
381.81	46.560
382.17	46.624
382.53	45.723
382.89	46.481
383.25	45.841
383.61	47.460
383.97	46.467
384.32	46.163
384.68	45.725
385.04	45.790
385.40	46.378
385.76	47.482
386.12	47.604
386.48	46.948
386.83	47.979
387.19	48.670
387.55	47.805
387.91	47.279
388.27	48.437
388.62	48.248
388.98	47.482
389.34	49.562
389.70	47.823
390.06	50.317
390.42	49.546
390.77	49.427
391.13	50.223
391.49	49.175
391.85	49.841
392.20	49.211
392.56	49.747
392.92	51.383
393.28	50.000
393.64	49.880
393.99	50.092
394.35	49.318
394.71	50.565
395.07	50.779
395.42	50.742
395.78	51.463
396.14	50.341
396.50	52.694
396.85	51.812
397.21	50.678
397.57	50.837
397.92	52.163
398.28	50.673
398.64	51.732
399.00	51.763
399.35	50.761
399.71	52.257
400.07	52.099
400.42	52.945
400.78	52.051
401.14	53.354
401.49	52.537
401.85	52.995
402.21	51.617
402.57	53.424
402.92	54.035
403.28	54.591
403.63	54.517
403.99	53.822
404.35	53.152
404.70	52.938
405.06	53.524
405.42	54.086
405.77	54.800
406.13	55.418
406.49	55.470
406.84	55.109
407.20	54.728
407.55	54.882
407.91	55.600
408.27	56.158
408.62	54.244
408.98	56.005
409.34	54.982
409.69	55.419
410.05	55.204
410.40	56.086
410.76	55.795
411.11	55.247
411.47	55.144
411.83	56.506
412.18	57.019
412.54	57.846
412.89	56.205
413.25	56.375
413.60	57.813
413.96	55.313
414.31	56.501
414.67	56.971
415.03	57.616
415.38	57.281
415.74	57.814
416.09	58.981
416.45	58.032
416.80	59.683
417.16	58.981
417.51	58.593
417.87	57.932
418.22	57.792
418.58	57.844
418.93	57.187
419.29	58.052
419.64	59.446
420.00	57.561
420.35	56.986
420.71	58.219
421.06	57.816
421.42	58.421
421.77	59.922
422.12	58.450
422.48	57.960
422.83	59.289
423.19	57.238
423.54	59.489
423.90	57.739
424.25	58.124
424.61	59.762
424.96	59.242
425.31	58.859
425.67	57.697
426.02	58.457
426.38	60.562
426.73	58.397
427.09	59.453
427.44	58.654
427.79	58.194
428.15	59.583
428.50	58.806
428.85	59.714
429.21	59.525
429.56	58.683
429.92	58.430
430.27	58.987
430.62	58.884
430.98	59.990
431.33	58.196
431.68	59.476
432.04	58.839
432.39	59.680
432.74	59.066
433.10	59.649
433.45	60.875
433.80	59.424
434.16	59.295
434.51	59.526
434.86	60.775
435.22	61.089
435.57	60.608
435.92	59.099
436.28	60.439
436.63	60.541
436.98	61.534
437.34	61.479
437.69	61.202
438.04	61.439
438.39	61.015
438.75	61.127
439.10	60.726
439.45	60.921
439.81	61.994
440.16	59.684
440.51	61.863
440.86	60.452
441.22	60.289
441.57	61.359
441.92	62.794
442.27	62.110
442.63	60.927
442.98	62.479
443.33	60.707
443.68	61.280
444.03	62.372
444.39	60.565
444.74	61.905
445.09	61.078
445.44	60.197
445.79	60.020
446.15	60.932
446.50	61.120
446.85	61.511
447.20	61.142
447.55	61.586
447.91	61.390
448.26	61.603
448.61	61.504
448.96	61.683
449.31	61.699
449.66	61.002
450.02	61.504
450.37	61.395
450.72	62.042
451.07	62.035
451.42	61.824
451.77	61.773
452.12	60.681
452.47	61.567
452.83	62.704
453.18	61.002
453.53	63.203
453.88	61.134
454.23	61.865
454.58	62.689
454.93	62.238
455.28	62.718
455.63	62.015
455.98	62.500
456.34	62.437
456.69	62.993
457.04	63.282
457.39	61.075
457.74	61.172
458.09	61.472
458.44	62.714
458.79	60.954
459.14	61.907
459.49	61.296
459.84	61.108
460.19	62.110
460.54	60.301
460.89	61.821
461.24	63.327
461.59	63.858
461.94	62.022
462.29	63.561
462.64	63.242
462.99	61.614
463.34	62.933
463.69	62.914
464.04	62.319
464.39	62.551
464.74	61.854
465.09	62.123
465.44	62.438
465.79	62.752
466.14	61.741
466.49	62.458
466.84	62.405
467.19	62.342
467.54	63.250
467.89	62.365
468.24	62.536
468.59	64.957
468.94	62.553
469.29	63.882
469.64	62.316
469.99	64.750
470.34	64.333
470.68	64.152
471.03	62.721
471.38	64.489
471.73	63.558
472.08	64.145
472.43	63.756
472.78	64.714
473.13	63.543
473.48	63.608
473.83	64.207
474.17	63.535
474.52	63.896
474.87	65.324
475.22	64.364
475.57	63.407
475.92	63.834
476.27	63.811
476.61	64.699
476.96	64.541
477.31	65.463
477.66	65.372
478.01	64.401
478.36	64.992
478.70	62.980
479.05	64.217
479.40	64.278
479.75	64.718
480.10	64.662
480.45	63.922
480.79	63.402
481.14	64.530
481.49	64.357
481.84	64.335
482.19	63.971
482.53	63.486
482.88	64.867
483.23	64.720
483.58	64.377
483.92	64.386
484.27	62.309
484.62	63.103
484.97	62.160
485.31	62.877
485.66	59.857
486.01	59.525
486.36	59.942
486.70	60.999
487.05	60.916
487.40	61.440
487.75	62.568
488.09	61.753
488.44	62.108
488.79	62.857
489.13	63.293
489.48	62.520
489.83	63.703
490.17	64.270
490.52	63.773
490.87	63.863
491.22	63.256
491.56	63.007
491.91	63.611
492.26	62.793
492.60	63.410
492.95	64.219
493.30	64.159
493.64	64.629
493.99	63.045
494.34	63.136
494.68	63.690
495.03	64.615
495.37	64.123
495.72	64.620
496.07	64.640
496.41	62.655
496.76	64.116
497.11	63.035
497.45	65.347
497.80	64.731
498.14	64.638
498.49	65.415
498.84	64.765
499.18	64.762
499.53	65.005
499.87	65.005
500.22	64.767
500.56	65.000
500.91	64.615
501.26	64.865
501.60	66.303
501.95	64.620
502.29	65.839
502.64	66.434
502.98	65.825
503.33	65.951
503.67	65.615
504.02	65.856
504.36	66.401
504.71	66.732
505.06	65.494
505.40	66.796
505.75	66.056
506.09	66.181
506.44	67.686
506.78	67.511
507.13	68.198
507.47	66.970
507.82	68.034
508.16	68.642
508.51	69.457
508.85	68.272
509.19	68.571
509.54	68.827
509.88	69.397
510.23	68.483
510.57	70.124
510.92	70.119
511.26	69.013
511.61	69.502
511.95	68.058
512.30	70.148
512.64	70.285
512.98	70.740
513.33	70.664
513.67	69.050
514.02	70.563
514.36	70.945
514.70	72.441
515.05	70.664
515.39	70.219
515.74	72.241
516.08	71.884
516.42	72.253
516.77	73.077
517.11	71.920
517.46	73.702
517.80	74.564
518.14	71.801
518.49	74.387
518.83	73.523
519.17	73.037
519.52	72.949
519.86	73.873
520.20	74.682
520.55	75.643
520.89	73.783
521.23	75.392
521.58	72.749
521.92	74.832
522.26	74.558
522.61	76.324
522.95	73.910
523.29	75.107
523.64	75.488
523.98	77.018
524.32	75.332
524.66	74.925
525.01	74.939
525.35	76.642
525.69	74.138
526.04	76.511
526.38	75.778
526.72	75.215
527.06	76.899
527.41	73.700
527.75	79.164
528.09	76.879
528.43	77.247
528.78	76.706
529.12	75.152
529.46	77.036
529.80	77.413
530.15	76.137
530.49	74.277
530.83	76.835
531.17	78.916
531.51	78.016
531.86	77.484
532.20	77.184
532.54	77.002
532.88	78.113
533.22	75.703
533.57	75.432
533.91	74.473
534.25	76.914
534.59	76.449
534.93	74.955
535.27	75.981
535.62	76.190
535.96	78.280
536.30	76.669
536.64	76.497
536.98	76.974
537.32	75.444
537.66	77.400
538.01	79.329
538.35	75.695
538.69	78.175
539.03	77.323
539.37	76.613
539.71	75.437
540.05	77.516
540.39	77.542
540.73	76.391
541.07	76.184
541.42	78.930
541.76	76.516
542.10	76.132
542.44	77.550
542.78	77.536
543.12	76.456
543.46	76.590
543.80	76.708
544.14	74.583
544.48	77.397
544.82	75.946
545.16	76.513
545.50	75.321
545.84	77.083
546.18	77.643
546.52	74.948
546.86	76.976
547.20	76.804
547.54	75.551
547.88	76.786
548.22	74.097
548.56	74.843
548.90	75.224
549.24	77.576
549.58	76.194
549.92	77.610
550.26	79.190
550.60	76.003
550.94	76.620
551.28	77.030
551.62	77.139
551.96	76.421
552.30	76.997
552.64	77.079
552.98	77.695
553.32	75.927
553.66	76.278
554.00	76.596
554.34	74.948
554.68	76.466
555.02	75.952
555.36	75.296
555.69	75.034
556.03	75.908
556.37	76.467
556.71	76.535
557.05	76.471
557.39	74.668
557.73	76.006
558.07	77.230
558.41	76.773
558.75	76.488
559.08	76.063
559.42	75.813
559.76	76.912
560.10	74.946
560.44	74.493
560.78	75.516
561.12	75.000
561.45	75.684
561.79	73.896
562.13	75.117
562.47	75.068
562.81	74.686
563.15	72.642
563.48	73.674
563.82	74.560
564.16	73.774
564.50	73.893
564.84	74.147
565.17	74.839
565.51	74.633
565.85	74.937
566.19	73.137
566.52	75.427
566.86	72.755
567.20	73.998
567.54	74.144
567.88	73.004
568.21	72.963
568.55	71.941
568.89	71.887
569.23	70.365
569.56	69.555
569.90	69.547
570.24	69.609
570.57	68.412
570.91	67.712
571.25	67.202
571.59	67.334
571.92	67.627
572.26	67.793
572.60	67.538
572.93	67.166
573.27	67.022
573.61	67.030
573.95	66.718
574.28	65.829
574.62	66.521
574.96	65.687
575.29	65.470
575.63	65.854
575.97	66.103
576.30	65.959
576.64	66.288
576.98	65.557
577.31	66.405
577.65	65.950
577.98	65.219
578.32	65.052
578.66	65.136
578.99	65.579
579.33	64.657
579.67	64.631
580.00	65.572
580.34	66.421
580.67	64.713
581.01	64.605
581.35	64.574
581.68	64.478
582.02	63.897
582.35	65.371
582.69	65.056
583.02	65.390
583.36	66.244
583.70	66.159
584.03	65.021
584.37	65.507
584.70	66.118
585.04	64.481
585.37	64.655
585.71	65.085
586.04	64.726
586.38	65.674
586.72	65.148
587.05	64.738
587.39	64.327
587.72	64.854
588.06	65.368
588.39	64.664
588.73	66.178
589.06	65.846
589.40	66.768
589.73	65.611
590.07	65.730
590.40	64.304
590.73	66.550
591.07	66.260
591.40	66.385
591.74	68.701
592.07	66.710
592.41	65.978
592.74	65.169
593.08	64.890
593.41	65.233
593.75	64.116
594.08	64.968
594.41	65.076
594.75	66.248
595.08	65.104
595.42	65.219
595.75	64.245
596.09	65.640
596.42	65.422
596.75	66.484
597.09	65.801
597.42	64.629
597.75	66.149
598.09	66.043
598.42	65.421
598.76	65.099
599.09	63.550
599.42	64.665
599.76	64.714
600.09	63.934
600.42	63.915
600.76	63.393
601.09	64.444
601.42	64.346
601.76	64.554
602.09	64.743
602.42	64.610
602.76	65.941
603.09	64.359
603.42	65.795
603.76	64.367
604.09	65.529
604.42	65.756
604.76	64.951
605.09	64.657
605.42	64.985
605.75	64.321
606.09	64.010
606.42	64.732
606.75	63.998
607.09	63.960
607.42	65.041
607.75	63.460
608.08	64.438
608.42	65.038
608.75	63.886
609.08	63.552
609.41	63.446
609.75	64.840
610.08	65.127
610.41	63.315
610.74	65.374
611.07	65.613
611.41	64.769
611.74	65.108
612.07	65.735
612.40	65.373
612.73	65.737
613.07	65.517
613.40	65.245
613.73	62.926
614.06	65.269
614.39	63.765
614.72	63.789
615.06	64.811
615.39	64.915
615.72	63.753
616.05	63.955
616.38	65.536
616.71	66.865
617.05	65.430
617.38	64.943
617.71	65.826
618.04	66.647
618.37	65.228
618.70	65.588
619.03	67.632
619.36	67.142
619.69	66.056
620.03	67.788
620.36	65.709
620.69	66.712
621.02	68.142
621.35	67.972
621.68	65.810
622.01	66.873
622.34	67.322
622.67	67.605
623.00	66.691
623.33	66.905
623.66	66.190
623.99	67.305
624.32	65.977
624.65	66.314
624.99	65.297
625.32	66.618
625.65	66.867
625.98	67.871
626.31	67.496
626.64	68.816
626.97	69.410
627.30	67.082
627.63	66.858
627.96	67.788
628.29	67.892
628.62	68.893
628.95	68.774
629.28	68.248
629.61	68.653
629.94	70.667
630.26	69.876
630.59	68.923
630.92	67.816
631.25	69.990
631.58	67.968
631.91	70.791
632.24	70.781
632.57	71.249
632.90	70.175
633.23	70.582
633.56	71.525
633.89	72.480
634.22	71.623
634.55	71.834
634.88	72.216
635.20	74.194
635.53	71.566
635.86	74.876
636.19	70.353
636.52	69.666
636.85	70.447
637.18	69.700
637.51	72.104
637.83	67.818
638.16	71.995
638.49	72.292
638.82	70.291
639.15	70.125
639.48	67.332
639.81	71.582
640.13	69.792
640.46	72.752
640.79	69.221
641.12	69.464
641.45	71.927
641.77	75.110
642.10	73.684
642.43	73.123
642.76	73.529
643.09	74.233
643.41	72.838
643.74	73.765
644.07	71.951
644.40	73.926
644.73	73.543
645.05	75.277
645.38	72.038
645.71	72.142
646.04	75.083
646.36	77.295
646.69	74.749
647.02	74.490
647.35	74.227
647.67	76.814
648.00	75.285
648.33	73.102
648.66	71.667
648.98	73.913
649.31	71.300
649.64	72.197
649.96	73.472
650.29	73.302
650.62	72.654
650.94	73.420
651.27	75.169
651.60	73.710
651.92	71.885
652.25	70.033
652.58	71.651
652.90	72.670
653.23	71.495
653.56	72.126
653.88	72.583
654.21	71.880
654.54	71.782
654.86	72.430
655.19	67.297
655.52	54.513
655.84	52.289
656.17	65.883
656.49	86.525
656.82	87.591
657.15	65.748
657.47	49.100
657.80	37.620
658.13	38.413
658.45	56.459
658.78	55.809
659.10	56.871
659.43	57.931
659.75	59.402
660.08	62.215
660.41	64.153
660.73	67.980
661.06	68.312
661.38	74.182
661.71	75.000
662.03	78.895
662.36	71.372
662.68	75.502
663.01	74.343
663.33	76.008
663.66	76.261
663.98	74.946
664.31	74.160
664.63	71.457
664.96	72.435
665.28	75.000
665.61	72.904
665.93	71.026
666.26	73.631
666.58	75.105
666.91	78.647
667.23	78.202
667.56	73.218
667.88	74.573
668.21	75.267
668.53	70.282
668.86	77.706
669.18	74.627
669.50	72.391
669.83	76.035
670.15	74.889
670.48	69.281
670.80	76.078
671.13	76.008
671.45	71.489
671.77	75.560
672.10	71.719
672.42	69.965
672.75	69.320
673.07	73.944
673.39	68.354
673.72	72.266
674.04	73.137
674.37	69.515
674.69	70.143
675.01	70.293
675.34	70.431
675.66	74.316
675.98	73.523
676.31	70.378
676.63	73.248
676.95	70.440
677.28	72.196
677.60	70.549
677.92	74.684
678.25	73.101
678.57	73.705
678.89	72.946
679.22	71.906
679.54	71.183
679.86	68.440
680.18	70.304
680.51	68.617
680.83	67.616
681.15	70.000
681.48	69.376
681.80	69.632
682.12	69.923
682.44	68.665
682.77	73.727
683.09	76.180
683.41	70.732
683.73	74.834
684.06	70.041
684.38	69.276
684.70	72.868
685.02	69.606
685.34	67.033
685.67	66.084
685.99	69.244
686.31	66.041
686.63	68.198
686.96	65.893
687.28	66.787
687.60	68.841
687.92	70.018
688.24	65.970
688.56	70.884
688.89	71.162
689.21	72.489
689.53	68.267
689.85	72.284
690.17	68.944
690.49	71.975
690.82	73.598
691.14	69.420
691.46	67.089
691.78	68.675
692.10	71.694
692.42	65.868
692.74	68.257
693.06	69.149
693.39	70.431
693.71	72.926
694.03	70.947
694.35	69.697
694.67	70.023
694.99	73.415
695.31	71.078
695.63	70.335
695.95	74.328
696.27	70.051
696.59	70.466
696.91	72.021
697.23	69.484
697.56	69.723
697.88	63.190
698.20	68.333
698.52	65.161
698.84	71.492
699.16	67.281
699.48	70.309
699.80	70.773
700.12	76.104
700.44	74.536
700.76	71.823
701.08	78.736
701.40	73.743
701.72	76.968
702.04	75.000
702.36	67.139
702.68	72.238
703.00	72.576
703.32	70.479
703.64	70.777
703.96	72.145
704.28	74.419
704.60	73.607
704.91	71.217
705.23	70.674
705.55	77.409
705.87	77.076
706.19	81.979
706.51	71.651
706.83	73.333
707.15	76.471
707.47	68.939
707.79	67.568
708.11	64.612
708.43	68.333
708.74	69.898
709.06	69.870
709.38	69.554
709.70	72.674
710.02	73.294
710.34	69.697
710.66	69.851
710.98	67.614
711.29	72.093
711.61	72.566
711.93	70.833
712.25	71.704
712.57	77.206
712.89	76.125
713.20	70.517
713.52	71.053
713.84	72.152
714.16	67.073
714.48	73.276
714.80	76.596
715.11	71.182
715.43	66.469
715.75	63.478
716.07	71.565
716.39	69.592
716.70	76.080
717.02	74.820
717.34	73.852
717.66	72.015
717.97	81.275
718.29	71.481
718.61	73.723
718.93	71.324
719.24	72.318
719.56	73.220
719.88	72.881
720.20	74.324
720.51	74.913
720.83	76.952
721.15	73.134
721.46	72.340
721.78	76.703
722.10	71.321
722.42	75.188
722.73	73.783
723.05	82.787
723.37	74.089
723.68	71.042
724.00	80.488
724.32	72.581
724.63	77.236
724.95	74.059
725.27	77.733
725.58	73.438
725.90	73.723
726.22	72.830
726.53	67.014
726.85	70.648
727.16	74.377
727.48	67.021
727.80	69.697
728.11	70.290
728.43	71.923
728.74	64.875
729.06	70.073
729.38	72.794
729.69	72.598
730.01	63.140
730.32	65.625
730.64	66.890
730.96	69.307
731.27	71.192
731.59	69.419
731.90	68.222
732.22	67.081
732.53	65.325
732.85	69.551
733.16	67.203
733.48	74.419
733.80	68.182
734.11	68.471
734.43	68.047
734.74	64.000
735.06	63.324
735.37	67.919
735.69	66.242
736.00	70.915
736.32	67.601
736.63	68.371
736.95	69.968
737.26	69.048
737.58	64.839
737.89	66.221
738.21	69.283
738.52	65.357
738.83	66.038
739.15	70.385
739.46	71.898
739.78	71.181
740.09	63.692
740.41	68.710
740.72	66.202
741.04	67.778
741.35	71.667
741.66	79.556
741.98	74.057
742.29	74.163
742.61	74.569
742.92	75.566
743.23	73.077
743.55	73.200
743.86	75.439
744.18	78.761
744.49	82.775
744.80	73.709
745.12	74.091
745.43	73.128
745.74	83.333
746.06	73.394
746.37	77.130
746.68	69.683
747.00	74.074
747.31	79.524
747.62	75.221
747.94	77.974
748.25	66.383
748.56	73.128
748.88	82.178
749.19	76.000
749.50	69.767
749.82	65.854
750.13	72.245
750.44	71.168
750.75	68.772
751.07	68.489
751.38	72.822
751.69	70.036
752.01	66.917
752.32	68.953
752.63	67.021
752.94	75.000
753.26	78.400
753.57	65.854
753.88	75.000
754.19	65.357
754.51	73.264
754.82	66.065
755.13	76.226
755.44	70.301
755.75	65.328
756.07	67.376
756.38	67.883
756.69	65.772
757.00	63.772
757.31	64.095
757.63	64.327
757.94	61.126
758.25	59.804
758.56	59.753
758.87	62.634
759.18	65.455
759.50	64.263
759.81	65.109
760.12	58.750
760.43	63.037
760.74	63.315
761.05	62.429
761.36	60.963
761.67	65.625
761.99	63.665
762.30	67.361
762.61	70.229
762.92	67.578
763.23	68.487
763.54	68.400
763.85	65.625
764.16	71.923
764.47	70.342
764.78	63.251
765.10	61.076
765.41	64.307
765.72	62.874
766.03	61.129
766.34	62.333
766.65	71.064
766.96	68.376
767.27	77.157
767.58	71.354
767.89	78.947
768.20	86.207
768.51	75.635
768.82	74.312
769.13	65.854
769.44	63.968
769.75	70.815
770.06	66.514
770.37	73.756
770.68	69.907
770.99	71.556
771.30	67.213
771.61	73.543
771.92	71.721
772.23	69.748
772.54	72.821
772.85	81.152
773.16	72.872
773.47	75.000
773.78	69.543
774.09	78.571
774.39	80.702
774.70	80.864
775.01	87.681
775.32	85.621
775.63	75.000
775.94	79.137
776.25	87.402
776.56	81.343
776.87	81.967
777.18	83.594
777.48	87.786
777.79	78.030
778.10	74.074
778.41	86.607
778.72	76.642
779.03	76.510
779.34	74.497
779.65	76.351
779.95	83.436
780.26	82.353
780.57	87.586
780.88	92.187
781.19	78.947
781.50	85.811
781.80	69.811
782.11	70.621
782.42	68.987
782.73	72.393
783.04	85.135
783.34	85.211
783.65	83.562
783.96	91.791
784.27	74.825
784.57	76.978
784.88	88.889
785.19	72.222
785.50	93.396
785.81	85.075
786.11	95.082
786.42	84.496
786.73	92.920
787.04	85.849
787.34	93.750
787.65	97.000
787.96	90.090
788.26	94.215
788.57	89.831
788.88	91.736
789.19	72.222
789.49	90.909
789.80	77.863
790.11	108.571
790.41	97.030
790.72	108.434
791.03	103.261
791.33	93.023
791.64	86.598
791.95	90.099
792.25	105.556
792.56	109.091
792.87	117.949
793.17	107.595
793.48	88.506
793.79	95.402
794.09	101.136
794.40	77.311
794.70	89.706
795.01	71.852
795.32	81.295
795.62	77.165
795.93	89.655
796.23	88.496
796.54	98.824
796.85	85.135
797.15	121.127
797.46	101.515
797.76	106.024
798.07	96.203
798.37	98.462
798.68	100.000
798.99	102.817
799.29	107.792
799.60	92.045
799.90	110.959
800.21	113.433
800.51	117.241
800.82	117.544
801.12	119.672
801.43	119.697
801.73	97.297
802.04	106.349
802.34	86.420
802.65	125.000
802.95	125.424
803.26	107.813
803.56	101.429
803.87	98.462
804.17	98.529
804.48	140.741
804.78	105.172
805.09	101.471
805.39	125.000
805.70	105.357
806.00	122.951
806.30	113.636
806.61	97.561
806.91	88.608
807.22	93.421
807.52	92.537
807.83	98.592
808.13	120.313
808.43	115.000
808.74	103.947
809.04	107.246
809.35	113.433
809.65	86.842
809.95	125.806
810.26	108.475
810.56	111.111
810.86	163.636
811.17	171.429
811.47	120.000
811.77	96.296
812.08	125.455
812.38	122.000
812.69	158.333
812.99	168.182
813.29	130.612
813.59	114.286
813.90	146.939
814.20	105.455
814.50	107.692
814.81	116.176
815.11	122.449
815.41	113.115
815.72	147.619
816.02	136.364
816.32	161.905
816.62	145.000
816.93	146.341
817.23	154.762
817.53	140.909
817.84	196.970
818.14	123.913
818.44	140.000
818.74	191.176
819.04	150.000
819.35	134.286
819.65	141.176
819.95	185.714
820.25	245.000
820.56	146.154
820.86	129.545
821.16	141.860
821.46	156.410
821.76	130.000
822.07	182.857
822.37	157.500
822.67	172.727
822.97	125.490
823.27	192.857
823.57	162.162
823.88	160.000
824.18	176.667
824.48	152.381
824.78	212.000
825.08	183.333
825.38	118.919
825.69	139.024
825.99	250.000
826.29	148.276
826.59	150.000
826.89	176.316
827.19	129.412
827.49	187.097
827.79	134.091
828.09	150.000
828.39	140.426
828.70	130.612
829.00	140.741
829.30	187.097
829.60	135.000
829.90	306.667
830.20	171.429
830.50	173.913
830.80	204.348
831.10	200.000
831.40	126.667
831.70	147.826
832.00	219.231
832.30	151.852
832.60	287.500
832.90	160.000
833.20	378.571
833.50	154.839
833.80	186.207
834.10	193.750
834.40	223.077
834.70	283.333
835.00	280.952
835.30	154.286
835.60	300.000
835.90	189.655
836.20	307.143
836.50	206.897
836.80	188.000
837.10	175.000
837.40	247.619
837.70	288.235
838.00	200.000
838.30	228.571
838.60	261.905
838.90	203.846
839.19	235.000
839.49	342.857
839.79	260.000
840.09	270.000
840.39	252.381
840.69	230.435
840.99	261.111
841.29	320.000
841.59	341.667
841.88	268.750
842.18	151.724
842.48	266.667
842.78	180.000
843.08	208.696
843.38	200.000
843.68	566.667
843.97	165.385
844.27	193.103
844.57	276.190
844.87	268.750
845.17	170.370
845.47	1366.667
845.76	466.667
846.06	329.412
846.36	337.500
846.66	342.857
846.96	262.500
847.25	300.000
847.55	272.727
847.85	213.043
848.15	410.000
848.44	242.857
848.74	222.222
849.04	323.529
849.34	470.000
849.63	242.105
849.93	390.909
850.23	740.000
850.53	421.429
850.82	1800.000
851.12	-3100.000
851.42	3300.000
851.71	250.000
852.01	-1133.333
852.31	225.000
852.61	1200.000
852.90	252.381
853.20	204.000
853.50	294.118
853.79	233.333
854.09	145.833
854.39	293.750
854.68	189.189
854.98	112.903
855.28	140.000
855.57	186.207
855.87	174.074
856.17	168.421
856.46	213.333
856.76	235.294
857.05	168.966
857.35	200.000
857.65	260.000
857.94	234.783
858.24	207.692
858.53	260.000
858.83	195.455
859.13	360.000
859.42	0.000
859.72	588.889
860.01	345.455
860.31	227.273
860.60	215.789
860.90	173.913
861.20	488.889
861.49	416.667
861.79	-3900.000
862.08	562.500
862.38	238.095
862.67	284.615
862.97	305.882
863.26	366.667
863.56	227.778
863.85	383.333
864.15	500.000
864.44	353.333
864.74	750.000
865.03	562.500
865.33	247.368
865.62	354.545
865.92	330.769
866.21	308.333
866.51	0.000
866.80	427.273
867.10	900.000
867.39	300.000
867.69	354.545
867.98	221.053
868.27	381.818
868.57	247.368
868.86	-3800.000
869.16	268.750
869.45	1900.000
869.75	-3800.000
870.04	341.667
870.33	514.286
870.63	925.000
870.92	2500.000
871.22	557.143
871.51	223.529
871.80	180.952
872.10	314.286
>>>>>End Processed Spectral Data<<<<<
