SpectraSuite Data File
++++++++++++++++++++++++++++++++++++
Date: Wed May 13 20:30:39 PDT 2015
User: schluterlab
Dark Spectrum Present: Yes
Reference Spectrum Present: Yes
Number of Sampled Component Spectra: 1
Spectrometers: USB2E3373
Integration Time (usec): 3000 (USB2E3373)
Spectra Averaged: 3 (USB2E3373)
Boxcar Smoothing: 0 (USB2E3373)
Correct for Electrical Dark: No (USB2E3373)
Strobe/Lamp Enabled: No (USB2E3373)
Correct for Detector Non-linearity: No (USB2E3373)
Correct for Stray Light: No (USB2E3373)
Number of Pixels in Processed Spectrum: 2048
>>>>>Begin Processed Spectral Data<<<<<
178.53	0.000
178.91	-1250.000
179.29	-1150.000
179.67	-155.556
180.04	-1125.000
180.42	2100.000
180.80	1020.000
181.18	-475.000
181.56	628.571
181.94	0.000
182.31	-371.429
182.69	1066.667
183.07	-400.000
183.45	-288.889
183.83	427.273
184.20	-320.000
184.58	1650.000
184.96	4800.000
185.34	-660.000
185.72	-437.500
186.09	-1400.000
186.47	1650.000
186.85	1750.000
187.23	3500.000
187.61	-1366.667
187.98	950.000
188.36	409.091
188.74	409.091
189.12	-760.000
189.49	380.000
189.87	-3900.000
190.25	-1150.000
190.63	300.000
191.00	346.154
191.38	666.667
191.76	-975.000
192.14	1225.000
192.51	500.000
192.89	700.000
193.27	450.000
193.65	-975.000
194.02	470.000
194.40	600.000
194.78	350.000
195.15	450.000
195.53	460.000
195.91	-1900.000
196.29	318.750
196.66	273.684
197.04	-310.000
197.42	0.000
197.79	570.000
198.17	-3300.000
198.55	357.143
198.92	587.500
199.30	880.000
199.68	0.000
200.05	305.556
200.43	685.714
200.81	3100.000
201.18	1133.333
201.56	-966.667
201.94	466.667
202.31	444.444
202.69	341.667
203.07	480.000
203.44	0.000
203.82	1150.000
204.19	471.429
204.57	278.571
204.95	400.000
205.32	1500.000
205.70	427.273
206.08	342.857
206.45	2400.000
206.83	375.000
207.20	666.667
207.58	680.000
207.96	205.556
208.33	637.500
208.71	-783.333
209.08	657.143
209.46	544.444
209.84	381.818
210.21	-1300.000
210.59	1225.000
210.96	-312.500
211.34	2350.000
211.71	410.000
212.09	600.000
212.46	0.000
212.84	1366.667
213.22	1000.000
213.59	-3600.000
213.97	783.333
214.34	642.857
214.72	463.636
215.09	880.000
215.47	-1900.000
215.84	-1850.000
216.22	1333.333
216.59	321.429
216.97	1075.000
217.34	309.091
217.72	-583.333
218.09	0.000
218.47	-3300.000
218.84	544.444
219.22	514.286
219.59	1366.667
219.97	-514.286
220.34	760.000
220.72	-1500.000
221.09	357.143
221.47	1000.000
221.84	-750.000
222.22	0.000
222.59	1200.000
222.97	-2000.000
223.34	1060.000
223.72	361.538
224.09	780.000
224.46	1850.000
224.84	-4300.000
225.21	-780.000
225.59	-4400.000
225.96	380.000
226.34	275.000
226.71	1700.000
227.08	562.500
227.46	450.000
227.83	-925.000
228.21	-1550.000
228.58	500.000
228.95	-2050.000
229.33	-1900.000
229.70	1666.667
230.08	614.286
230.45	-820.000
230.82	366.667
231.20	683.333
231.57	542.857
231.95	441.667
232.32	200.000
232.69	290.909
233.07	514.286
233.44	269.231
233.81	-1600.000
234.19	236.842
234.56	391.667
234.93	358.333
235.31	390.909
235.68	276.923
236.05	335.714
236.43	136.364
236.80	221.053
237.17	3700.000
237.55	209.524
237.92	200.000
238.29	190.476
238.67	177.419
239.04	179.310
239.41	127.778
239.79	110.870
240.16	150.000
240.53	122.727
240.91	96.078
241.28	132.000
241.65	104.000
242.02	95.652
242.40	88.710
242.77	85.000
243.14	67.742
243.51	76.404
243.89	76.471
244.26	81.111
244.63	72.043
245.00	71.277
245.38	58.416
245.75	57.944
246.12	60.550
246.49	64.964
246.87	65.600
247.24	63.077
247.61	62.143
247.98	54.248
248.36	49.324
248.73	50.955
249.10	60.510
249.47	48.023
249.84	57.219
250.22	49.198
250.59	50.888
250.96	51.515
251.33	49.763
251.70	52.970
252.08	48.095
252.45	45.740
252.82	46.087
253.19	48.511
253.56	44.706
253.94	47.303
254.31	43.359
254.68	48.077
255.05	45.387
255.42	45.935
255.79	48.529
256.16	46.931
256.54	40.989
256.91	43.416
257.28	35.612
257.65	44.884
258.02	41.925
258.39	43.533
258.76	45.151
259.14	44.643
259.51	38.602
259.88	40.683
260.25	44.109
260.62	38.150
260.99	40.062
261.36	39.640
261.73	43.840
262.10	39.244
262.47	40.563
262.85	40.669
263.22	37.607
263.59	41.595
263.96	37.637
264.33	38.642
264.70	38.947
265.07	44.757
265.44	38.636
265.81	39.659
266.18	38.945
266.55	38.293
266.92	37.592
267.29	39.583
267.66	37.615
268.03	40.000
268.40	36.682
268.77	36.993
269.14	37.162
269.51	39.729
269.88	41.725
270.25	38.149
270.62	39.101
270.99	38.065
271.36	38.197
271.73	38.084
272.10	36.739
272.47	37.634
272.84	37.446
273.21	38.784
273.58	33.843
273.95	36.478
274.32	35.744
274.69	40.471
275.06	35.039
275.43	37.447
275.80	35.872
276.17	38.697
276.54	36.383
276.91	34.980
277.28	34.180
277.65	34.623
278.02	36.439
278.39	35.547
278.76	35.636
279.13	34.717
279.50	35.196
279.87	33.267
280.23	36.727
280.60	34.043
280.97	36.599
281.34	35.575
281.71	36.545
282.08	37.428
282.45	34.545
282.82	33.748
283.19	37.255
283.56	31.754
283.92	36.379
284.29	35.802
284.66	33.394
285.03	34.720
285.40	35.563
285.77	34.512
286.14	32.815
286.51	33.667
286.87	35.897
287.24	31.433
287.61	31.140
287.98	32.955
288.35	32.488
288.72	31.776
289.08	31.925
289.45	32.619
289.82	33.333
290.19	29.199
290.56	28.790
290.93	29.154
291.29	30.215
291.66	31.121
292.03	31.541
292.40	32.305
292.77	29.882
293.13	28.806
293.50	30.612
293.87	29.778
294.24	28.296
294.60	29.840
294.97	27.326
295.34	29.760
295.71	29.830
296.08	28.063
296.44	29.023
296.81	26.816
297.18	28.862
297.55	25.989
297.91	28.100
298.28	27.443
298.65	27.546
299.02	27.800
299.38	28.287
299.75	26.415
300.12	24.649
300.48	24.125
300.85	26.387
301.22	26.497
301.59	25.758
301.95	27.330
302.32	26.444
302.69	25.687
303.05	26.424
303.42	25.679
303.79	25.708
304.15	24.592
304.52	24.450
304.89	25.784
305.25	24.130
305.62	25.028
305.99	25.620
306.35	25.280
306.72	24.776
307.09	24.972
307.45	25.901
307.82	24.442
308.19	26.711
308.55	24.272
308.92	24.812
309.29	24.076
309.65	25.239
310.02	24.841
310.38	23.656
310.75	24.076
311.12	24.872
311.48	26.437
311.85	24.004
312.22	24.662
312.58	25.052
312.95	24.815
313.31	23.883
313.68	25.572
314.05	26.233
314.41	24.322
314.78	24.975
315.14	24.528
315.51	25.953
315.87	24.653
316.24	24.727
316.61	23.294
316.97	24.364
317.34	24.853
317.70	24.379
318.07	25.987
318.43	25.245
318.80	25.492
319.16	26.271
319.53	26.079
319.89	26.190
320.26	27.700
320.62	27.381
320.99	26.970
321.35	26.364
321.72	27.515
322.08	27.345
322.45	29.154
322.81	28.101
323.18	27.168
323.54	28.386
323.91	28.868
324.27	28.298
324.64	27.120
325.00	27.232
325.37	28.753
325.73	29.354
326.10	29.568
326.46	28.943
326.83	29.077
327.19	30.060
327.56	29.530
327.92	30.534
328.29	30.346
328.65	31.584
329.01	30.686
329.38	31.360
329.74	30.748
330.11	30.443
330.47	32.231
330.84	32.445
331.20	32.332
331.56	30.826
331.93	31.204
332.29	32.476
332.66	31.681
333.02	31.993
333.38	33.333
333.75	31.640
334.11	31.228
334.48	31.943
334.84	33.088
335.20	32.818
335.57	31.822
335.93	31.786
336.29	32.509
336.66	33.093
337.02	32.036
337.38	32.685
337.75	33.066
338.11	32.677
338.47	32.873
338.84	33.364
339.20	33.211
339.56	33.029
339.93	31.545
340.29	32.428
340.65	32.442
341.02	34.555
341.38	32.295
341.74	31.930
342.11	32.926
342.47	34.009
342.83	32.277
343.20	34.113
343.56	31.845
343.92	33.860
344.28	31.973
344.65	34.308
345.01	32.071
345.37	32.419
345.73	32.995
346.10	33.078
346.46	32.119
346.82	33.361
347.19	32.164
347.55	31.938
347.91	32.443
348.27	33.854
348.63	33.361
349.00	31.958
349.36	32.512
349.72	33.841
350.08	31.929
350.45	33.360
350.81	33.063
351.17	33.306
351.53	32.924
351.89	32.261
352.26	33.307
352.62	34.082
352.98	32.739
353.34	32.703
353.70	31.833
354.07	33.468
354.43	33.095
354.79	33.467
355.15	33.041
355.51	33.973
355.87	33.143
356.24	34.528
356.60	32.959
356.96	33.950
357.32	34.015
357.68	34.094
358.04	33.175
358.40	34.917
358.77	33.646
359.13	32.439
359.49	33.333
359.85	31.905
360.21	33.094
360.57	33.852
360.93	34.154
361.29	34.543
361.66	33.282
362.02	33.433
362.38	33.536
362.74	35.565
363.10	33.235
363.46	33.089
363.82	33.333
364.18	33.847
364.54	35.290
364.90	34.278
365.26	35.147
365.62	35.062
365.98	34.405
366.35	33.524
366.71	33.984
367.07	33.940
367.43	34.107
367.79	35.189
368.15	34.986
368.51	34.157
368.87	35.189
369.23	35.113
369.59	35.916
369.95	35.662
370.31	35.470
370.67	35.072
371.03	35.581
371.39	35.787
371.75	36.029
372.11	34.566
372.47	36.584
372.83	36.671
373.19	35.405
373.55	37.546
373.91	37.334
374.27	35.670
374.63	35.855
374.99	35.946
375.35	36.567
375.71	35.709
376.07	35.871
376.42	37.070
376.78	36.779
377.14	36.499
377.50	36.093
377.86	35.705
378.22	34.829
378.58	36.591
378.94	35.512
379.30	36.705
379.66	37.056
380.02	36.364
380.38	36.794
380.74	36.675
381.09	36.491
381.45	37.369
381.81	37.408
382.17	38.217
382.53	37.673
382.89	36.852
383.25	38.024
383.61	38.166
383.97	38.211
384.32	38.303
384.68	37.980
385.04	37.369
385.40	37.152
385.76	37.285
386.12	38.083
386.48	39.144
386.83	38.358
387.19	38.776
387.55	38.404
387.91	37.606
388.27	38.504
388.62	39.090
388.98	38.698
389.34	39.925
389.70	38.627
390.06	39.544
390.42	39.105
390.77	39.695
391.13	39.502
391.49	40.609
391.85	39.083
392.20	37.792
392.56	39.331
392.92	38.434
393.28	38.284
393.64	39.209
393.99	39.585
394.35	39.826
394.71	38.519
395.07	38.131
395.42	40.606
395.78	39.440
396.14	39.168
396.50	39.724
396.85	40.178
397.21	37.855
397.57	38.686
397.92	39.844
398.28	38.004
398.64	39.367
399.00	39.060
399.35	40.158
399.71	39.757
400.07	39.148
400.42	40.061
400.78	38.902
401.14	40.000
401.49	39.224
401.85	39.988
402.21	38.623
402.57	40.284
402.92	40.542
403.28	40.037
403.63	40.532
403.99	40.892
404.35	40.303
404.70	40.108
405.06	39.953
405.42	41.110
405.77	39.257
406.13	39.391
406.49	41.277
406.84	39.929
407.20	40.130
407.55	40.779
407.91	40.000
408.27	40.013
408.62	40.096
408.98	39.890
409.34	40.037
409.69	40.452
410.05	40.025
410.40	40.122
410.76	40.621
411.11	40.772
411.47	40.575
411.83	41.051
412.18	39.765
412.54	40.847
412.89	39.398
413.25	40.083
413.60	40.395
413.96	40.255
414.31	39.976
414.67	41.001
415.03	40.662
415.38	40.206
415.74	39.743
416.09	40.496
416.45	41.031
416.80	39.921
417.16	40.617
417.51	40.478
417.87	39.884
418.22	41.073
418.58	40.865
418.93	41.523
419.29	41.375
419.64	40.932
420.00	41.098
420.35	40.116
420.71	41.602
421.06	40.453
421.42	40.409
421.77	40.359
422.12	39.697
422.48	40.097
422.83	41.875
423.19	40.497
423.54	40.917
423.90	41.681
424.25	40.704
424.61	41.012
424.96	41.050
425.31	41.417
425.67	40.730
426.02	40.400
426.38	41.758
426.73	40.492
427.09	41.216
427.44	40.771
427.79	41.461
428.15	40.833
428.50	40.550
428.85	42.431
429.21	41.634
429.56	41.369
429.92	41.168
430.27	41.261
430.62	40.809
430.98	40.477
431.33	41.701
431.68	41.309
432.04	41.374
432.39	42.090
432.74	41.053
433.10	41.653
433.45	42.157
433.80	42.517
434.16	40.491
434.51	41.368
434.86	42.474
435.22	42.412
435.57	42.736
435.92	41.428
436.28	43.357
436.63	42.384
436.98	41.786
437.34	42.397
437.69	42.590
438.04	42.440
438.39	42.507
438.75	43.056
439.10	42.291
439.45	43.093
439.81	43.082
440.16	41.502
440.51	42.121
440.86	42.617
441.22	42.881
441.57	42.622
441.92	42.784
442.27	42.896
442.63	43.181
442.98	42.592
443.33	42.717
443.68	42.901
444.03	42.020
444.39	42.210
444.74	43.452
445.09	42.749
445.44	41.717
445.79	41.860
446.15	41.715
446.50	41.626
446.85	42.292
447.20	43.549
447.55	43.272
447.91	42.967
448.26	42.571
448.61	42.679
448.96	43.688
449.31	43.251
449.66	43.106
450.02	43.565
450.37	42.914
450.72	42.245
451.07	42.474
451.42	41.945
451.77	42.161
452.12	41.513
452.47	44.465
452.83	43.765
453.18	42.359
453.53	43.105
453.88	42.646
454.23	42.678
454.58	43.186
454.93	44.120
455.28	43.080
455.63	42.840
455.98	44.286
456.34	42.085
456.69	42.830
457.04	42.848
457.39	41.672
457.74	42.600
458.09	42.036
458.44	42.474
458.79	41.215
459.14	42.325
459.49	43.783
459.84	42.105
460.19	42.310
460.54	41.493
460.89	41.964
461.24	42.380
461.59	42.998
461.94	41.862
462.29	42.552
462.64	42.055
462.99	41.900
463.34	42.800
463.69	41.839
464.04	41.623
464.39	42.725
464.74	41.414
465.09	40.712
465.44	41.994
465.79	41.275
466.14	40.941
466.49	41.991
466.84	42.265
467.19	42.305
467.54	43.188
467.89	41.717
468.24	40.896
468.59	42.796
468.94	40.990
469.29	41.838
469.64	41.499
469.99	43.166
470.34	42.668
470.68	42.241
471.03	42.449
471.38	42.738
471.73	40.906
472.08	42.434
472.43	42.965
472.78	42.265
473.13	42.105
473.48	42.572
473.83	42.134
474.17	41.755
474.52	42.432
474.87	42.440
475.22	42.716
475.57	40.570
475.92	41.689
476.27	41.037
476.61	41.699
476.96	42.056
477.31	40.607
477.66	42.013
478.01	41.610
478.36	41.830
478.70	41.381
479.05	41.427
479.40	41.658
479.75	41.383
480.10	41.153
480.45	41.266
480.79	40.707
481.14	40.851
481.49	40.342
481.84	40.832
482.19	41.072
482.53	40.826
482.88	41.694
483.23	40.981
483.58	41.128
483.92	40.722
484.27	39.085
484.62	40.603
484.97	39.850
485.31	39.829
485.66	38.668
486.01	38.338
486.36	38.237
486.70	38.342
487.05	38.926
487.40	39.147
487.75	39.294
488.09	40.340
488.44	39.993
488.79	40.253
489.13	39.954
489.48	39.886
489.83	40.009
490.17	40.377
490.52	39.593
490.87	39.213
491.22	39.836
491.56	39.043
491.91	39.646
492.26	39.504
492.60	40.092
492.95	39.383
493.30	39.252
493.64	38.964
493.99	39.276
494.34	39.963
494.68	40.110
495.03	40.038
495.37	39.367
495.72	39.620
496.07	40.882
496.41	38.717
496.76	38.962
497.11	39.307
497.45	39.124
497.80	40.259
498.14	39.082
498.49	39.659
498.84	39.310
499.18	38.714
499.53	39.554
499.87	39.003
500.22	39.284
500.56	40.388
500.91	39.375
501.26	39.165
501.60	40.484
501.95	39.047
502.29	40.347
502.64	39.804
502.98	39.177
503.33	39.351
503.67	38.840
504.02	38.915
504.36	39.120
504.71	40.059
505.06	39.181
505.40	40.204
505.75	39.007
506.09	39.504
506.44	39.369
506.78	39.308
507.13	39.879
507.47	39.343
507.82	39.868
508.16	40.122
508.51	40.487
508.85	39.076
509.19	40.204
509.54	39.847
509.88	38.949
510.23	39.897
510.57	40.144
510.92	40.394
511.26	40.031
511.61	39.263
511.95	38.935
512.30	38.865
512.64	39.764
512.98	40.247
513.33	39.882
513.67	39.915
514.02	40.368
514.36	40.251
514.70	40.897
515.05	39.710
515.39	40.662
515.74	40.034
516.08	40.861
516.42	40.511
516.77	40.524
517.11	40.622
517.46	40.745
517.80	40.999
518.14	38.738
518.49	40.665
518.83	40.227
519.17	40.820
519.52	41.143
519.86	40.787
520.20	40.347
520.55	40.634
520.89	40.389
521.23	42.159
521.58	39.856
521.92	40.171
522.26	40.268
522.61	41.059
522.95	40.516
523.29	39.866
523.64	41.951
523.98	41.035
524.32	41.194
524.66	40.108
525.01	41.054
525.35	40.954
525.69	40.764
526.04	40.187
526.38	39.963
526.72	40.000
527.06	40.929
527.41	39.233
527.75	41.158
528.09	40.591
528.43	41.173
528.78	40.012
529.12	39.636
529.46	40.294
529.80	42.017
530.15	40.312
530.49	40.000
530.83	40.063
531.17	41.057
531.51	41.764
531.86	40.710
532.20	41.134
532.54	41.192
532.88	40.372
533.22	38.413
533.57	40.679
533.91	40.939
534.25	39.186
534.59	39.780
534.93	39.738
535.27	39.288
535.62	40.354
535.96	40.050
536.30	39.224
536.64	40.631
536.98	39.549
537.32	39.566
537.66	40.333
538.01	40.553
538.35	39.690
538.69	40.077
539.03	39.246
539.37	39.297
539.71	39.145
540.05	40.000
540.39	39.336
540.73	38.551
541.07	39.844
541.42	40.313
541.76	39.935
542.10	39.327
542.44	39.603
542.78	40.250
543.12	37.492
543.46	38.885
543.80	38.907
544.14	38.896
544.48	39.810
544.82	38.871
545.16	39.753
545.50	38.303
545.84	39.046
546.18	39.529
546.52	39.092
546.86	39.038
547.20	39.514
547.54	38.477
547.88	38.967
548.22	39.228
548.56	38.868
548.90	37.708
549.24	37.845
549.58	39.154
549.92	38.255
550.26	40.767
550.60	39.903
550.94	39.366
551.28	39.576
551.62	39.612
551.96	38.596
552.30	38.771
552.64	38.810
552.98	38.983
553.32	38.503
553.66	38.855
554.00	38.641
554.34	38.095
554.68	38.627
555.02	38.364
555.36	38.065
555.69	38.498
556.03	37.012
556.37	38.404
556.71	37.653
557.05	37.885
557.39	39.258
557.73	37.262
558.07	39.231
558.41	38.061
558.75	39.603
559.08	38.702
559.42	39.531
559.76	38.015
560.10	37.616
560.44	37.177
560.78	36.860
561.12	37.599
561.45	37.419
561.79	37.574
562.13	38.028
562.47	38.456
562.81	38.633
563.15	38.528
563.48	38.594
563.82	37.182
564.16	37.737
564.50	37.109
564.84	37.421
565.17	36.551
565.51	37.125
565.85	37.627
566.19	36.944
566.52	36.732
566.86	37.131
567.20	37.854
567.54	37.785
567.88	35.904
568.21	36.984
568.55	36.603
568.89	36.673
569.23	35.740
569.56	36.235
569.90	35.509
570.24	35.056
570.57	34.818
570.91	33.743
571.25	34.188
571.59	34.757
571.92	34.793
572.26	34.373
572.60	34.264
572.93	34.393
573.27	34.516
573.61	34.031
573.95	34.341
574.28	34.095
574.62	34.257
574.96	33.835
575.29	33.754
575.63	33.740
575.97	34.132
576.30	34.121
576.64	33.359
576.98	33.252
577.31	33.826
577.65	33.572
577.98	33.615
578.32	32.784
578.66	33.878
578.99	33.965
579.33	33.721
579.67	33.568
580.00	33.709
580.34	33.935
580.67	32.971
581.01	33.281
581.35	33.136
581.68	32.899
582.02	32.884
582.35	33.707
582.69	33.314
583.02	33.668
583.36	34.263
583.70	33.741
584.03	33.830
584.37	34.203
584.70	34.222
585.04	33.611
585.37	33.108
585.71	33.788
586.04	33.704
586.38	33.908
586.72	33.803
587.05	33.116
587.39	33.113
587.72	33.806
588.06	33.111
588.39	33.964
588.73	33.676
589.06	34.154
589.40	34.613
589.73	34.671
590.07	34.306
590.40	33.613
590.73	34.192
591.07	34.961
591.40	34.880
591.74	35.844
592.07	34.468
592.41	33.609
592.74	33.895
593.08	33.045
593.41	33.407
593.75	32.667
594.08	33.959
594.41	33.687
594.75	34.529
595.08	34.001
595.42	34.641
595.75	33.333
596.09	33.684
596.42	34.695
596.75	34.740
597.09	34.632
597.42	33.600
597.75	33.765
598.09	35.217
598.42	34.149
598.76	33.239
599.09	33.409
599.42	33.261
599.76	33.565
600.09	32.823
600.42	33.492
600.76	33.107
601.09	33.515
601.42	33.447
601.76	33.472
602.09	34.032
602.42	34.395
602.76	33.817
603.09	33.281
603.42	33.581
603.76	33.270
604.09	33.618
604.42	34.244
604.76	34.332
605.09	34.426
605.42	33.561
605.75	33.402
606.09	33.713
606.42	33.592
606.75	32.891
607.09	33.864
607.42	33.419
607.75	32.236
608.08	33.652
608.42	33.797
608.75	33.228
609.08	33.580
609.41	34.031
609.75	33.397
610.08	33.930
610.41	33.007
610.74	34.059
611.07	34.091
611.41	34.691
611.74	34.540
612.07	34.265
612.40	34.208
612.73	32.789
613.07	34.213
613.40	33.913
613.73	33.508
614.06	34.086
614.39	33.036
614.72	33.579
615.06	33.036
615.39	33.652
615.72	33.027
616.05	33.014
616.38	33.407
616.71	33.610
617.05	34.747
617.38	33.794
617.71	33.994
618.04	33.894
618.37	33.057
618.70	34.225
619.03	34.474
619.36	34.555
619.69	34.225
620.03	35.234
620.36	33.623
620.69	34.041
621.02	34.882
621.35	34.377
621.68	33.801
622.01	34.520
622.34	34.342
622.67	35.285
623.00	34.776
623.33	34.382
623.66	35.025
623.99	35.199
624.32	34.165
624.65	33.686
624.99	34.348
625.32	33.888
625.65	34.711
625.98	35.665
626.31	34.526
626.64	35.102
626.97	34.830
627.30	33.998
627.63	34.619
627.96	35.660
628.29	35.783
628.62	35.041
628.95	35.849
629.28	34.307
629.61	36.755
629.94	37.238
630.26	35.748
630.59	35.844
630.92	35.345
631.25	33.860
631.58	34.434
631.91	34.990
632.24	34.810
632.57	36.306
632.90	35.746
633.23	36.130
633.56	36.610
633.89	35.674
634.22	35.982
634.55	38.225
634.88	35.928
635.20	35.364
635.53	36.386
635.86	37.871
636.19	34.824
636.52	35.986
636.85	36.312
637.18	35.138
637.51	36.998
637.83	32.799
638.16	36.829
638.49	37.028
638.82	36.283
639.15	36.000
639.48	37.032
639.81	37.131
640.13	37.109
640.46	37.315
640.79	37.913
641.12	35.351
641.45	38.128
641.77	39.028
642.10	36.988
642.43	35.285
642.76	35.759
643.09	38.344
643.41	37.329
643.74	38.426
644.07	36.738
644.40	38.190
644.73	36.378
645.05	37.718
645.38	35.229
645.71	37.198
646.04	38.704
646.36	38.564
646.69	37.793
647.02	38.265
647.35	38.316
647.67	40.354
648.00	38.537
648.33	36.964
648.66	36.061
648.98	38.381
649.31	35.874
649.64	37.519
649.96	38.003
650.29	36.651
650.62	37.055
650.94	38.412
651.27	38.007
651.60	39.601
651.92	35.623
652.25	36.645
652.58	37.850
652.90	38.073
653.23	36.055
653.56	37.638
653.88	38.193
654.21	37.757
654.54	35.149
654.86	36.760
655.19	36.351
655.52	28.033
655.84	26.525
656.17	33.667
656.49	45.286
656.82	46.605
657.15	35.354
657.47	26.791
657.80	20.443
658.13	21.093
658.45	31.611
658.78	31.979
659.10	32.082
659.43	33.424
659.75	33.184
660.08	35.380
660.41	37.058
660.73	36.722
661.06	35.987
661.38	40.000
661.71	35.769
662.03	42.209
662.36	36.978
662.68	38.353
663.01	37.374
663.33	38.217
663.66	38.025
663.98	37.365
664.31	37.605
664.63	37.449
664.96	36.620
665.28	40.369
665.61	37.232
665.93	36.016
666.26	39.959
666.58	38.075
666.91	41.649
667.23	40.449
667.56	38.445
667.88	37.179
668.21	43.070
668.53	37.093
668.86	39.394
669.18	39.446
669.50	38.913
669.83	40.523
670.15	39.333
670.48	35.512
670.80	39.871
671.13	39.703
671.45	38.511
671.77	38.697
672.10	38.817
672.42	36.926
672.75	37.479
673.07	39.085
673.39	36.347
673.72	36.328
674.04	37.451
674.37	36.699
674.69	36.605
675.01	38.703
675.34	39.220
675.66	42.105
675.98	38.697
676.31	38.655
676.63	35.881
676.95	36.059
677.28	37.383
677.60	42.198
677.92	39.451
678.25	37.577
678.57	37.849
678.89	37.275
679.22	37.328
679.54	37.405
679.86	38.532
680.18	37.388
680.51	35.284
680.83	36.477
681.15	37.547
681.48	41.210
681.80	38.685
682.12	38.697
682.44	33.849
682.77	38.289
683.09	39.485
683.41	40.798
683.73	38.411
684.06	39.463
684.38	36.595
684.70	40.891
685.02	38.274
685.34	36.813
685.67	36.713
685.99	35.223
686.31	35.495
686.63	34.806
686.96	35.000
687.28	35.379
687.60	37.681
687.92	37.112
688.24	38.403
688.56	36.747
688.89	36.929
689.21	38.428
689.53	35.491
689.85	38.359
690.17	35.611
690.49	35.669
690.82	40.187
691.14	35.491
691.46	36.287
691.78	37.149
692.10	40.496
692.42	36.527
692.74	35.062
693.06	35.319
693.39	39.220
693.71	38.210
694.03	39.579
694.35	37.662
694.67	36.384
694.99	37.561
695.31	38.235
695.63	39.713
695.95	39.609
696.27	37.056
696.59	38.083
696.91	38.342
697.23	35.446
697.56	38.166
697.88	34.356
698.20	34.167
698.52	38.280
698.84	38.753
699.16	37.327
699.48	35.867
699.80	40.821
700.12	41.558
700.44	39.788
700.76	40.884
701.08	40.805
701.40	41.061
701.72	40.525
702.04	44.034
702.36	38.527
702.68	39.943
703.00	38.781
703.32	35.106
703.64	38.874
703.96	38.440
704.28	37.500
704.60	39.883
704.91	40.356
705.23	40.469
705.55	40.532
705.87	44.518
706.19	40.989
706.51	39.564
706.83	44.242
707.15	40.336
707.47	38.636
707.79	37.101
708.11	36.073
708.43	36.190
708.74	35.714
709.06	40.000
709.38	35.433
709.70	40.116
710.02	39.763
710.34	39.697
710.66	40.896
710.98	40.909
711.29	38.953
711.61	39.528
711.93	42.308
712.25	42.765
712.57	38.603
712.89	44.637
713.20	42.249
713.52	40.789
713.84	38.608
714.16	40.854
714.48	41.092
714.80	45.289
715.11	38.329
715.43	39.466
715.75	41.449
716.07	42.173
716.39	39.185
716.70	40.199
717.02	45.324
717.34	40.636
717.66	43.284
717.97	41.434
718.29	42.593
718.61	41.971
718.93	43.750
719.24	44.291
719.56	37.288
719.88	41.695
720.20	41.892
720.51	43.554
720.83	46.468
721.15	44.403
721.46	38.652
721.78	45.878
722.10	43.019
722.42	43.985
722.73	45.318
723.05	45.082
723.37	42.915
723.68	44.402
724.00	45.122
724.32	41.532
724.63	41.057
724.95	42.678
725.27	48.178
725.58	42.969
725.90	44.526
726.22	41.509
726.53	44.097
726.85	44.710
727.16	44.484
727.48	39.716
727.80	42.803
728.11	43.116
728.43	42.308
728.74	41.219
729.06	46.715
729.38	49.265
729.69	42.705
730.01	39.249
730.32	39.583
730.64	37.793
730.96	40.924
731.27	42.053
731.59	37.615
731.90	42.274
732.22	42.547
732.53	38.080
732.85	40.705
733.16	42.122
733.48	41.528
733.80	39.286
734.11	37.580
734.43	41.124
734.74	37.429
735.06	37.822
735.37	41.908
735.69	37.261
736.00	42.157
736.32	40.810
736.63	38.658
736.95	41.214
737.26	38.435
737.58	36.774
737.89	39.799
738.21	40.273
738.52	42.143
738.83	36.226
739.15	41.923
739.46	47.080
739.78	47.222
740.09	38.769
740.41	42.581
740.72	37.979
741.04	39.630
741.35	42.917
741.66	47.556
741.98	41.038
742.29	49.761
742.61	48.276
742.92	42.081
743.23	44.017
743.55	44.800
743.86	45.614
744.18	47.788
744.49	48.804
744.80	47.418
745.12	45.909
745.43	46.256
745.74	46.396
746.06	46.789
746.37	46.637
746.68	42.986
747.00	45.833
747.31	44.762
747.62	40.708
747.94	41.850
748.25	40.426
748.56	50.661
748.88	43.069
749.19	49.000
749.50	44.186
749.82	40.244
750.13	38.776
750.44	43.066
750.75	46.316
751.07	44.373
751.38	39.024
751.69	46.209
752.01	44.737
752.32	40.433
752.63	40.780
752.94	42.623
753.26	48.000
753.57	39.431
753.88	45.703
754.19	42.143
754.51	43.056
754.82	36.462
755.13	40.755
755.44	42.105
755.75	40.876
756.07	41.135
756.38	35.401
756.69	41.946
757.00	36.527
757.31	39.169
757.63	35.088
757.94	36.997
758.25	36.765
758.56	37.037
758.87	33.602
759.18	37.576
759.50	37.304
759.81	42.056
760.12	34.375
760.43	39.542
760.74	36.685
761.05	37.006
761.36	35.829
761.67	39.773
761.99	37.267
762.30	42.361
762.61	42.366
762.92	39.062
763.23	42.017
763.54	45.200
763.85	41.797
764.16	45.385
764.47	45.627
764.78	38.516
765.10	38.608
765.41	38.348
765.72	36.228
766.03	35.110
766.34	40.667
766.65	45.957
766.96	43.162
767.27	46.193
767.58	47.396
767.89	53.158
768.20	52.874
768.51	46.701
768.82	42.661
769.13	40.244
769.44	40.486
769.75	43.777
770.06	40.367
770.37	47.511
770.68	46.759
770.99	45.778
771.30	34.836
771.61	40.359
771.92	40.574
772.23	49.580
772.54	46.154
772.85	45.026
773.16	54.787
773.47	57.609
773.78	49.746
774.09	51.786
774.39	47.368
774.70	53.704
775.01	57.246
775.32	55.556
775.63	54.605
775.94	56.115
776.25	56.693
776.56	58.209
776.87	49.180
777.18	61.719
777.48	68.702
777.79	57.576
778.10	60.000
778.41	67.857
778.72	49.635
779.03	47.651
779.34	54.362
779.65	50.000
779.95	52.761
780.26	56.863
780.57	51.034
780.88	66.406
781.19	56.391
781.50	54.054
781.80	54.088
782.11	41.808
782.42	47.468
782.73	47.853
783.04	49.324
783.34	54.930
783.65	56.849
783.96	59.701
784.27	44.755
784.57	44.604
784.88	58.333
785.19	64.286
785.50	61.321
785.81	65.672
786.11	63.934
786.42	60.465
786.73	64.602
787.04	58.491
787.34	58.036
787.65	65.000
787.96	61.261
788.26	59.504
788.57	66.949
788.88	61.983
789.19	57.639
789.49	60.606
789.80	61.832
790.11	66.667
790.41	75.248
790.72	71.084
791.03	69.565
791.33	58.140
791.64	64.948
791.95	74.257
792.25	72.222
792.56	72.727
792.87	84.615
793.17	82.278
793.48	75.862
793.79	73.563
794.09	75.000
794.40	63.025
794.70	57.353
795.01	49.630
795.32	53.957
795.62	56.693
795.93	62.931
796.23	62.832
796.54	65.882
796.85	64.865
797.15	85.915
797.46	60.606
797.76	83.133
798.07	83.544
798.37	87.692
798.68	80.303
798.99	73.239
799.29	61.039
799.60	76.136
799.90	86.301
800.21	88.060
800.51	100.000
800.82	98.246
801.12	103.279
801.43	87.879
801.73	71.622
802.04	82.540
802.34	86.420
802.65	81.250
802.95	96.610
803.26	89.063
803.56	72.857
803.87	76.923
804.17	88.235
804.48	98.148
804.78	103.448
805.09	80.882
805.39	96.154
805.70	92.857
806.00	101.639
806.30	96.970
806.61	76.829
806.91	77.215
807.22	63.158
807.52	83.582
807.83	88.732
808.13	92.188
808.43	95.000
808.74	60.526
809.04	89.855
809.35	79.104
809.65	82.895
809.95	106.452
810.26	88.136
810.56	95.238
810.86	104.545
811.17	145.238
811.47	98.333
811.77	103.704
812.08	103.636
812.38	106.000
812.69	119.444
812.99	125.000
813.29	106.122
813.59	109.524
813.90	144.898
814.20	81.818
814.50	64.615
814.81	100.000
815.11	116.327
815.41	78.689
815.72	128.571
816.02	109.091
816.32	116.667
816.62	155.000
816.93	119.512
817.23	97.619
817.53	125.000
817.84	154.545
818.14	123.913
818.44	111.111
818.74	152.941
819.04	132.500
819.35	128.571
819.65	144.118
819.95	121.429
820.25	210.000
820.56	141.026
820.86	106.818
821.16	130.233
821.46	133.333
821.76	136.000
822.07	137.143
822.37	160.000
822.67	157.576
822.97	68.627
823.27	192.857
823.57	129.730
823.88	137.500
824.18	166.667
824.48	111.905
824.78	184.000
825.08	175.000
825.38	121.622
825.69	121.951
825.99	175.000
826.29	124.138
826.59	128.947
826.89	110.526
827.19	129.412
827.49	167.742
827.79	131.818
828.09	134.091
828.39	106.383
828.70	116.327
829.00	103.704
829.30	129.032
829.60	117.500
829.90	273.333
830.20	192.857
830.50	173.913
830.80	178.261
831.10	180.000
831.40	146.667
831.70	186.957
832.00	203.846
832.30	185.185
832.60	250.000
832.90	190.000
833.20	350.000
833.50	151.613
833.80	165.517
834.10	190.625
834.40	203.846
834.70	261.111
835.00	280.952
835.30	122.857
835.60	292.308
835.90	141.379
836.20	257.143
836.50	162.069
836.80	144.000
837.10	133.333
837.40	204.762
837.70	288.235
838.00	185.185
838.30	171.429
838.60	242.857
838.90	203.846
839.19	210.000
839.49	350.000
839.79	270.000
840.09	220.000
840.39	195.238
840.69	213.043
840.99	250.000
841.29	470.000
841.59	366.667
841.88	293.750
842.18	144.828
842.48	214.286
842.78	160.000
843.08	213.043
843.38	156.250
843.68	550.000
843.97	207.692
844.27	182.759
844.57	228.571
844.87	281.250
845.17	174.074
845.47	1233.333
845.76	300.000
846.06	282.353
846.36	412.500
846.66	350.000
846.96	193.750
847.25	372.727
847.55	218.182
847.85	204.348
848.15	390.000
848.44	285.714
848.74	261.111
849.04	223.529
849.34	530.000
849.63	252.632
849.93	263.636
850.23	880.000
850.53	357.143
850.82	1950.000
851.12	-2800.000
851.42	4200.000
851.71	250.000
852.01	-1200.000
852.31	162.500
852.61	1066.667
852.90	228.571
853.20	168.000
853.50	282.353
853.79	209.524
854.09	166.667
854.39	300.000
854.68	178.378
854.98	148.387
855.28	140.000
855.57	193.103
855.87	181.481
856.17	226.316
856.46	206.667
856.76	252.941
857.05	172.414
857.35	187.500
857.65	220.000
857.94	234.783
858.24	238.462
858.53	275.000
858.83	200.000
859.13	340.000
859.42	0.000
859.72	477.778
860.01	272.727
860.31	218.182
860.60	236.842
860.90	186.957
861.20	433.333
861.49	441.667
861.79	-3800.000
862.08	487.500
862.38	228.571
862.67	292.308
862.97	264.706
863.26	355.556
863.56	244.444
863.85	358.333
864.15	537.500
864.44	333.333
864.74	833.333
865.03	512.500
865.33	252.632
865.62	327.273
865.92	423.077
866.21	358.333
866.51	0.000
866.80	418.182
867.10	800.000
867.39	430.769
867.69	318.182
867.98	215.789
868.27	372.727
868.57	252.632
868.86	-3600.000
869.16	243.750
869.45	1200.000
869.75	-4500.000
870.04	316.667
870.33	500.000
870.63	800.000
870.92	2450.000
871.22	571.429
871.51	282.353
871.80	161.905
872.10	350.000
>>>>>End Processed Spectral Data<<<<<
