SpectraSuite Data File
++++++++++++++++++++++++++++++++++++
Date: Wed May 13 20:30:33 PDT 2015
User: schluterlab
Dark Spectrum Present: Yes
Reference Spectrum Present: Yes
Number of Sampled Component Spectra: 1
Spectrometers: USB2E3373
Integration Time (usec): 3000 (USB2E3373)
Spectra Averaged: 3 (USB2E3373)
Boxcar Smoothing: 0 (USB2E3373)
Correct for Electrical Dark: No (USB2E3373)
Strobe/Lamp Enabled: No (USB2E3373)
Correct for Detector Non-linearity: No (USB2E3373)
Correct for Stray Light: No (USB2E3373)
Number of Pixels in Processed Spectrum: 2048
>>>>>Begin Processed Spectral Data<<<<<
178.53	0.000
178.91	-925.000
179.29	-900.000
179.67	-122.222
180.04	-800.000
180.42	2400.000
180.80	880.000
181.18	-725.000
181.56	357.143
181.94	0.000
182.31	-471.429
182.69	1366.667
183.07	-412.500
183.45	-422.222
183.83	418.182
184.20	-250.000
184.58	2100.000
184.96	3400.000
185.34	-680.000
185.72	-425.000
186.09	-2000.000
186.47	2000.000
186.85	1300.000
187.23	4000.000
187.61	-1566.667
187.98	1125.000
188.36	536.364
188.74	372.727
189.12	-740.000
189.49	420.000
189.87	-3200.000
190.25	-1025.000
190.63	314.286
191.00	376.923
191.38	816.667
191.76	-825.000
192.14	1100.000
192.51	500.000
192.89	616.667
193.27	450.000
193.65	-775.000
194.02	390.000
194.40	960.000
194.78	460.000
195.15	391.667
195.53	590.000
195.91	-1700.000
196.29	237.500
196.66	210.526
197.04	-300.000
197.42	0.000
197.79	490.000
198.17	-4000.000
198.55	400.000
198.92	475.000
199.30	740.000
199.68	0.000
200.05	261.111
200.43	657.143
200.81	3300.000
201.18	1500.000
201.56	-1033.333
201.94	366.667
202.31	411.111
202.69	350.000
203.07	380.000
203.44	0.000
203.82	850.000
204.19	571.429
204.57	371.429
204.95	475.000
205.32	1000.000
205.70	418.182
206.08	285.714
206.45	1950.000
206.83	262.500
207.20	550.000
207.58	580.000
207.96	266.667
208.33	575.000
208.71	-566.667
209.08	700.000
209.46	600.000
209.84	372.727
210.21	-866.667
210.59	1175.000
210.96	-412.500
211.34	2000.000
211.71	420.000
212.09	550.000
212.46	0.000
212.84	1466.667
213.22	1125.000
213.59	-3700.000
213.97	783.333
214.34	642.857
214.72	472.727
215.09	780.000
215.47	-2350.000
215.84	-1450.000
216.22	1366.667
216.59	228.571
216.97	1050.000
217.34	472.727
217.72	-466.667
218.09	0.000
218.47	-4100.000
218.84	544.444
219.22	528.571
219.59	1433.333
219.97	-571.429
220.34	880.000
220.72	-1300.000
221.09	342.857
221.47	1150.000
221.84	-583.333
222.22	0.000
222.59	1000.000
222.97	-2400.000
223.34	940.000
223.72	323.077
224.09	860.000
224.46	1750.000
224.84	-3400.000
225.21	-780.000
225.59	-4300.000
225.96	450.000
226.34	230.000
226.71	2250.000
227.08	600.000
227.46	460.000
227.83	-850.000
228.21	-2000.000
228.58	544.444
228.95	-2100.000
229.33	-1600.000
229.70	1266.667
230.08	614.286
230.45	-620.000
230.82	375.000
231.20	516.667
231.57	442.857
231.95	383.333
232.32	190.909
232.69	300.000
233.07	300.000
233.44	215.385
233.81	-1433.333
234.19	226.316
234.56	283.333
234.93	333.333
235.31	400.000
235.68	261.538
236.05	264.286
236.43	130.303
236.80	189.474
237.17	3000.000
237.55	219.048
237.92	175.000
238.29	195.238
238.67	177.419
239.04	141.379
239.41	113.889
239.79	84.783
240.16	116.667
240.53	122.727
240.91	90.196
241.28	94.000
241.65	88.000
242.02	79.710
242.40	67.742
242.77	66.667
243.14	78.495
243.51	73.034
243.89	61.176
244.26	47.778
244.63	61.290
245.00	44.681
245.38	52.475
245.75	57.009
246.12	44.954
246.49	56.204
246.87	58.400
247.24	51.538
247.61	36.429
247.98	40.523
248.36	43.243
248.73	45.860
249.10	43.949
249.47	37.853
249.84	45.455
250.22	42.246
250.59	39.645
250.96	36.869
251.33	42.654
251.70	48.020
252.08	38.095
252.45	36.323
252.82	35.652
253.19	37.872
253.56	34.902
253.94	36.515
254.31	34.375
254.68	36.923
255.05	36.900
255.42	35.366
255.79	34.559
256.16	31.408
256.54	34.629
256.91	34.164
257.28	31.295
257.65	36.964
258.02	31.677
258.39	33.754
258.76	32.107
259.14	31.548
259.51	30.395
259.88	31.366
260.25	28.399
260.62	33.815
260.99	27.950
261.36	31.832
261.73	31.232
262.10	28.198
262.47	31.268
262.85	32.312
263.22	28.205
263.59	32.764
263.96	28.297
264.33	29.765
264.70	29.211
265.07	27.366
265.44	28.283
265.81	28.224
266.18	29.397
266.55	28.293
266.92	28.993
267.29	29.861
267.66	28.211
268.03	26.818
268.40	25.234
268.77	27.446
269.14	29.730
269.51	29.571
269.88	27.972
270.25	26.637
270.62	26.742
270.99	29.462
271.36	30.258
271.73	29.673
272.10	27.609
272.47	28.172
272.84	26.190
273.21	27.044
273.58	26.856
273.95	23.061
274.32	28.099
274.69	24.625
275.06	25.787
275.43	30.213
275.80	28.257
276.17	27.699
276.54	25.156
276.91	25.889
277.28	27.344
277.65	26.306
278.02	28.364
278.39	29.687
278.76	25.273
279.13	26.792
279.50	27.561
279.87	26.096
280.23	27.146
280.60	25.338
280.97	25.139
281.34	25.664
281.71	27.273
282.08	26.488
282.45	26.727
282.82	24.867
283.19	23.351
283.56	24.211
283.92	27.242
284.29	23.280
284.66	26.497
285.03	23.327
285.40	23.768
285.77	24.916
286.14	24.698
286.51	23.667
286.87	24.615
287.24	24.919
287.61	23.435
287.98	25.000
288.35	22.662
288.72	24.299
289.08	22.222
289.45	23.064
289.82	23.740
290.19	21.036
290.56	22.665
290.93	21.299
291.29	22.699
291.66	22.419
292.03	23.547
292.40	23.642
292.77	20.414
293.13	21.045
293.50	22.157
293.87	22.370
294.24	21.481
294.60	19.651
294.97	21.512
295.34	21.439
295.71	20.597
296.08	18.946
296.44	19.945
296.81	20.476
297.18	20.732
297.55	18.734
297.91	18.734
298.28	19.946
298.65	19.974
299.02	19.763
299.38	18.061
299.75	17.251
300.12	19.923
300.48	19.000
300.85	17.633
301.22	19.108
301.59	18.308
301.95	19.018
302.32	20.282
302.69	18.757
303.05	17.576
303.42	17.160
303.79	18.686
304.15	18.065
304.52	17.381
304.89	17.422
305.25	18.213
305.62	17.441
305.99	18.772
306.35	17.226
306.72	17.825
307.09	17.647
307.45	18.018
307.82	17.188
308.19	18.985
308.55	18.339
308.92	18.475
309.29	17.107
309.65	16.755
310.02	17.230
310.38	16.559
310.75	17.951
311.12	19.447
311.48	17.032
311.85	18.344
312.22	17.378
312.58	16.320
312.95	18.796
313.31	16.214
313.68	17.775
314.05	20.316
314.41	18.894
314.78	17.120
315.14	16.485
315.51	17.817
315.87	17.129
316.24	18.173
316.61	17.446
316.97	18.004
317.34	16.536
317.70	17.782
318.07	18.768
318.43	18.885
318.80	18.557
319.16	17.891
319.53	17.824
319.89	19.238
320.26	20.100
320.62	18.254
320.99	19.495
321.35	21.212
321.72	20.329
322.08	20.039
322.45	21.692
322.81	21.705
323.18	20.809
323.54	21.243
323.91	20.755
324.27	21.319
324.64	20.503
325.00	20.920
325.37	22.475
325.73	23.160
326.10	22.683
326.46	23.297
326.83	23.037
327.19	23.313
327.56	23.693
327.92	24.322
328.29	23.957
328.65	23.481
329.01	24.549
329.38	24.884
329.74	25.023
330.11	24.976
330.47	24.426
330.84	24.724
331.20	25.319
331.56	26.055
331.93	26.111
332.29	25.466
332.66	26.372
333.02	24.589
333.38	25.655
333.75	26.381
334.11	24.822
334.48	25.998
334.84	26.746
335.20	27.000
335.57	25.657
335.93	24.911
336.29	25.549
336.66	26.961
337.02	26.063
337.38	26.389
337.75	25.668
338.11	25.962
338.47	26.519
338.84	26.764
339.20	25.596
339.56	26.734
339.93	25.545
340.29	26.812
340.65	26.649
341.02	26.876
341.38	27.402
341.74	26.754
342.11	28.297
342.47	27.048
342.83	26.455
343.20	27.879
343.56	26.285
343.92	25.439
344.28	26.190
344.65	26.655
345.01	26.515
345.37	26.072
345.73	26.565
346.10	26.939
346.46	26.186
346.82	26.112
347.19	24.896
347.55	25.780
347.91	27.346
348.27	27.116
348.63	26.254
349.00	26.456
349.36	26.847
349.72	26.624
350.08	27.634
350.45	26.770
350.81	26.564
351.17	27.147
351.53	26.208
351.89	25.743
352.26	27.309
352.62	27.025
352.98	27.553
353.34	27.773
353.70	26.187
354.07	26.613
354.43	26.190
354.79	25.986
355.15	25.858
355.51	26.938
355.87	27.592
356.24	27.199
356.60	27.105
356.96	28.158
357.32	27.473
357.68	27.717
358.04	26.841
358.40	26.920
358.77	26.761
359.13	26.046
359.49	27.216
359.85	26.587
360.21	26.635
360.57	28.560
360.93	28.154
361.29	26.909
361.66	26.316
362.02	27.015
362.38	27.376
362.74	27.679
363.10	27.313
363.46	26.926
363.82	27.438
364.18	26.579
364.54	28.603
364.90	27.691
365.26	28.309
365.62	26.881
365.98	27.831
366.35	27.722
366.71	28.200
367.07	28.041
367.43	28.592
367.79	28.480
368.15	29.598
368.51	27.544
368.87	28.908
369.23	28.749
369.59	28.602
369.95	28.529
370.31	27.991
370.67	28.333
371.03	29.064
371.39	28.644
371.75	29.118
372.11	28.592
372.47	30.425
372.83	30.620
373.19	27.673
373.55	30.746
373.91	30.118
374.27	29.278
374.63	29.382
374.99	29.379
375.35	29.170
375.71	28.444
376.07	29.630
376.42	30.743
376.78	29.689
377.14	29.579
377.50	30.265
377.86	29.189
378.22	29.393
378.58	29.198
378.94	30.044
379.30	29.962
379.66	31.662
380.02	31.143
380.38	29.933
380.74	31.273
381.09	31.540
381.45	31.715
381.81	31.020
382.17	32.038
382.53	31.384
382.89	31.173
383.25	32.458
383.61	32.094
383.97	32.645
384.32	31.254
384.68	31.413
385.04	32.452
385.40	30.650
385.76	32.064
386.12	32.060
386.48	32.662
386.83	32.842
387.19	32.591
387.55	32.096
387.91	32.104
388.27	31.514
388.62	32.391
388.98	33.231
389.34	31.915
389.70	33.538
390.06	34.347
390.42	33.528
390.77	33.651
391.13	33.695
391.49	33.756
391.85	33.736
392.20	33.502
392.56	33.081
392.92	32.843
393.28	33.491
393.64	33.393
393.99	33.720
394.35	34.429
394.71	33.563
395.07	33.458
395.42	34.363
395.78	34.224
396.14	33.457
396.50	34.962
396.85	34.456
397.21	33.600
397.57	33.912
397.92	34.315
398.28	32.511
398.64	33.692
399.00	35.367
399.35	33.728
399.71	34.780
400.07	35.245
400.42	35.337
400.78	35.103
401.14	35.305
401.49	35.761
401.85	35.209
402.21	34.671
402.57	34.608
402.92	35.309
403.28	36.415
403.63	35.149
403.99	36.115
404.35	35.091
404.70	34.832
405.06	35.061
405.42	35.558
405.77	34.629
406.13	34.594
406.49	35.719
406.84	35.794
407.20	35.106
407.55	35.801
407.91	37.867
408.27	36.184
408.62	36.002
408.98	36.397
409.34	36.162
409.69	36.452
410.05	36.369
410.40	36.514
410.76	36.260
411.11	36.429
411.47	36.294
411.83	37.080
412.18	36.178
412.54	36.488
412.89	37.349
413.25	35.832
413.60	37.122
413.96	35.883
414.31	37.303
414.67	37.072
415.03	37.285
415.38	37.113
415.74	37.749
416.09	37.100
416.45	36.212
416.80	37.343
417.16	38.204
417.51	37.757
417.87	37.572
418.22	38.233
418.58	38.154
418.93	38.329
419.29	37.619
419.64	38.539
420.00	37.988
420.35	37.507
420.71	38.016
421.06	37.888
421.42	38.421
421.77	38.957
422.12	38.349
422.48	38.046
422.83	39.953
423.19	38.950
423.54	39.002
423.90	39.014
424.25	39.978
424.61	40.238
424.96	39.417
425.31	40.033
425.67	38.933
426.02	40.457
426.38	41.514
426.73	40.199
427.09	40.304
427.44	40.713
427.79	40.311
428.15	40.893
428.50	40.843
428.85	40.763
429.21	40.420
429.56	42.250
429.92	41.621
430.27	41.410
430.62	41.219
430.98	42.346
431.33	41.546
431.68	42.461
432.04	41.054
432.39	42.147
432.74	42.071
433.10	43.350
433.45	42.507
433.80	41.962
434.16	42.788
434.51	43.053
434.86	42.132
435.22	42.968
435.57	43.526
435.92	42.657
436.28	44.958
436.63	43.433
436.98	43.789
437.34	44.842
437.69	43.757
438.04	44.182
438.39	44.119
438.75	44.335
439.10	44.804
439.45	45.455
439.81	45.076
440.16	43.139
440.51	44.523
440.86	44.239
441.22	45.328
441.57	43.949
441.92	45.138
442.27	44.510
442.63	44.339
442.98	46.310
443.33	45.217
443.68	45.534
444.03	45.583
444.39	44.596
444.74	45.671
445.09	45.121
445.44	45.763
445.79	45.324
446.15	44.997
446.50	44.373
446.85	45.786
447.20	45.640
447.55	46.231
447.91	44.843
448.26	46.021
448.61	45.110
448.96	46.622
449.31	46.457
449.66	45.020
450.02	45.237
450.37	45.351
450.72	47.208
451.07	45.338
451.42	45.228
451.77	46.506
452.12	44.977
452.47	45.709
452.83	46.678
453.18	47.066
453.53	47.248
453.88	45.777
454.23	45.607
454.58	46.760
454.93	46.090
455.28	46.633
455.63	47.269
455.98	47.679
456.34	46.545
456.69	47.339
457.04	47.802
457.39	46.990
457.74	46.721
458.09	46.521
458.44	47.662
458.79	45.445
459.14	46.332
459.49	46.702
459.84	46.205
460.19	46.730
460.54	44.676
460.89	47.065
461.24	46.327
461.59	47.182
461.94	45.623
462.29	47.240
462.64	46.522
462.99	47.495
463.34	46.333
463.69	47.280
464.04	46.087
464.39	45.507
464.74	47.712
465.09	46.381
465.44	46.039
465.79	46.868
466.14	46.305
466.49	45.662
466.84	46.351
467.19	46.530
467.54	47.438
467.89	46.399
468.24	46.771
468.59	47.314
468.94	46.060
469.29	47.044
469.64	47.456
469.99	48.985
470.34	47.292
470.68	47.989
471.03	47.211
471.38	48.228
471.73	47.169
472.08	48.092
472.43	47.236
472.78	47.663
473.13	47.368
473.48	46.567
473.83	47.561
474.17	46.049
474.52	47.146
474.87	47.169
475.22	47.301
475.57	45.406
475.92	47.053
476.27	46.561
476.61	46.773
476.96	46.234
477.31	46.259
477.66	45.733
478.01	45.008
478.36	47.805
478.70	46.573
479.05	47.391
479.40	46.929
479.75	45.704
480.10	45.726
480.45	44.883
480.79	46.393
481.14	46.037
481.49	45.942
481.84	45.588
482.19	46.025
482.53	45.183
482.88	46.347
483.23	45.607
483.58	45.814
483.92	46.345
484.27	44.880
484.62	45.776
484.97	44.304
485.31	44.863
485.66	42.232
486.01	41.820
486.36	41.540
486.70	41.380
487.05	42.332
487.40	42.365
487.75	43.675
488.09	43.828
488.44	43.662
488.79	44.557
489.13	44.691
489.48	43.760
489.83	43.720
490.17	45.199
490.52	44.863
490.87	44.912
491.22	44.156
491.56	43.964
491.91	45.556
492.26	44.465
492.60	44.424
492.95	44.855
493.30	43.925
493.64	44.610
493.99	44.197
494.34	44.033
494.68	45.009
495.03	44.925
495.37	44.486
495.72	44.932
496.07	45.290
496.41	44.336
496.76	44.151
497.11	44.214
497.45	45.272
497.80	44.866
498.14	43.430
498.49	44.488
498.84	44.727
499.18	46.048
499.53	44.872
499.87	44.268
500.22	45.125
500.56	44.951
500.91	45.240
501.26	44.286
501.60	45.515
501.95	43.538
502.29	45.033
502.64	44.507
502.98	44.834
503.33	43.830
503.67	43.991
504.02	43.779
504.36	43.940
504.71	44.406
505.06	44.723
505.40	44.531
505.75	42.864
506.09	44.169
506.44	44.795
506.78	43.936
507.13	45.280
507.47	45.253
507.82	45.390
508.16	45.289
508.51	45.916
508.85	43.793
509.19	45.204
509.54	44.898
509.88	44.977
510.23	45.656
510.57	45.820
510.92	45.365
511.26	44.245
511.61	44.295
511.95	43.058
512.30	44.645
512.64	44.815
512.98	45.713
513.33	45.931
513.67	44.504
514.02	45.184
514.36	45.276
514.70	46.099
515.05	44.674
515.39	45.934
515.74	45.158
516.08	45.053
516.42	45.560
516.77	45.485
517.11	44.451
517.46	45.485
517.80	46.980
518.14	44.528
518.49	46.149
518.83	46.250
519.17	45.843
519.52	44.426
519.86	45.579
520.20	44.913
520.55	46.858
520.89	46.959
521.23	46.924
521.58	45.558
521.92	46.173
522.26	44.295
522.61	46.916
522.95	46.900
523.29	45.466
523.64	45.976
523.98	46.026
524.32	44.873
524.66	45.761
525.01	44.301
525.35	45.477
525.69	44.951
526.04	45.794
526.38	46.065
526.72	45.276
527.06	46.139
527.41	43.812
527.75	46.238
528.09	45.857
528.43	45.634
528.78	45.298
529.12	44.606
529.46	46.173
529.80	45.111
530.15	45.483
530.49	44.492
530.83	45.127
531.17	45.496
531.51	45.525
531.86	45.548
532.20	44.329
532.54	45.612
532.88	45.058
533.22	44.160
533.57	43.951
533.91	44.311
534.25	44.593
534.59	44.051
534.93	43.546
535.27	43.754
535.62	44.139
535.96	44.256
536.30	44.056
536.64	44.108
536.98	45.853
537.32	44.437
537.66	43.200
538.01	43.120
538.35	43.762
538.69	45.118
539.03	43.730
539.37	41.789
539.71	43.746
540.05	43.987
540.39	43.987
540.73	43.855
541.07	43.348
541.42	44.357
541.76	43.806
542.10	43.014
542.44	43.709
542.78	44.401
543.12	43.122
543.46	43.213
543.80	42.615
544.14	43.646
544.48	42.857
544.82	42.848
545.16	43.656
545.50	42.416
545.84	43.280
546.18	42.963
546.52	41.913
546.86	42.955
547.20	43.830
547.54	41.617
547.88	43.176
548.22	42.839
548.56	41.195
548.90	42.382
549.24	42.761
549.58	43.452
549.92	42.582
550.26	43.466
550.60	42.047
550.94	42.887
551.28	43.087
551.62	43.422
551.96	41.965
552.30	42.116
552.64	42.664
552.98	42.237
553.32	41.065
553.66	42.331
554.00	43.514
554.34	41.960
554.68	42.990
555.02	43.441
555.36	41.823
555.69	41.204
556.03	42.194
556.37	42.019
556.71	41.269
557.05	43.417
557.39	41.078
557.73	41.637
558.07	41.624
558.41	43.126
558.75	42.101
559.08	43.102
559.42	41.648
559.76	42.647
560.10	41.827
560.44	41.440
560.78	40.253
561.12	40.699
561.45	41.656
561.79	40.013
562.13	40.979
562.47	40.915
562.81	42.399
563.15	40.936
563.48	40.915
563.82	39.987
564.16	40.680
564.50	40.560
564.84	39.633
565.17	40.541
565.51	40.192
565.85	40.228
566.19	39.762
566.52	40.152
566.86	38.999
567.20	38.620
567.54	39.897
567.88	38.186
568.21	38.254
568.55	38.726
568.89	37.743
569.23	37.879
569.56	37.004
569.90	36.792
570.24	36.347
570.57	34.546
570.91	34.939
571.25	35.423
571.59	34.993
571.92	34.850
572.26	34.749
572.60	34.805
572.93	34.513
573.27	33.836
573.61	34.618
573.95	34.057
574.28	33.794
574.62	34.038
574.96	32.951
575.29	33.075
575.63	33.283
575.97	33.247
576.30	33.590
576.64	33.131
576.98	33.228
577.31	33.595
577.65	33.268
577.98	32.891
578.32	32.486
578.66	32.704
578.99	32.869
579.33	33.115
579.67	32.717
580.00	32.558
580.34	33.318
580.67	32.853
581.01	33.303
581.35	32.829
581.68	32.695
582.02	32.150
582.35	33.002
582.69	32.670
583.02	33.166
583.36	33.180
583.70	33.492
584.03	32.811
584.37	33.333
584.70	33.020
585.04	32.926
585.37	33.131
585.71	32.472
586.04	32.834
586.38	33.229
586.72	33.720
587.05	32.301
587.39	33.087
587.72	34.166
588.06	33.244
588.39	33.196
588.73	33.969
589.06	33.718
589.40	33.434
589.73	34.354
590.07	33.950
590.40	33.504
590.73	34.778
591.07	34.432
591.40	35.006
591.74	35.195
592.07	34.293
592.41	34.560
592.74	33.933
593.08	33.578
593.41	33.028
593.75	33.417
594.08	33.724
594.41	34.677
594.75	33.937
595.08	33.966
595.42	33.870
595.75	33.405
596.09	33.872
596.42	34.106
596.75	33.938
597.09	34.805
597.42	33.390
597.75	34.153
598.09	34.478
598.42	33.978
598.76	33.887
599.09	33.675
599.42	33.151
599.76	33.382
600.09	33.078
600.42	33.419
600.76	33.036
601.09	33.042
601.42	33.333
601.76	32.751
602.09	33.913
602.42	33.877
602.76	33.172
603.09	33.989
603.42	34.283
603.76	32.812
604.09	32.803
604.42	33.592
604.76	34.289
605.09	32.853
605.42	33.348
605.75	33.320
606.09	33.184
606.42	33.429
606.75	33.098
607.09	33.780
607.42	33.162
607.75	32.152
608.08	32.696
608.42	33.797
608.75	32.642
609.08	33.164
609.41	33.270
609.75	33.969
610.08	33.836
610.41	33.240
610.74	33.538
611.07	34.486
611.41	33.710
611.74	34.188
612.07	34.472
612.40	33.631
612.73	34.316
613.07	34.537
613.40	34.650
613.73	33.089
614.06	34.839
614.39	33.141
614.72	32.789
615.06	33.561
615.39	33.227
615.72	32.924
616.05	33.333
616.38	33.630
616.71	34.917
617.05	33.863
617.38	34.336
617.71	33.994
618.04	34.856
618.37	34.772
618.70	35.470
619.03	34.737
619.36	34.352
619.69	35.070
620.03	35.302
620.36	35.094
620.69	35.342
621.02	35.767
621.35	34.143
621.68	35.202
622.01	35.449
622.34	35.023
622.67	35.133
623.00	34.629
623.33	33.881
623.66	34.668
623.99	35.493
624.32	34.736
624.65	35.452
624.99	34.278
625.32	34.685
625.65	35.838
625.98	35.665
626.31	36.081
626.64	36.898
626.97	35.495
627.30	35.495
627.63	36.013
627.96	36.165
628.29	35.783
628.62	36.688
628.95	37.547
629.28	36.496
629.61	36.755
629.94	37.143
630.26	38.704
630.59	37.941
630.92	36.590
631.25	37.019
631.58	36.537
631.91	36.308
632.24	37.236
632.57	37.880
632.90	37.939
633.23	37.808
633.56	40.000
633.89	37.486
634.22	38.933
634.55	37.278
634.88	37.964
635.20	39.068
635.53	39.518
635.86	38.366
636.19	38.706
636.52	37.370
636.85	38.373
637.18	35.945
637.51	37.825
637.83	36.991
638.16	40.281
638.49	38.917
638.82	40.329
639.15	38.250
639.48	37.406
639.81	40.214
640.13	38.151
640.46	40.805
640.79	38.045
641.12	36.864
641.45	39.246
641.77	43.446
642.10	38.889
642.43	37.387
642.76	39.009
643.09	41.258
643.41	41.426
643.74	40.741
644.07	38.415
644.40	39.571
644.73	41.890
645.05	42.789
645.38	39.336
645.71	41.063
646.04	41.362
646.36	41.068
646.69	41.137
647.02	40.476
647.35	42.440
647.67	43.186
648.00	40.488
648.33	41.914
648.66	37.879
648.98	39.280
649.31	36.921
649.64	39.312
649.96	38.748
650.29	39.179
650.62	40.453
650.94	39.870
651.27	40.541
651.60	39.933
651.92	37.859
652.25	40.228
652.58	41.900
652.90	40.758
653.23	38.213
653.56	39.685
653.88	39.303
654.21	39.494
654.54	40.099
654.86	40.187
655.19	35.000
655.52	27.316
655.84	25.158
656.17	31.612
656.49	42.079
656.82	42.107
657.15	31.895
657.47	23.481
657.80	17.711
658.13	18.194
658.45	26.615
658.78	26.708
659.10	27.458
659.43	28.761
659.75	29.031
660.08	30.443
660.41	32.588
660.73	36.849
661.06	37.420
661.38	41.091
661.71	42.500
662.03	42.998
662.36	38.569
662.68	41.968
663.01	42.424
663.33	44.374
663.66	42.017
663.98	41.685
664.31	41.176
664.63	40.283
664.96	37.827
665.28	41.393
665.61	40.936
665.93	42.052
666.26	38.337
666.58	42.887
666.91	40.803
667.23	44.045
667.56	38.013
667.88	41.239
668.21	39.019
668.53	39.696
668.86	40.043
669.18	41.365
669.50	42.174
669.83	41.394
670.15	43.333
670.48	40.741
670.80	42.241
671.13	41.189
671.45	41.277
671.77	39.715
672.10	39.741
672.42	39.929
672.75	37.645
673.07	36.620
673.39	39.241
673.72	37.500
674.04	38.235
674.37	35.922
674.69	40.286
675.01	39.749
675.34	41.889
675.66	43.158
675.98	40.530
676.31	41.176
676.63	38.004
676.95	39.832
677.28	41.121
677.60	41.319
677.92	41.772
678.25	40.041
678.57	40.438
678.89	39.279
679.22	37.132
679.54	39.695
679.86	39.633
680.18	37.746
680.51	38.652
680.83	34.875
681.15	38.679
681.48	41.399
681.80	37.331
682.12	36.207
682.44	37.718
682.77	37.067
683.09	44.635
683.41	41.242
683.73	40.397
684.06	39.256
684.38	40.313
684.70	37.984
685.02	39.775
685.34	36.813
685.67	35.315
685.99	35.911
686.31	36.177
686.63	35.159
686.96	37.857
687.28	35.199
687.60	35.145
687.92	36.746
688.24	36.312
688.56	39.960
688.89	39.004
689.21	41.921
689.53	36.117
689.85	40.133
690.17	37.060
690.49	37.792
690.82	41.589
691.14	37.054
691.46	39.030
691.78	39.960
692.10	39.256
692.42	37.325
692.74	36.307
693.06	39.362
693.39	36.961
693.71	39.738
694.03	38.316
694.35	36.580
694.67	38.444
694.99	41.463
695.31	39.461
695.63	39.474
695.95	41.320
696.27	36.548
696.59	37.565
696.91	40.674
697.23	34.038
697.56	36.247
697.88	35.174
698.20	36.458
698.52	36.129
698.84	36.526
699.16	37.558
699.48	39.430
699.80	40.097
700.12	44.416
700.44	42.971
700.76	40.608
701.08	40.517
701.40	40.223
701.72	43.440
702.04	44.886
702.36	42.210
702.68	41.643
703.00	42.936
703.32	40.691
703.64	39.678
703.96	41.226
704.28	43.023
704.60	41.056
704.91	41.246
705.23	40.469
705.55	50.498
705.87	46.844
706.19	45.230
706.51	41.121
706.83	41.515
707.15	41.176
707.47	41.162
707.79	38.329
708.11	35.616
708.43	40.238
708.74	35.714
709.06	40.519
709.38	37.795
709.70	39.244
710.02	42.136
710.34	36.970
710.66	46.567
710.98	44.602
711.29	42.151
711.61	43.363
711.93	38.462
712.25	42.122
712.57	42.647
712.89	44.983
713.20	42.553
713.52	44.079
713.84	42.405
714.16	40.244
714.48	37.931
714.80	44.681
715.11	44.380
715.43	37.389
715.75	39.130
716.07	42.173
716.39	38.245
716.70	40.532
717.02	43.165
717.34	41.696
717.66	47.388
717.97	49.801
718.29	41.852
718.61	45.985
718.93	40.809
719.24	40.484
719.56	38.644
719.88	42.373
720.20	43.581
720.51	45.296
720.83	44.238
721.15	41.418
721.46	40.780
721.78	47.312
722.10	42.264
722.42	47.368
722.73	42.322
723.05	44.672
723.37	44.130
723.68	37.838
724.00	46.341
724.32	45.161
724.63	47.154
724.95	45.607
725.27	46.154
725.58	46.484
725.90	48.905
726.22	45.660
726.53	36.111
726.85	45.051
727.16	48.043
727.48	43.617
727.80	45.455
728.11	43.841
728.43	43.462
728.74	41.219
729.06	47.445
729.38	43.015
729.69	45.552
730.01	41.297
730.32	37.153
730.64	42.809
730.96	38.284
731.27	45.695
731.59	39.144
731.90	39.067
732.22	39.130
732.53	39.319
732.85	39.744
733.16	38.907
733.48	35.548
733.80	36.688
734.11	41.083
734.43	38.757
734.74	36.857
735.06	35.817
735.37	42.486
735.69	33.439
736.00	40.523
736.32	40.498
736.63	39.617
736.95	37.700
737.26	37.415
737.58	38.065
737.89	38.127
738.21	41.297
738.52	42.857
738.83	40.377
739.15	40.769
739.46	44.161
739.78	43.056
740.09	40.308
740.41	38.065
740.72	41.115
741.04	40.370
741.35	44.167
741.66	52.000
741.98	45.755
742.29	44.976
742.61	47.414
742.92	45.701
743.23	41.026
743.55	46.800
743.86	48.246
744.18	42.478
744.49	44.498
744.80	50.235
745.12	50.000
745.43	47.577
745.74	47.297
746.06	48.165
746.37	45.291
746.68	43.439
747.00	49.074
747.31	51.905
747.62	38.496
747.94	47.577
748.25	38.723
748.56	43.612
748.88	46.040
749.19	42.000
749.50	36.744
749.82	46.341
750.13	41.224
750.44	40.511
750.75	41.754
751.07	39.871
751.38	38.328
751.69	44.765
752.01	37.594
752.32	38.628
752.63	41.135
752.94	43.033
753.26	47.600
753.57	36.585
753.88	44.141
754.19	40.357
754.51	45.833
754.82	40.072
755.13	45.660
755.44	38.722
755.75	43.431
756.07	39.362
756.38	39.051
756.69	38.255
757.00	35.030
757.31	37.982
757.63	37.135
757.94	36.193
758.25	33.824
758.56	35.556
758.87	33.065
759.18	34.848
759.50	35.737
759.81	36.137
760.12	35.312
760.43	38.109
760.74	32.880
761.05	35.593
761.36	34.492
761.67	34.375
761.99	37.578
762.30	38.889
762.61	39.695
762.92	42.188
763.23	39.076
763.54	47.600
763.85	42.578
764.16	40.000
764.47	41.445
764.78	38.516
765.10	35.127
765.41	36.283
765.72	37.126
766.03	35.737
766.34	33.333
766.65	46.383
766.96	38.034
767.27	44.162
767.58	47.917
767.89	52.632
768.20	47.126
768.51	49.239
768.82	48.624
769.13	41.870
769.44	37.652
769.75	41.631
770.06	41.284
770.37	43.439
770.68	42.130
770.99	43.556
771.30	36.066
771.61	47.982
771.92	42.213
772.23	42.857
772.54	40.000
772.85	51.309
773.16	40.957
773.47	45.109
773.78	53.807
774.09	49.405
774.39	52.047
774.70	40.741
775.01	57.246
775.32	53.595
775.63	51.316
775.94	58.273
776.25	59.843
776.56	56.716
776.87	57.377
777.18	60.156
777.48	59.542
777.79	54.545
778.10	51.111
778.41	56.250
778.72	48.905
779.03	53.691
779.34	53.691
779.65	52.027
779.95	47.853
780.26	59.477
780.57	57.931
780.88	65.625
781.19	47.368
781.50	54.054
781.80	45.912
782.11	50.282
782.42	53.165
782.73	52.147
783.04	52.703
783.34	51.408
783.65	56.164
783.96	60.448
784.27	48.252
784.57	38.849
784.88	50.000
785.19	58.730
785.50	66.981
785.81	57.463
786.11	64.754
786.42	51.163
786.73	59.292
787.04	60.377
787.34	67.857
787.65	59.000
787.96	68.468
788.26	50.413
788.57	62.712
788.88	66.116
789.19	53.472
789.49	64.394
789.80	50.382
790.11	67.619
790.41	73.267
790.72	63.855
791.03	75.000
791.33	65.116
791.64	75.258
791.95	62.376
792.25	82.222
792.56	90.909
792.87	84.615
793.17	74.684
793.48	79.310
793.79	58.621
794.09	78.409
794.40	57.143
794.70	60.294
795.01	51.111
795.32	53.237
795.62	46.457
795.93	57.759
796.23	60.177
796.54	76.471
796.85	71.622
797.15	91.549
797.46	75.758
797.76	75.904
798.07	83.544
798.37	86.154
798.68	71.212
798.99	73.239
799.29	70.130
799.60	77.273
799.90	72.603
800.21	89.552
800.51	96.552
800.82	84.211
801.12	101.639
801.43	95.455
801.73	68.919
802.04	82.540
802.34	66.667
802.65	84.375
802.95	94.915
803.26	100.000
803.56	64.286
803.87	92.308
804.17	82.353
804.48	88.889
804.78	96.552
805.09	73.529
805.39	92.308
805.70	91.071
806.00	86.885
806.30	63.636
806.61	75.610
806.91	64.557
807.22	55.263
807.52	70.149
807.83	67.606
808.13	75.000
808.43	85.000
808.74	69.737
809.04	76.812
809.35	83.582
809.65	69.737
809.95	100.000
810.26	76.271
810.56	107.937
810.86	106.818
811.17	128.571
811.47	93.333
811.77	88.889
812.08	100.000
812.38	100.000
812.69	127.778
812.99	118.182
813.29	120.408
813.59	90.476
813.90	114.286
814.20	78.182
814.50	80.000
814.81	86.765
815.11	85.714
815.41	77.049
815.72	130.952
816.02	112.727
816.32	119.048
816.62	112.500
816.93	114.634
817.23	140.476
817.53	125.000
817.84	169.697
818.14	117.391
818.44	108.889
818.74	167.647
819.04	107.500
819.35	134.286
819.65	129.412
819.95	146.429
820.25	190.000
820.56	143.590
820.86	131.818
821.16	116.279
821.46	133.333
821.76	120.000
822.07	140.000
822.37	105.000
822.67	115.152
822.97	88.235
823.27	167.857
823.57	127.027
823.88	140.000
824.18	153.333
824.48	135.714
824.78	192.000
825.08	120.833
825.38	172.973
825.69	129.268
825.99	175.000
826.29	127.586
826.59	136.842
826.89	128.947
827.19	170.588
827.49	132.258
827.79	140.909
828.09	109.091
828.39	117.021
828.70	104.082
829.00	133.333
829.30	183.871
829.60	117.500
829.90	280.000
830.20	157.143
830.50	169.565
830.80	160.870
831.10	163.333
831.40	150.000
831.70	169.565
832.00	180.769
832.30	162.963
832.60	212.500
832.90	183.333
833.20	335.714
833.50	170.968
833.80	141.379
834.10	175.000
834.40	196.154
834.70	250.000
835.00	295.238
835.30	142.857
835.60	269.231
835.90	165.517
836.20	292.857
836.50	155.172
836.80	172.000
837.10	144.444
837.40	228.571
837.70	229.412
838.00	174.074
838.30	204.762
838.60	214.286
838.90	169.231
839.19	215.000
839.49	335.714
839.79	270.000
840.09	265.000
840.39	242.857
840.69	200.000
840.99	244.444
841.29	320.000
841.59	250.000
841.88	300.000
842.18	155.172
842.48	252.381
842.78	163.333
843.08	160.870
843.38	159.375
843.68	783.333
843.97	200.000
844.27	162.069
844.57	247.619
844.87	318.750
845.17	181.481
845.47	1266.667
845.76	355.556
846.06	223.529
846.36	475.000
846.66	328.571
846.96	225.000
847.25	381.818
847.55	327.273
847.85	182.609
848.15	340.000
848.44	250.000
848.74	177.778
849.04	247.059
849.34	480.000
849.63	210.526
849.93	327.273
850.23	1080.000
850.53	285.714
850.82	1500.000
851.12	-3200.000
851.42	4300.000
851.71	230.000
852.01	-1033.333
852.31	195.833
852.61	1400.000
852.90	223.810
853.20	188.000
853.50	282.353
853.79	242.857
854.09	229.167
854.39	237.500
854.68	140.541
854.98	148.387
855.28	126.667
855.57	186.207
855.87	166.667
856.17	215.789
856.46	266.667
856.76	205.882
857.05	179.310
857.35	187.500
857.65	273.333
857.94	160.870
858.24	230.769
858.53	225.000
858.83	186.364
859.13	226.667
859.42	0.000
859.72	400.000
860.01	318.182
860.31	186.364
860.60	231.579
860.90	165.217
861.20	366.667
861.49	466.667
861.79	-3300.000
862.08	437.500
862.38	223.810
862.67	284.615
862.97	247.059
863.26	488.889
863.56	222.222
863.85	300.000
864.15	400.000
864.44	293.333
864.74	666.667
865.03	537.500
865.33	226.316
865.62	263.636
865.92	330.769
866.21	366.667
866.51	0.000
866.80	363.636
867.10	880.000
867.39	353.846
867.69	427.273
867.98	200.000
868.27	400.000
868.57	252.632
868.86	-3200.000
869.16	287.500
869.45	1850.000
869.75	-2600.000
870.04	383.333
870.33	600.000
870.63	1050.000
870.92	2700.000
871.22	571.429
871.51	300.000
871.80	223.810
872.10	264.286
>>>>>End Processed Spectral Data<<<<<
