SpectraSuite Data File
++++++++++++++++++++++++++++++++++++
Date: Wed May 13 20:25:02 PDT 2015
User: schluterlab
Dark Spectrum Present: Yes
Reference Spectrum Present: Yes
Number of Sampled Component Spectra: 1
Spectrometers: USB2E3373
Integration Time (usec): 3000 (USB2E3373)
Spectra Averaged: 3 (USB2E3373)
Boxcar Smoothing: 0 (USB2E3373)
Correct for Electrical Dark: No (USB2E3373)
Strobe/Lamp Enabled: No (USB2E3373)
Correct for Detector Non-linearity: No (USB2E3373)
Correct for Stray Light: No (USB2E3373)
Number of Pixels in Processed Spectrum: 2048
>>>>>Begin Processed Spectral Data<<<<<
178.53	0.000
178.91	-1325.000
179.29	-1150.000
179.67	-216.667
180.04	-1350.000
180.42	2200.000
180.80	1040.000
181.18	-1150.000
181.56	642.857
181.94	0.000
182.31	-457.143
182.69	1900.000
183.07	-512.500
183.45	-566.667
183.83	500.000
184.20	-460.000
184.58	2100.000
184.96	6000.000
185.34	-980.000
185.72	-600.000
186.09	-2350.000
186.47	2150.000
186.85	2700.000
187.23	4900.000
187.61	-1566.667
187.98	1325.000
188.36	518.182
188.74	527.273
189.12	-840.000
189.49	590.000
189.87	-4200.000
190.25	-1100.000
190.63	385.714
191.00	407.692
191.38	800.000
191.76	-1000.000
192.14	1450.000
192.51	687.500
192.89	833.333
193.27	675.000
193.65	-1200.000
194.02	440.000
194.40	880.000
194.78	650.000
195.15	425.000
195.53	610.000
195.91	-1850.000
196.29	343.750
196.66	342.105
197.04	-370.000
197.42	0.000
197.79	640.000
198.17	-4200.000
198.55	657.143
198.92	625.000
199.30	800.000
199.68	0.000
200.05	355.556
200.43	842.857
200.81	4400.000
201.18	1733.333
201.56	-1400.000
201.94	622.222
202.31	600.000
202.69	408.333
203.07	520.000
203.44	0.000
203.82	1175.000
204.19	857.143
204.57	414.286
204.95	537.500
205.32	1866.667
205.70	418.182
206.08	292.857
206.45	2150.000
206.83	375.000
207.20	900.000
207.58	740.000
207.96	383.333
208.33	712.500
208.71	-800.000
209.08	785.714
209.46	511.111
209.84	409.091
210.21	-1400.000
210.59	1475.000
210.96	-487.500
211.34	2650.000
211.71	470.000
212.09	750.000
212.46	0.000
212.84	1633.333
213.22	1275.000
213.59	-3800.000
213.97	816.667
214.34	800.000
214.72	554.545
215.09	940.000
215.47	-2000.000
215.84	-2550.000
216.22	1700.000
216.59	421.429
216.97	1275.000
217.34	572.727
217.72	-716.667
218.09	0.000
218.47	-5100.000
218.84	777.778
219.22	628.571
219.59	2000.000
219.97	-671.429
220.34	860.000
220.72	-1633.333
221.09	364.286
221.47	1450.000
221.84	-850.000
222.22	0.000
222.59	1250.000
222.97	-3000.000
223.34	920.000
223.72	423.077
224.09	940.000
224.46	2350.000
224.84	-4700.000
225.21	-980.000
225.59	-4700.000
225.96	580.000
226.34	305.000
226.71	2650.000
227.08	625.000
227.46	640.000
227.83	-1025.000
228.21	-2150.000
228.58	588.889
228.95	-2800.000
229.33	-2150.000
229.70	1800.000
230.08	842.857
230.45	-840.000
230.82	441.667
231.20	983.333
231.57	571.429
231.95	500.000
232.32	222.727
232.69	418.182
233.07	742.857
233.44	307.692
233.81	-1433.333
234.19	294.737
234.56	450.000
234.93	416.667
235.31	563.636
235.68	376.923
236.05	364.286
236.43	212.121
236.80	294.737
237.17	5000.000
237.55	242.857
237.92	239.286
238.29	295.238
238.67	209.677
239.04	237.931
239.41	188.889
239.79	132.609
240.16	188.095
240.53	140.909
240.91	137.255
241.28	150.000
241.65	176.000
242.02	126.087
242.40	137.097
242.77	120.000
243.14	87.097
243.51	103.371
243.89	107.059
244.26	95.556
244.63	91.398
245.00	90.426
245.38	97.030
245.75	78.505
246.12	85.321
246.49	83.942
246.87	88.000
247.24	83.077
247.61	76.429
247.98	77.778
248.36	68.243
248.73	69.427
249.10	79.618
249.47	72.881
249.84	73.262
250.22	72.193
250.59	65.680
250.96	65.152
251.33	66.351
251.70	66.832
252.08	70.476
252.45	67.265
252.82	66.087
253.19	65.106
253.56	60.392
253.94	64.315
254.31	66.406
254.68	62.692
255.05	67.528
255.42	61.789
255.79	61.029
256.16	59.567
256.54	66.784
256.91	58.363
257.28	56.835
257.65	59.736
258.02	59.938
258.39	57.729
258.76	57.191
259.14	57.440
259.51	58.359
259.88	53.727
260.25	60.121
260.62	59.538
260.99	60.248
261.36	62.462
261.73	56.447
262.10	57.267
262.47	62.254
262.85	55.153
263.22	52.991
263.59	60.399
263.96	58.242
264.33	53.525
264.70	58.421
265.07	59.335
265.44	54.040
265.81	52.555
266.18	54.523
266.55	56.098
266.92	56.511
267.29	56.481
267.66	53.670
268.03	55.227
268.40	50.935
268.77	51.313
269.14	53.153
269.51	54.402
269.88	55.944
270.25	56.659
270.62	55.730
270.99	55.914
271.36	51.502
271.73	55.140
272.10	55.870
272.47	52.043
272.84	54.762
273.21	53.040
273.58	53.057
273.95	49.266
274.32	49.793
274.69	54.390
275.06	52.165
275.43	55.745
275.80	50.501
276.17	53.768
276.54	54.470
276.91	51.383
277.28	51.172
277.65	52.031
278.02	52.381
278.39	53.516
278.76	51.636
279.13	51.887
279.50	51.024
279.87	52.390
280.23	53.293
280.60	52.224
280.97	52.126
281.34	52.743
281.71	48.909
282.08	52.015
282.45	49.636
282.82	50.622
283.19	48.841
283.56	51.404
283.92	48.393
284.29	48.677
284.66	48.457
285.03	49.548
285.40	48.063
285.77	48.148
286.14	47.841
286.51	50.500
286.87	49.915
287.24	48.860
287.61	46.388
287.98	47.727
288.35	47.544
288.72	47.196
289.08	46.479
289.45	47.117
289.82	45.691
290.19	46.311
290.56	44.104
290.93	45.317
291.29	42.791
291.66	42.625
292.03	45.930
292.40	44.787
292.77	42.160
293.13	42.985
293.50	42.711
293.87	41.481
294.24	42.667
294.60	40.757
294.97	41.715
295.34	40.480
295.71	41.335
296.08	39.316
296.44	39.890
296.81	38.970
297.18	39.702
297.55	38.654
297.91	37.863
298.28	37.885
298.65	39.426
299.02	39.262
299.38	38.513
299.75	37.466
300.12	37.548
300.48	38.750
300.85	35.388
301.22	38.599
301.59	37.753
301.95	37.154
302.32	36.329
302.69	36.440
303.05	36.606
303.42	36.173
303.79	35.674
304.15	35.664
304.52	36.616
304.89	34.611
305.25	35.151
305.62	34.541
305.99	35.301
306.35	36.801
306.72	36.771
307.09	36.737
307.45	34.797
307.82	34.375
308.19	35.320
308.55	35.491
308.92	36.412
309.29	35.269
309.65	35.101
310.02	35.095
310.38	36.989
310.75	35.797
311.12	35.824
311.48	34.901
311.85	35.954
312.22	34.027
312.58	33.784
312.95	36.431
313.31	33.398
313.68	34.407
314.05	35.207
314.41	36.080
314.78	35.952
315.14	36.941
315.51	36.457
315.87	37.129
316.24	37.736
316.61	36.257
316.97	37.378
317.34	36.693
317.70	38.910
318.07	37.440
318.43	38.552
318.80	40.019
319.16	38.512
319.53	40.056
319.89	41.524
320.26	43.700
320.62	42.956
320.99	43.434
321.35	41.515
321.72	45.585
322.08	46.199
322.45	49.055
322.81	47.481
323.18	48.844
323.54	48.609
323.91	49.245
324.27	51.721
324.64	52.004
325.00	52.660
325.37	54.049
325.73	55.386
326.10	55.693
326.46	57.706
326.83	58.671
327.19	59.607
327.56	61.150
327.92	61.242
328.29	63.354
328.65	64.365
329.01	65.253
329.38	67.808
329.74	67.590
330.11	70.311
330.47	68.779
330.84	69.853
331.20	69.399
331.56	69.725
331.93	72.315
332.29	71.340
332.66	71.681
333.02	72.578
333.38	75.068
333.75	73.440
334.11	73.754
334.48	75.067
334.84	76.654
335.20	75.636
335.57	75.793
335.93	74.286
336.29	78.938
336.66	77.998
337.02	77.014
337.38	79.630
337.75	75.936
338.11	79.946
338.47	81.215
338.84	80.660
339.20	79.725
339.56	81.204
339.93	81.273
340.29	81.431
340.65	80.481
341.02	81.763
341.38	82.918
341.74	81.316
342.11	82.271
342.47	84.493
342.83	82.791
343.20	82.944
343.56	82.393
343.92	86.316
344.28	84.099
344.65	86.156
345.01	85.017
345.37	84.906
345.73	85.533
346.10	85.934
346.46	84.746
346.82	84.926
347.19	86.633
347.55	84.236
347.91	86.650
348.27	87.510
348.63	87.040
349.00	85.761
349.36	87.849
349.72	86.367
350.08	87.763
350.45	89.829
350.81	87.002
351.17	89.384
351.53	89.681
351.89	88.036
352.26	88.240
352.62	89.415
352.98	88.493
353.34	90.304
353.70	90.671
354.07	90.323
354.43	89.444
354.79	90.668
355.15	89.785
355.51	91.926
355.87	91.837
356.24	93.160
356.60	90.617
356.96	93.081
357.32	93.295
357.68	92.756
358.04	93.270
358.40	92.399
358.77	91.315
359.13	93.765
359.49	93.882
359.85	94.683
360.21	95.614
360.57	95.409
360.93	96.231
361.29	93.953
361.66	93.731
362.02	94.104
362.38	97.719
362.74	95.685
363.10	94.449
363.46	94.791
363.82	97.506
364.18	94.787
364.54	97.103
364.90	95.538
365.26	97.941
365.62	97.078
365.98	98.174
366.35	94.771
366.71	95.879
367.07	97.378
367.43	99.855
367.79	99.643
368.15	99.210
368.51	99.201
368.87	100.642
369.23	97.952
369.59	99.928
369.95	99.632
370.31	99.217
370.67	98.696
371.03	100.075
371.39	100.146
371.75	101.250
372.11	97.582
372.47	100.220
372.83	102.378
373.19	98.916
373.55	101.848
373.91	102.283
374.27	98.076
374.63	100.945
374.99	98.517
375.35	99.163
375.71	98.972
376.07	100.274
376.42	102.682
376.78	101.325
377.14	102.103
377.50	100.132
377.86	101.330
378.22	100.253
378.58	99.248
378.94	100.629
379.30	101.399
379.66	103.046
380.02	103.317
380.38	101.275
380.74	102.521
381.09	100.856
381.45	101.659
381.81	101.167
382.17	102.102
382.53	101.069
382.89	101.852
383.25	101.876
383.61	103.160
383.97	100.125
384.32	100.437
384.68	99.690
385.04	100.676
385.40	100.681
385.76	100.246
386.12	104.598
386.48	101.699
386.83	102.309
387.19	102.103
387.55	101.670
387.91	102.116
388.27	100.981
388.62	100.922
388.98	100.000
389.34	99.562
389.70	100.736
390.06	101.141
390.42	100.454
390.77	100.509
391.13	101.851
391.49	99.937
391.85	100.382
392.20	101.325
392.56	101.263
392.92	102.178
393.28	99.645
393.64	101.259
393.99	99.389
394.35	99.938
394.71	99.059
395.07	98.567
395.42	100.865
395.78	100.000
396.14	98.138
396.50	101.566
396.85	100.064
397.21	99.199
397.57	100.682
397.92	99.579
398.28	97.478
398.64	97.133
399.00	99.776
399.35	98.364
399.71	97.280
400.07	97.280
400.42	98.160
400.78	97.587
401.14	97.378
401.49	97.313
401.85	96.189
402.21	94.731
402.57	98.396
402.92	98.235
403.28	98.751
403.63	98.205
403.99	97.006
404.35	95.333
404.70	95.204
405.06	95.632
405.42	96.070
405.77	96.343
406.13	94.808
406.49	95.860
406.84	95.038
407.20	94.267
407.55	96.043
407.91	96.733
408.27	95.597
408.62	93.498
408.98	93.811
409.34	94.588
409.69	94.065
410.05	92.441
410.40	93.945
410.76	94.385
411.11	92.461
411.47	92.460
411.83	92.303
412.18	91.404
412.54	92.777
412.89	90.723
413.25	91.854
413.60	93.638
413.96	90.103
414.31	92.710
414.67	92.142
415.03	91.656
415.38	91.624
415.74	91.640
416.09	92.162
416.45	90.830
416.80	91.276
417.16	91.287
417.51	91.838
417.87	89.595
418.22	92.114
418.58	90.058
418.93	90.479
419.29	89.688
419.64	90.680
420.00	90.854
420.35	87.014
420.71	89.121
421.06	89.141
421.42	87.895
421.77	87.948
422.12	88.209
422.48	87.858
422.83	89.400
423.19	87.403
423.54	88.102
423.90	88.000
424.25	87.214
424.61	87.738
424.96	89.563
425.31	85.714
425.67	85.787
426.02	86.343
426.38	87.057
426.73	86.776
427.09	87.052
427.44	86.256
427.79	85.509
428.15	85.536
428.50	85.430
428.85	85.936
429.21	85.422
429.56	86.936
429.92	83.543
430.27	85.005
430.62	83.461
430.98	84.017
431.33	83.660
431.68	85.445
432.04	83.174
432.39	85.266
432.74	85.278
433.10	85.512
433.45	84.315
433.80	83.980
434.16	83.547
434.51	83.684
434.86	84.036
435.22	85.436
435.57	82.614
435.92	84.318
436.28	83.333
436.63	83.389
436.98	83.400
437.34	82.826
437.69	84.014
438.04	83.418
438.39	84.597
438.75	83.788
439.10	82.346
439.45	82.645
439.81	84.048
440.16	83.230
440.51	83.714
440.86	84.308
441.22	81.758
441.57	82.272
441.92	82.139
442.27	81.270
442.63	81.517
442.98	82.535
443.33	83.424
443.68	81.518
444.03	82.089
444.39	81.840
444.74	82.900
445.09	80.916
445.44	80.262
445.79	81.247
446.15	81.525
446.50	82.068
446.85	81.244
447.20	82.101
447.55	82.635
447.91	81.633
448.26	81.970
448.61	81.628
448.96	81.285
449.31	81.440
449.66	80.923
450.02	79.721
450.37	79.932
450.72	80.711
451.07	81.048
451.42	80.973
451.77	80.740
452.12	79.446
452.47	79.913
452.83	81.235
453.18	79.523
453.53	81.571
453.88	78.972
454.23	79.558
454.58	80.315
454.93	80.420
455.28	79.239
455.63	79.430
455.98	80.774
456.34	79.585
456.69	79.211
457.04	79.690
457.39	78.667
457.74	77.481
458.09	78.838
458.44	78.449
458.79	77.223
459.14	78.725
459.49	77.642
459.84	76.731
460.19	77.018
460.54	76.042
460.89	76.138
461.24	77.656
461.59	77.455
461.94	76.387
462.29	78.338
462.64	78.749
462.99	77.098
463.34	77.333
463.69	78.174
464.04	77.275
464.39	75.536
464.74	76.055
465.09	76.176
465.44	74.515
465.79	75.112
466.14	74.877
466.49	74.583
466.84	73.497
467.19	74.532
467.54	75.937
467.89	74.550
468.24	74.636
468.59	75.397
468.94	73.794
469.29	75.835
469.64	75.502
469.99	75.034
470.34	74.835
470.68	75.359
471.03	74.898
471.38	76.442
471.73	74.684
472.08	75.658
472.43	74.058
472.78	74.391
473.13	73.427
473.48	72.971
473.83	73.293
474.17	72.309
474.52	73.449
474.87	73.263
475.22	72.084
475.57	71.521
475.92	72.225
476.27	72.041
476.61	72.532
476.96	71.688
477.31	71.900
477.66	73.031
478.01	71.929
478.36	71.814
478.70	71.443
479.05	71.299
479.40	70.829
479.75	71.327
480.10	70.775
480.45	71.014
480.79	69.231
481.14	71.037
481.49	71.856
481.84	70.142
482.19	71.059
482.53	70.413
482.88	71.242
483.23	70.607
483.58	70.610
483.92	70.244
484.27	68.366
484.62	69.569
484.97	68.940
485.31	69.726
485.66	67.527
486.01	66.894
486.36	65.195
486.70	66.252
487.05	66.712
487.40	67.620
487.75	68.319
488.09	69.154
488.44	68.379
488.79	69.801
489.13	69.862
489.48	68.923
489.83	67.587
490.17	69.969
490.52	68.468
490.87	67.933
491.22	67.030
491.56	67.426
491.91	67.892
492.26	67.111
492.60	67.327
492.95	66.511
493.30	67.243
493.64	66.682
493.99	67.177
494.34	68.224
494.68	67.537
495.03	66.776
495.37	66.589
495.72	67.495
496.07	66.497
496.41	65.354
496.76	66.931
497.11	66.321
497.45	66.139
497.80	66.219
498.14	65.894
498.49	66.293
498.84	65.724
499.18	66.143
499.53	66.144
499.87	66.123
500.22	64.673
500.56	66.796
500.91	64.952
501.26	65.813
501.60	66.682
501.95	63.978
502.29	65.839
502.64	66.061
502.98	64.516
503.33	65.402
503.67	63.991
504.02	65.529
504.36	64.623
504.71	64.387
505.06	64.627
505.40	65.338
505.75	63.452
506.09	63.800
506.44	65.960
506.78	65.319
507.13	65.068
507.47	64.242
507.82	65.096
508.16	64.488
508.51	66.464
508.85	64.101
509.19	64.082
509.54	63.724
509.88	64.245
510.23	64.679
510.57	65.944
510.92	64.630
511.26	63.977
511.61	63.278
511.95	62.944
512.30	63.309
512.64	63.031
512.98	64.416
513.33	63.865
513.67	62.647
514.02	62.013
514.36	64.063
514.70	64.084
515.05	63.413
515.39	64.722
515.74	63.851
516.08	63.779
516.42	63.319
516.77	64.214
517.11	63.596
517.46	62.641
517.80	65.215
518.14	63.173
518.49	64.294
518.83	62.614
519.17	63.048
519.52	61.969
519.86	64.062
520.20	63.295
520.55	63.315
520.89	64.781
521.23	63.028
521.58	63.926
521.92	64.911
522.26	61.989
522.61	63.863
522.95	63.168
523.29	63.421
523.64	64.695
523.98	64.079
524.32	62.606
524.66	63.620
525.01	62.868
525.35	62.577
525.69	62.993
526.04	63.614
526.38	63.148
526.72	62.270
527.06	63.653
527.41	62.005
527.75	64.887
528.09	63.263
528.43	63.416
528.78	61.586
529.12	62.606
529.46	63.870
529.80	63.800
530.15	62.679
530.49	60.800
530.83	61.962
531.17	64.883
531.51	64.267
531.86	63.290
532.20	63.168
532.54	63.101
532.88	63.928
533.22	61.024
533.57	62.840
533.91	61.589
534.25	61.422
534.59	62.355
534.93	61.630
535.27	63.066
535.62	61.600
535.96	64.156
536.30	62.111
536.64	62.589
536.98	62.906
537.32	60.895
537.66	62.200
538.01	62.146
538.35	62.573
538.69	63.178
539.03	60.494
539.37	61.597
539.71	61.309
540.05	62.157
540.39	62.924
540.73	60.931
541.07	60.934
541.42	61.840
541.76	62.258
542.10	62.678
542.44	63.510
542.78	63.109
543.12	60.461
543.46	61.049
543.80	62.394
544.14	60.911
544.48	62.032
544.82	60.616
545.16	62.329
545.50	59.897
545.84	61.492
546.18	60.404
546.52	61.872
546.86	61.031
547.20	61.902
547.54	62.258
547.88	61.926
548.22	61.395
548.56	60.440
548.90	60.051
549.24	60.404
549.58	61.528
549.92	60.852
550.26	62.074
550.60	60.927
550.94	60.634
551.28	61.156
551.62	62.042
551.96	59.579
552.30	60.683
552.64	60.514
552.98	62.102
553.32	60.755
553.66	61.077
554.00	61.633
554.34	59.696
554.68	60.873
555.02	59.873
555.36	60.404
555.69	60.081
556.03	59.758
556.37	59.482
556.71	60.164
557.05	59.384
557.39	59.412
557.73	59.210
558.07	61.711
558.41	60.637
558.75	58.119
559.08	60.850
559.42	61.073
559.76	60.368
560.10	58.244
560.44	59.609
560.78	58.283
561.12	58.971
561.45	59.778
561.79	59.064
562.13	58.820
562.47	60.109
562.81	60.391
563.15	59.331
563.48	58.753
563.82	60.731
564.16	60.432
564.50	59.766
564.84	58.281
565.17	59.717
565.51	59.872
565.85	58.820
566.19	58.046
566.52	59.595
566.86	58.168
567.20	59.316
567.54	59.361
567.88	58.012
568.21	58.995
568.55	59.050
568.89	57.733
569.23	56.684
569.56	55.587
569.90	56.453
570.24	56.584
570.57	56.273
570.91	55.688
571.25	55.188
571.59	55.758
571.92	56.336
572.26	56.355
572.60	57.417
572.93	55.712
573.27	55.723
573.61	55.918
573.95	56.202
574.28	55.377
574.62	55.879
574.96	55.364
575.29	55.480
575.63	55.920
575.97	55.845
576.30	56.718
576.64	55.320
576.98	55.445
577.31	54.991
577.65	56.048
577.98	55.891
578.32	54.865
578.66	55.828
578.99	55.649
579.33	55.144
579.67	55.631
580.00	56.293
580.34	55.933
580.67	55.495
581.01	55.318
581.35	55.390
581.68	55.031
582.02	55.099
582.35	55.552
582.69	55.467
583.02	55.890
583.36	56.006
583.70	56.169
584.03	55.434
584.37	56.706
584.70	55.773
585.04	55.431
585.37	55.196
585.71	54.793
586.04	54.699
586.38	56.008
586.72	55.565
587.05	55.311
587.39	54.406
587.72	55.553
588.06	55.843
588.39	54.897
588.73	55.676
589.06	55.594
589.40	56.936
589.73	56.353
590.07	56.050
590.40	55.499
590.73	56.284
591.07	56.736
591.40	57.360
591.74	57.013
592.07	56.108
592.41	55.850
592.74	55.131
593.08	54.297
593.41	55.679
593.75	53.123
594.08	54.878
594.41	55.214
594.75	55.231
595.08	54.438
595.42	55.902
595.75	55.876
596.09	55.614
596.42	55.521
596.75	55.973
597.09	55.541
597.42	54.637
597.75	56.705
598.09	55.826
598.42	54.553
598.76	55.857
599.09	54.618
599.42	53.821
599.76	55.564
600.09	54.754
600.42	54.273
600.76	53.857
601.09	55.264
601.42	55.632
601.76	55.180
602.09	54.941
602.42	55.295
602.76	55.139
603.09	55.153
603.42	55.681
603.76	54.878
604.09	53.354
604.42	55.198
604.76	54.703
605.09	54.522
605.42	54.297
605.75	54.801
606.09	54.697
606.42	55.047
606.75	54.044
607.09	54.709
607.42	54.600
607.75	53.713
608.08	54.190
608.42	55.267
608.75	54.509
609.08	54.163
609.41	53.594
609.75	54.836
610.08	54.147
610.41	53.585
610.74	55.629
611.07	54.397
611.41	54.956
611.74	55.857
612.07	55.021
612.40	56.401
612.73	54.632
613.07	56.142
613.40	56.135
613.73	54.169
614.06	54.355
614.39	54.431
614.72	53.895
615.06	54.989
615.39	54.087
615.72	54.090
616.05	54.014
616.38	54.753
616.71	55.285
617.05	56.066
617.38	54.841
617.71	55.015
618.04	55.889
618.37	54.701
618.70	55.818
619.03	55.855
619.36	54.922
619.69	54.577
620.03	55.014
620.36	54.679
620.69	55.479
621.02	56.711
621.35	55.756
621.68	54.907
622.01	55.573
622.34	56.959
622.67	56.122
623.00	53.558
623.33	54.253
623.66	54.682
623.99	54.345
624.32	54.351
624.65	53.672
624.99	54.462
625.32	55.395
625.65	55.147
625.98	56.495
626.31	55.210
626.64	55.265
626.97	56.692
627.30	56.193
627.63	55.537
627.96	55.172
628.29	55.906
628.62	54.529
628.95	58.019
629.28	56.296
629.61	56.187
629.94	55.333
630.26	56.530
630.59	55.291
630.92	56.226
631.25	54.886
631.58	55.255
631.91	54.057
632.24	56.540
632.57	55.614
632.90	55.373
633.23	56.823
633.56	57.627
633.89	55.493
634.22	55.505
634.55	56.805
634.88	57.485
635.20	57.706
635.53	54.819
635.86	57.797
636.19	55.412
636.52	53.979
636.85	54.525
637.18	54.147
637.51	55.910
637.83	54.007
638.16	56.650
638.49	55.919
638.82	59.039
639.15	55.375
639.48	56.234
639.81	58.579
640.13	55.859
640.46	55.570
640.79	55.218
641.12	54.470
641.45	54.888
641.77	59.794
642.10	56.725
642.43	55.706
642.76	54.334
643.09	56.442
643.41	56.449
643.74	57.716
644.07	56.707
644.40	57.669
644.73	55.433
645.05	58.637
645.38	54.344
645.71	55.878
646.04	56.478
646.36	58.097
646.69	57.358
647.02	57.823
647.35	55.842
647.67	56.283
648.00	56.911
648.33	55.776
648.66	57.576
648.98	54.423
649.31	56.353
649.64	56.353
649.96	54.993
650.29	55.134
650.62	56.149
650.94	55.429
651.27	57.432
651.60	56.572
651.92	57.029
652.25	56.026
652.58	55.763
652.90	57.978
653.23	56.394
653.56	55.118
653.88	54.200
654.21	56.398
654.54	57.426
654.86	56.698
655.19	53.243
655.52	44.889
655.84	43.159
656.17	55.328
656.49	75.095
656.82	77.669
657.15	59.091
657.47	44.433
657.80	34.074
658.13	35.762
658.45	52.679
658.78	53.086
659.10	54.572
659.43	56.025
659.75	56.766
660.08	58.165
660.41	60.242
660.73	58.831
661.06	56.051
661.38	61.273
661.71	58.846
662.03	59.172
662.36	55.268
662.68	55.221
663.01	56.364
663.33	57.113
663.66	57.563
663.98	59.179
664.31	55.042
664.63	56.478
664.96	54.125
665.28	57.172
665.61	56.725
665.93	56.338
666.26	59.229
666.58	59.414
666.91	58.562
667.23	59.326
667.56	59.395
667.88	56.624
668.21	59.275
668.53	58.351
668.86	53.896
669.18	56.930
669.50	57.826
669.83	55.991
670.15	58.889
670.48	55.556
670.80	57.112
671.13	54.777
671.45	57.447
671.77	58.452
672.10	55.083
672.42	53.710
672.75	52.902
673.07	56.162
673.39	56.600
673.72	55.664
674.04	57.843
674.37	56.699
674.69	57.055
675.01	54.603
675.34	58.932
675.66	58.737
675.98	55.193
676.31	55.672
676.63	57.537
676.95	55.556
677.28	56.308
677.60	56.484
677.92	56.118
678.25	56.879
678.57	53.984
678.89	57.715
679.22	54.617
679.54	54.580
679.86	53.761
680.18	55.635
680.51	53.191
680.83	55.160
681.15	54.906
681.48	55.388
681.80	55.706
682.12	55.556
682.44	53.772
682.77	56.415
683.09	59.227
683.41	57.428
683.73	57.174
684.06	54.132
684.38	56.751
684.70	53.876
685.02	55.535
685.34	52.015
685.67	53.846
685.99	52.234
686.31	54.608
686.63	50.707
686.96	52.321
687.28	52.347
687.60	53.442
687.92	52.285
688.24	54.373
688.56	57.831
688.89	56.224
689.21	55.459
689.53	55.741
689.85	56.541
690.17	52.795
690.49	55.839
690.82	58.645
691.14	52.902
691.46	52.110
691.78	53.012
692.10	58.471
692.42	53.693
692.74	54.979
693.06	56.383
693.39	54.825
693.71	56.550
694.03	53.684
694.35	53.896
694.67	54.920
694.99	56.098
695.31	55.392
695.63	54.067
695.95	56.968
696.27	52.792
696.59	57.254
696.91	55.440
697.23	47.653
697.56	55.011
697.88	49.489
698.20	52.708
698.52	55.484
698.84	56.125
699.16	55.760
699.48	55.107
699.80	56.280
700.12	64.156
700.44	57.560
700.76	59.116
701.08	59.770
701.40	57.263
701.72	58.309
702.04	58.523
702.36	51.558
702.68	56.091
703.00	58.172
703.32	53.457
703.64	55.228
703.96	57.939
704.28	60.174
704.60	58.065
704.91	59.347
705.23	56.012
705.55	59.136
705.87	62.126
706.19	57.597
706.51	58.879
706.83	55.455
707.15	54.622
707.47	55.051
707.79	54.545
708.11	54.110
708.43	55.476
708.74	53.316
709.06	55.584
709.38	51.706
709.70	59.593
710.02	57.270
710.34	55.758
710.66	54.925
710.98	54.261
711.29	57.849
711.61	60.177
711.93	57.372
712.25	59.807
712.57	61.765
712.89	55.709
713.20	49.240
713.52	58.553
713.84	55.380
714.16	53.049
714.48	57.471
714.80	60.182
715.11	57.061
715.43	56.083
715.75	56.812
716.07	57.827
716.39	58.934
716.70	58.472
717.02	60.072
717.34	53.710
717.66	59.701
717.97	61.355
718.29	58.519
718.61	55.474
718.93	60.662
719.24	57.093
719.56	57.966
719.88	55.932
720.20	55.743
720.51	61.324
720.83	59.851
721.15	57.836
721.46	57.447
721.78	63.082
722.10	61.132
722.42	60.150
722.73	61.423
723.05	59.836
723.37	60.324
723.68	58.687
724.00	62.602
724.32	61.694
724.63	56.911
724.95	56.067
725.27	61.943
725.58	60.938
725.90	58.759
726.22	59.245
726.53	57.639
726.85	55.290
727.16	60.142
727.48	57.092
727.80	59.470
728.11	57.971
728.43	58.077
728.74	54.839
729.06	58.029
729.38	60.662
729.69	60.854
730.01	52.560
730.32	53.472
730.64	55.518
730.96	51.815
731.27	55.960
731.59	57.187
731.90	56.560
732.22	54.037
732.53	49.226
732.85	53.205
733.16	55.305
733.48	56.146
733.80	52.597
734.11	54.459
734.43	57.396
734.74	51.714
735.06	54.728
735.37	54.624
735.69	55.732
736.00	60.131
736.32	55.763
736.63	51.757
736.95	56.869
737.26	53.401
737.58	55.484
737.89	57.525
738.21	56.314
738.52	55.714
738.83	57.736
739.15	56.538
739.46	60.584
739.78	58.333
740.09	53.231
740.41	57.097
740.72	53.310
741.04	54.444
741.35	61.667
741.66	63.111
741.98	56.132
742.29	65.072
742.61	61.207
742.92	62.896
743.23	58.974
743.55	52.400
743.86	56.579
744.18	63.274
744.49	58.852
744.80	61.033
745.12	64.545
745.43	61.233
745.74	59.459
746.06	66.055
746.37	61.435
746.68	55.656
747.00	63.889
747.31	60.952
747.62	60.619
747.94	59.031
748.25	57.872
748.56	59.031
748.88	59.406
749.19	62.000
749.50	60.465
749.82	56.911
750.13	53.061
750.44	59.124
750.75	58.596
751.07	54.662
751.38	58.188
751.69	55.596
752.01	58.647
752.32	54.874
752.63	55.674
752.94	54.098
753.26	60.800
753.57	58.537
753.88	56.641
754.19	57.143
754.51	61.111
754.82	53.430
755.13	53.208
755.44	51.880
755.75	50.730
756.07	54.965
756.38	52.920
756.69	54.698
757.00	55.389
757.31	51.335
757.63	52.924
757.94	51.743
758.25	47.549
758.56	49.383
758.87	50.806
759.18	53.636
759.50	50.784
759.81	52.025
760.12	52.812
760.43	51.576
760.74	51.630
761.05	55.932
761.36	46.524
761.67	55.114
761.99	55.590
762.30	53.472
762.61	56.870
762.92	55.078
763.23	57.143
763.54	62.800
763.85	56.641
764.16	55.385
764.47	55.133
764.78	53.004
765.10	49.684
765.41	53.687
765.72	49.701
766.03	55.486
766.34	51.333
766.65	60.426
766.96	52.564
767.27	65.990
767.58	69.792
767.89	66.316
768.20	64.368
768.51	65.482
768.82	60.092
769.13	56.098
769.44	58.300
769.75	59.657
770.06	52.294
770.37	60.181
770.68	61.574
770.99	54.667
771.30	50.820
771.61	63.677
771.92	56.148
772.23	60.084
772.54	61.026
772.85	64.398
773.16	65.957
773.47	62.500
773.78	63.959
774.09	62.500
774.39	71.930
774.70	60.494
775.01	66.667
775.32	71.895
775.63	66.447
775.94	67.626
776.25	74.803
776.56	76.119
776.87	75.410
777.18	70.313
777.48	76.336
777.79	71.970
778.10	66.667
778.41	82.143
778.72	69.343
779.03	67.114
779.34	67.114
779.65	73.649
779.95	69.939
780.26	71.895
780.57	69.655
780.88	84.375
781.19	72.932
781.50	75.676
781.80	65.409
782.11	64.407
782.42	65.190
782.73	63.804
783.04	72.973
783.34	65.493
783.65	77.397
783.96	79.104
784.27	67.133
784.57	65.468
784.88	65.741
785.19	75.397
785.50	75.472
785.81	75.373
786.11	81.967
786.42	78.295
786.73	68.142
787.04	68.868
787.34	75.893
787.65	83.000
787.96	78.378
788.26	65.289
788.57	78.814
788.88	80.165
789.19	71.528
789.49	77.273
789.80	70.229
790.11	82.857
790.41	81.188
790.72	87.952
791.03	93.478
791.33	94.186
791.64	80.412
791.95	77.228
792.25	87.778
792.56	100.000
792.87	112.821
793.17	111.392
793.48	87.356
793.79	89.655
794.09	87.500
794.40	65.546
794.70	67.647
795.01	68.889
795.32	64.029
795.62	75.591
795.93	70.690
796.23	78.761
796.54	81.176
796.85	91.892
797.15	119.718
797.46	95.455
797.76	102.410
798.07	96.203
798.37	107.692
798.68	101.515
798.99	91.549
799.29	90.909
799.60	87.500
799.90	121.918
800.21	104.478
800.51	89.655
800.82	131.579
801.12	103.279
801.43	101.515
801.73	91.892
802.04	112.698
802.34	79.012
802.65	107.812
802.95	125.424
803.26	121.875
803.56	95.714
803.87	93.846
804.17	92.647
804.48	122.222
804.78	94.828
805.09	104.412
805.39	128.846
805.70	110.714
806.00	116.393
806.30	93.939
806.61	97.561
806.91	94.937
807.22	98.684
807.52	104.478
807.83	115.493
808.13	121.875
808.43	113.333
808.74	94.737
809.04	98.551
809.35	110.448
809.65	96.053
809.95	127.419
810.26	122.034
810.56	101.587
810.86	122.727
811.17	159.524
811.47	126.667
811.77	127.778
812.08	123.636
812.38	110.000
812.69	155.556
812.99	150.000
813.29	146.939
813.59	116.667
813.90	118.367
814.20	103.636
814.50	92.308
814.81	110.294
815.11	134.694
815.41	90.164
815.72	152.381
816.02	121.818
816.32	150.000
816.62	150.000
816.93	134.146
817.23	140.476
817.53	129.545
817.84	209.091
818.14	132.609
818.44	124.444
818.74	164.706
819.04	150.000
819.35	157.143
819.65	191.176
819.95	217.857
820.25	210.000
820.56	169.231
820.86	138.636
821.16	158.140
821.46	158.974
821.76	136.000
822.07	157.143
822.37	142.500
822.67	166.667
822.97	105.882
823.27	207.143
823.57	186.486
823.88	180.000
824.18	180.000
824.48	173.810
824.78	212.000
825.08	191.667
825.38	175.676
825.69	153.659
825.99	233.333
826.29	172.414
826.59	165.789
826.89	165.789
827.19	197.059
827.49	206.452
827.79	143.182
828.09	138.636
828.39	119.149
828.70	116.327
829.00	174.074
829.30	161.290
829.60	142.500
829.90	366.667
830.20	203.571
830.50	204.348
830.80	213.043
831.10	193.333
831.40	173.333
831.70	213.043
832.00	246.154
832.30	181.481
832.60	331.250
832.90	210.000
833.20	407.143
833.50	212.903
833.80	193.103
834.10	168.750
834.40	226.923
834.70	266.667
835.00	323.810
835.30	168.571
835.60	346.154
835.90	200.000
836.20	285.714
836.50	193.103
836.80	208.000
837.10	166.667
837.40	209.524
837.70	341.176
838.00	222.222
838.30	266.667
838.60	285.714
838.90	207.692
839.19	235.000
839.49	414.286
839.79	310.000
840.09	270.000
840.39	247.619
840.69	247.826
840.99	233.333
841.29	470.000
841.59	325.000
841.88	325.000
842.18	168.966
842.48	261.905
842.78	186.667
843.08	273.913
843.38	181.250
843.68	850.000
843.97	219.231
844.27	206.897
844.57	271.429
844.87	312.500
845.17	222.222
845.47	1533.333
845.76	555.556
846.06	305.882
846.36	525.000
846.66	342.857
846.96	331.250
847.25	418.182
847.55	400.000
847.85	256.522
848.15	450.000
848.44	421.429
848.74	288.889
849.04	305.882
849.34	560.000
849.63	236.842
849.93	445.455
850.23	780.000
850.53	414.286
850.82	2350.000
851.12	-4700.000
851.42	4300.000
851.71	320.000
852.01	-1433.333
852.31	266.667
852.61	1600.000
852.90	266.667
853.20	244.000
853.50	329.412
853.79	266.667
854.09	212.500
854.39	406.250
854.68	181.081
854.98	216.129
855.28	176.667
855.57	248.276
855.87	185.185
856.17	257.895
856.46	240.000
856.76	305.882
857.05	206.897
857.35	212.500
857.65	353.333
857.94	260.870
858.24	238.462
858.53	300.000
858.83	250.000
859.13	353.333
859.42	0.000
859.72	588.889
860.01	472.727
860.31	250.000
860.60	284.211
860.90	252.174
861.20	511.111
861.49	550.000
861.79	-3700.000
862.08	650.000
862.38	261.905
862.67	346.154
862.97	311.765
863.26	455.556
863.56	250.000
863.85	366.667
864.15	612.500
864.44	346.667
864.74	733.333
865.03	762.500
865.33	321.053
865.62	318.182
865.92	384.615
866.21	350.000
866.51	0.000
866.80	500.000
867.10	1240.000
867.39	446.154
867.69	445.455
867.98	257.895
868.27	509.091
868.57	331.579
868.86	-3800.000
869.16	381.250
869.45	2150.000
869.75	-3400.000
870.04	450.000
870.33	657.143
870.63	975.000
870.92	2200.000
871.22	771.429
871.51	305.882
871.80	271.429
872.10	357.143
>>>>>End Processed Spectral Data<<<<<
