SpectraSuite Data File
++++++++++++++++++++++++++++++++++++
Date: Wed May 13 20:26:40 PDT 2015
User: schluterlab
Dark Spectrum Present: Yes
Reference Spectrum Present: Yes
Number of Sampled Component Spectra: 1
Spectrometers: USB2E3373
Integration Time (usec): 3000 (USB2E3373)
Spectra Averaged: 3 (USB2E3373)
Boxcar Smoothing: 0 (USB2E3373)
Correct for Electrical Dark: No (USB2E3373)
Strobe/Lamp Enabled: No (USB2E3373)
Correct for Detector Non-linearity: No (USB2E3373)
Correct for Stray Light: No (USB2E3373)
Number of Pixels in Processed Spectrum: 2048
>>>>>Begin Processed Spectral Data<<<<<
178.53	0.000
178.91	-1300.000
179.29	-1375.000
179.67	-172.222
180.04	-975.000
180.42	3000.000
180.80	1020.000
181.18	-950.000
181.56	671.429
181.94	0.000
182.31	-571.429
182.69	1433.333
183.07	-500.000
183.45	-533.333
183.83	418.182
184.20	-400.000
184.58	1550.000
184.96	5200.000
185.34	-920.000
185.72	-525.000
186.09	-1900.000
186.47	2000.000
186.85	2300.000
187.23	4600.000
187.61	-1633.333
187.98	1225.000
188.36	481.818
188.74	509.091
189.12	-880.000
189.49	520.000
189.87	-3600.000
190.25	-875.000
190.63	350.000
191.00	415.385
191.38	700.000
191.76	-950.000
192.14	1375.000
192.51	525.000
192.89	933.333
193.27	500.000
193.65	-900.000
194.02	550.000
194.40	780.000
194.78	540.000
195.15	383.333
195.53	560.000
195.91	-2100.000
196.29	287.500
196.66	252.632
197.04	-300.000
197.42	0.000
197.79	570.000
198.17	-4900.000
198.55	542.857
198.92	537.500
199.30	840.000
199.68	0.000
200.05	372.222
200.43	542.857
200.81	4100.000
201.18	1733.333
201.56	-1266.667
201.94	433.333
202.31	522.222
202.69	341.667
203.07	490.000
203.44	0.000
203.82	1275.000
204.19	742.857
204.57	364.286
204.95	737.500
205.32	1633.333
205.70	463.636
206.08	378.571
206.45	2150.000
206.83	262.500
207.20	850.000
207.58	800.000
207.96	327.778
208.33	587.500
208.71	-866.667
209.08	642.857
209.46	644.444
209.84	418.182
210.21	-1400.000
210.59	1050.000
210.96	-400.000
211.34	2100.000
211.71	610.000
212.09	750.000
212.46	0.000
212.84	1500.000
213.22	1200.000
213.59	-3400.000
213.97	650.000
214.34	628.571
214.72	554.545
215.09	1080.000
215.47	-1650.000
215.84	-2150.000
216.22	1666.667
216.59	350.000
216.97	1150.000
217.34	354.545
217.72	-650.000
218.09	0.000
218.47	-4500.000
218.84	522.222
219.22	585.714
219.59	1566.667
219.97	-500.000
220.34	880.000
220.72	-1566.667
221.09	392.857
221.47	1525.000
221.84	-766.667
222.22	0.000
222.59	1100.000
222.97	-1950.000
223.34	960.000
223.72	376.923
224.09	960.000
224.46	2050.000
224.84	-4700.000
225.21	-940.000
225.59	-4900.000
225.96	500.000
226.34	260.000
226.71	2600.000
227.08	562.500
227.46	520.000
227.83	-925.000
228.21	-2150.000
228.58	555.556
228.95	-1500.000
229.33	-2100.000
229.70	1433.333
230.08	728.571
230.45	-720.000
230.82	366.667
231.20	733.333
231.57	557.143
231.95	391.667
232.32	227.273
232.69	345.455
233.07	657.143
233.44	361.538
233.81	-1600.000
234.19	252.632
234.56	408.333
234.93	333.333
235.31	445.455
235.68	384.615
236.05	314.286
236.43	163.636
236.80	268.421
237.17	3700.000
237.55	252.381
237.92	171.429
238.29	219.048
238.67	148.387
239.04	213.793
239.41	125.000
239.79	95.652
240.16	157.143
240.53	127.273
240.91	101.961
241.28	112.000
241.65	102.000
242.02	108.696
242.40	88.710
242.77	103.333
243.14	64.516
243.51	82.022
243.89	70.588
244.26	58.889
244.63	65.591
245.00	68.085
245.38	69.307
245.75	56.075
246.12	66.055
246.49	59.124
246.87	61.600
247.24	69.231
247.61	57.857
247.98	57.516
248.36	48.649
248.73	57.325
249.10	50.955
249.47	50.847
249.84	49.733
250.22	47.059
250.59	47.337
250.96	49.495
251.33	47.867
251.70	54.455
252.08	44.762
252.45	43.498
252.82	35.652
253.19	42.979
253.56	44.706
253.94	45.643
254.31	39.453
254.68	41.923
255.05	41.697
255.42	41.870
255.79	41.912
256.16	45.126
256.54	38.163
256.91	40.925
257.28	33.094
257.65	40.264
258.02	42.236
258.39	39.117
258.76	38.127
259.14	39.583
259.51	37.994
259.88	35.093
260.25	38.066
260.62	36.994
260.99	37.267
261.36	38.438
261.73	34.957
262.10	37.209
262.47	35.211
262.85	36.212
263.22	34.473
263.59	37.322
263.96	34.066
264.33	37.337
264.70	35.263
265.07	40.665
265.44	35.606
265.81	29.927
266.18	35.427
266.55	34.390
266.92	35.872
267.29	35.417
267.66	34.404
268.03	32.045
268.40	32.243
268.77	33.652
269.14	31.306
269.51	34.312
269.88	34.499
270.25	32.506
270.62	32.135
270.99	37.204
271.36	33.906
271.73	33.645
272.10	32.391
272.47	33.118
272.84	35.931
273.21	33.124
273.58	31.659
273.95	31.447
274.32	32.231
274.69	32.120
275.06	30.906
275.43	32.979
275.80	32.665
276.17	32.587
276.54	33.472
276.91	33.202
277.28	31.250
277.65	29.594
278.02	32.712
278.39	33.398
278.76	31.636
279.13	32.830
279.50	32.030
279.87	32.669
280.23	32.735
280.60	31.721
280.97	32.532
281.34	32.920
281.71	33.091
282.08	33.013
282.45	30.909
282.82	33.215
283.19	31.016
283.56	31.228
283.92	31.641
284.29	31.570
284.66	29.764
285.03	30.380
285.40	30.634
285.77	31.313
286.14	30.225
286.51	32.500
286.87	30.769
287.24	29.479
287.61	29.374
287.98	30.357
288.35	27.575
288.72	28.660
289.08	29.264
289.45	29.160
289.82	28.130
290.19	26.845
290.56	27.718
290.93	27.644
291.29	29.601
291.66	27.434
292.03	31.686
292.40	28.047
292.77	26.036
293.13	25.970
293.50	29.009
293.87	26.222
294.24	25.778
294.60	25.619
294.97	26.453
295.34	27.080
295.71	26.562
296.08	25.499
296.44	25.860
296.81	25.099
297.18	26.287
297.55	24.406
297.91	24.011
298.28	27.041
298.65	24.543
299.02	25.296
299.38	25.896
299.75	24.259
300.12	24.777
300.48	24.625
300.85	23.674
301.22	25.478
301.59	23.232
301.95	24.307
302.32	24.904
302.69	24.731
303.05	24.970
303.42	23.210
303.79	24.122
304.15	22.261
304.52	22.943
304.89	23.113
305.25	21.926
305.62	25.368
305.99	26.564
306.35	24.720
306.72	24.215
307.09	23.973
307.45	24.550
307.82	22.991
308.19	23.400
308.55	25.566
308.92	24.705
309.29	23.231
309.65	24.178
310.02	23.890
310.38	23.871
310.75	24.604
311.12	23.541
311.48	24.974
311.85	25.262
312.22	23.933
312.58	23.493
312.95	24.921
313.31	21.845
313.68	25.884
314.05	26.331
314.41	25.126
314.78	24.371
315.14	25.223
315.51	24.923
315.87	25.446
316.24	23.635
316.61	25.731
316.97	24.462
317.34	23.190
317.70	26.195
318.07	24.928
318.43	26.614
318.80	26.710
319.16	25.235
319.53	26.360
319.89	26.190
320.26	27.200
320.62	25.992
320.99	26.970
321.35	26.566
321.72	27.002
322.08	26.061
322.45	27.960
322.81	28.682
323.18	28.613
323.54	26.531
323.91	27.358
324.27	28.967
324.64	27.213
325.00	26.150
325.37	27.389
325.73	27.558
326.10	28.155
326.46	28.226
326.83	28.732
327.19	26.985
327.56	27.352
327.92	27.559
328.29	28.305
328.65	27.164
329.01	27.978
329.38	27.752
329.74	29.086
330.11	28.369
330.47	28.283
330.84	28.401
331.20	29.144
331.56	28.440
331.93	27.037
332.29	28.571
332.66	27.965
333.02	26.965
333.38	27.913
333.75	27.273
334.11	27.046
334.48	26.708
334.84	28.033
335.20	26.818
335.57	27.289
335.93	26.161
336.29	27.930
336.66	27.142
337.02	25.430
337.38	26.481
337.75	26.560
338.11	26.947
338.47	25.967
338.84	27.773
339.20	25.138
339.56	27.828
339.93	26.182
340.29	25.996
340.65	26.916
341.02	25.829
341.38	26.157
341.74	26.930
342.11	25.764
342.47	25.815
342.83	26.455
343.20	26.667
343.56	25.527
343.92	25.789
344.28	25.595
344.65	26.999
345.01	24.411
345.37	25.815
345.73	25.719
346.10	26.257
346.46	25.424
346.82	25.700
347.19	23.893
347.55	24.631
347.91	25.566
348.27	25.637
348.63	24.247
349.00	24.191
349.36	25.041
349.72	24.218
350.08	23.582
350.45	24.329
350.81	24.695
351.17	24.230
351.53	23.915
351.89	23.680
352.26	25.099
352.62	25.100
352.98	25.041
353.34	25.308
353.70	24.959
354.07	25.161
354.43	24.048
354.79	23.733
355.15	24.980
355.51	24.620
355.87	24.898
356.24	22.638
356.60	24.779
356.96	24.296
357.32	23.222
357.68	24.488
358.04	24.149
358.40	23.595
358.77	24.178
359.13	22.889
359.49	23.373
359.85	23.175
360.21	22.727
360.57	24.202
360.93	24.154
361.29	22.978
361.66	23.529
362.02	23.881
362.38	24.411
362.74	23.958
363.10	24.056
363.46	22.964
363.82	23.356
364.18	23.275
364.54	24.368
364.90	24.292
365.26	23.824
365.62	22.717
365.98	21.549
366.35	21.991
366.71	24.078
367.07	23.088
367.43	23.803
367.79	23.483
368.15	23.779
368.51	22.674
368.87	23.269
369.23	23.263
369.59	23.316
369.95	22.574
370.31	22.578
370.67	22.609
371.03	23.895
371.39	23.980
371.75	23.456
372.11	23.044
372.47	23.167
372.83	23.631
373.19	22.832
373.55	23.577
373.91	24.006
374.27	22.474
374.63	22.400
374.99	23.446
375.35	21.912
375.71	22.687
376.07	22.908
376.42	22.902
376.78	23.393
377.14	23.270
377.50	23.311
377.86	22.673
378.22	22.819
378.58	22.180
378.94	22.439
379.30	22.074
379.66	23.477
380.02	23.403
380.38	22.526
380.74	22.869
381.09	23.533
381.45	23.970
381.81	23.096
382.17	22.739
382.53	22.579
382.89	23.086
383.25	22.827
383.61	23.234
383.97	22.764
384.32	22.396
384.68	22.615
385.04	23.110
385.40	23.406
385.76	22.482
386.12	21.762
386.48	22.404
386.83	23.156
387.19	23.624
387.55	22.511
387.91	22.068
388.27	22.134
388.62	22.864
388.98	22.113
389.34	23.967
389.70	22.502
390.06	23.511
390.42	23.281
390.77	22.265
391.13	23.995
391.49	22.525
391.85	23.043
392.20	22.145
392.56	23.674
392.92	22.190
393.28	22.189
393.64	22.662
393.99	23.335
394.35	23.077
394.71	23.087
395.07	22.617
395.42	22.497
395.78	23.855
396.14	23.277
396.50	22.932
396.85	23.268
397.21	22.133
397.57	22.505
397.92	23.137
398.28	21.525
398.64	22.222
399.00	22.104
399.35	22.109
399.71	23.322
400.07	23.300
400.42	22.515
400.78	22.919
401.14	23.293
401.49	23.224
401.85	22.142
402.21	21.796
402.57	22.394
402.92	22.951
403.28	23.360
403.63	22.525
403.99	21.720
404.35	22.727
404.70	22.002
405.06	22.714
405.42	22.583
405.77	22.857
406.13	21.896
406.49	22.472
406.84	22.800
407.20	22.045
407.55	22.463
407.91	24.533
408.27	22.527
408.62	23.058
408.98	23.346
409.34	23.309
409.69	22.516
410.05	22.243
410.40	22.875
410.76	21.983
411.11	23.281
411.47	23.962
411.83	22.663
412.18	22.016
412.54	23.039
412.89	22.651
413.25	22.727
413.60	22.483
413.96	22.526
414.31	22.418
414.67	23.638
415.03	23.510
415.38	24.098
415.74	22.637
416.09	23.187
416.45	22.289
416.80	23.397
417.16	24.598
417.51	23.756
417.87	22.800
418.22	23.785
418.58	23.822
418.93	23.157
419.29	23.234
419.64	22.733
420.00	23.171
420.35	23.188
420.71	23.969
421.06	22.792
421.42	23.041
421.77	23.599
422.12	22.852
422.48	22.234
422.83	23.588
423.19	23.867
423.54	23.447
423.90	23.130
424.25	23.060
424.61	22.917
424.96	23.615
425.31	23.477
425.67	22.697
426.02	22.800
426.38	23.871
426.73	23.288
427.09	23.891
427.44	23.232
427.79	22.657
428.15	24.643
428.50	23.406
428.85	23.480
429.21	23.136
429.56	22.965
429.92	22.949
430.27	21.897
430.62	23.707
430.98	22.833
431.33	23.196
431.68	22.880
432.04	22.790
432.39	23.701
432.74	24.117
433.10	23.373
433.45	23.848
433.80	22.783
434.16	23.130
434.51	23.684
434.86	23.147
435.22	23.457
435.57	24.620
435.92	24.049
436.28	23.606
436.63	23.841
436.98	23.412
437.34	23.673
437.69	23.979
438.04	24.340
438.39	24.299
438.75	24.753
439.10	24.190
439.45	23.849
439.81	24.532
440.16	24.224
440.51	24.487
440.86	23.393
441.22	24.194
441.57	24.522
441.92	24.821
442.27	24.435
442.63	23.960
442.98	25.070
443.33	24.130
443.68	23.542
444.03	23.914
444.39	23.856
444.74	24.080
445.09	24.367
445.44	23.893
445.79	24.196
446.15	24.934
446.50	24.233
446.85	23.330
447.20	24.528
447.55	24.456
447.91	24.710
448.26	24.763
448.61	24.929
448.96	24.252
449.31	25.703
449.66	24.705
450.02	24.011
450.37	24.830
450.72	24.422
451.07	24.558
451.42	23.951
451.77	25.778
452.12	24.596
452.47	25.249
452.83	25.000
453.18	24.694
453.53	26.036
453.88	25.340
454.23	25.583
454.58	26.166
454.93	26.701
455.28	25.436
455.63	25.243
455.98	26.250
456.34	25.063
456.69	26.237
457.04	27.616
457.39	25.424
457.74	25.247
458.09	26.049
458.44	26.055
458.79	24.783
459.14	25.226
459.49	25.161
459.84	25.429
460.19	25.751
460.54	25.058
460.89	25.453
461.24	26.533
461.59	26.554
461.94	26.326
462.29	26.884
462.64	26.037
462.99	26.090
463.34	27.467
463.69	26.266
464.04	25.391
464.39	25.739
464.74	25.906
465.09	25.513
465.44	26.150
465.79	25.280
466.14	25.670
466.49	25.806
466.84	25.861
467.19	26.192
467.54	27.188
467.89	25.030
468.24	26.003
468.59	26.252
468.94	26.573
469.29	26.928
469.64	27.108
469.99	27.199
470.34	27.609
470.68	27.802
471.03	27.075
471.38	27.867
471.73	28.181
472.08	27.039
472.43	26.884
472.78	27.979
473.13	27.664
473.48	26.779
473.83	28.110
474.17	27.318
474.52	28.040
474.87	28.079
475.22	27.336
475.57	26.330
475.92	26.129
476.27	26.043
476.61	27.192
476.96	26.663
477.31	27.473
477.66	27.079
478.01	26.451
478.36	27.234
478.70	27.051
479.05	27.157
479.40	26.407
479.75	26.894
480.10	26.740
480.45	26.130
480.79	25.561
481.14	27.202
481.49	26.388
481.84	26.932
482.19	26.897
482.53	26.835
482.88	26.943
483.23	27.196
483.58	27.616
483.92	27.601
484.27	26.405
484.62	26.250
484.97	26.133
485.31	25.925
485.66	23.132
486.01	21.923
486.36	22.156
486.70	22.548
487.05	23.275
487.40	24.030
487.75	24.151
488.09	25.265
488.44	25.284
488.79	26.835
489.13	26.432
489.48	26.223
489.83	26.975
490.17	27.269
490.52	27.502
490.87	27.137
491.22	26.967
491.56	27.380
491.91	27.780
492.26	27.147
492.60	26.728
492.95	27.128
493.30	26.495
493.64	26.878
493.99	27.948
494.34	28.122
494.68	27.839
495.03	28.618
495.37	27.129
495.72	27.485
496.07	27.796
496.41	27.080
496.76	27.880
497.11	27.375
497.45	27.946
497.80	27.063
498.14	27.488
498.49	27.902
498.84	27.948
499.18	27.333
499.53	28.110
499.87	27.959
500.22	27.744
500.56	28.301
500.91	28.173
501.26	28.355
501.60	29.141
501.95	27.269
502.29	28.257
502.64	28.492
502.98	28.892
503.33	27.514
503.67	28.074
504.02	28.064
504.36	27.796
504.71	28.285
505.06	28.000
505.40	28.051
505.75	27.821
506.09	27.843
506.44	28.762
506.78	28.641
507.13	29.480
507.47	29.949
507.82	29.787
508.16	29.585
508.51	30.036
508.85	29.394
509.19	29.031
509.54	29.082
509.88	30.294
510.23	29.306
510.57	30.237
510.92	29.674
511.26	29.188
511.61	29.979
511.95	29.071
512.30	30.435
512.64	30.897
512.98	30.332
513.33	30.300
513.67	29.616
514.02	30.032
514.36	30.748
514.70	30.105
515.05	30.563
515.39	30.398
515.74	31.194
516.08	31.079
516.42	30.744
516.77	31.104
517.11	30.466
517.46	31.659
517.80	31.533
518.14	31.094
518.49	31.097
518.83	31.250
519.17	31.236
519.52	31.353
519.86	30.576
520.20	31.214
520.55	31.777
520.89	32.786
521.23	32.207
521.58	31.813
521.92	32.333
522.26	31.361
522.61	32.025
522.95	32.106
523.29	32.197
523.64	32.134
523.98	32.348
524.32	32.027
524.66	32.051
525.01	31.373
525.35	31.227
525.69	31.650
526.04	32.710
526.38	32.032
526.72	31.656
527.06	32.894
527.41	31.869
527.75	32.797
528.09	32.306
528.43	32.377
528.78	32.207
529.12	31.273
529.46	32.272
529.80	31.993
530.15	32.212
530.49	31.631
530.83	33.038
531.17	33.486
531.51	33.852
531.86	32.387
532.20	32.203
532.54	32.031
532.88	32.478
533.22	31.168
533.57	31.235
533.91	31.487
534.25	31.774
534.59	31.483
534.93	31.469
535.27	30.779
535.62	31.380
535.96	31.952
536.30	31.278
536.64	32.067
536.98	32.382
537.32	31.731
537.66	32.467
538.01	33.048
538.35	33.096
538.69	32.419
539.03	30.604
539.37	30.927
539.71	30.331
540.05	32.092
540.39	31.894
540.73	30.660
541.07	32.382
541.42	31.507
541.76	32.194
542.10	31.501
542.44	31.192
542.78	32.345
543.12	30.902
543.46	30.689
543.80	32.401
544.14	31.258
544.48	31.810
544.82	31.174
545.16	31.165
545.50	30.398
545.84	31.586
546.18	32.189
546.52	32.278
546.86	32.027
547.20	33.041
547.54	31.463
547.88	31.314
548.22	30.137
548.56	30.629
548.90	30.602
549.24	31.987
549.58	32.606
549.92	31.662
550.26	32.528
550.60	32.642
550.94	32.183
551.28	31.529
551.62	31.704
551.96	31.439
552.30	32.014
552.64	31.981
552.98	32.542
553.32	31.558
553.66	31.834
554.00	32.876
554.34	31.539
554.68	33.691
555.02	32.087
555.36	32.289
555.69	31.191
556.03	31.763
556.37	31.310
556.71	31.924
557.05	32.073
557.39	32.400
557.73	31.122
558.07	32.342
558.41	31.187
558.75	31.080
559.08	32.513
559.42	32.653
559.76	32.132
560.10	31.834
560.44	30.748
560.78	30.605
561.12	30.871
561.45	31.291
561.79	31.246
562.13	31.455
562.47	31.967
562.81	30.823
563.15	30.368
563.48	31.233
563.82	30.463
564.16	30.216
564.50	30.143
564.84	29.899
565.17	30.116
565.51	30.607
565.85	29.949
566.19	29.681
566.52	29.829
566.86	30.500
567.20	29.304
567.54	28.710
567.88	28.463
568.21	28.307
568.55	28.059
568.89	26.702
569.23	26.381
569.56	25.587
569.90	25.698
570.24	24.543
570.57	24.685
570.91	23.562
571.25	24.058
571.59	23.888
571.92	23.675
572.26	23.830
572.60	24.114
572.93	24.078
573.27	23.839
573.61	23.758
573.95	23.385
574.28	22.965
574.62	23.081
574.96	22.557
575.29	22.866
575.63	22.409
575.97	23.536
576.30	23.208
576.64	22.669
576.98	22.606
577.31	22.620
577.65	22.541
577.98	21.874
578.32	21.704
578.66	21.992
578.99	22.849
579.33	22.561
579.67	22.136
580.00	22.968
580.34	22.591
580.67	22.193
581.01	22.307
581.35	22.213
581.68	21.648
582.02	21.095
582.35	21.230
582.69	21.452
583.02	21.825
583.36	22.758
583.70	22.652
584.03	23.067
584.37	23.926
584.70	22.832
585.04	22.260
585.37	21.901
585.71	22.768
586.04	22.493
586.38	22.597
586.72	23.336
587.05	22.575
587.39	22.032
587.72	22.855
588.06	22.545
588.39	22.497
588.73	22.939
589.06	23.590
589.40	24.007
589.73	23.759
590.07	23.488
590.40	24.224
590.73	24.434
591.07	25.275
591.40	25.095
591.74	25.498
592.07	25.305
592.41	24.514
592.74	24.232
593.08	23.351
593.41	23.537
593.75	22.455
594.08	22.997
594.41	23.224
594.75	23.438
595.08	24.123
595.42	23.292
595.75	23.682
596.09	24.258
596.42	24.990
596.75	25.074
597.09	23.939
597.42	24.410
597.75	24.450
598.09	24.391
598.42	24.527
598.76	23.916
599.09	22.881
599.42	23.035
599.76	22.840
600.09	23.424
600.42	22.936
600.76	22.786
601.09	22.659
601.42	23.592
601.76	23.529
602.09	23.755
602.42	23.447
602.76	24.143
603.09	23.879
603.42	23.819
603.76	23.819
604.09	22.955
604.42	24.704
604.76	24.589
605.09	23.984
605.42	24.027
605.75	23.800
606.09	23.343
606.42	23.743
606.75	23.725
607.09	23.650
607.42	23.577
607.75	22.996
608.08	24.012
608.42	23.846
608.75	23.850
609.08	23.959
609.41	24.417
609.75	24.250
610.08	24.835
610.41	24.302
610.74	23.936
611.07	25.049
611.41	24.975
611.74	24.937
612.07	24.948
612.40	25.498
612.73	24.421
613.07	25.485
613.40	25.118
613.73	24.803
614.06	25.054
614.39	25.013
614.72	24.842
615.06	25.000
615.39	24.469
615.72	24.744
616.05	24.721
616.38	25.403
616.71	26.603
617.05	26.207
617.38	24.955
617.71	25.646
618.04	26.022
618.37	25.251
618.70	26.509
619.03	26.776
619.36	27.427
619.69	27.465
620.03	27.679
620.36	27.674
620.69	27.671
621.02	27.876
621.35	28.269
621.68	26.558
622.01	27.632
622.34	27.005
622.67	27.757
623.00	26.779
623.33	25.947
623.66	27.663
623.99	26.289
624.32	27.104
624.65	26.483
624.99	26.558
625.32	26.140
625.65	26.747
625.98	27.902
626.31	27.449
626.64	29.143
626.97	28.928
627.30	28.346
627.63	28.712
627.96	28.932
628.29	30.271
628.62	30.467
628.95	30.472
629.28	30.474
629.61	30.706
629.94	29.905
630.26	30.601
630.59	31.077
630.92	29.789
631.25	30.602
631.58	29.930
631.91	31.034
632.24	30.274
632.57	32.424
632.90	32.018
633.23	32.103
633.56	31.864
633.89	32.390
634.22	33.144
634.55	33.846
634.88	31.377
635.20	34.528
635.53	34.458
635.86	34.530
636.19	29.882
636.52	29.873
636.85	32.532
637.18	30.530
637.51	33.688
637.83	29.963
638.16	31.714
638.49	32.872
638.82	33.755
639.15	33.875
639.48	32.170
639.81	33.512
640.13	35.026
640.46	35.570
640.79	34.214
641.12	34.388
641.45	34.078
641.77	36.524
642.10	34.357
642.43	34.985
642.76	34.520
643.09	35.890
643.41	35.053
643.74	36.574
644.07	34.756
644.40	35.276
644.73	37.165
645.05	37.876
645.38	34.755
645.71	35.266
646.04	37.708
646.36	38.230
646.69	36.957
647.02	36.735
647.35	37.801
647.67	36.991
648.00	37.236
648.33	35.644
648.66	35.000
648.98	36.132
649.31	32.436
649.64	31.988
649.96	33.979
650.29	35.071
650.62	34.304
650.94	36.629
651.27	37.331
651.60	35.275
651.92	34.984
652.25	33.550
652.58	35.826
652.90	33.491
653.23	32.357
653.56	34.646
653.88	34.707
654.21	36.177
654.54	33.993
654.86	33.645
655.19	30.270
655.52	20.024
655.84	15.177
656.17	18.579
656.49	24.922
656.82	25.369
657.15	19.395
657.47	14.757
657.80	11.714
658.13	12.233
658.45	18.940
658.78	19.526
659.10	20.587
659.43	22.328
659.75	23.493
660.08	26.203
660.41	29.702
660.73	31.893
661.06	33.599
661.38	38.182
661.71	35.769
662.03	37.673
662.36	36.382
662.68	38.353
663.01	38.384
663.33	38.429
663.66	39.916
663.98	36.285
664.31	36.975
664.63	37.247
664.96	35.815
665.28	38.730
665.61	36.257
665.93	34.406
666.26	36.917
666.58	37.866
666.91	39.535
667.23	35.730
667.56	36.285
667.88	37.179
668.21	36.461
668.53	37.744
668.86	37.013
669.18	38.806
669.50	39.130
669.83	38.780
670.15	40.222
670.48	35.730
670.80	37.284
671.13	37.367
671.45	35.745
671.77	39.104
672.10	34.566
672.42	33.392
672.75	31.841
673.07	31.866
673.39	33.092
673.72	30.469
674.04	33.529
674.37	33.981
674.69	37.219
675.01	33.891
675.34	36.756
675.66	37.684
675.98	37.678
676.31	37.395
676.63	37.155
676.95	35.849
677.28	37.383
677.60	35.824
677.92	39.451
678.25	33.881
678.57	35.259
678.89	34.469
679.22	33.988
679.54	34.542
679.86	33.578
680.18	30.948
680.51	33.333
680.83	31.673
681.15	35.660
681.48	35.917
681.80	32.302
682.12	32.950
682.44	31.721
682.77	36.049
683.09	37.768
683.41	34.146
683.73	36.203
684.06	35.744
684.38	31.311
684.70	31.395
685.02	34.522
685.34	31.868
685.67	28.322
685.99	29.038
686.31	31.058
686.63	27.385
686.96	30.179
687.28	32.852
687.60	31.522
687.92	33.090
688.24	31.939
688.56	34.337
688.89	34.440
689.21	37.336
689.53	34.656
689.85	35.255
690.17	32.919
690.49	36.730
690.82	35.748
691.14	34.375
691.46	31.646
691.78	31.526
692.10	33.471
692.42	34.731
692.74	31.743
693.06	33.191
693.39	34.908
693.71	32.533
694.03	32.842
694.35	32.900
694.67	35.469
694.99	36.829
695.31	32.353
695.63	33.732
695.95	36.675
696.27	33.503
696.59	38.342
696.91	37.824
697.23	32.629
697.56	32.623
697.88	27.812
698.20	31.250
698.52	30.538
698.84	32.962
699.16	33.871
699.48	32.779
699.80	33.816
700.12	40.000
700.44	37.135
700.76	34.530
701.08	38.793
701.40	38.827
701.72	36.443
702.04	40.341
702.36	33.428
702.68	35.411
703.00	36.842
703.32	37.234
703.64	36.461
703.96	37.047
704.28	36.047
704.60	39.296
704.91	37.092
705.23	36.657
705.55	40.199
705.87	41.528
706.19	44.523
706.51	38.629
706.83	39.394
707.15	36.695
707.47	32.323
707.79	36.118
708.11	31.050
708.43	31.905
708.74	28.827
709.06	36.883
709.38	35.958
709.70	36.628
710.02	37.685
710.34	35.758
710.66	34.627
710.98	36.932
711.29	35.465
711.61	37.168
711.93	34.295
712.25	35.048
712.57	41.176
712.89	39.792
713.20	34.650
713.52	37.500
713.84	32.595
714.16	34.451
714.48	36.782
714.80	39.210
715.11	35.447
715.43	35.608
715.75	35.072
716.07	37.380
716.39	34.483
716.70	40.532
717.02	39.209
717.34	38.516
717.66	41.791
717.97	43.028
718.29	37.778
718.61	37.956
718.93	38.603
719.24	35.294
719.56	37.966
719.88	41.017
720.20	38.851
720.51	39.721
720.83	39.405
721.15	38.806
721.46	41.135
721.78	42.652
722.10	37.736
722.42	39.474
722.73	42.697
723.05	40.984
723.37	40.486
723.68	40.927
724.00	43.496
724.32	41.935
724.63	38.618
724.95	35.983
725.27	42.105
725.58	39.062
725.90	39.781
726.22	39.623
726.53	40.972
726.85	38.567
727.16	37.011
727.48	35.816
727.80	37.500
728.11	37.319
728.43	35.385
728.74	36.559
729.06	39.416
729.38	45.956
729.69	41.993
730.01	32.765
730.32	34.375
730.64	34.448
730.96	33.333
731.27	35.762
731.59	32.722
731.90	36.443
732.22	33.230
732.53	33.746
732.85	34.615
733.16	34.405
733.48	30.897
733.80	37.662
734.11	33.439
734.43	32.249
734.74	32.857
735.06	31.232
735.37	35.260
735.69	30.573
736.00	37.255
736.32	32.399
736.63	32.588
736.95	35.783
737.26	29.932
737.58	33.548
737.89	34.448
738.21	36.177
738.52	32.143
738.83	31.321
739.15	33.846
739.46	37.956
739.78	33.333
740.09	36.615
740.41	34.516
740.72	32.056
741.04	35.185
741.35	41.250
741.66	46.222
741.98	37.736
742.29	43.062
742.61	40.086
742.92	36.199
743.23	35.897
743.55	38.800
743.86	40.789
744.18	38.496
744.49	46.411
744.80	43.192
745.12	47.273
745.43	41.410
745.74	47.297
746.06	40.826
746.37	41.256
746.68	39.819
747.00	43.519
747.31	38.095
747.62	39.381
747.94	40.969
748.25	41.277
748.56	38.767
748.88	40.099
749.19	45.500
749.50	38.140
749.82	39.024
750.13	34.286
750.44	33.942
750.75	33.684
751.07	37.621
751.38	35.540
751.69	34.657
752.01	36.842
752.32	28.520
752.63	37.234
752.94	36.475
753.26	39.600
753.57	37.398
753.88	35.937
754.19	38.929
754.51	36.111
754.82	31.769
755.13	34.340
755.44	37.594
755.75	36.861
756.07	29.787
756.38	33.212
756.69	37.248
757.00	29.341
757.31	31.751
757.63	28.363
757.94	30.295
758.25	25.735
758.56	29.630
758.87	27.151
759.18	32.121
759.50	29.467
759.81	34.268
760.12	27.812
760.43	30.659
760.74	26.359
761.05	25.706
761.36	30.749
761.67	31.250
761.99	31.988
762.30	30.556
762.61	35.115
762.92	36.719
763.23	39.496
763.54	31.600
763.85	30.859
764.16	37.308
764.47	38.783
764.78	32.862
765.10	30.696
765.41	31.268
765.72	33.533
766.03	30.094
766.34	30.000
766.65	38.298
766.96	31.197
767.27	43.655
767.58	43.750
767.89	47.368
768.20	46.552
768.51	37.056
768.82	40.826
769.13	32.927
769.44	34.008
769.75	34.764
770.06	33.028
770.37	38.914
770.68	37.037
770.99	35.111
771.30	34.016
771.61	38.565
771.92	37.295
772.23	43.697
772.54	42.564
772.85	42.932
773.16	42.021
773.47	44.022
773.78	45.178
774.09	45.833
774.39	42.690
774.70	48.148
775.01	52.174
775.32	55.556
775.63	47.368
775.94	46.043
776.25	56.693
776.56	55.224
776.87	49.180
777.18	54.688
777.48	64.885
777.79	56.061
778.10	55.556
778.41	54.464
778.72	42.336
779.03	50.336
779.34	40.940
779.65	43.919
779.95	44.172
780.26	50.327
780.57	57.241
780.88	58.594
781.19	50.376
781.50	50.676
781.80	51.572
782.11	42.938
782.42	41.139
782.73	46.626
783.04	50.676
783.34	48.592
783.65	53.425
783.96	52.239
784.27	41.958
784.57	38.849
784.88	46.296
785.19	63.492
785.50	61.321
785.81	52.985
786.11	56.557
786.42	52.713
786.73	54.867
787.04	72.642
787.34	59.821
787.65	67.000
787.96	60.360
788.26	47.934
788.57	65.254
788.88	57.851
789.19	56.944
789.49	56.818
789.80	51.145
790.11	66.667
790.41	59.406
790.72	63.855
791.03	61.957
791.33	80.233
791.64	64.948
791.95	71.287
792.25	76.667
792.56	64.935
792.87	91.026
793.17	93.671
793.48	64.368
793.79	71.264
794.09	68.182
794.40	59.664
794.70	58.088
795.01	42.222
795.32	44.604
795.62	55.118
795.93	64.655
796.23	51.327
796.54	56.471
796.85	72.973
797.15	85.915
797.46	81.818
797.76	78.313
798.07	65.823
798.37	83.077
798.68	75.758
798.99	67.606
799.29	83.117
799.60	72.727
799.90	93.151
800.21	91.045
800.51	84.483
800.82	103.509
801.12	85.246
801.43	107.576
801.73	82.432
802.04	87.302
802.34	77.778
802.65	75.000
802.95	94.915
803.26	89.063
803.56	82.857
803.87	72.308
804.17	83.824
804.48	116.667
804.78	96.552
805.09	83.824
805.39	103.846
805.70	91.071
806.00	101.639
806.30	84.848
806.61	70.732
806.91	74.684
807.22	71.053
807.52	88.060
807.83	74.648
808.13	103.125
808.43	108.333
808.74	68.421
809.04	84.058
809.35	88.060
809.65	78.947
809.95	103.226
810.26	88.136
810.56	92.063
810.86	136.364
811.17	133.333
811.47	96.667
811.77	105.556
812.08	105.455
812.38	106.000
812.69	136.111
812.99	152.273
813.29	112.245
813.59	95.238
813.90	112.245
814.20	87.273
814.50	84.615
814.81	91.176
815.11	104.082
815.41	88.525
815.72	140.476
816.02	103.636
816.32	128.571
816.62	105.000
816.93	143.902
817.23	145.238
817.53	127.273
817.84	136.364
818.14	106.522
818.44	113.333
818.74	164.706
819.04	125.000
819.35	140.000
819.65	170.588
819.95	157.143
820.25	180.000
820.56	143.590
820.86	109.091
821.16	144.186
821.46	143.590
821.76	130.000
822.07	145.714
822.37	137.500
822.67	154.545
822.97	98.039
823.27	203.571
823.57	137.838
823.88	150.000
824.18	183.333
824.48	145.238
824.78	196.000
825.08	187.500
825.38	151.351
825.69	143.902
825.99	187.500
826.29	131.034
826.59	150.000
826.89	147.368
827.19	155.882
827.49	148.387
827.79	97.727
828.09	120.455
828.39	104.255
828.70	100.000
829.00	151.852
829.30	154.839
829.60	132.500
829.90	280.000
830.20	185.714
830.50	130.435
830.80	178.261
831.10	193.333
831.40	170.000
831.70	156.522
832.00	196.154
832.30	207.407
832.60	293.750
832.90	210.000
833.20	342.857
833.50	212.903
833.80	186.207
834.10	162.500
834.40	207.692
834.70	272.222
835.00	280.952
835.30	174.286
835.60	307.692
835.90	186.207
836.20	250.000
836.50	193.103
836.80	164.000
837.10	177.778
837.40	266.667
837.70	276.471
838.00	188.889
838.30	247.619
838.60	280.952
838.90	196.154
839.19	240.000
839.49	335.714
839.79	315.000
840.09	275.000
840.39	200.000
840.69	217.391
840.99	288.889
841.29	500.000
841.59	300.000
841.88	293.750
842.18	182.759
842.48	271.429
842.78	176.667
843.08	230.435
843.38	153.125
843.68	666.667
843.97	207.692
844.27	158.621
844.57	295.238
844.87	318.750
845.17	185.185
845.47	1666.667
845.76	400.000
846.06	235.294
846.36	437.500
846.66	342.857
846.96	281.250
847.25	354.545
847.55	418.182
847.85	217.391
848.15	470.000
848.44	392.857
848.74	277.778
849.04	270.588
849.34	390.000
849.63	231.579
849.93	490.909
850.23	1020.000
850.53	371.429
850.82	1750.000
851.12	-4400.000
851.42	4400.000
851.71	285.000
852.01	-1266.667
852.31	212.500
852.61	1566.667
852.90	238.095
853.20	164.000
853.50	276.471
853.79	204.762
854.09	229.167
854.39	262.500
854.68	159.459
854.98	183.871
855.28	176.667
855.57	186.207
855.87	148.148
856.17	178.947
856.46	186.667
856.76	288.235
857.05	182.759
857.35	212.500
857.65	300.000
857.94	204.348
858.24	207.692
858.53	270.000
858.83	250.000
859.13	293.333
859.42	0.000
859.72	422.222
860.01	409.091
860.31	272.727
860.60	242.105
860.90	191.304
861.20	600.000
861.49	458.333
861.79	-3800.000
862.08	600.000
862.38	247.619
862.67	369.231
862.97	294.118
863.26	511.111
863.56	266.667
863.85	333.333
864.15	500.000
864.44	360.000
864.74	816.667
865.03	662.500
865.33	257.895
865.62	481.818
865.92	323.077
866.21	316.667
866.51	0.000
866.80	481.818
867.10	1060.000
867.39	353.846
867.69	372.727
867.98	236.842
868.27	490.909
868.57	247.368
868.86	-3400.000
869.16	331.250
869.45	2200.000
869.75	-3800.000
870.04	441.667
870.33	571.429
870.63	975.000
870.92	2500.000
871.22	585.714
871.51	329.412
871.80	247.619
872.10	400.000
>>>>>End Processed Spectral Data<<<<<
