SpectraSuite Data File
++++++++++++++++++++++++++++++++++++
Date: Wed May 13 20:35:33 PDT 2015
User: schluterlab
Dark Spectrum Present: Yes
Reference Spectrum Present: Yes
Number of Sampled Component Spectra: 1
Spectrometers: USB2E3373
Integration Time (usec): 3000 (USB2E3373)
Spectra Averaged: 3 (USB2E3373)
Boxcar Smoothing: 0 (USB2E3373)
Correct for Electrical Dark: No (USB2E3373)
Strobe/Lamp Enabled: No (USB2E3373)
Correct for Detector Non-linearity: No (USB2E3373)
Correct for Stray Light: No (USB2E3373)
Number of Pixels in Processed Spectrum: 2048
>>>>>Begin Processed Spectral Data<<<<<
178.53	0.000
178.91	-950.000
179.29	-900.000
179.67	-188.889
180.04	-1025.000
180.42	1800.000
180.80	540.000
181.18	-750.000
181.56	442.857
181.94	0.000
182.31	-442.857
182.69	1300.000
183.07	-375.000
183.45	-388.889
183.83	372.727
184.20	-270.000
184.58	1400.000
184.96	4100.000
185.34	-420.000
185.72	-412.500
186.09	-1450.000
186.47	2150.000
186.85	2300.000
187.23	3000.000
187.61	-1133.333
187.98	1125.000
188.36	409.091
188.74	400.000
189.12	-700.000
189.49	520.000
189.87	-3300.000
190.25	-650.000
190.63	250.000
191.00	369.231
191.38	700.000
191.76	-725.000
192.14	1000.000
192.51	487.500
192.89	783.333
193.27	312.500
193.65	-725.000
194.02	360.000
194.40	500.000
194.78	370.000
195.15	400.000
195.53	570.000
195.91	-1500.000
196.29	212.500
196.66	247.368
197.04	-190.000
197.42	0.000
197.79	490.000
198.17	-2900.000
198.55	528.571
198.92	450.000
199.30	580.000
199.68	0.000
200.05	205.556
200.43	471.429
200.81	3400.000
201.18	1533.333
201.56	-966.667
201.94	466.667
202.31	477.778
202.69	300.000
203.07	410.000
203.44	0.000
203.82	775.000
204.19	542.857
204.57	271.429
204.95	325.000
205.32	1266.667
205.70	400.000
206.08	307.143
206.45	2050.000
206.83	300.000
207.20	683.333
207.58	460.000
207.96	194.444
208.33	450.000
208.71	-600.000
209.08	614.286
209.46	388.889
209.84	354.545
210.21	-1066.667
210.59	925.000
210.96	-275.000
211.34	1800.000
211.71	500.000
212.09	516.667
212.46	0.000
212.84	1233.333
213.22	925.000
213.59	-2700.000
213.97	550.000
214.34	614.286
214.72	490.909
215.09	720.000
215.47	-1950.000
215.84	-1450.000
216.22	1133.333
216.59	271.429
216.97	1175.000
217.34	363.636
217.72	-516.667
218.09	0.000
218.47	-3600.000
218.84	444.444
219.22	442.857
219.59	1066.667
219.97	-357.143
220.34	720.000
220.72	-1100.000
221.09	328.571
221.47	1225.000
221.84	-666.667
222.22	0.000
222.59	1150.000
222.97	-1850.000
223.34	860.000
223.72	307.692
224.09	720.000
224.46	1550.000
224.84	-3500.000
225.21	-580.000
225.59	-3200.000
225.96	520.000
226.34	255.000
226.71	2050.000
227.08	350.000
227.46	350.000
227.83	-650.000
228.21	-1400.000
228.58	400.000
228.95	-1750.000
229.33	-1950.000
229.70	1400.000
230.08	442.857
230.45	-700.000
230.82	391.667
231.20	566.667
231.57	542.857
231.95	333.333
232.32	172.727
232.69	290.909
233.07	485.714
233.44	323.077
233.81	-1000.000
234.19	184.211
234.56	400.000
234.93	275.000
235.31	300.000
235.68	184.615
236.05	228.571
236.43	106.061
236.80	152.632
237.17	4200.000
237.55	190.476
237.92	157.143
238.29	128.571
238.67	151.613
239.04	179.310
239.41	113.889
239.79	89.130
240.16	90.476
240.53	104.545
240.91	88.235
241.28	86.000
241.65	84.000
242.02	72.464
242.40	69.355
242.77	60.000
243.14	59.140
243.51	65.169
243.89	63.529
244.26	48.889
244.63	55.914
245.00	41.489
245.38	45.545
245.75	41.121
246.12	47.706
246.49	52.555
246.87	59.200
247.24	51.538
247.61	40.714
247.98	43.137
248.36	37.838
248.73	41.401
249.10	41.401
249.47	41.808
249.84	35.294
250.22	38.503
250.59	40.237
250.96	37.879
251.33	32.701
251.70	46.535
252.08	41.905
252.45	32.735
252.82	35.217
253.19	34.468
253.56	30.588
253.94	32.780
254.31	30.859
254.68	36.154
255.05	35.055
255.42	30.488
255.79	36.029
256.16	38.267
256.54	31.802
256.91	35.587
257.28	26.619
257.65	31.023
258.02	33.230
258.39	29.653
258.76	34.114
259.14	28.571
259.51	27.964
259.88	29.814
260.25	27.492
260.62	30.347
260.99	31.056
261.36	30.330
261.73	28.367
262.10	31.977
262.47	24.789
262.85	28.134
263.22	24.786
263.59	32.479
263.96	27.473
264.33	25.065
264.70	25.789
265.07	30.691
265.44	27.525
265.81	24.818
266.18	29.397
266.55	25.366
266.92	28.747
267.29	25.926
267.66	25.459
268.03	27.273
268.40	26.402
268.77	24.821
269.14	26.802
269.51	25.734
269.88	28.671
270.25	26.185
270.62	26.742
270.99	28.387
271.36	27.682
271.73	24.766
272.10	27.826
272.47	26.237
272.84	25.325
273.21	28.092
273.58	24.236
273.95	23.061
274.32	25.620
274.69	26.338
275.06	23.425
275.43	27.234
275.80	24.850
276.17	26.884
276.54	26.195
276.91	25.692
277.28	24.805
277.65	23.211
278.02	23.395
278.39	25.977
278.76	24.000
279.13	25.094
279.50	24.209
279.87	24.900
280.23	24.950
280.60	24.178
280.97	23.105
281.34	24.956
281.71	25.636
282.08	23.417
282.45	23.091
282.82	22.558
283.19	21.390
283.56	25.263
283.92	25.888
284.29	22.399
284.66	23.230
285.03	22.785
285.40	22.535
285.77	22.896
286.14	22.971
286.51	23.167
286.87	24.103
287.24	23.616
287.61	22.311
287.98	22.565
288.35	21.712
288.72	20.717
289.08	22.379
289.45	23.229
289.82	21.789
290.19	22.292
290.56	19.602
290.93	20.997
291.29	21.166
291.66	21.534
292.03	22.093
292.40	21.439
292.77	18.491
293.13	19.701
293.50	18.659
293.87	18.370
294.24	19.704
294.60	19.796
294.97	20.349
295.34	20.310
295.71	19.460
296.08	19.373
296.44	18.019
296.81	19.287
297.18	21.274
297.55	17.018
297.91	17.546
298.28	19.813
298.65	19.321
299.02	20.158
299.38	18.725
299.75	17.116
300.12	16.858
300.48	17.875
300.85	17.386
301.22	17.070
301.59	17.424
301.95	18.136
302.32	18.100
302.69	17.085
303.05	18.061
303.42	17.037
303.79	18.007
304.15	15.268
304.52	16.222
304.89	16.492
305.25	16.357
305.62	16.874
305.99	15.112
306.35	17.338
306.72	17.601
307.09	17.869
307.45	17.117
307.82	14.844
308.19	16.225
308.55	16.613
308.92	17.293
309.29	16.895
309.65	15.270
310.02	18.499
310.38	17.527
310.75	16.895
311.12	18.014
311.48	17.450
311.85	18.239
312.22	18.626
312.58	18.503
312.95	19.430
313.31	18.544
313.68	20.166
314.05	19.625
314.41	20.201
314.78	20.141
315.14	19.960
315.51	20.803
315.87	22.772
316.24	21.748
316.61	21.345
316.97	21.037
317.34	21.624
317.70	24.761
318.07	23.195
318.43	24.266
318.80	24.742
319.16	24.670
319.53	25.235
319.89	26.476
320.26	27.300
320.62	26.984
320.99	28.485
321.35	28.485
321.72	29.261
322.08	31.096
322.45	32.537
322.81	31.686
323.18	32.948
323.54	31.262
323.91	32.547
324.27	33.461
324.64	33.830
325.00	34.085
325.37	35.942
325.73	36.894
326.10	36.364
326.46	37.993
326.83	39.344
327.19	39.368
327.56	40.157
327.92	40.682
328.29	41.171
328.65	43.278
329.01	41.426
329.38	42.183
329.74	43.029
330.11	44.486
330.47	43.618
330.84	44.669
331.20	44.171
331.56	44.312
331.93	44.537
332.29	43.478
332.66	45.929
333.02	45.064
333.38	45.619
333.75	46.702
334.11	45.641
334.48	44.454
334.84	46.415
335.20	45.455
335.57	45.875
335.93	44.107
336.29	46.612
336.66	48.061
337.02	44.706
337.38	47.315
337.75	45.989
338.11	48.881
338.47	48.158
338.84	46.563
339.20	46.330
339.56	48.084
339.93	45.636
340.29	47.011
340.65	46.435
341.02	47.382
341.38	48.488
341.74	47.281
342.11	47.948
342.47	48.811
342.83	45.890
343.20	46.926
343.56	47.346
343.92	47.105
344.28	45.918
344.65	47.034
345.01	46.801
345.37	45.455
345.73	47.293
346.10	47.229
346.46	48.051
346.82	44.975
347.19	46.617
347.55	45.484
347.91	46.036
348.27	47.494
348.63	48.495
349.00	44.822
349.36	46.223
349.72	47.073
350.08	46.272
350.45	46.542
350.81	45.654
351.17	45.057
351.53	46.765
351.89	44.637
352.26	45.541
352.62	46.111
352.98	45.300
353.34	45.768
353.70	44.108
354.07	46.452
354.43	44.524
354.79	44.570
355.15	44.294
355.51	45.963
355.87	46.612
356.24	46.173
356.60	44.667
356.96	46.500
357.32	44.726
357.68	45.669
358.04	44.260
358.40	45.685
358.77	44.288
359.13	45.699
359.49	44.235
359.85	44.524
360.21	43.301
360.57	45.292
360.93	46.000
361.29	43.991
361.66	43.731
362.02	44.851
362.38	45.323
362.74	43.899
363.10	43.819
363.46	42.773
363.82	44.596
364.18	43.025
364.54	43.908
364.90	43.839
365.26	44.632
365.62	44.850
365.98	43.901
366.35	43.553
366.71	43.673
367.07	44.137
367.43	43.832
367.79	44.397
368.15	45.402
368.51	43.169
368.87	43.897
369.23	43.819
369.59	43.012
369.95	41.618
370.31	43.447
370.67	42.174
371.03	43.745
371.39	42.638
371.75	43.529
372.11	42.176
372.47	44.208
372.83	43.732
373.19	41.980
373.55	44.198
373.91	42.931
374.27	40.825
374.63	43.636
374.99	43.220
375.35	42.498
375.71	42.152
376.07	42.661
376.42	42.366
376.78	41.617
377.14	42.469
377.50	42.517
377.86	42.088
378.22	42.541
378.58	40.915
378.94	41.546
379.30	42.112
379.66	42.703
380.02	42.076
380.38	41.409
380.74	41.717
381.09	41.870
381.45	41.918
381.81	42.076
382.17	42.293
382.53	41.950
382.89	42.099
383.25	40.838
383.61	41.512
383.97	41.338
384.32	42.732
384.68	41.202
385.04	41.426
385.40	40.248
385.76	40.233
386.12	40.544
386.48	41.158
386.83	42.335
387.19	41.806
387.55	41.311
387.91	41.657
388.27	39.485
388.62	41.979
388.98	40.786
389.34	41.051
389.70	39.546
390.06	40.811
390.42	40.856
390.77	39.567
391.13	41.161
391.49	41.688
391.85	41.566
392.20	39.748
392.56	40.215
392.92	40.024
393.28	39.822
393.64	40.887
393.99	39.462
394.35	38.896
394.71	39.900
395.07	38.816
395.42	39.493
395.78	39.631
396.14	39.230
396.50	40.100
396.85	40.877
397.21	39.827
397.57	39.678
397.92	40.445
398.28	38.957
398.64	39.486
399.00	38.836
399.35	38.973
399.71	39.699
400.07	38.675
400.42	39.509
400.78	38.661
401.14	38.293
401.49	38.746
401.85	37.931
402.21	37.665
402.57	38.680
402.92	38.588
403.28	38.289
403.63	37.314
403.99	37.643
404.35	38.545
404.70	37.290
405.06	38.148
405.42	38.303
405.77	37.714
406.13	36.964
406.49	38.321
406.84	37.507
407.20	36.643
407.55	37.013
407.91	38.067
408.27	38.034
408.62	37.207
408.98	37.561
409.34	37.577
409.69	36.839
410.05	36.059
410.40	36.636
410.76	37.933
411.11	37.394
411.47	36.294
411.83	35.858
412.18	37.291
412.54	37.049
412.89	35.843
413.25	35.832
413.60	36.442
413.96	35.944
414.31	36.391
414.67	35.995
415.03	35.364
415.38	36.534
415.74	37.170
416.09	36.316
416.45	35.676
416.80	36.021
417.16	36.930
417.51	36.629
417.87	35.324
418.22	35.773
418.58	35.507
418.93	36.179
419.29	35.901
419.64	37.531
420.00	35.610
420.35	35.652
420.71	36.641
421.06	35.442
421.42	35.029
421.77	35.314
422.12	35.205
422.48	34.647
422.83	34.770
423.19	34.917
423.54	35.403
423.90	34.551
424.25	34.841
424.61	34.524
424.96	34.636
425.31	34.330
425.67	34.213
426.02	34.514
426.38	35.409
426.73	34.231
427.09	34.468
427.44	34.675
427.79	34.273
428.15	34.643
428.50	34.523
428.85	35.101
429.21	33.959
429.56	34.318
429.92	33.669
430.27	33.863
430.62	33.129
430.98	33.627
431.33	33.918
431.68	33.455
432.04	33.174
432.39	34.209
432.74	34.171
433.10	33.843
433.45	34.111
433.80	33.259
434.16	33.761
434.51	33.737
434.86	33.295
435.22	33.296
435.57	34.347
435.92	33.236
436.28	34.223
436.63	33.499
436.98	32.570
437.34	33.572
437.69	34.364
438.04	34.177
438.39	33.373
438.75	33.934
439.10	32.793
439.45	33.294
439.81	33.414
440.16	32.976
440.51	32.689
440.86	33.295
441.22	33.704
441.57	33.705
441.92	32.600
442.27	33.477
442.63	31.964
442.98	33.746
443.33	32.717
443.68	32.163
444.03	32.845
444.39	32.571
444.74	32.846
445.09	32.075
445.44	31.821
445.79	32.212
446.15	32.292
446.50	31.933
446.85	32.682
447.20	32.432
447.55	32.831
447.91	32.763
448.26	32.387
448.61	31.769
448.96	32.171
449.31	33.352
449.66	31.908
450.02	32.813
450.37	31.803
450.72	31.923
451.07	32.297
451.42	32.462
451.77	32.942
452.12	32.448
452.47	31.903
452.83	33.625
453.18	32.090
453.53	32.282
453.88	30.951
454.23	31.022
454.58	32.526
454.93	33.121
455.28	31.297
455.63	31.917
455.98	32.262
456.34	32.286
456.69	31.559
457.04	31.207
457.39	31.911
457.74	30.528
458.09	31.167
458.44	32.326
458.79	30.586
459.14	31.772
459.49	31.349
459.84	31.080
460.19	31.055
460.54	31.019
460.89	30.883
461.24	30.905
461.59	31.784
461.94	30.580
462.29	31.454
462.64	31.206
462.99	30.254
463.34	31.533
463.69	31.207
464.04	30.899
464.39	30.145
464.74	30.541
465.09	30.881
465.44	29.917
465.79	29.698
466.14	30.213
466.49	29.477
466.84	29.539
467.19	29.753
467.54	30.812
467.89	29.232
468.24	29.145
468.59	30.342
468.94	30.116
469.29	30.270
469.64	31.191
469.99	29.838
470.34	30.647
470.68	30.963
471.03	30.136
471.38	29.812
471.73	30.247
472.08	30.592
472.43	29.523
472.78	29.756
473.13	30.039
473.48	29.900
473.83	29.756
474.17	29.745
474.52	30.025
474.87	30.356
475.22	28.613
475.57	28.855
475.92	28.943
476.27	27.847
476.61	29.785
476.96	29.632
477.31	28.153
477.66	28.556
478.01	28.489
478.36	28.768
478.70	28.764
479.05	28.435
479.40	28.813
479.75	28.622
480.10	28.330
480.45	28.367
480.79	27.903
481.14	29.012
481.49	27.527
481.84	28.624
482.19	27.987
482.53	28.257
482.88	28.525
483.23	28.318
483.58	28.344
483.92	28.257
484.27	26.928
484.62	27.845
484.97	27.276
485.31	28.082
485.66	25.885
486.01	25.645
486.36	25.346
486.70	25.714
487.05	26.004
487.40	25.970
487.75	26.862
488.09	27.025
488.44	26.918
488.79	26.908
489.13	27.502
489.48	26.713
489.83	27.579
490.17	27.225
490.52	27.325
490.87	27.906
491.22	27.558
491.56	26.560
491.91	26.850
492.26	26.780
492.60	26.959
492.95	26.286
493.30	27.009
493.64	27.065
493.99	26.462
494.34	26.364
494.68	27.289
495.03	26.974
495.37	26.803
495.72	27.778
496.07	27.053
496.41	26.814
496.76	26.737
497.11	26.475
497.45	26.269
497.80	27.207
498.14	26.329
498.49	26.293
498.84	26.894
499.18	25.857
499.53	26.971
499.87	26.514
500.22	26.472
500.56	26.893
500.91	26.058
501.26	26.221
501.60	26.958
501.95	26.123
502.29	27.038
502.64	25.838
502.98	25.292
503.33	25.503
503.67	25.893
504.02	26.239
504.36	26.626
504.71	26.234
505.06	26.361
505.40	25.960
505.75	25.265
506.09	26.045
506.44	26.591
506.78	26.303
507.13	26.148
507.47	26.061
507.82	25.988
508.16	25.735
508.51	25.774
508.85	26.266
509.19	25.765
509.54	24.949
509.88	25.708
510.23	25.553
510.57	26.574
510.92	26.049
511.26	26.362
511.61	26.037
511.95	25.626
512.30	25.610
512.64	26.115
512.98	25.938
513.33	25.803
513.67	25.507
514.02	25.487
514.36	25.833
514.70	26.563
515.05	24.986
515.39	25.911
515.74	25.619
516.08	25.489
516.42	25.971
516.77	25.474
517.11	24.861
517.46	25.508
517.80	25.784
518.14	24.320
518.49	26.079
518.83	25.511
519.17	25.751
519.52	25.071
519.86	25.556
520.20	26.127
520.55	25.913
520.89	25.608
521.23	26.176
521.58	26.050
521.92	26.209
522.26	25.259
522.61	25.483
522.95	25.660
523.29	25.015
523.64	26.037
523.98	25.323
524.32	25.513
524.66	25.316
525.01	25.000
525.35	25.960
525.69	24.384
526.04	25.171
526.38	24.466
526.72	25.153
527.06	25.047
527.41	24.443
527.75	25.016
528.09	25.755
528.43	25.112
528.78	25.691
529.12	25.091
529.46	25.352
529.80	24.752
530.15	25.171
530.49	24.000
530.83	25.063
531.17	25.587
531.51	25.875
531.86	24.452
532.20	24.707
532.54	25.945
532.88	24.904
533.22	24.110
533.57	25.062
533.91	24.503
534.25	24.787
534.59	25.198
534.93	23.974
535.27	24.623
535.62	25.153
535.96	24.608
536.30	24.539
536.64	24.018
536.98	23.424
537.32	23.700
537.66	25.533
538.01	23.831
538.35	24.628
538.69	25.271
539.03	23.522
539.37	23.898
539.71	23.007
540.05	23.856
540.39	24.518
540.73	23.868
541.07	25.438
541.42	24.592
541.76	25.226
542.10	25.356
542.44	25.166
542.78	25.099
543.12	23.736
543.46	25.115
543.80	24.398
544.14	24.069
544.48	24.317
544.82	24.246
545.16	23.813
545.50	23.907
545.84	23.925
546.18	24.242
546.52	24.501
546.86	24.880
547.20	25.354
547.54	22.645
547.88	23.724
548.22	23.288
548.56	24.214
548.90	22.599
549.24	22.222
549.58	24.488
549.92	23.764
550.26	23.935
550.60	23.651
550.94	23.310
551.28	23.043
551.62	23.364
551.96	22.947
552.30	24.369
552.64	24.206
552.98	22.847
553.32	23.938
553.66	23.926
554.00	24.091
554.34	23.188
554.68	23.963
555.02	23.625
555.36	23.243
555.69	22.869
556.03	22.880
556.37	23.670
556.71	22.442
557.05	22.339
557.39	23.653
557.73	23.641
558.07	23.785
558.41	23.227
558.75	23.439
559.08	23.043
559.42	23.507
559.76	23.456
560.10	23.269
560.44	23.340
560.78	22.023
561.12	22.427
561.45	23.598
561.79	22.940
562.13	23.139
562.47	23.156
562.81	23.152
563.15	23.077
563.48	22.944
563.82	23.157
564.16	22.433
564.50	21.484
564.84	21.302
565.17	22.651
565.51	23.514
565.85	22.652
566.19	21.916
566.52	22.926
566.86	21.519
567.20	22.406
567.54	22.317
567.88	21.021
568.21	22.328
568.55	22.447
568.89	21.449
569.23	21.301
569.56	20.972
569.90	20.528
570.24	20.344
570.57	20.469
570.91	20.588
571.25	20.167
571.59	20.295
571.92	20.449
572.26	19.988
572.60	19.640
572.93	19.550
573.27	19.580
573.61	19.877
573.95	19.819
574.28	19.623
574.62	19.898
574.96	19.307
575.29	19.374
575.63	19.639
575.97	19.214
576.30	19.384
576.64	19.737
576.98	19.616
577.31	19.224
577.65	19.587
577.98	19.099
578.32	19.559
578.66	19.497
578.99	19.311
579.33	19.826
579.67	18.803
580.00	19.036
580.34	19.578
580.67	19.263
581.01	19.294
581.35	19.186
581.68	19.081
582.02	19.031
582.35	19.259
582.69	19.083
583.02	18.791
583.36	19.714
583.70	19.156
584.03	19.357
584.37	19.209
584.70	19.122
585.04	19.496
585.37	19.059
585.71	19.502
586.04	18.990
586.38	19.175
586.72	19.829
587.05	18.826
587.39	18.945
587.72	18.990
588.06	19.184
588.39	19.177
588.73	19.566
589.06	19.788
589.40	20.000
589.73	20.099
590.07	19.537
590.40	19.730
590.73	19.594
591.07	20.391
591.40	20.202
591.74	20.476
592.07	19.503
592.41	20.256
592.74	19.588
593.08	19.520
593.41	19.646
593.75	18.988
594.08	19.645
594.41	19.406
594.75	19.409
595.08	19.470
595.42	19.475
595.75	19.302
596.09	19.527
596.42	19.607
596.75	20.051
597.09	20.346
597.42	18.381
597.75	19.621
598.09	19.826
598.42	19.716
598.76	19.295
599.09	18.966
599.42	18.850
599.76	19.327
600.09	18.725
600.42	18.663
600.76	18.536
601.09	19.089
601.42	18.988
601.76	19.127
602.09	18.893
602.42	19.148
602.76	19.428
603.09	18.843
603.42	19.367
603.76	19.169
604.09	19.581
604.42	19.405
604.76	19.739
605.09	19.353
605.42	19.239
605.75	18.791
606.09	19.520
606.42	18.635
606.75	19.079
607.09	19.213
607.42	18.656
607.75	18.945
608.08	18.845
608.42	19.274
608.75	18.350
609.08	19.149
609.41	19.134
609.75	18.961
610.08	19.086
610.41	18.948
610.74	19.726
611.07	19.269
611.41	19.185
611.74	19.759
612.07	19.772
612.40	19.727
612.73	18.947
613.07	19.720
613.40	20.642
613.73	18.825
614.06	19.247
614.39	19.035
614.72	19.737
615.06	19.275
615.39	19.427
615.72	19.734
616.05	19.351
616.38	19.678
616.71	18.765
617.05	20.377
617.38	18.882
617.71	19.039
618.04	19.471
618.37	19.870
618.70	19.788
619.03	20.461
619.36	20.095
619.69	19.718
620.03	19.643
620.36	20.922
620.69	19.384
621.02	20.723
621.35	19.264
621.68	19.548
622.01	19.659
622.34	20.726
622.67	20.380
623.00	19.809
623.33	18.871
623.66	20.157
623.99	19.661
624.32	19.900
624.65	20.339
624.99	18.909
625.32	19.044
625.65	19.835
625.98	21.138
626.31	19.751
626.64	20.490
626.97	20.366
627.30	20.200
627.63	19.278
627.96	20.521
628.29	19.598
628.62	21.866
628.95	22.358
629.28	20.620
629.61	20.532
629.94	21.333
630.26	20.496
630.59	21.068
630.92	20.690
631.25	18.756
631.58	19.820
631.91	20.994
632.24	21.203
632.57	20.462
632.90	21.053
633.23	21.141
633.56	20.678
633.89	21.065
634.22	20.431
634.55	21.302
634.88	20.958
635.20	22.820
635.53	22.289
635.86	21.906
636.19	20.118
636.52	20.992
636.85	20.962
637.18	20.276
637.51	22.813
637.83	18.496
638.16	21.483
638.49	21.662
638.82	23.262
639.15	22.375
639.48	23.317
639.81	22.788
640.13	21.745
640.46	22.013
640.79	21.136
641.12	21.733
641.45	21.927
641.77	22.975
642.10	23.099
642.43	21.021
642.76	20.588
643.09	21.626
643.41	24.127
643.74	23.457
644.07	23.323
644.40	23.313
644.73	23.780
645.05	23.455
645.38	21.011
645.71	23.349
646.04	22.425
646.36	23.706
646.69	24.080
647.02	21.429
647.35	23.024
647.67	22.655
648.00	23.740
648.33	23.267
648.66	20.758
648.98	23.388
649.31	21.375
649.64	22.272
649.96	23.845
650.29	22.117
650.62	21.036
650.94	22.528
651.27	23.818
651.60	23.627
651.92	23.003
652.25	21.010
652.58	20.405
652.90	22.591
653.23	20.185
653.56	21.417
653.88	25.198
654.21	22.907
654.54	21.782
654.86	22.118
655.19	20.541
655.52	15.780
655.84	14.894
656.17	19.334
656.49	25.566
656.82	25.233
657.15	18.937
657.47	14.104
657.80	10.713
658.13	10.746
658.45	16.014
658.78	15.902
659.10	16.675
659.43	17.018
659.75	17.686
660.08	18.734
660.41	18.808
660.73	19.568
661.06	20.541
661.38	23.455
661.71	23.654
662.03	22.682
662.36	23.260
662.68	23.494
663.01	23.434
663.33	23.142
663.66	24.160
663.98	23.974
664.31	25.000
664.63	23.077
664.96	20.523
665.28	23.156
665.61	20.078
665.93	21.932
666.26	21.907
666.58	24.686
666.91	26.004
667.23	24.719
667.56	22.678
667.88	23.077
668.21	25.373
668.53	22.560
668.86	24.242
669.18	26.439
669.50	22.391
669.83	27.887
670.15	22.889
670.48	22.876
670.80	24.784
671.13	23.779
671.45	20.638
671.77	24.440
672.10	23.290
672.42	23.498
672.75	22.554
673.07	22.711
673.39	19.711
673.72	21.680
674.04	23.333
674.37	22.718
674.69	23.926
675.01	20.293
675.34	24.435
675.66	23.579
675.98	24.847
676.31	24.160
676.63	24.628
676.95	22.013
677.28	20.794
677.60	21.319
677.92	25.738
678.25	24.025
678.57	21.713
678.89	22.445
679.22	22.790
679.54	21.756
679.86	22.385
680.18	21.825
680.51	22.518
680.83	22.776
681.15	23.396
681.48	23.251
681.80	23.017
682.12	22.031
682.44	22.631
682.77	23.625
683.09	24.249
683.41	23.282
683.73	23.841
684.06	24.380
684.38	22.896
684.70	23.256
685.02	22.514
685.34	21.429
685.67	21.853
685.99	20.275
686.31	21.331
686.63	19.965
686.96	21.429
687.28	22.744
687.60	21.014
687.92	22.852
688.24	21.673
688.56	22.892
688.89	25.104
689.21	23.799
689.53	24.217
689.85	23.947
690.17	21.946
690.49	26.327
690.82	23.364
691.14	24.330
691.46	20.042
691.78	22.892
692.10	22.107
692.42	22.355
692.74	22.199
693.06	24.043
693.39	22.793
693.71	24.236
694.03	24.421
694.35	20.996
694.67	19.680
694.99	28.049
695.31	23.284
695.63	24.163
695.95	22.983
696.27	20.558
696.59	24.093
696.91	24.093
697.23	23.944
697.56	25.160
697.88	20.450
698.20	20.833
698.52	24.946
698.84	22.272
699.16	22.350
699.48	21.140
699.80	24.396
700.12	28.831
700.44	27.321
700.76	25.691
701.08	25.000
701.40	22.905
701.72	24.781
702.04	29.261
702.36	22.380
702.68	24.929
703.00	25.208
703.32	21.277
703.64	25.737
703.96	24.513
704.28	26.453
704.60	23.167
704.91	22.255
705.23	26.100
705.55	27.907
705.87	27.907
706.19	25.088
706.51	24.299
706.83	30.606
707.15	27.171
707.47	25.505
707.79	25.307
708.11	24.658
708.43	22.857
708.74	20.918
709.06	23.636
709.38	27.559
709.70	26.453
710.02	28.487
710.34	23.636
710.66	27.164
710.98	27.557
711.29	27.326
711.61	26.254
711.93	24.359
712.25	27.974
712.57	27.941
712.89	23.875
713.20	26.748
713.52	29.605
713.84	25.633
714.16	25.000
714.48	23.276
714.80	27.964
715.11	26.513
715.43	23.739
715.75	21.739
716.07	23.962
716.39	25.705
716.70	28.904
717.02	26.619
717.34	27.915
717.66	27.985
717.97	27.888
718.29	26.667
718.61	23.358
718.93	26.838
719.24	27.336
719.56	28.475
719.88	23.390
720.20	27.703
720.51	29.617
720.83	26.022
721.15	23.507
721.46	25.177
721.78	31.900
722.10	30.566
722.42	28.947
722.73	26.966
723.05	26.230
723.37	27.126
723.68	27.027
724.00	29.675
724.32	26.613
724.63	28.049
724.95	30.962
725.27	31.579
725.58	29.297
725.90	27.372
726.22	25.283
726.53	27.431
726.85	27.304
727.16	28.826
727.48	29.433
727.80	25.758
728.11	28.986
728.43	26.538
728.74	27.240
729.06	28.832
729.38	27.206
729.69	23.488
730.01	25.256
730.32	27.083
730.64	29.431
730.96	21.782
731.27	28.146
731.59	26.606
731.90	27.405
732.22	23.913
732.53	21.672
732.85	31.090
733.16	21.865
733.48	25.249
733.80	26.299
734.11	26.115
734.43	28.994
734.74	22.286
735.06	26.074
735.37	28.613
735.69	25.796
736.00	24.510
736.32	29.283
736.63	24.920
736.95	22.684
737.26	22.109
737.58	25.161
737.89	28.094
738.21	28.328
738.52	28.214
738.83	27.170
739.15	25.000
739.46	30.657
739.78	32.639
740.09	28.308
740.41	23.871
740.72	25.436
741.04	25.556
741.35	25.833
741.66	33.333
741.98	31.132
742.29	32.057
742.61	31.034
742.92	33.032
743.23	31.624
743.55	29.600
743.86	34.649
744.18	32.301
744.49	30.622
744.80	30.047
745.12	31.364
745.43	27.753
745.74	33.784
746.06	28.899
746.37	28.251
746.68	30.769
747.00	36.574
747.31	30.476
747.62	28.319
747.94	28.194
748.25	23.830
748.56	30.837
748.88	22.772
749.19	36.500
749.50	28.837
749.82	21.951
750.13	28.163
750.44	27.737
750.75	27.719
751.07	28.296
751.38	23.345
751.69	27.798
752.01	24.812
752.32	23.466
752.63	26.596
752.94	31.557
753.26	33.200
753.57	25.610
753.88	29.297
754.19	24.286
754.51	28.819
754.82	21.300
755.13	30.189
755.44	27.068
755.75	25.912
756.07	27.305
756.38	22.993
756.69	22.483
757.00	22.754
757.31	24.629
757.63	20.760
757.94	23.056
758.25	23.284
758.56	21.481
758.87	22.312
759.18	23.636
759.50	28.213
759.81	28.037
760.12	21.562
760.43	23.209
760.74	20.109
761.05	24.859
761.36	25.401
761.67	26.136
761.99	22.671
762.30	23.958
762.61	25.573
762.92	26.953
763.23	29.832
763.54	30.000
763.85	27.734
764.16	32.692
764.47	26.996
764.78	24.028
765.10	22.468
765.41	27.434
765.72	21.257
766.03	26.646
766.34	26.667
766.65	26.809
766.96	30.769
767.27	30.457
767.58	31.771
767.89	40.000
768.20	32.759
768.51	32.995
768.82	33.945
769.13	25.610
769.44	25.911
769.75	26.609
770.06	23.394
770.37	34.842
770.68	32.407
770.99	28.889
771.30	26.230
771.61	31.390
771.92	30.738
772.23	31.933
772.54	25.641
772.85	31.414
773.16	32.447
773.47	36.413
773.78	36.548
774.09	32.143
774.39	38.596
774.70	36.420
775.01	42.029
775.32	35.948
775.63	32.895
775.94	38.129
776.25	35.433
776.56	35.821
776.87	36.066
777.18	37.500
777.48	50.382
777.79	33.333
778.10	35.556
778.41	34.821
778.72	34.307
779.03	41.611
779.34	38.926
779.65	33.108
779.95	38.037
780.26	36.601
780.57	40.000
780.88	41.406
781.19	31.579
781.50	38.514
781.80	30.818
782.11	33.333
782.42	31.646
782.73	35.583
783.04	43.919
783.34	40.141
783.65	43.151
783.96	34.328
784.27	37.063
784.57	29.496
784.88	33.333
785.19	47.619
785.50	45.283
785.81	43.284
786.11	46.721
786.42	37.209
786.73	38.938
787.04	51.887
787.34	47.321
787.65	42.000
787.96	40.541
788.26	43.802
788.57	46.610
788.88	52.893
789.19	45.139
789.49	45.455
789.80	41.985
790.11	54.286
790.41	53.465
790.72	49.398
791.03	52.174
791.33	48.837
791.64	43.299
791.95	47.525
792.25	55.556
792.56	53.247
792.87	78.205
793.17	69.620
793.48	55.172
793.79	50.575
794.09	47.727
794.40	44.538
794.70	41.912
795.01	36.296
795.32	40.288
795.62	43.307
795.93	49.138
796.23	43.363
796.54	57.647
796.85	55.405
797.15	77.465
797.46	45.455
797.76	59.036
798.07	63.291
798.37	61.538
798.68	54.545
798.99	45.070
799.29	45.455
799.60	62.500
799.90	75.342
800.21	71.642
800.51	62.069
800.82	92.982
801.12	68.852
801.43	66.667
801.73	45.946
802.04	61.905
802.34	65.432
802.65	78.125
802.95	81.356
803.26	73.438
803.56	51.429
803.87	67.692
804.17	60.294
804.48	103.704
804.78	62.069
805.09	60.294
805.39	69.231
805.70	64.286
806.00	77.049
806.30	62.121
806.61	69.512
806.91	53.165
807.22	59.211
807.52	50.746
807.83	64.789
808.13	62.500
808.43	73.333
808.74	57.895
809.04	75.362
809.35	67.164
809.65	59.211
809.95	85.484
810.26	54.237
810.56	73.016
810.86	93.182
811.17	102.381
811.47	76.667
811.77	55.556
812.08	100.000
812.38	76.000
812.69	97.222
812.99	122.727
813.29	102.041
813.59	85.714
813.90	108.163
814.20	76.364
814.50	69.231
814.81	72.059
815.11	87.755
815.41	83.607
815.72	121.429
816.02	83.636
816.32	83.333
816.62	80.000
816.93	85.366
817.23	121.429
817.53	84.091
817.84	127.273
818.14	108.696
818.44	80.000
818.74	114.706
819.04	102.500
819.35	102.857
819.65	126.471
819.95	135.714
820.25	155.000
820.56	107.692
820.86	106.818
821.16	109.302
821.46	102.564
821.76	106.000
822.07	105.714
822.37	102.500
822.67	115.152
822.97	86.275
823.27	139.286
823.57	132.432
823.88	140.000
824.18	140.000
824.48	109.524
824.78	136.000
825.08	95.833
825.38	108.108
825.69	136.585
825.99	162.500
826.29	82.759
826.59	121.053
826.89	97.368
827.19	126.471
827.49	151.613
827.79	100.000
828.09	95.455
828.39	87.234
828.70	102.041
829.00	111.111
829.30	122.581
829.60	95.000
829.90	173.333
830.20	117.857
830.50	126.087
830.80	108.696
831.10	123.333
831.40	120.000
831.70	126.087
832.00	180.769
832.30	159.259
832.60	256.250
832.90	126.667
833.20	278.571
833.50	138.710
833.80	100.000
834.10	143.750
834.40	169.231
834.70	233.333
835.00	261.905
835.30	122.857
835.60	192.308
835.90	165.517
836.20	207.143
836.50	189.655
836.80	112.000
837.10	144.444
837.40	185.714
837.70	205.882
838.00	174.074
838.30	185.714
838.60	195.238
838.90	176.923
839.19	155.000
839.49	228.571
839.79	215.000
840.09	165.000
840.39	195.238
840.69	169.565
840.99	211.111
841.29	330.000
841.59	108.333
841.88	181.250
842.18	110.345
842.48	200.000
842.78	123.333
843.08	169.565
843.38	134.375
843.68	566.667
843.97	150.000
844.27	134.483
844.57	257.143
844.87	256.250
845.17	133.333
845.47	1200.000
845.76	355.556
846.06	194.118
846.36	437.500
846.66	292.857
846.96	181.250
847.25	281.818
847.55	300.000
847.85	182.609
848.15	340.000
848.44	278.571
848.74	133.333
849.04	205.882
849.34	310.000
849.63	157.895
849.93	381.818
850.23	720.000
850.53	328.571
850.82	1750.000
851.12	-2000.000
851.42	2100.000
851.71	160.000
852.01	-833.333
852.31	158.333
852.61	1000.000
852.90	223.810
853.20	164.000
853.50	164.706
853.79	219.048
854.09	162.500
854.39	218.750
854.68	137.838
854.98	141.935
855.28	126.667
855.57	175.862
855.87	133.333
856.17	215.789
856.46	133.333
856.76	147.059
857.05	148.276
857.35	162.500
857.65	240.000
857.94	169.565
858.24	188.462
858.53	210.000
858.83	190.909
859.13	206.667
859.42	0.000
859.72	488.889
860.01	300.000
860.31	190.909
860.60	194.737
860.90	160.870
861.20	444.444
861.49	383.333
861.79	-2200.000
862.08	512.500
862.38	195.238
862.67	184.615
862.97	282.353
863.26	433.333
863.56	172.222
863.85	333.333
864.15	300.000
864.44	313.333
864.74	616.667
865.03	562.500
865.33	215.789
865.62	263.636
865.92	338.462
866.21	258.333
866.51	0.000
866.80	400.000
867.10	700.000
867.39	330.769
867.69	300.000
867.98	178.947
868.27	281.818
868.57	236.842
868.86	-2400.000
869.16	225.000
869.45	1200.000
869.75	-3400.000
870.04	241.667
870.33	557.143
870.63	850.000
870.92	1650.000
871.22	528.571
871.51	211.765
871.80	152.381
872.10	314.286
>>>>>End Processed Spectral Data<<<<<
