SpectraSuite Data File
++++++++++++++++++++++++++++++++++++
Date: Wed May 13 20:28:12 PDT 2015
User: schluterlab
Dark Spectrum Present: Yes
Reference Spectrum Present: Yes
Number of Sampled Component Spectra: 1
Spectrometers: USB2E3373
Integration Time (usec): 3000 (USB2E3373)
Spectra Averaged: 3 (USB2E3373)
Boxcar Smoothing: 0 (USB2E3373)
Correct for Electrical Dark: No (USB2E3373)
Strobe/Lamp Enabled: No (USB2E3373)
Correct for Detector Non-linearity: No (USB2E3373)
Correct for Stray Light: No (USB2E3373)
Number of Pixels in Processed Spectrum: 2048
>>>>>Begin Processed Spectral Data<<<<<
178.53	0.000
178.91	-1075.000
179.29	-1050.000
179.67	-188.889
180.04	-1075.000
180.42	2400.000
180.80	920.000
181.18	-950.000
181.56	614.286
181.94	0.000
182.31	-442.857
182.69	1433.333
183.07	-487.500
183.45	-600.000
183.83	536.364
184.20	-360.000
184.58	2100.000
184.96	4200.000
185.34	-640.000
185.72	-500.000
186.09	-2450.000
186.47	2200.000
186.85	1800.000
187.23	3900.000
187.61	-1500.000
187.98	1175.000
188.36	436.364
188.74	390.909
189.12	-680.000
189.49	570.000
189.87	-4100.000
190.25	-1250.000
190.63	442.857
191.00	369.231
191.38	866.667
191.76	-1050.000
192.14	1150.000
192.51	450.000
192.89	816.667
193.27	575.000
193.65	-975.000
194.02	480.000
194.40	680.000
194.78	540.000
195.15	458.333
195.53	550.000
195.91	-1850.000
196.29	306.250
196.66	284.211
197.04	-310.000
197.42	0.000
197.79	600.000
198.17	-2900.000
198.55	542.857
198.92	575.000
199.30	680.000
199.68	0.000
200.05	277.778
200.43	685.714
200.81	4100.000
201.18	1366.667
201.56	-1233.333
201.94	511.111
202.31	444.444
202.69	375.000
203.07	380.000
203.44	0.000
203.82	925.000
204.19	500.000
204.57	450.000
204.95	475.000
205.32	1466.667
205.70	490.909
206.08	300.000
206.45	1900.000
206.83	281.250
207.20	583.333
207.58	540.000
207.96	238.889
208.33	787.500
208.71	-683.333
209.08	657.143
209.46	633.333
209.84	445.455
210.21	-1266.667
210.59	1100.000
210.96	-450.000
211.34	1750.000
211.71	490.000
212.09	666.667
212.46	0.000
212.84	1333.333
213.22	1200.000
213.59	-4000.000
213.97	766.667
214.34	714.286
214.72	509.091
215.09	840.000
215.47	-2350.000
215.84	-2400.000
216.22	1166.667
216.59	342.857
216.97	1000.000
217.34	390.909
217.72	-616.667
218.09	0.000
218.47	-4400.000
218.84	488.889
219.22	657.143
219.59	1500.000
219.97	-600.000
220.34	900.000
220.72	-1466.667
221.09	371.429
221.47	1150.000
221.84	-900.000
222.22	0.000
222.59	1225.000
222.97	-2150.000
223.34	1100.000
223.72	346.154
224.09	840.000
224.46	2000.000
224.84	-4500.000
225.21	-880.000
225.59	-3200.000
225.96	570.000
226.34	235.000
226.71	2100.000
227.08	562.500
227.46	490.000
227.83	-925.000
228.21	-2250.000
228.58	544.444
228.95	-2200.000
229.33	-1750.000
229.70	1500.000
230.08	657.143
230.45	-660.000
230.82	400.000
231.20	600.000
231.57	628.571
231.95	425.000
232.32	218.182
232.69	436.364
233.07	585.714
233.44	292.308
233.81	-1533.333
234.19	321.053
234.56	441.667
234.93	366.667
235.31	436.364
235.68	330.769
236.05	292.857
236.43	178.788
236.80	236.842
237.17	4900.000
237.55	238.095
237.92	217.857
238.29	242.857
238.67	167.742
239.04	210.345
239.41	161.111
239.79	141.304
240.16	190.476
240.53	143.182
240.91	129.412
241.28	116.000
241.65	120.000
242.02	118.841
242.40	108.065
242.77	121.667
243.14	89.247
243.51	105.618
243.89	90.588
244.26	101.111
244.63	95.699
245.00	97.872
245.38	86.139
245.75	82.243
246.12	105.505
246.49	93.431
246.87	88.000
247.24	87.692
247.61	80.714
247.98	75.817
248.36	74.324
248.73	78.344
249.10	87.261
249.47	69.492
249.84	78.610
250.22	75.401
250.59	81.065
250.96	78.283
251.33	72.038
251.70	74.752
252.08	73.333
252.45	74.888
252.82	68.261
253.19	73.191
253.56	69.020
253.94	75.934
254.31	71.094
254.68	73.077
255.05	71.587
255.42	73.577
255.79	69.853
256.16	71.480
256.54	67.491
256.91	67.260
257.28	66.187
257.65	66.337
258.02	66.770
258.39	66.877
258.76	61.204
259.14	69.345
259.51	65.957
259.88	70.807
260.25	67.674
260.62	64.451
260.99	68.944
261.36	66.066
261.73	64.183
262.10	65.698
262.47	69.014
262.85	62.396
263.22	64.387
263.59	70.085
263.96	65.110
264.33	64.752
264.70	62.105
265.07	62.660
265.44	66.414
265.81	60.341
266.18	65.327
266.55	63.415
266.92	67.322
267.29	63.889
267.66	61.468
268.03	60.455
268.40	65.654
268.77	64.439
269.14	63.063
269.51	60.497
269.88	65.501
270.25	62.528
270.62	62.022
270.99	61.505
271.36	62.017
271.73	63.318
272.10	60.000
272.47	64.516
272.84	61.905
273.21	60.797
273.58	60.044
273.95	58.910
274.32	60.950
274.69	60.385
275.06	59.449
275.43	59.787
275.80	59.920
276.17	62.729
276.54	63.825
276.91	60.474
277.28	59.375
277.65	58.994
278.02	62.940
278.39	62.109
278.76	59.818
279.13	59.245
279.50	58.659
279.87	60.558
280.23	60.279
280.60	58.027
280.97	56.747
281.34	59.646
281.71	57.818
282.08	58.349
282.45	56.727
282.82	58.082
283.19	56.150
283.56	58.246
283.92	58.037
284.29	58.201
284.66	57.169
285.03	56.600
285.40	58.979
285.77	54.545
286.14	56.131
286.51	55.667
286.87	57.436
287.24	54.886
287.61	53.130
287.98	55.519
288.35	54.041
288.72	52.492
289.08	53.208
289.45	52.224
289.82	52.683
290.19	51.020
290.56	50.383
290.93	48.640
291.29	52.301
291.66	48.525
292.03	52.762
292.40	51.982
292.77	47.485
293.13	48.358
293.50	49.563
293.87	49.481
294.24	50.815
294.60	46.434
294.97	48.547
295.34	48.519
295.71	47.869
296.08	46.724
296.44	46.080
296.81	45.443
297.18	47.425
297.55	43.140
297.91	43.536
298.28	47.122
298.65	45.300
299.02	45.455
299.38	45.020
299.75	42.992
300.12	43.550
300.48	43.625
300.85	43.403
301.22	44.331
301.59	41.667
301.95	43.073
302.32	44.416
302.69	41.935
303.05	41.455
303.42	40.864
303.79	41.789
304.15	39.510
304.52	41.483
304.89	41.580
305.25	40.835
305.62	40.091
305.99	42.385
306.35	40.716
306.72	42.265
307.09	40.733
307.45	41.892
307.82	39.174
308.19	40.618
308.55	39.914
308.92	40.494
309.29	37.592
309.65	40.085
310.02	38.266
310.38	39.140
310.75	39.599
311.12	38.485
311.48	39.916
311.85	39.203
312.22	39.230
312.58	38.773
312.95	39.599
313.31	35.922
313.68	39.293
314.05	39.645
314.41	39.095
314.78	38.872
315.14	36.743
315.51	37.487
315.87	39.307
316.24	36.941
316.61	38.012
316.97	38.160
317.34	36.399
317.70	39.006
318.07	37.440
318.43	38.748
318.80	37.488
319.16	37.853
319.53	36.492
319.89	37.524
320.26	38.300
320.62	38.790
320.99	38.990
321.35	38.283
321.72	38.193
322.08	38.697
322.45	38.010
322.81	38.178
323.18	38.054
323.54	37.755
323.91	36.981
324.27	37.189
324.64	38.117
325.00	36.069
325.37	38.308
325.73	38.420
326.10	37.599
326.46	37.545
326.83	37.446
327.19	36.806
327.56	37.544
327.92	37.970
328.29	37.445
328.65	36.832
329.01	37.545
329.38	38.205
329.74	37.581
330.11	37.700
330.47	36.823
330.84	39.246
331.20	36.430
331.56	34.771
331.93	36.204
332.29	36.291
332.66	37.168
333.02	36.563
333.38	36.585
333.75	36.720
334.11	36.032
334.48	36.114
334.84	37.316
335.20	37.182
335.57	37.987
335.93	34.732
336.29	35.531
336.66	36.339
337.02	36.471
337.38	36.204
337.75	35.472
338.11	35.810
338.47	36.556
338.84	36.297
339.20	35.413
339.56	36.588
339.93	35.273
340.29	35.145
340.65	35.651
341.02	36.649
341.38	37.456
341.74	35.526
342.11	35.983
342.47	35.066
342.83	34.846
343.20	35.152
343.56	34.709
343.92	35.263
344.28	33.503
344.65	35.856
345.01	34.091
345.37	33.705
345.73	34.856
346.10	35.635
346.46	33.983
346.82	35.173
347.19	35.338
347.55	33.744
347.91	34.466
348.27	35.004
348.63	34.615
349.00	34.142
349.36	34.975
349.72	33.761
350.08	32.901
350.45	34.255
350.81	34.119
351.17	33.712
351.53	33.907
351.89	33.251
352.26	34.254
352.62	34.403
352.98	32.820
353.34	33.607
353.70	32.897
354.07	33.548
354.43	32.857
354.79	32.582
355.15	31.764
355.51	34.612
355.87	33.224
356.24	33.795
356.60	31.516
356.96	32.663
357.32	34.914
357.68	32.677
358.04	31.829
358.40	32.700
358.77	32.707
359.13	31.176
359.49	32.078
359.85	32.302
360.21	32.616
360.57	32.996
360.93	32.154
361.29	32.880
361.66	32.121
362.02	32.761
362.38	32.015
362.74	32.738
363.10	31.162
363.46	31.548
363.82	32.275
364.18	31.278
364.54	31.426
364.90	32.011
365.26	31.912
365.62	31.410
365.98	31.629
366.35	31.734
366.71	31.381
367.07	31.464
367.43	32.221
367.79	32.477
368.15	32.615
368.51	30.887
368.87	32.620
369.23	32.114
369.59	31.644
369.95	30.368
370.31	31.339
370.67	30.652
371.03	31.610
371.39	30.904
371.75	30.882
372.11	31.010
372.47	32.331
372.83	31.412
373.19	30.780
373.55	31.338
373.91	31.738
374.27	30.241
374.63	30.255
374.99	32.274
375.35	29.798
375.71	30.637
376.07	31.070
376.42	30.399
376.78	30.616
377.14	30.122
377.50	30.795
377.86	29.588
378.22	30.025
378.58	29.198
378.94	29.290
379.30	29.517
379.66	30.076
380.02	30.467
380.38	30.237
380.74	30.492
381.09	29.218
381.45	30.670
381.81	30.098
382.17	30.828
382.53	29.308
382.89	29.630
383.25	30.394
383.61	30.112
383.97	30.519
384.32	29.694
384.68	28.686
385.04	29.625
385.40	29.536
385.76	29.115
386.12	29.534
386.48	29.515
386.83	30.019
387.19	30.983
387.55	30.118
387.91	29.323
388.27	29.307
388.62	30.178
388.98	28.010
389.34	29.725
389.70	29.062
390.06	30.292
390.42	29.377
390.77	28.817
391.13	30.185
391.49	29.061
391.85	27.944
392.20	28.328
392.56	30.051
392.92	29.606
393.28	28.817
393.64	29.077
393.99	29.322
394.35	29.218
394.71	29.799
395.07	27.539
395.42	28.307
395.78	28.053
396.14	27.871
396.50	29.198
396.85	29.498
397.21	28.792
397.57	28.022
397.92	28.846
398.28	27.635
398.64	28.315
399.00	27.980
399.35	27.862
399.71	28.067
400.07	28.918
400.42	28.405
400.78	29.252
401.14	28.902
401.49	28.896
401.85	28.494
402.21	28.323
402.57	27.822
402.92	28.121
403.28	29.419
403.63	29.332
403.99	27.580
404.35	27.818
404.70	27.698
405.06	27.373
405.42	28.821
405.77	28.571
406.13	28.330
406.49	28.326
406.84	28.234
407.20	27.778
407.55	27.760
407.91	28.533
408.27	29.100
408.62	28.477
408.98	28.431
409.34	28.229
409.69	28.065
410.05	27.695
410.40	27.584
410.76	27.718
411.11	27.865
411.47	28.115
411.83	28.650
412.18	28.139
412.54	28.331
412.89	27.410
413.25	28.335
413.60	28.845
413.96	27.140
414.31	27.886
414.67	28.074
415.03	28.013
415.38	27.320
415.74	27.781
416.09	28.152
416.45	28.983
416.80	28.817
417.16	27.815
417.51	28.003
417.87	27.938
418.22	28.707
418.58	28.470
418.93	29.177
419.29	29.026
419.64	28.149
420.00	27.927
420.35	27.884
420.71	27.555
421.06	27.983
421.42	27.193
421.77	28.139
422.12	26.839
422.48	27.091
422.83	28.072
423.19	28.011
423.54	28.091
423.90	28.290
424.25	27.694
424.61	27.321
424.96	26.531
425.31	27.187
425.67	26.742
426.02	26.800
426.38	28.694
426.73	26.624
427.09	27.781
427.44	27.832
427.79	27.372
428.15	27.560
428.50	26.975
428.85	28.129
429.21	27.223
429.56	26.801
429.92	27.831
430.27	27.011
430.62	27.906
430.98	27.919
431.33	27.062
431.68	27.382
432.04	27.210
432.39	27.242
432.74	26.511
433.10	27.844
433.45	27.638
433.80	26.940
434.16	27.511
434.51	26.895
434.86	27.537
435.22	27.626
435.57	28.267
435.92	26.682
436.28	27.936
436.63	27.649
436.98	27.132
437.34	28.205
437.69	27.946
438.04	27.319
438.39	27.403
438.75	27.193
439.10	27.318
439.45	26.919
439.81	27.251
440.16	26.765
440.51	27.827
440.86	27.852
441.22	27.141
441.57	26.911
441.92	28.096
442.27	27.503
442.63	26.646
442.98	27.268
443.33	26.957
443.68	27.155
444.03	26.647
444.39	27.215
444.74	27.381
445.09	27.655
445.44	27.447
445.79	27.313
446.15	27.845
446.50	27.625
446.85	26.824
447.20	27.945
447.55	28.029
447.91	27.634
448.26	27.824
448.61	27.699
448.96	27.409
449.31	27.840
449.66	27.631
450.02	26.574
450.37	26.361
450.72	27.468
451.07	26.691
451.42	27.477
451.77	27.187
452.12	27.483
452.47	27.425
452.83	26.981
453.18	26.589
453.53	27.335
453.88	26.226
454.23	26.718
454.58	27.741
454.93	27.718
455.28	26.372
455.63	27.852
455.98	28.571
456.34	27.136
456.69	27.865
457.04	27.368
457.39	26.710
457.74	26.930
458.09	26.509
458.44	27.081
458.79	26.410
459.14	27.370
459.49	27.087
459.84	27.147
460.19	26.871
460.54	26.736
460.89	27.208
461.24	28.233
461.59	28.298
461.94	26.942
462.29	27.122
462.64	26.228
462.99	26.025
463.34	26.467
463.69	26.391
464.04	27.826
464.39	28.000
464.74	27.926
465.09	25.935
465.44	26.482
465.79	27.013
466.14	26.327
466.49	26.196
466.84	27.437
467.19	26.795
467.54	26.687
467.89	26.170
468.24	26.585
468.59	27.045
468.94	25.962
469.29	26.992
469.64	27.577
469.99	25.913
470.34	25.958
470.68	27.083
471.03	26.463
471.38	26.755
471.73	26.582
472.08	26.776
472.43	26.508
472.78	26.991
473.13	26.765
473.48	26.342
473.83	26.829
474.17	26.322
474.52	25.806
474.87	26.328
475.22	25.711
475.57	25.846
475.92	25.863
476.27	26.888
476.61	26.586
476.96	25.838
477.31	25.536
477.66	26.532
478.01	25.353
478.36	26.758
478.70	25.649
479.05	26.092
479.40	25.691
479.75	25.775
480.10	25.497
480.45	25.559
480.79	25.418
481.14	25.391
481.49	25.914
481.84	25.743
482.19	26.079
482.53	25.138
482.88	26.291
483.23	25.327
483.58	25.296
483.92	25.586
484.27	24.924
484.62	24.483
484.97	25.108
485.31	26.370
485.66	26.131
486.01	26.345
486.36	25.765
486.70	25.622
487.05	25.124
487.40	24.796
487.75	25.246
488.09	24.901
488.44	24.283
488.79	24.593
489.13	24.714
489.48	24.266
489.83	25.119
490.17	25.296
490.52	25.199
490.87	24.559
491.22	24.739
491.56	23.964
491.91	24.895
492.26	25.080
492.60	24.885
492.95	24.088
493.30	24.159
493.64	24.545
493.99	24.605
494.34	24.561
494.68	25.000
495.03	24.389
495.37	25.128
495.72	24.415
496.07	25.290
496.41	24.513
496.76	24.802
497.11	24.989
497.45	24.499
497.80	24.328
498.14	24.396
498.49	24.195
498.84	24.401
499.18	24.286
499.53	24.359
499.87	24.837
500.22	25.200
500.56	25.874
500.91	24.423
501.26	24.941
501.60	25.297
501.95	23.877
502.29	24.461
502.64	24.255
502.98	24.357
503.33	24.360
503.67	24.594
504.02	24.790
504.36	24.193
504.71	24.133
505.06	24.289
505.40	24.696
505.75	23.819
506.09	24.101
506.44	24.174
506.78	24.842
507.13	24.634
507.47	24.394
507.82	24.569
508.16	24.924
508.51	24.607
508.85	24.379
509.19	24.337
509.54	24.082
509.88	24.420
510.23	23.033
510.57	25.439
510.92	24.392
511.26	24.974
511.61	24.793
511.95	23.800
512.30	23.277
512.64	24.288
512.98	23.741
513.33	23.983
513.67	23.693
514.02	23.431
514.36	23.921
514.70	23.575
515.05	22.699
515.39	23.892
515.74	23.480
516.08	24.483
516.42	23.640
516.77	24.638
517.11	24.195
517.46	23.984
517.80	23.229
518.14	22.525
518.49	24.096
518.83	23.920
519.17	23.788
519.52	23.260
519.86	23.388
520.20	24.220
520.55	23.998
520.89	24.027
521.23	23.462
521.58	23.289
521.92	23.699
522.26	22.636
522.61	22.804
522.95	22.836
523.29	23.128
523.64	24.390
523.98	23.906
524.32	23.341
524.66	24.775
525.01	23.713
525.35	23.110
525.69	23.214
526.04	23.988
526.38	22.880
526.72	22.883
527.06	23.980
527.41	22.587
527.75	23.666
528.09	23.828
528.43	24.092
528.78	23.786
529.12	22.727
529.46	24.189
529.80	24.814
530.15	23.738
530.49	23.138
530.83	23.734
531.17	23.890
531.51	24.060
531.86	22.581
532.20	23.338
532.54	24.215
532.88	24.005
533.22	23.610
533.57	23.272
533.91	23.901
534.25	23.694
534.59	24.100
534.93	23.141
535.27	23.235
535.62	24.359
535.96	24.231
536.30	23.522
536.64	23.889
536.98	24.353
537.32	22.910
537.66	24.133
538.01	23.831
538.35	24.305
538.69	24.825
539.03	23.717
539.37	23.642
539.71	23.331
540.05	23.791
540.39	23.455
540.73	23.027
541.07	24.659
541.42	23.940
541.76	24.581
542.10	24.256
542.44	24.172
542.78	23.979
543.12	23.225
543.46	24.328
543.80	23.878
544.14	23.171
544.48	24.190
544.82	24.246
545.16	24.333
545.50	23.008
545.84	23.253
546.18	23.704
546.52	23.262
546.86	23.368
547.20	23.938
547.54	24.248
547.88	25.128
548.22	24.222
548.56	23.836
548.90	23.880
549.24	23.165
549.58	23.533
549.92	23.214
550.26	24.219
550.60	23.651
550.94	23.239
551.28	23.336
551.62	23.364
551.96	23.649
552.30	24.164
552.64	25.287
552.98	24.814
553.32	24.005
553.66	24.813
554.00	24.228
554.34	23.533
554.68	23.963
555.02	22.920
555.36	23.243
555.69	23.072
556.03	24.092
556.37	23.943
556.71	22.783
557.05	23.529
557.39	23.233
557.73	23.430
558.07	23.858
558.41	23.589
558.75	23.586
559.08	23.937
559.42	24.490
559.76	23.971
560.10	22.698
560.44	24.389
560.78	23.819
561.12	23.087
561.45	24.316
561.79	24.127
562.13	23.877
562.47	23.566
562.81	24.059
563.15	23.211
563.48	23.939
563.82	23.483
564.16	23.806
564.50	23.958
564.84	23.578
565.17	23.938
565.51	23.834
565.85	23.350
566.19	24.483
566.52	23.939
566.86	23.568
567.20	23.880
567.54	24.315
567.88	23.737
568.21	24.603
568.55	24.317
568.89	24.270
569.23	24.020
569.56	24.737
569.90	24.868
570.24	25.081
570.57	24.617
570.91	24.499
571.25	24.645
571.59	24.801
571.92	25.490
572.26	24.610
572.60	24.414
572.93	24.168
573.27	24.490
573.61	24.456
573.95	25.297
574.28	24.296
574.62	24.441
574.96	24.516
575.29	24.467
575.63	24.873
575.97	24.603
576.30	24.349
576.64	24.236
576.98	24.259
577.31	24.792
577.65	24.864
577.98	25.111
578.32	24.285
578.66	24.843
578.99	24.264
579.33	23.505
579.67	24.057
580.00	24.191
580.34	24.703
580.67	24.131
581.01	24.219
581.35	25.118
581.68	25.274
582.02	25.031
582.35	25.461
582.69	24.806
583.02	24.461
583.36	24.579
583.70	24.051
584.03	23.981
584.37	24.137
584.70	24.347
585.04	24.315
585.37	24.464
585.71	24.695
586.04	24.619
586.38	25.313
586.72	24.827
587.05	23.825
587.39	24.090
587.72	24.684
588.06	24.787
588.39	24.609
588.73	24.201
589.06	24.244
589.40	24.680
589.73	24.745
590.07	24.555
590.40	24.626
590.73	24.122
591.07	24.624
591.40	24.378
591.74	24.978
592.07	24.258
592.41	24.845
592.74	24.757
593.08	24.783
593.41	24.676
593.75	24.391
594.08	25.142
594.41	24.390
594.75	23.660
595.08	24.159
595.42	24.764
595.75	24.038
596.09	25.122
596.42	24.519
596.75	23.259
597.09	24.762
597.42	24.115
597.75	23.890
598.09	23.652
598.42	23.883
598.76	24.362
599.09	24.819
599.42	24.636
599.76	24.744
600.09	24.044
600.42	24.069
600.76	24.250
601.09	24.372
601.42	23.592
601.76	24.516
602.09	24.190
602.42	23.885
602.76	24.103
603.09	24.705
603.42	24.209
603.76	24.466
604.09	24.312
604.42	24.460
604.76	24.673
605.09	23.722
605.42	24.156
605.75	24.834
606.09	24.115
606.42	25.010
606.75	23.932
607.09	24.320
607.42	23.620
607.75	24.219
608.08	23.621
608.42	24.025
608.75	23.625
609.08	23.127
609.41	23.703
609.75	23.154
610.08	24.741
610.41	23.883
610.74	24.361
611.07	23.913
611.41	24.387
611.74	24.937
612.07	24.120
612.40	24.816
612.73	24.947
613.07	24.246
613.40	24.855
613.73	24.541
614.06	23.925
614.39	23.912
614.72	24.842
615.06	23.897
615.39	24.098
615.72	24.233
616.05	24.296
616.38	24.625
616.71	24.228
617.05	24.323
617.38	23.391
617.71	24.264
618.04	24.820
618.37	24.187
618.70	24.269
619.03	24.474
619.36	24.779
619.69	24.437
620.03	23.901
620.36	25.334
620.69	24.521
621.02	23.894
621.35	22.709
621.68	22.819
622.01	23.684
622.34	24.054
622.67	23.346
623.00	22.524
623.33	23.231
623.66	24.303
623.99	23.564
624.32	23.252
624.65	23.376
624.99	23.300
625.32	23.316
625.65	24.643
625.98	24.596
626.31	24.184
626.64	24.000
626.97	22.444
627.30	22.028
627.63	23.626
627.96	24.895
628.29	23.185
628.62	23.879
628.95	24.906
629.28	23.358
629.61	25.573
629.94	23.905
630.26	23.737
630.59	24.118
630.92	22.510
631.25	23.198
631.58	22.923
631.91	23.327
632.24	22.574
632.57	24.239
632.90	22.588
633.23	22.371
633.56	24.859
633.89	23.216
634.22	24.064
634.55	24.379
634.88	21.677
635.20	23.775
635.53	23.012
635.86	24.752
636.19	23.647
636.52	24.337
636.85	23.024
637.18	23.272
637.51	23.995
637.83	21.948
638.16	23.146
638.49	22.670
638.82	24.652
639.15	24.875
639.48	24.439
639.81	23.458
640.13	22.917
640.46	24.295
640.79	23.646
641.12	22.696
641.45	23.324
641.77	23.564
642.10	23.392
642.43	22.673
642.76	21.981
643.09	25.460
643.41	21.548
643.74	25.154
644.07	22.866
644.40	24.080
644.73	24.252
645.05	25.674
645.38	20.379
645.71	23.833
646.04	23.754
646.36	25.209
646.69	23.746
647.02	25.850
647.35	23.368
647.67	23.009
648.00	24.715
648.33	24.092
648.66	25.152
648.98	25.337
649.31	24.066
649.64	23.916
649.96	24.292
650.29	25.592
650.62	24.110
650.94	25.770
651.27	25.676
651.60	24.958
651.92	23.802
652.25	23.941
652.58	24.766
652.90	22.749
653.23	24.807
653.56	24.252
653.88	25.198
654.21	23.697
654.54	22.937
654.86	23.988
655.19	24.595
655.52	22.355
655.84	24.848
656.17	32.249
656.49	42.877
656.82	41.589
657.15	30.165
657.47	21.393
657.80	16.100
658.13	15.553
658.45	22.948
658.78	21.502
659.10	21.987
659.43	22.056
659.75	21.527
660.08	22.278
660.41	22.346
660.73	22.999
661.06	23.408
661.38	25.273
661.71	25.192
662.03	25.838
662.36	21.869
662.68	23.293
663.01	24.848
663.33	21.656
663.66	27.101
663.98	24.622
664.31	26.891
664.63	24.494
664.96	25.352
665.28	26.025
665.61	22.417
665.93	25.352
666.26	25.963
666.58	26.778
666.91	26.216
667.23	26.517
667.56	24.838
667.88	23.504
668.21	24.520
668.53	24.729
668.86	24.892
669.18	27.719
669.50	22.826
669.83	26.362
670.15	26.000
670.48	25.708
670.80	23.491
671.13	26.539
671.45	25.319
671.77	27.902
672.10	26.063
672.42	26.502
672.75	26.866
673.07	23.415
673.39	26.040
673.72	24.609
674.04	23.922
674.37	24.660
674.69	24.744
675.01	23.849
675.34	27.926
675.66	26.947
675.98	25.458
676.31	25.000
676.63	23.992
676.95	27.463
677.28	24.766
677.60	24.835
677.92	28.692
678.25	26.489
678.57	26.295
678.89	26.854
679.22	25.540
679.54	28.435
679.86	24.954
680.18	24.508
680.51	25.887
680.83	27.046
681.15	24.151
681.48	28.355
681.80	23.791
682.12	24.904
682.44	25.338
682.77	27.902
683.09	26.609
683.41	29.047
683.73	26.049
684.06	27.686
684.38	25.832
684.70	28.101
685.02	26.642
685.34	24.908
685.67	24.825
685.99	25.430
686.31	25.768
686.63	25.442
686.96	24.643
687.28	26.715
687.60	25.543
687.92	27.057
688.24	25.856
688.56	25.703
688.89	26.763
689.21	26.638
689.53	27.557
689.85	26.164
690.17	23.810
690.49	27.601
690.82	26.636
691.14	25.223
691.46	24.051
691.78	24.900
692.10	27.686
692.42	26.946
692.74	24.896
693.06	26.596
693.39	26.078
693.71	26.638
694.03	28.632
694.35	25.108
694.67	22.426
694.99	26.585
695.31	28.186
695.63	29.426
695.95	28.606
696.27	24.619
696.59	24.352
696.91	25.648
697.23	25.352
697.56	26.866
697.88	24.335
698.20	26.875
698.52	27.527
698.84	27.394
699.16	26.037
699.48	26.841
699.80	29.469
700.12	32.468
700.44	29.178
700.76	28.177
701.08	27.011
701.40	28.212
701.72	27.697
702.04	29.830
702.36	25.496
702.68	28.612
703.00	27.701
703.32	26.596
703.64	27.078
703.96	31.755
704.28	27.907
704.60	32.551
704.91	29.674
705.23	28.446
705.55	26.578
705.87	33.555
706.19	27.562
706.51	29.283
706.83	29.394
707.15	30.812
707.47	30.303
707.79	32.678
708.11	28.995
708.43	30.952
708.74	25.255
709.06	28.571
709.38	28.609
709.70	28.198
710.02	31.751
710.34	32.727
710.66	32.239
710.98	33.807
711.29	31.686
711.61	30.088
711.93	25.962
712.25	32.476
712.57	28.309
712.89	30.450
713.20	29.483
713.52	29.934
713.84	31.646
714.16	28.963
714.48	28.448
714.80	31.915
715.11	29.107
715.43	31.454
715.75	29.275
716.07	32.907
716.39	26.019
716.70	31.561
717.02	29.496
717.34	30.035
717.66	36.194
717.97	35.060
718.29	33.704
718.61	30.657
718.93	34.926
719.24	35.986
719.56	31.525
719.88	30.508
720.20	35.135
720.51	32.404
720.83	34.572
721.15	30.970
721.46	27.660
721.78	34.050
722.10	35.849
722.42	35.714
722.73	30.712
723.05	29.508
723.37	31.174
723.68	35.135
724.00	36.179
724.32	35.887
724.63	30.894
724.95	28.033
725.27	34.413
725.58	33.984
725.90	39.051
726.22	30.189
726.53	31.250
726.85	32.765
727.16	33.096
727.48	34.397
727.80	37.121
728.11	35.145
728.43	30.769
728.74	34.050
729.06	38.686
729.38	38.603
729.69	33.452
730.01	30.375
730.32	32.639
730.64	35.452
730.96	29.043
731.27	34.437
731.59	32.110
731.90	33.528
732.22	32.919
732.53	31.889
732.85	30.449
733.16	34.727
733.48	34.219
733.80	35.714
734.11	35.350
734.43	34.911
734.74	28.857
735.06	29.799
735.37	37.572
735.69	34.395
736.00	30.065
736.32	34.891
736.63	32.268
736.95	31.949
737.26	29.592
737.58	30.000
737.89	33.779
738.21	34.471
738.52	38.214
738.83	29.057
739.15	33.077
739.46	35.036
739.78	34.028
740.09	36.923
740.41	34.516
740.72	31.707
741.04	40.370
741.35	32.083
741.66	35.111
741.98	37.264
742.29	42.584
742.61	40.517
742.92	35.747
743.23	33.333
743.55	36.800
743.86	33.772
744.18	38.938
744.49	40.191
744.80	36.150
745.12	42.273
745.43	30.396
745.74	39.640
746.06	35.780
746.37	33.184
746.68	37.104
747.00	40.278
747.31	38.571
747.62	38.053
747.94	40.529
748.25	34.468
748.56	35.242
748.88	35.644
749.19	43.000
749.50	38.140
749.82	31.301
750.13	33.878
750.44	38.686
750.75	36.842
751.07	37.942
751.38	36.585
751.69	33.574
752.01	36.090
752.32	35.379
752.63	36.525
752.94	35.246
753.26	37.600
753.57	34.146
753.88	39.063
754.19	33.929
754.51	35.764
754.82	31.047
755.13	29.434
755.44	33.835
755.75	35.036
756.07	34.043
756.38	35.036
756.69	32.550
757.00	31.437
757.31	35.312
757.63	33.041
757.94	33.244
758.25	31.373
758.56	33.827
758.87	34.140
759.18	35.152
759.50	30.408
759.81	37.072
760.12	29.687
760.43	35.817
760.74	33.696
761.05	37.853
761.36	28.877
761.67	34.091
761.99	31.677
762.30	35.069
762.61	37.023
762.92	34.766
763.23	34.874
763.54	37.600
763.85	35.937
764.16	39.615
764.47	38.783
764.78	34.629
765.10	31.329
765.41	36.873
765.72	33.234
766.03	35.423
766.34	33.333
766.65	37.447
766.96	36.752
767.27	39.594
767.58	42.188
767.89	44.737
768.20	47.126
768.51	39.086
768.82	38.991
769.13	34.959
769.44	34.413
769.75	37.768
770.06	40.367
770.37	38.914
770.68	42.130
770.99	44.444
771.30	35.246
771.61	43.049
771.92	40.164
772.23	40.336
772.54	40.000
772.85	39.267
773.16	39.894
773.47	47.826
773.78	40.102
774.09	41.667
774.39	43.275
774.70	46.296
775.01	53.623
775.32	53.595
775.63	48.026
775.94	47.482
776.25	51.181
776.56	51.493
776.87	49.180
777.18	50.781
777.48	51.908
777.79	40.152
778.10	47.407
778.41	58.036
778.72	48.175
779.03	48.322
779.34	51.007
779.65	48.649
779.95	49.080
780.26	49.673
780.57	54.483
780.88	60.156
781.19	51.880
781.50	55.405
781.80	52.201
782.11	42.938
782.42	43.038
782.73	47.239
783.04	56.757
783.34	47.887
783.65	57.534
783.96	60.448
784.27	44.755
784.57	41.727
784.88	43.519
785.19	57.937
785.50	63.208
785.81	48.507
786.11	59.836
786.42	54.264
786.73	63.717
787.04	58.491
787.34	67.857
787.65	54.000
787.96	63.063
788.26	49.587
788.57	60.169
788.88	53.719
789.19	54.861
789.49	49.242
789.80	54.962
790.11	61.905
790.41	69.307
790.72	59.036
791.03	64.130
791.33	56.977
791.64	48.454
791.95	59.406
792.25	53.333
792.56	63.636
792.87	65.385
793.17	92.405
793.48	60.920
793.79	66.667
794.09	64.773
794.40	49.580
794.70	55.882
795.01	48.889
795.32	49.640
795.62	53.543
795.93	68.966
796.23	48.673
796.54	70.588
796.85	62.162
797.15	91.549
797.46	86.364
797.76	73.494
798.07	69.620
798.37	78.462
798.68	72.727
798.99	66.197
799.29	76.623
799.60	67.045
799.90	86.301
800.21	71.642
800.51	81.034
800.82	98.246
801.12	77.049
801.43	92.424
801.73	68.919
802.04	104.762
802.34	75.309
802.65	89.062
802.95	86.441
803.26	95.312
803.56	61.429
803.87	78.462
804.17	69.118
804.48	111.111
804.78	75.862
805.09	73.529
805.39	107.692
805.70	91.071
806.00	96.721
806.30	83.333
806.61	71.951
806.91	64.557
807.22	76.316
807.52	79.104
807.83	73.239
808.13	85.938
808.43	88.333
808.74	77.632
809.04	82.609
809.35	70.149
809.65	81.579
809.95	120.968
810.26	89.831
810.56	101.587
810.86	106.818
811.17	135.714
811.47	95.000
811.77	105.556
812.08	90.909
812.38	114.000
812.69	116.667
812.99	120.455
813.29	93.878
813.59	80.952
813.90	112.245
814.20	63.636
814.50	86.154
814.81	91.176
815.11	106.122
815.41	75.410
815.72	116.667
816.02	103.636
816.32	130.952
816.62	120.000
816.93	100.000
817.23	116.667
817.53	106.818
817.84	157.576
818.14	100.000
818.44	104.444
818.74	129.412
819.04	132.500
819.35	160.000
819.65	152.941
819.95	142.857
820.25	165.000
820.56	117.949
820.86	113.636
821.16	141.860
821.46	130.769
821.76	124.000
822.07	120.000
822.37	130.000
822.67	157.576
822.97	94.118
823.27	175.000
823.57	127.027
823.88	147.500
824.18	156.667
824.48	130.952
824.78	156.000
825.08	170.833
825.38	135.135
825.69	129.268
825.99	154.167
826.29	137.931
826.59	157.895
826.89	118.421
827.19	158.824
827.49	164.516
827.79	134.091
828.09	129.545
828.39	106.383
828.70	104.082
829.00	162.963
829.30	145.161
829.60	102.500
829.90	233.333
830.20	175.000
830.50	156.522
830.80	195.652
831.10	140.000
831.40	133.333
831.70	173.913
832.00	196.154
832.30	151.852
832.60	275.000
832.90	140.000
833.20	271.429
833.50	138.710
833.80	141.379
834.10	153.125
834.40	215.385
834.70	272.222
835.00	271.429
835.30	145.714
835.60	230.769
835.90	189.655
836.20	250.000
836.50	203.448
836.80	192.000
837.10	141.667
837.40	223.810
837.70	282.353
838.00	148.148
838.30	176.190
838.60	228.571
838.90	207.692
839.19	235.000
839.49	292.857
839.79	255.000
840.09	205.000
840.39	214.286
840.69	260.870
840.99	205.556
841.29	360.000
841.59	325.000
841.88	300.000
842.18	175.862
842.48	200.000
842.78	220.000
843.08	200.000
843.38	153.125
843.68	666.667
843.97	184.615
844.27	168.966
844.57	238.095
844.87	318.750
845.17	203.704
845.47	1166.667
845.76	411.111
846.06	288.235
846.36	462.500
846.66	342.857
846.96	231.250
847.25	363.636
847.55	218.182
847.85	226.087
848.15	460.000
848.44	335.714
848.74	205.556
849.04	276.471
849.34	420.000
849.63	184.211
849.93	381.818
850.23	920.000
850.53	342.857
850.82	1900.000
851.12	-3900.000
851.42	4000.000
851.71	275.000
852.01	-1333.333
852.31	170.833
852.61	1200.000
852.90	219.048
853.20	160.000
853.50	311.765
853.79	223.810
854.09	145.833
854.39	331.250
854.68	151.351
854.98	151.613
855.28	126.667
855.57	200.000
855.87	185.185
856.17	257.895
856.46	160.000
856.76	241.176
857.05	172.414
857.35	208.333
857.65	306.667
857.94	200.000
858.24	238.462
858.53	265.000
858.83	240.909
859.13	240.000
859.42	0.000
859.72	377.778
860.01	336.364
860.31	177.273
860.60	210.526
860.90	204.348
861.20	400.000
861.49	375.000
861.79	-3700.000
862.08	550.000
862.38	304.762
862.67	276.923
862.97	300.000
863.26	411.111
863.56	250.000
863.85	308.333
864.15	437.500
864.44	313.333
864.74	666.667
865.03	600.000
865.33	268.421
865.62	445.455
865.92	392.308
866.21	325.000
866.51	0.000
866.80	409.091
867.10	760.000
867.39	423.077
867.69	445.455
867.98	268.421
868.27	427.273
868.57	252.632
868.86	-4300.000
869.16	268.750
869.45	1700.000
869.75	-4200.000
870.04	325.000
870.33	542.857
870.63	925.000
870.92	1950.000
871.22	657.143
871.51	305.882
871.80	180.952
872.10	321.429
>>>>>End Processed Spectral Data<<<<<
