SpectraSuite Data File
++++++++++++++++++++++++++++++++++++
Date: Wed May 13 20:30:15 PDT 2015
User: schluterlab
Dark Spectrum Present: Yes
Reference Spectrum Present: Yes
Number of Sampled Component Spectra: 1
Spectrometers: USB2E3373
Integration Time (usec): 3000 (USB2E3373)
Spectra Averaged: 3 (USB2E3373)
Boxcar Smoothing: 0 (USB2E3373)
Correct for Electrical Dark: No (USB2E3373)
Strobe/Lamp Enabled: No (USB2E3373)
Correct for Detector Non-linearity: No (USB2E3373)
Correct for Stray Light: No (USB2E3373)
Number of Pixels in Processed Spectrum: 2048
>>>>>Begin Processed Spectral Data<<<<<
178.53	0.000
178.91	-925.000
179.29	-975.000
179.67	-150.000
180.04	-1275.000
180.42	1650.000
180.80	760.000
181.18	-650.000
181.56	528.571
181.94	0.000
182.31	-457.143
182.69	1433.333
183.07	-250.000
183.45	-377.778
183.83	472.727
184.20	-220.000
184.58	1650.000
184.96	4700.000
185.34	-780.000
185.72	-487.500
186.09	-1800.000
186.47	2550.000
186.85	1850.000
187.23	3800.000
187.61	-1266.667
187.98	975.000
188.36	427.273
188.74	436.364
189.12	-660.000
189.49	390.000
189.87	-3700.000
190.25	-900.000
190.63	357.143
191.00	361.538
191.38	616.667
191.76	-725.000
192.14	1125.000
192.51	487.500
192.89	716.667
193.27	525.000
193.65	-650.000
194.02	450.000
194.40	860.000
194.78	390.000
195.15	450.000
195.53	600.000
195.91	-1500.000
196.29	325.000
196.66	221.053
197.04	-290.000
197.42	0.000
197.79	430.000
198.17	-3600.000
198.55	514.286
198.92	612.500
199.30	540.000
199.68	0.000
200.05	244.444
200.43	614.286
200.81	3200.000
201.18	1700.000
201.56	-1266.667
201.94	433.333
202.31	455.556
202.69	291.667
203.07	480.000
203.44	0.000
203.82	950.000
204.19	800.000
204.57	342.857
204.95	450.000
205.32	1133.333
205.70	400.000
206.08	321.429
206.45	2350.000
206.83	325.000
207.20	833.333
207.58	600.000
207.96	327.778
208.33	650.000
208.71	-700.000
209.08	628.571
209.46	377.778
209.84	409.091
210.21	-1000.000
210.59	1250.000
210.96	-350.000
211.34	2350.000
211.71	450.000
212.09	566.667
212.46	0.000
212.84	1433.333
213.22	1050.000
213.59	-2900.000
213.97	583.333
214.34	728.571
214.72	454.545
215.09	860.000
215.47	-2200.000
215.84	-1700.000
216.22	1366.667
216.59	292.857
216.97	1050.000
217.34	372.727
217.72	-600.000
218.09	0.000
218.47	-2900.000
218.84	522.222
219.22	600.000
219.59	1366.667
219.97	-385.714
220.34	880.000
220.72	-1433.333
221.09	314.286
221.47	1225.000
221.84	-633.333
222.22	0.000
222.59	900.000
222.97	-2000.000
223.34	680.000
223.72	453.846
224.09	1000.000
224.46	1650.000
224.84	-4400.000
225.21	-800.000
225.59	-3500.000
225.96	520.000
226.34	250.000
226.71	2400.000
227.08	500.000
227.46	380.000
227.83	-750.000
228.21	-2050.000
228.58	544.444
228.95	-2150.000
229.33	-1900.000
229.70	1266.667
230.08	700.000
230.45	-720.000
230.82	408.333
231.20	816.667
231.57	428.571
231.95	366.667
232.32	204.545
232.69	290.909
233.07	628.571
233.44	315.385
233.81	-1366.667
234.19	268.421
234.56	458.333
234.93	416.667
235.31	427.273
235.68	292.308
236.05	371.429
236.43	169.697
236.80	236.842
237.17	4100.000
237.55	261.905
237.92	214.286
238.29	247.619
238.67	190.323
239.04	213.793
239.41	161.111
239.79	121.739
240.16	171.429
240.53	159.091
240.91	143.137
241.28	156.000
241.65	156.000
242.02	111.594
242.40	122.581
242.77	145.000
243.14	109.677
243.51	112.360
243.89	108.235
244.26	115.556
244.63	104.301
245.00	102.128
245.38	104.950
245.75	87.850
246.12	96.330
246.49	96.350
246.87	96.000
247.24	100.000
247.61	100.000
247.98	92.810
248.36	89.865
248.73	88.535
249.10	98.089
249.47	82.486
249.84	85.561
250.22	86.631
250.59	83.432
250.96	82.828
251.33	84.360
251.70	92.079
252.08	85.238
252.45	83.857
252.82	83.913
253.19	85.532
253.56	80.784
253.94	84.232
254.31	82.031
254.68	81.154
255.05	77.860
255.42	85.366
255.79	85.294
256.16	81.588
256.54	75.972
256.91	81.495
257.28	77.698
257.65	80.198
258.02	77.950
258.39	74.763
258.76	78.595
259.14	75.893
259.51	76.596
259.88	76.708
260.25	74.924
260.62	75.723
260.99	82.298
261.36	77.778
261.73	77.364
262.10	75.291
262.47	76.056
262.85	74.930
263.22	74.929
263.59	76.923
263.96	73.626
264.33	75.457
264.70	75.263
265.07	70.077
265.44	73.737
265.81	67.397
266.18	74.623
266.55	73.902
266.92	73.956
267.29	73.380
267.66	69.266
268.03	70.909
268.40	71.963
268.77	71.122
269.14	70.495
269.51	73.363
269.88	71.562
270.25	72.460
270.62	71.011
270.99	71.828
271.36	69.528
271.73	74.065
272.10	71.739
272.47	73.978
272.84	71.212
273.21	67.925
273.58	70.306
273.95	65.409
274.32	67.769
274.69	71.949
275.06	64.961
275.43	69.149
275.80	69.138
276.17	68.839
276.54	67.360
276.91	70.158
277.28	64.844
277.65	67.505
278.02	68.116
278.39	70.312
278.76	64.909
279.13	67.547
279.50	65.736
279.87	65.737
280.23	68.463
280.60	67.505
280.97	66.913
281.34	67.257
281.71	64.909
282.08	69.482
282.45	66.182
282.82	65.009
283.19	65.062
283.56	65.263
283.92	64.975
284.29	65.608
284.66	63.884
285.03	65.642
285.40	63.380
285.77	62.626
286.14	62.003
286.51	65.500
286.87	63.590
287.24	65.147
287.61	61.958
287.98	59.416
288.35	59.429
288.72	60.125
289.08	58.372
289.45	61.779
289.82	59.350
290.19	57.300
290.56	57.887
290.93	56.949
291.29	58.129
291.66	57.965
292.03	57.122
292.40	58.003
292.77	54.438
293.13	56.567
293.50	55.685
293.87	53.926
294.24	53.037
294.60	51.820
294.97	53.052
295.34	54.161
295.71	53.551
296.08	51.567
296.44	51.582
296.81	49.934
297.18	52.846
297.55	50.396
297.91	49.077
298.28	51.272
298.65	49.739
299.02	50.329
299.38	49.270
299.75	47.035
300.12	48.531
300.48	48.750
300.85	47.349
301.22	49.809
301.59	48.611
301.95	48.237
302.32	49.422
302.69	48.865
303.05	47.515
303.42	47.407
303.79	45.413
304.15	45.105
304.52	45.886
304.89	44.948
305.25	45.128
305.62	44.507
305.99	47.107
306.35	46.085
306.72	44.283
307.09	45.505
307.45	45.495
307.82	42.188
308.19	44.923
308.55	46.278
308.92	45.972
309.29	42.555
309.65	43.796
310.02	42.812
310.38	43.871
310.75	44.139
311.12	43.091
311.48	42.842
311.85	42.558
312.22	42.976
312.58	42.308
312.95	43.506
313.31	42.330
313.68	43.347
314.05	44.379
314.41	43.216
314.78	42.900
315.14	43.595
315.51	44.593
315.87	42.772
316.24	43.297
316.61	42.203
316.97	41.096
317.34	41.879
317.70	42.447
318.07	41.963
318.43	42.857
318.80	40.769
319.16	41.620
319.53	41.370
319.89	40.857
320.26	41.900
320.62	41.369
320.99	41.616
321.35	40.909
321.72	42.197
322.08	41.461
322.45	41.692
322.81	42.248
323.18	43.160
323.54	41.651
323.91	41.321
324.27	40.822
324.64	41.566
325.00	40.577
325.37	40.491
325.73	40.934
326.10	39.541
326.46	40.412
326.83	41.760
327.19	39.453
327.56	40.941
327.92	41.557
328.29	40.639
328.65	41.713
329.01	40.072
329.38	40.518
329.74	38.412
330.11	40.716
330.47	39.853
330.84	41.268
331.20	39.982
331.56	39.450
331.93	39.630
332.29	38.864
332.66	39.912
333.02	39.854
333.38	39.657
333.75	39.037
334.11	38.167
334.48	39.840
334.84	39.982
335.20	40.455
335.57	39.982
335.93	38.839
336.29	40.476
336.66	39.315
337.02	38.371
337.38	39.537
337.75	39.037
338.11	38.406
338.47	39.779
338.84	39.963
339.20	38.532
339.56	39.964
339.93	38.273
340.29	38.496
340.65	37.968
341.02	38.220
341.38	38.701
341.74	37.807
342.11	38.515
342.47	37.709
342.83	38.014
343.20	38.009
343.56	36.984
343.92	38.509
344.28	37.840
344.65	39.123
345.01	37.290
345.37	37.307
345.73	38.240
346.10	37.681
346.46	37.966
346.82	37.974
347.19	36.257
347.55	36.535
347.91	36.974
348.27	37.141
348.63	37.709
349.00	37.540
349.36	35.550
349.72	36.006
350.08	36.791
350.45	36.778
350.81	36.393
351.17	37.115
351.53	36.364
351.89	35.809
352.26	35.991
352.62	36.728
352.98	36.386
353.34	36.483
353.70	35.270
354.07	36.048
354.43	35.476
354.79	34.191
355.15	36.073
355.51	36.771
355.87	36.980
356.24	36.075
356.60	36.648
356.96	36.042
357.32	36.468
357.68	36.220
358.04	35.075
358.40	35.629
358.77	34.116
359.13	35.754
359.49	36.314
359.85	34.444
360.21	35.247
360.57	35.720
360.93	35.077
361.29	34.769
361.66	34.598
362.02	34.254
362.38	35.285
362.74	35.268
363.10	32.865
363.46	33.896
363.82	33.711
364.18	32.746
364.54	35.513
364.90	34.703
365.26	32.721
365.62	34.989
365.98	34.770
366.35	33.739
366.71	33.912
367.07	33.285
367.43	34.688
367.79	35.189
368.15	34.411
368.51	33.648
368.87	32.762
369.23	34.894
369.59	34.178
369.95	33.603
370.31	34.259
370.67	33.841
371.03	34.007
371.39	33.017
371.75	33.088
372.11	32.219
372.47	34.824
372.83	34.006
373.19	33.815
373.55	33.629
373.91	34.315
374.27	32.577
374.63	32.727
374.99	32.627
375.35	32.589
375.71	31.803
376.07	33.813
376.42	33.287
376.78	33.333
377.14	33.107
377.50	33.377
377.86	32.181
378.22	33.249
378.58	31.579
378.94	32.935
379.30	31.997
379.66	34.264
380.02	32.617
380.38	31.755
380.74	32.413
381.09	32.641
381.45	33.006
381.81	32.678
382.17	33.376
382.53	32.138
382.89	33.148
383.25	32.145
383.61	31.970
383.97	32.583
384.32	32.938
384.68	32.218
385.04	32.391
385.40	30.898
385.76	31.818
386.12	31.412
386.48	31.970
386.83	32.072
387.19	32.158
387.55	31.354
387.91	32.164
388.27	31.453
388.62	32.760
388.98	31.143
389.34	31.790
389.70	31.024
390.06	32.193
390.42	31.388
390.77	31.552
391.13	31.972
391.49	30.774
391.85	30.872
392.20	30.662
392.56	30.934
392.92	30.959
393.28	30.296
393.64	31.175
393.99	31.216
394.35	30.087
394.71	31.430
395.07	30.779
395.42	31.891
395.78	31.743
396.14	31.471
396.50	31.078
396.85	31.977
397.21	29.408
397.57	31.556
397.92	30.769
398.28	30.213
398.64	31.123
399.00	30.778
399.35	30.739
399.71	30.845
400.07	31.342
400.42	31.718
400.78	31.303
401.14	30.183
401.49	31.164
401.85	30.369
402.21	29.641
402.57	30.907
402.92	30.202
403.28	31.168
403.63	30.384
403.99	30.764
404.35	30.727
404.70	30.336
405.06	30.052
405.42	31.067
405.77	30.000
406.13	29.797
406.49	30.810
406.84	29.652
407.20	29.196
407.55	30.313
407.91	30.067
408.27	29.675
408.62	29.561
408.98	30.025
409.34	29.951
409.69	30.000
410.05	29.926
410.40	30.092
410.76	31.004
411.11	31.062
411.47	29.393
411.83	30.544
412.18	29.314
412.54	30.697
412.89	29.518
413.25	29.693
413.60	30.636
413.96	29.812
414.31	29.587
414.67	29.658
415.03	28.675
415.38	29.510
415.74	30.225
416.09	30.307
416.45	29.183
416.80	29.412
417.16	30.161
417.51	29.728
417.87	28.709
418.22	29.211
418.58	30.148
418.93	29.115
419.29	29.854
419.64	29.723
420.00	29.146
420.35	28.986
420.71	29.647
421.06	28.938
421.42	29.357
421.77	29.204
422.12	28.636
422.48	29.034
422.83	29.761
423.19	29.392
423.54	29.832
423.90	29.507
424.25	28.532
424.61	29.881
424.96	29.504
425.31	29.236
425.67	28.933
426.02	27.829
426.38	29.915
426.73	29.198
427.09	30.152
427.44	28.752
427.79	28.292
428.15	30.000
428.50	29.374
428.85	30.274
429.21	28.713
429.56	28.564
429.92	28.636
430.27	28.600
430.62	28.111
430.98	28.697
431.33	28.505
431.68	28.848
432.04	28.647
432.39	29.240
432.74	28.127
433.10	29.428
433.45	29.563
433.80	29.102
434.16	27.938
434.51	29.105
434.86	29.133
435.22	28.238
435.57	28.693
435.92	28.613
436.28	28.826
436.63	29.360
436.98	28.792
437.34	29.756
437.69	28.880
438.04	29.342
438.39	29.254
438.75	28.588
439.10	28.156
439.45	29.575
439.81	28.822
440.16	28.289
440.51	28.471
440.86	28.662
441.22	29.143
441.57	28.238
441.92	29.529
442.27	28.418
442.63	28.067
442.98	28.620
443.33	29.728
443.68	29.685
444.03	28.843
444.39	28.481
444.74	29.167
445.09	29.003
445.44	28.868
445.79	28.748
446.15	28.428
446.50	28.271
446.85	28.058
447.20	28.404
447.55	29.313
447.91	29.013
448.26	28.770
448.61	29.452
448.96	29.623
449.31	29.078
449.66	28.869
450.02	28.412
450.37	28.685
450.72	27.975
451.07	29.129
451.42	28.024
451.77	29.125
452.12	28.522
452.47	28.296
452.83	29.021
453.18	28.178
453.53	28.757
453.88	28.470
454.23	27.974
454.58	28.589
454.93	29.371
455.28	27.805
455.63	28.277
455.98	29.048
456.34	29.209
456.69	29.117
457.04	28.359
457.39	28.346
457.74	27.916
458.09	28.752
458.44	28.506
458.79	27.711
459.14	28.837
459.49	28.138
459.84	27.701
460.19	27.814
460.54	28.067
460.89	28.140
461.24	28.840
461.59	28.995
461.94	27.744
462.29	28.605
462.64	27.888
462.99	28.237
463.34	29.467
463.69	27.392
464.04	28.406
464.39	28.174
464.74	28.758
465.09	28.347
465.44	27.756
465.79	27.349
466.14	27.969
466.49	28.198
466.84	28.138
467.19	28.244
467.54	28.375
467.89	27.371
468.24	27.923
468.59	28.266
468.94	28.589
469.29	27.506
469.64	28.112
469.99	28.078
470.34	27.411
470.68	27.945
471.03	26.395
471.38	27.241
471.73	27.249
472.08	27.434
472.43	27.575
472.78	27.650
473.13	27.856
473.48	27.154
473.83	27.622
474.17	28.251
474.52	27.171
474.87	27.671
475.22	26.988
475.57	26.652
475.92	27.031
476.27	28.185
476.61	27.689
476.96	26.388
477.31	26.688
477.66	28.173
478.01	25.980
478.36	26.970
478.70	26.947
479.05	26.890
479.40	26.203
479.75	26.690
480.10	25.895
480.45	26.178
480.79	26.135
481.14	27.153
481.49	26.815
481.84	25.697
482.19	26.443
482.53	26.422
482.88	27.408
483.23	26.963
483.58	27.207
483.92	26.617
484.27	25.926
484.62	26.164
484.97	26.488
485.31	27.397
485.66	25.393
486.01	26.787
486.36	26.474
486.70	27.452
487.05	27.357
487.40	27.247
487.75	27.437
488.09	27.965
488.44	27.685
488.79	27.559
489.13	27.349
489.48	26.672
489.83	26.155
490.17	26.392
490.52	25.996
490.87	25.509
491.22	25.375
491.56	25.194
491.91	26.198
492.26	25.586
492.60	25.622
492.95	25.959
493.30	24.486
493.64	25.758
493.99	25.812
494.34	25.624
494.68	26.007
495.03	26.645
495.37	25.547
495.72	25.536
496.07	25.522
496.41	24.779
496.76	25.022
497.11	26.430
497.45	25.617
497.80	25.816
498.14	25.266
498.49	25.268
498.84	26.079
499.18	25.667
499.53	25.546
499.87	24.697
500.22	25.059
500.56	25.825
500.91	25.000
501.26	25.747
501.60	26.103
501.95	25.160
502.29	25.773
502.64	25.652
502.98	25.573
503.33	24.909
503.67	25.104
504.02	24.836
504.36	25.363
504.71	25.598
505.06	25.542
505.40	25.377
505.75	25.169
506.09	25.656
506.44	24.420
506.78	25.231
507.13	25.543
507.47	25.404
507.82	25.076
508.16	24.823
508.51	25.520
508.85	24.330
509.19	25.306
509.54	24.898
509.88	24.008
510.23	25.193
510.57	25.129
510.92	24.236
511.26	24.615
511.61	25.000
511.95	24.217
512.30	23.913
512.64	24.718
512.98	25.348
513.33	24.679
513.67	24.493
514.02	23.864
514.36	24.741
514.70	24.848
515.05	24.428
515.39	24.621
515.74	24.099
516.08	25.098
516.42	24.695
516.77	25.418
517.11	24.473
517.46	24.436
517.80	24.158
518.14	23.798
518.49	24.504
518.83	24.432
519.17	24.018
519.52	23.995
519.86	23.731
520.20	25.087
520.55	23.639
520.89	25.000
521.23	24.789
521.58	25.030
521.92	24.189
522.26	23.551
522.61	24.673
522.95	23.880
523.29	25.320
523.64	24.329
523.98	23.906
524.32	23.764
524.66	24.594
525.01	24.510
525.35	24.102
525.69	23.645
526.04	23.801
526.38	24.588
526.72	24.540
527.06	25.235
527.41	22.772
527.75	23.087
528.09	23.828
528.43	23.391
528.78	24.462
529.12	24.242
529.46	24.801
529.80	24.381
530.15	24.237
530.49	23.262
530.83	24.494
531.17	24.804
531.51	24.643
531.86	24.194
532.20	24.967
532.54	23.767
532.88	25.032
533.22	23.923
533.57	25.000
533.91	23.841
534.25	24.484
534.59	24.954
534.93	24.450
535.27	23.838
535.62	24.786
535.96	24.733
536.30	24.984
536.64	24.920
536.98	24.287
537.32	24.226
537.66	24.667
538.01	25.082
538.35	23.788
538.69	25.335
539.03	23.912
539.37	23.578
539.71	23.785
540.05	24.118
540.39	24.319
540.73	25.032
541.07	25.308
541.42	25.179
541.76	24.968
542.10	25.032
542.44	25.099
542.78	25.428
543.12	24.376
543.46	25.049
543.80	25.699
544.14	23.556
544.48	25.460
544.82	25.273
545.16	25.569
545.50	24.614
545.84	24.798
546.18	24.579
546.52	25.189
546.86	24.399
547.20	25.152
547.54	25.718
547.88	25.510
548.22	25.031
548.56	25.346
548.90	24.776
549.24	24.714
549.58	25.102
549.92	24.519
550.26	24.929
550.60	25.864
550.94	24.789
551.28	24.140
551.62	23.724
551.96	24.281
552.30	24.915
552.64	24.476
552.98	25.831
553.32	24.882
553.66	25.358
554.00	24.296
554.34	25.328
554.68	25.179
555.02	24.542
555.36	24.983
555.69	24.357
556.03	24.764
556.37	25.307
556.71	24.216
557.05	24.720
557.39	24.423
557.73	24.700
558.07	25.236
558.41	23.444
558.75	23.880
559.08	24.609
559.42	24.339
559.76	24.706
560.10	23.697
560.44	24.948
560.78	25.216
561.12	24.736
561.45	25.033
561.79	24.456
562.13	25.017
562.47	24.932
562.81	24.756
563.15	24.013
563.48	25.464
563.82	25.245
564.16	24.787
564.50	24.544
564.84	25.474
565.17	25.032
565.51	25.623
565.85	24.937
566.19	23.982
566.52	25.776
566.86	24.653
567.20	26.238
567.54	25.057
567.88	25.421
568.21	25.291
568.55	25.632
568.89	25.049
569.23	25.357
569.56	25.992
569.90	26.642
570.24	26.408
570.57	26.318
570.91	26.115
571.25	26.158
571.59	26.627
571.92	27.016
572.26	26.892
572.60	27.267
572.93	26.507
573.27	27.448
573.61	26.438
573.95	27.235
574.28	26.683
574.62	26.846
574.96	26.476
575.29	26.625
575.63	26.982
575.97	27.102
576.30	28.067
576.64	26.737
576.98	26.860
577.31	27.172
577.65	27.535
577.98	26.799
578.32	26.767
578.66	27.526
578.99	27.551
579.33	27.112
579.67	27.171
580.00	27.451
580.34	27.456
580.67	27.109
581.01	27.592
581.35	27.143
581.68	26.818
582.02	26.972
582.35	27.667
582.69	27.326
583.02	27.579
583.36	27.946
583.70	27.672
584.03	27.847
584.37	28.169
584.70	27.691
585.04	27.079
585.37	27.586
585.71	27.655
586.04	27.591
586.38	27.560
586.72	27.561
587.05	26.650
587.39	26.385
587.72	27.596
588.06	27.695
588.39	27.791
588.73	27.163
589.06	27.485
589.40	27.374
589.73	27.068
590.07	27.722
590.40	26.891
590.73	26.893
591.07	27.147
591.40	27.415
591.74	26.623
592.07	26.003
592.41	26.995
592.74	26.367
593.08	26.649
593.41	26.669
593.75	26.234
594.08	27.724
594.41	26.865
594.75	27.246
595.08	27.273
595.42	27.250
595.75	27.635
596.09	27.676
596.42	27.151
596.75	26.762
597.09	27.576
597.42	26.138
597.75	26.779
598.09	27.130
598.42	25.859
598.76	26.875
599.09	26.644
599.42	25.873
599.76	27.269
600.09	26.885
600.42	26.333
600.76	26.321
601.09	26.703
601.42	27.093
601.76	26.224
602.09	26.759
602.42	27.070
602.76	27.086
603.09	27.065
603.42	27.060
603.76	27.325
604.09	26.250
604.42	26.784
604.76	27.077
605.09	26.518
605.42	26.507
605.75	26.614
606.09	26.027
606.42	26.890
606.75	26.006
607.09	26.496
607.42	26.401
607.75	25.696
608.08	26.617
608.42	27.297
608.75	26.465
609.08	26.087
609.41	26.321
609.75	26.489
610.08	27.474
610.41	25.838
610.74	26.301
611.07	27.174
611.41	26.398
611.74	27.853
612.07	26.553
612.40	27.545
612.73	26.368
613.07	27.047
613.40	26.066
613.73	26.219
614.06	26.882
614.39	25.223
614.72	26.474
615.06	26.628
615.39	25.902
615.72	26.074
616.05	26.316
616.38	26.959
616.71	26.069
617.05	26.914
617.38	25.977
617.71	25.946
618.04	26.743
618.37	25.843
618.70	25.825
619.03	27.368
619.36	25.662
619.69	24.296
620.03	26.786
620.36	26.404
620.69	26.986
621.02	25.811
621.35	25.215
621.68	24.766
622.01	25.774
622.34	25.719
622.67	25.399
623.00	26.045
623.33	25.661
623.66	25.661
623.99	25.920
624.32	24.536
624.65	25.565
624.99	25.779
625.32	25.489
625.65	25.394
625.98	25.211
626.31	26.750
626.64	25.796
626.97	25.686
627.30	23.940
627.63	25.267
627.96	25.399
628.29	24.847
628.62	26.167
628.95	26.038
629.28	25.547
629.61	25.481
629.94	25.238
630.26	25.453
630.59	26.025
630.92	25.000
631.25	24.383
631.58	22.923
631.91	24.544
632.24	25.211
632.57	24.449
632.90	24.671
633.23	25.951
633.56	24.520
633.89	24.689
634.22	24.858
634.55	25.799
634.88	23.952
635.20	24.492
635.53	26.024
635.86	24.629
636.19	24.706
636.52	24.567
636.85	25.659
637.18	23.387
637.51	24.350
637.83	24.291
638.16	23.913
638.49	25.567
638.82	25.158
639.15	26.750
639.48	23.940
639.81	25.737
640.13	24.089
640.46	24.430
640.79	23.646
641.12	23.109
641.45	23.743
641.77	25.184
642.10	24.415
642.43	23.273
642.76	23.994
643.09	25.307
643.41	22.458
643.74	24.074
644.07	24.543
644.40	23.313
644.73	24.409
645.05	24.406
645.38	22.591
645.71	25.121
646.04	22.757
646.36	25.876
646.69	25.753
647.02	26.020
647.35	23.024
647.67	24.071
648.00	25.366
648.33	23.597
648.66	25.000
648.98	24.738
649.31	23.767
649.64	23.617
649.96	26.080
650.29	24.171
650.62	24.595
650.94	25.770
651.27	26.858
651.60	22.130
651.92	25.080
652.25	23.453
652.58	22.741
652.90	26.382
653.23	23.112
653.56	23.622
653.88	25.674
654.21	24.961
654.54	24.917
654.86	26.636
655.19	24.865
655.52	21.399
655.84	22.734
656.17	30.449
656.49	41.918
656.82	43.736
657.15	34.142
657.47	25.721
657.80	20.053
658.13	21.201
658.45	31.022
658.78	31.452
659.10	31.580
659.43	32.029
659.75	31.443
660.08	30.380
660.41	28.864
660.73	28.208
661.06	25.796
661.38	26.545
661.71	27.115
662.03	26.430
662.36	22.664
662.68	25.904
663.01	24.444
663.33	23.992
663.66	26.261
663.98	24.622
664.31	23.739
664.63	22.470
664.96	22.736
665.28	23.770
665.61	23.977
665.93	26.157
666.26	25.558
666.58	24.895
666.91	24.947
667.23	27.865
667.56	25.270
667.88	25.855
668.21	28.145
668.53	24.512
668.86	23.377
669.18	25.160
669.50	25.652
669.83	27.451
670.15	25.333
670.48	26.797
670.80	22.845
671.13	23.142
671.45	24.468
671.77	24.236
672.10	25.323
672.42	25.972
672.75	26.202
673.07	25.352
673.39	27.125
673.72	26.562
674.04	25.686
674.37	25.437
674.69	22.904
675.01	24.477
675.34	27.310
675.66	27.579
675.98	27.495
676.31	26.261
676.63	24.204
676.95	26.625
677.28	25.701
677.60	24.396
677.92	28.692
678.25	26.078
678.57	27.092
678.89	25.651
679.22	25.737
679.54	25.000
679.86	26.239
680.18	26.655
680.51	28.369
680.83	28.292
681.15	29.434
681.48	28.166
681.80	26.886
682.12	27.203
682.44	24.178
682.77	26.273
683.09	30.258
683.41	25.721
683.73	26.269
684.06	27.479
684.38	24.853
684.70	25.000
685.02	29.081
685.34	27.106
685.67	24.126
685.99	26.976
686.31	28.328
686.63	25.442
686.96	28.393
687.28	25.271
687.60	26.812
687.92	29.616
688.24	26.806
688.56	28.313
688.89	28.008
689.21	30.568
689.53	26.931
689.85	27.716
690.17	26.294
690.49	29.299
690.82	26.636
691.14	25.223
691.46	23.207
691.78	25.100
692.10	28.719
692.42	28.144
692.74	26.141
693.06	28.511
693.39	28.131
693.71	29.476
694.03	28.421
694.35	26.407
694.67	25.629
694.99	27.073
695.31	24.755
695.63	29.187
695.95	26.161
696.27	24.619
696.59	25.130
696.91	27.461
697.23	24.648
697.56	27.932
697.88	23.313
698.20	27.083
698.52	26.667
698.84	26.949
699.16	25.115
699.48	29.216
699.80	29.710
700.12	29.870
700.44	27.586
700.76	28.453
701.08	27.011
701.40	27.933
701.72	30.904
702.04	30.682
702.36	25.496
702.68	27.762
703.00	28.809
703.32	26.862
703.64	27.882
703.96	27.019
704.28	29.070
704.60	29.032
704.91	29.674
705.23	28.739
705.55	27.575
705.87	27.907
706.19	29.682
706.51	29.907
706.83	30.303
707.15	28.571
707.47	29.293
707.79	28.256
708.11	30.594
708.43	32.143
708.74	27.551
709.06	28.831
709.38	29.921
709.70	29.942
710.02	29.377
710.34	26.061
710.66	30.746
710.98	31.250
711.29	30.523
711.61	32.743
711.93	29.167
712.25	35.048
712.57	31.618
712.89	29.412
713.20	27.052
713.52	30.263
713.84	29.430
714.16	30.793
714.48	29.310
714.80	35.866
715.11	33.429
715.43	30.861
715.75	29.565
716.07	28.435
716.39	31.034
716.70	30.897
717.02	30.576
717.34	31.802
717.66	33.209
717.97	35.857
718.29	29.630
718.61	31.022
718.93	29.779
719.24	26.298
719.56	30.847
719.88	33.559
720.20	32.432
720.51	36.934
720.83	31.227
721.15	30.224
721.46	28.723
721.78	34.050
722.10	32.453
722.42	33.083
722.73	32.210
723.05	30.328
723.37	34.413
723.68	31.274
724.00	33.333
724.32	35.887
724.63	30.488
724.95	31.381
725.27	37.247
725.58	35.547
725.90	35.036
726.22	36.226
726.53	33.333
726.85	34.471
727.16	32.384
727.48	32.624
727.80	33.712
728.11	33.333
728.43	33.846
728.74	30.824
729.06	35.766
729.38	35.294
729.69	32.028
730.01	29.010
730.32	32.292
730.64	30.100
730.96	29.373
731.27	32.450
731.59	33.028
731.90	32.070
732.22	35.404
732.53	30.031
732.85	32.692
733.16	30.225
733.48	29.900
733.80	31.169
734.11	33.758
734.43	30.769
734.74	30.286
735.06	28.367
735.37	34.393
735.69	28.025
736.00	36.275
736.32	35.202
736.63	30.032
736.95	31.949
737.26	26.190
737.58	31.935
737.89	33.445
738.21	32.765
738.52	34.286
738.83	33.208
739.15	33.077
739.46	33.577
739.78	35.069
740.09	36.615
740.41	34.194
740.72	31.707
741.04	32.963
741.35	34.583
741.66	41.333
741.98	33.491
742.29	35.885
742.61	34.914
742.92	34.389
743.23	38.889
743.55	35.600
743.86	37.719
744.18	37.168
744.49	36.842
744.80	33.803
745.12	40.909
745.43	37.445
745.74	40.090
746.06	36.239
746.37	34.529
746.68	33.937
747.00	40.741
747.31	35.238
747.62	34.071
747.94	34.802
748.25	31.489
748.56	37.004
748.88	37.129
749.19	43.000
749.50	32.558
749.82	30.894
750.13	29.388
750.44	31.752
750.75	37.544
751.07	37.621
751.38	36.585
751.69	32.491
752.01	31.955
752.32	29.603
752.63	37.234
752.94	37.705
753.26	36.400
753.57	33.740
753.88	34.375
754.19	31.429
754.51	35.417
754.82	35.018
755.13	37.736
755.44	37.970
755.75	31.387
756.07	33.333
756.38	32.482
756.69	35.570
757.00	33.832
757.31	32.938
757.63	30.994
757.94	30.295
758.25	30.392
758.56	30.370
758.87	29.301
759.18	32.424
759.50	31.348
759.81	33.333
760.12	30.937
760.43	35.244
760.74	31.793
761.05	32.768
761.36	32.086
761.67	32.386
761.99	29.193
762.30	32.639
762.61	36.641
762.92	32.422
763.23	33.613
763.54	37.600
763.85	35.547
764.16	39.231
764.47	37.643
764.78	35.336
765.10	32.595
765.41	33.628
765.72	33.832
766.03	34.796
766.34	30.667
766.65	36.170
766.96	38.889
767.27	40.609
767.58	40.104
767.89	42.105
768.20	39.080
768.51	36.548
768.82	38.073
769.13	33.333
769.44	34.818
769.75	37.768
770.06	31.651
770.37	39.367
770.68	38.889
770.99	31.556
771.30	35.656
771.61	38.117
771.92	37.705
772.23	42.857
772.54	41.026
772.85	40.838
773.16	42.553
773.47	38.587
773.78	41.117
774.09	39.881
774.39	45.029
774.70	39.506
775.01	44.928
775.32	47.712
775.63	42.763
775.94	35.971
776.25	51.181
776.56	47.015
776.87	47.541
777.18	49.219
777.48	51.908
777.79	44.697
778.10	47.407
778.41	51.786
778.72	37.956
779.03	44.295
779.34	42.282
779.65	38.514
779.95	45.399
780.26	54.248
780.57	46.207
780.88	51.562
781.19	50.376
781.50	54.730
781.80	44.654
782.11	37.853
782.42	46.203
782.73	41.104
783.04	46.622
783.34	46.479
783.65	54.110
783.96	55.224
784.27	39.161
784.57	41.007
784.88	49.074
785.19	50.794
785.50	50.943
785.81	54.478
786.11	62.295
786.42	55.039
786.73	46.903
787.04	56.604
787.34	48.214
787.65	60.000
787.96	55.856
788.26	49.587
788.57	57.627
788.88	54.545
789.19	54.861
789.49	56.818
789.80	54.962
790.11	70.476
790.41	67.327
790.72	60.241
791.03	63.043
791.33	56.977
791.64	56.701
791.95	60.396
792.25	66.667
792.56	63.636
792.87	78.205
793.17	70.886
793.48	74.713
793.79	52.874
794.09	52.273
794.40	57.983
794.70	53.676
795.01	44.444
795.32	42.446
795.62	48.819
795.93	48.276
796.23	53.097
796.54	62.353
796.85	51.351
797.15	64.789
797.46	66.667
797.76	74.699
798.07	68.354
798.37	87.692
798.68	65.152
798.99	63.380
799.29	72.727
799.60	69.318
799.90	78.082
800.21	83.582
800.51	79.310
800.82	89.474
801.12	63.934
801.43	63.636
801.73	71.622
802.04	85.714
802.34	70.370
802.65	89.062
802.95	96.610
803.26	93.750
803.56	75.714
803.87	70.769
804.17	77.941
804.48	101.852
804.78	77.586
805.09	79.412
805.39	84.615
805.70	64.286
806.00	73.770
806.30	63.636
806.61	82.927
806.91	74.684
807.22	73.684
807.52	56.716
807.83	87.324
808.13	73.438
808.43	90.000
808.74	56.579
809.04	76.812
809.35	83.582
809.65	75.000
809.95	100.000
810.26	74.576
810.56	92.063
810.86	104.545
811.17	121.429
811.47	105.000
811.77	90.741
812.08	98.182
812.38	110.000
812.69	100.000
812.99	115.909
813.29	77.551
813.59	78.571
813.90	114.286
814.20	87.273
814.50	87.692
814.81	85.294
815.11	97.959
815.41	75.410
815.72	111.905
816.02	105.455
816.32	111.905
816.62	110.000
816.93	117.073
817.23	104.762
817.53	102.273
817.84	124.242
818.14	106.522
818.44	108.889
818.74	135.294
819.04	132.500
819.35	117.143
819.65	147.059
819.95	164.286
820.25	115.000
820.56	117.949
820.86	118.182
821.16	120.930
821.46	102.564
821.76	120.000
822.07	111.429
822.37	142.500
822.67	136.364
822.97	84.314
823.27	171.429
823.57	124.324
823.88	135.000
824.18	176.667
824.48	111.905
824.78	180.000
825.08	129.167
825.38	100.000
825.69	114.634
825.99	179.167
826.29	110.345
826.59	134.211
826.89	139.474
827.19	94.118
827.49	145.161
827.79	109.091
828.09	97.727
828.39	93.617
828.70	102.041
829.00	140.741
829.30	151.613
829.60	92.500
829.90	293.333
830.20	167.857
830.50	160.870
830.80	160.870
831.10	190.000
831.40	173.333
831.70	169.565
832.00	153.846
832.30	177.778
832.60	193.750
832.90	173.333
833.20	257.143
833.50	180.645
833.80	151.724
834.10	159.375
834.40	192.308
834.70	238.889
835.00	200.000
835.30	125.714
835.60	230.769
835.90	151.724
836.20	214.286
836.50	148.276
836.80	176.000
837.10	130.556
837.40	261.905
837.70	223.529
838.00	181.481
838.30	152.381
838.60	257.143
838.90	207.692
839.19	190.000
839.49	335.714
839.79	280.000
840.09	170.000
840.39	204.762
840.69	182.609
840.99	205.556
841.29	390.000
841.59	191.667
841.88	300.000
842.18	165.517
842.48	233.333
842.78	156.667
843.08	234.783
843.38	153.125
843.68	583.333
843.97	184.615
844.27	110.345
844.57	242.857
844.87	287.500
845.17	162.963
845.47	1166.667
845.76	300.000
846.06	258.824
846.36	287.500
846.66	271.429
846.96	243.750
847.25	290.909
847.55	318.182
847.85	191.304
848.15	430.000
848.44	271.429
848.74	172.222
849.04	223.529
849.34	460.000
849.63	178.947
849.93	272.727
850.23	760.000
850.53	292.857
850.82	1800.000
851.12	-4000.000
851.42	3600.000
851.71	215.000
852.01	-566.667
852.31	200.000
852.61	1400.000
852.90	223.810
853.20	200.000
853.50	264.706
853.79	252.381
854.09	183.333
854.39	300.000
854.68	129.730
854.98	154.839
855.28	166.667
855.57	175.862
855.87	196.296
856.17	189.474
856.46	300.000
856.76	247.059
857.05	151.724
857.35	158.333
857.65	253.333
857.94	226.087
858.24	184.615
858.53	230.000
858.83	172.727
859.13	300.000
859.42	0.000
859.72	388.889
860.01	381.818
860.31	240.909
860.60	210.526
860.90	217.391
861.20	466.667
861.49	375.000
861.79	-3700.000
862.08	575.000
862.38	214.286
862.67	238.462
862.97	311.765
863.26	388.889
863.56	244.444
863.85	325.000
864.15	512.500
864.44	333.333
864.74	650.000
865.03	537.500
865.33	263.158
865.62	327.273
865.92	323.077
866.21	316.667
866.51	0.000
866.80	290.909
867.10	780.000
867.39	384.615
867.69	363.636
867.98	236.842
868.27	409.091
868.57	247.368
868.86	-3900.000
869.16	268.750
869.45	1600.000
869.75	-4200.000
870.04	391.667
870.33	485.714
870.63	925.000
870.92	2300.000
871.22	500.000
871.51	241.176
871.80	200.000
872.10	350.000
>>>>>End Processed Spectral Data<<<<<
