SpectraSuite Data File
++++++++++++++++++++++++++++++++++++
Date: Wed May 13 20:32:49 PDT 2015
User: schluterlab
Dark Spectrum Present: Yes
Reference Spectrum Present: Yes
Number of Sampled Component Spectra: 1
Spectrometers: USB2E3373
Integration Time (usec): 3000 (USB2E3373)
Spectra Averaged: 3 (USB2E3373)
Boxcar Smoothing: 0 (USB2E3373)
Correct for Electrical Dark: No (USB2E3373)
Strobe/Lamp Enabled: No (USB2E3373)
Correct for Detector Non-linearity: No (USB2E3373)
Correct for Stray Light: No (USB2E3373)
Number of Pixels in Processed Spectrum: 2048
>>>>>Begin Processed Spectral Data<<<<<
178.53	0.000
178.91	-1150.000
179.29	-900.000
179.67	-138.889
180.04	-1075.000
180.42	1850.000
180.80	700.000
181.18	-675.000
181.56	485.714
181.94	0.000
182.31	-614.286
182.69	1466.667
183.07	-462.500
183.45	-388.889
183.83	363.636
184.20	-230.000
184.58	1850.000
184.96	3300.000
185.34	-640.000
185.72	-550.000
186.09	-1750.000
186.47	2100.000
186.85	1500.000
187.23	2800.000
187.61	-1233.333
187.98	1175.000
188.36	390.909
188.74	336.364
189.12	-600.000
189.49	380.000
189.87	-3200.000
190.25	-925.000
190.63	335.714
191.00	346.154
191.38	666.667
191.76	-675.000
192.14	1125.000
192.51	537.500
192.89	783.333
193.27	487.500
193.65	-850.000
194.02	370.000
194.40	700.000
194.78	400.000
195.15	391.667
195.53	550.000
195.91	-1600.000
196.29	237.500
196.66	257.895
197.04	-160.000
197.42	0.000
197.79	450.000
198.17	-3300.000
198.55	600.000
198.92	525.000
199.30	660.000
199.68	0.000
200.05	266.667
200.43	671.429
200.81	3200.000
201.18	1000.000
201.56	-1133.333
201.94	555.556
202.31	455.556
202.69	275.000
203.07	410.000
203.44	0.000
203.82	1025.000
204.19	642.857
204.57	328.571
204.95	512.500
205.32	1100.000
205.70	400.000
206.08	192.857
206.45	2000.000
206.83	231.250
207.20	783.333
207.58	500.000
207.96	244.444
208.33	675.000
208.71	-600.000
209.08	571.429
209.46	544.444
209.84	372.727
210.21	-1100.000
210.59	975.000
210.96	-337.500
211.34	1800.000
211.71	520.000
212.09	466.667
212.46	0.000
212.84	1466.667
213.22	1150.000
213.59	-4100.000
213.97	733.333
214.34	514.286
214.72	472.727
215.09	620.000
215.47	-1700.000
215.84	-1650.000
216.22	1233.333
216.59	364.286
216.97	950.000
217.34	318.182
217.72	-533.333
218.09	0.000
218.47	-3700.000
218.84	500.000
219.22	628.571
219.59	1033.333
219.97	-457.143
220.34	740.000
220.72	-1066.667
221.09	321.429
221.47	1350.000
221.84	-650.000
222.22	0.000
222.59	1025.000
222.97	-2000.000
223.34	800.000
223.72	353.846
224.09	780.000
224.46	1800.000
224.84	-3100.000
225.21	-780.000
225.59	-3800.000
225.96	540.000
226.34	225.000
226.71	2000.000
227.08	362.500
227.46	440.000
227.83	-1100.000
228.21	-1650.000
228.58	466.667
228.95	-1900.000
229.33	-1600.000
229.70	1100.000
230.08	671.429
230.45	-620.000
230.82	316.667
231.20	650.000
231.57	500.000
231.95	358.333
232.32	213.636
232.69	254.545
233.07	442.857
233.44	346.154
233.81	-1400.000
234.19	242.105
234.56	366.667
234.93	341.667
235.31	327.273
235.68	300.000
236.05	314.286
236.43	142.424
236.80	263.158
237.17	4400.000
237.55	233.333
237.92	235.714
238.29	228.571
238.67	151.613
239.04	203.448
239.41	150.000
239.79	100.000
240.16	169.048
240.53	161.364
240.91	98.039
241.28	126.000
241.65	114.000
242.02	108.696
242.40	90.323
242.77	121.667
243.14	86.022
243.51	97.753
243.89	94.118
244.26	86.667
244.63	84.946
245.00	79.787
245.38	81.188
245.75	82.243
246.12	85.321
246.49	79.562
246.87	82.400
247.24	77.692
247.61	73.571
247.98	77.124
248.36	73.649
248.73	73.248
249.10	74.522
249.47	70.056
249.84	71.658
250.22	64.171
250.59	73.373
250.96	66.162
251.33	69.668
251.70	71.287
252.08	68.095
252.45	63.229
252.82	70.000
253.19	66.809
253.56	66.275
253.94	60.581
254.31	66.797
254.68	65.769
255.05	67.528
255.42	63.008
255.79	63.971
256.16	66.426
256.54	57.597
256.91	66.192
257.28	64.029
257.65	64.026
258.02	61.491
258.39	55.521
258.76	59.866
259.14	56.845
259.51	56.231
259.88	61.491
260.25	64.350
260.62	61.561
260.99	60.559
261.36	58.559
261.73	61.032
262.10	61.337
262.47	61.127
262.85	56.267
263.22	58.974
263.59	63.533
263.96	54.945
264.33	59.269
264.70	59.474
265.07	58.568
265.44	59.091
265.81	57.178
266.18	61.055
266.55	60.244
266.92	58.231
267.29	56.019
267.66	56.651
268.03	56.364
268.40	57.477
268.77	53.699
269.14	57.432
269.51	56.659
269.88	57.576
270.25	53.273
270.62	60.449
270.99	56.989
271.36	54.077
271.73	60.047
272.10	54.783
272.47	56.774
272.84	56.926
273.21	56.813
273.58	55.895
273.95	51.992
274.32	53.306
274.69	55.460
275.06	53.346
275.43	55.106
275.80	56.313
276.17	56.823
276.54	54.886
276.91	54.545
277.28	53.125
277.65	52.998
278.02	52.588
278.39	54.492
278.76	52.182
279.13	52.453
279.50	51.955
279.87	51.992
280.23	52.695
280.60	55.513
280.97	53.420
281.34	50.973
281.71	53.273
282.08	55.662
282.45	52.727
282.82	51.332
283.19	53.654
283.56	52.632
283.92	52.115
284.29	52.028
284.66	52.269
285.03	51.537
285.40	51.408
285.77	50.673
286.14	50.259
286.51	51.667
286.87	50.598
287.24	51.303
287.61	48.315
287.98	52.273
288.35	47.544
288.72	46.885
289.08	48.513
289.45	48.105
289.82	50.407
290.19	47.567
290.56	45.023
290.93	46.979
291.29	47.393
291.66	47.640
292.03	46.802
292.40	47.577
292.77	43.935
293.13	43.881
293.50	45.773
293.87	46.370
294.24	44.593
294.60	42.940
294.97	42.878
295.34	43.583
295.71	43.182
296.08	43.590
296.44	41.403
296.81	40.423
297.18	42.547
297.55	41.029
297.91	41.293
298.28	41.365
298.65	39.687
299.02	41.634
299.38	40.637
299.75	38.275
300.12	38.442
300.48	39.250
300.85	38.101
301.22	38.854
301.59	39.899
301.95	41.184
302.32	38.896
302.69	37.157
303.05	38.788
303.42	38.025
303.79	38.165
304.15	36.131
304.52	37.428
304.89	35.772
305.25	37.123
305.62	36.580
305.99	37.898
306.35	36.689
306.72	39.462
307.09	38.957
307.45	39.752
307.82	37.054
308.19	37.196
308.55	38.188
308.92	37.057
309.29	34.741
309.65	35.843
310.02	37.315
310.38	35.269
310.75	36.853
311.12	36.950
311.48	37.304
311.85	37.317
312.22	36.733
312.58	37.110
312.95	37.381
313.31	35.631
313.68	37.838
314.05	37.968
314.41	37.688
314.78	37.664
315.14	36.743
315.51	37.796
315.87	39.307
316.24	39.821
316.61	39.279
316.97	39.824
317.34	39.237
317.70	41.396
318.07	41.290
318.43	41.585
318.80	41.237
319.16	41.525
319.53	42.026
319.89	42.762
320.26	46.000
320.62	44.544
320.99	45.859
321.35	46.768
321.72	47.433
322.08	49.358
322.45	49.851
322.81	49.031
323.18	50.385
323.54	50.000
323.91	50.566
324.27	52.103
324.64	53.402
325.00	51.398
325.37	53.412
325.73	53.950
326.10	54.016
326.46	53.853
326.83	56.514
327.19	55.594
327.56	57.578
327.92	59.143
328.29	57.232
328.65	59.761
329.01	58.664
329.38	60.592
329.74	60.203
330.11	63.054
330.47	60.422
330.84	60.662
331.20	62.204
331.56	61.560
331.93	63.241
332.29	62.378
332.66	61.239
333.02	60.969
333.38	61.698
333.75	62.478
334.11	62.633
334.48	62.201
334.84	62.592
335.20	63.182
335.57	62.919
335.93	61.786
336.29	63.187
336.66	63.390
337.02	63.348
337.38	63.889
337.75	63.993
338.11	61.594
338.47	64.273
338.84	65.628
339.20	64.312
339.56	64.325
339.93	65.455
340.29	64.583
340.65	63.636
341.02	64.485
341.38	63.968
341.74	64.211
342.11	66.114
342.47	64.846
342.83	64.384
343.20	65.368
343.56	63.353
343.92	64.649
344.28	63.776
344.65	64.402
345.01	63.973
345.37	64.065
345.73	64.382
346.10	64.535
346.46	63.898
346.82	63.921
347.19	65.330
347.55	63.547
347.91	64.563
348.27	65.242
348.63	63.963
349.00	64.078
349.36	63.383
349.72	64.395
350.08	63.614
350.45	65.338
350.81	63.607
351.17	64.506
351.53	64.619
351.89	63.036
352.26	63.852
352.62	65.196
352.98	64.587
353.34	64.832
353.70	63.666
354.07	63.145
354.43	63.492
354.79	64.360
355.15	64.166
355.51	67.466
355.87	64.980
356.24	65.961
356.60	64.555
356.96	65.889
357.32	66.394
357.68	66.929
358.04	65.321
358.40	65.637
358.77	64.867
359.13	65.588
359.49	65.176
359.85	64.841
360.21	65.550
360.57	66.848
360.93	66.538
361.29	64.021
361.66	65.093
362.02	64.851
362.38	67.224
362.74	65.476
363.10	65.359
363.46	65.150
363.82	66.138
364.18	66.446
364.54	67.979
364.90	65.156
365.26	67.353
365.62	68.152
365.98	65.449
366.35	65.473
366.71	66.377
367.07	67.444
367.43	68.433
367.79	68.237
368.15	68.247
368.51	67.297
368.87	67.737
369.23	67.666
369.59	67.053
369.95	67.721
370.31	67.379
370.67	66.812
371.03	68.989
371.39	67.128
371.75	68.162
372.11	65.718
372.47	68.255
372.83	68.876
373.19	68.858
373.55	69.106
373.91	70.619
374.27	68.179
374.63	68.509
374.99	68.644
375.35	68.179
375.71	68.266
376.07	68.381
376.42	69.326
376.78	69.516
377.14	67.707
377.50	69.536
377.86	67.021
378.22	69.785
378.58	68.609
378.94	69.705
379.30	69.593
379.66	69.924
380.02	69.595
380.38	69.520
380.74	70.168
381.09	70.416
381.45	70.990
381.81	70.762
382.17	69.809
382.53	70.566
382.89	70.556
383.25	70.794
383.61	71.561
383.97	70.857
384.32	70.805
384.68	69.703
385.04	70.068
385.40	70.898
385.76	71.253
386.12	72.021
386.48	70.862
386.83	71.905
387.19	72.356
387.55	70.006
387.91	70.919
388.27	71.122
388.62	71.911
388.98	70.823
389.34	70.901
389.70	71.551
390.06	72.180
390.42	72.309
390.77	73.092
391.13	72.623
391.49	70.812
391.85	72.947
392.20	71.483
392.56	72.854
392.92	71.807
393.28	71.006
393.64	71.643
393.99	71.533
394.35	71.588
394.71	70.703
395.07	70.903
395.42	73.671
395.78	72.710
396.14	70.205
396.50	72.619
396.85	74.126
397.21	71.887
397.57	72.040
397.92	71.394
398.28	71.244
398.64	70.848
399.00	72.076
399.35	72.025
399.71	71.875
400.07	71.082
400.42	71.902
400.78	72.316
401.14	72.622
401.49	73.075
401.85	71.688
402.21	71.317
402.57	73.041
402.92	72.131
403.28	71.893
403.63	73.391
403.99	72.675
404.35	71.455
404.70	70.923
405.06	72.685
405.42	72.302
405.77	73.257
406.13	71.783
406.49	73.211
406.84	72.475
407.20	71.395
407.55	72.431
407.91	72.333
408.27	73.325
408.62	71.644
408.98	71.017
409.34	72.386
409.69	72.516
410.05	73.234
410.40	71.988
410.76	72.461
411.11	71.773
411.47	72.077
411.83	71.167
412.18	70.439
412.54	73.910
412.89	70.482
413.25	71.547
413.60	72.082
413.96	70.188
414.31	70.474
414.67	73.447
415.03	73.046
415.38	71.585
415.74	72.347
416.09	71.979
416.45	71.084
416.80	73.496
417.16	72.721
417.51	71.865
417.87	70.584
418.22	72.871
418.58	72.821
418.93	70.885
419.29	72.502
419.64	72.607
420.00	70.732
420.35	71.884
420.71	73.222
421.06	71.599
421.42	72.047
421.77	71.188
422.12	71.926
422.48	70.750
422.83	73.093
423.19	71.215
423.54	70.807
423.90	70.203
424.25	70.687
424.61	69.940
424.96	71.603
425.31	71.262
425.67	69.157
426.02	70.857
426.38	73.871
426.73	70.392
427.09	71.307
427.44	70.558
427.79	69.983
428.15	71.964
428.50	70.099
428.85	70.560
429.21	70.127
429.56	71.073
429.92	70.106
430.27	70.556
430.62	68.971
430.98	70.213
431.33	69.691
431.68	71.204
432.04	69.702
432.39	71.388
432.74	71.035
433.10	71.703
433.45	70.787
433.80	70.676
434.16	70.994
434.51	70.368
434.86	71.266
435.22	69.928
435.57	71.915
435.92	69.631
436.28	71.293
436.63	70.695
436.98	71.437
437.34	72.153
437.69	70.945
438.04	70.601
438.39	70.388
438.75	71.063
439.10	70.615
439.45	70.897
439.81	72.387
440.16	70.243
440.51	70.709
440.86	70.585
441.22	71.246
441.57	70.488
441.92	71.136
442.27	70.560
442.63	70.300
442.98	70.592
443.33	69.348
443.68	70.212
444.03	70.327
444.39	70.204
444.74	70.509
445.09	70.620
445.44	69.492
445.79	69.421
446.15	69.296
446.50	69.521
446.85	69.373
447.20	70.423
447.55	70.519
447.91	70.215
448.26	70.006
448.61	71.227
448.96	71.262
449.31	70.585
449.66	68.542
450.02	68.858
450.37	69.615
450.72	69.374
451.07	69.409
451.42	69.301
451.77	69.113
452.12	68.938
452.47	68.408
452.83	70.629
453.18	68.643
453.53	71.058
453.88	69.522
454.23	67.484
454.58	70.200
454.93	71.265
455.28	68.766
455.63	68.386
455.98	70.357
456.34	69.095
456.69	70.257
457.04	69.350
457.39	69.667
457.74	68.543
458.09	68.028
458.44	69.042
458.79	66.811
459.14	68.510
459.49	68.184
459.84	68.643
460.19	68.002
460.54	65.972
460.89	67.965
461.24	68.549
461.59	69.494
461.94	67.633
462.29	68.724
462.64	68.156
462.99	65.908
463.34	68.933
463.69	66.417
464.04	67.536
464.39	66.957
464.74	67.142
465.09	67.069
465.44	67.479
465.79	66.834
466.14	67.269
466.49	65.740
466.84	67.717
467.19	67.230
467.54	65.875
467.89	65.366
468.24	67.597
468.59	66.972
468.94	64.447
469.29	65.938
469.64	67.001
469.99	66.847
470.34	66.975
470.68	67.672
471.03	65.578
471.38	68.172
471.73	65.290
472.08	66.711
472.43	64.950
472.78	66.096
473.13	65.148
473.48	64.732
473.83	65.305
474.17	65.090
474.52	66.005
474.87	66.258
475.22	64.597
475.57	64.535
475.92	64.312
476.27	63.811
476.61	64.534
476.96	64.486
477.31	65.411
477.66	63.621
478.01	62.676
478.36	65.680
478.70	63.967
479.05	64.217
479.40	64.227
479.75	63.803
480.10	63.618
480.45	62.637
480.79	64.214
481.14	62.622
481.49	63.740
481.84	62.917
482.19	63.380
482.53	61.927
482.88	62.913
483.23	62.710
483.58	62.602
483.92	63.402
484.27	61.699
484.62	60.948
484.97	60.623
485.31	61.062
485.66	59.562
486.01	59.525
486.36	59.459
486.70	60.761
487.05	61.479
487.40	60.240
487.75	60.487
488.09	61.389
488.44	61.007
488.79	61.049
489.13	61.077
489.48	60.073
489.83	59.560
490.17	60.237
490.52	60.363
490.87	61.058
491.22	60.255
491.56	59.909
491.91	60.168
492.26	58.245
492.60	59.539
492.95	58.887
493.30	59.065
493.64	59.449
493.99	59.610
494.34	59.066
494.68	59.570
495.03	59.258
495.37	58.632
495.72	60.819
496.07	59.211
496.41	57.301
496.76	58.927
497.11	58.667
497.45	59.106
497.80	58.157
498.14	57.826
498.49	57.805
498.84	58.917
499.18	58.667
499.53	58.689
499.87	56.990
500.22	57.419
500.56	59.223
500.91	58.221
501.26	57.563
501.60	58.472
501.95	56.737
502.29	57.685
502.64	58.240
502.98	56.709
503.33	55.987
503.67	57.077
504.02	56.922
504.36	56.996
504.71	57.499
505.06	57.253
505.40	57.365
505.75	55.111
506.09	56.074
506.44	57.326
506.78	56.162
507.13	57.193
507.47	57.424
507.82	56.180
508.16	57.042
508.51	56.824
508.85	56.405
509.19	55.510
509.54	55.816
509.88	56.157
510.23	56.350
510.57	55.986
510.92	54.997
511.26	56.578
511.61	54.616
511.95	55.167
512.30	55.620
512.64	56.206
512.98	54.823
513.33	55.621
513.67	54.909
514.02	53.896
514.36	56.854
514.70	55.064
515.05	55.326
515.39	54.459
515.74	53.885
516.08	55.897
516.42	54.717
516.77	55.295
517.11	54.606
517.46	54.797
517.80	55.517
518.14	53.966
518.49	55.251
518.83	54.205
519.17	53.695
519.52	54.386
519.86	54.592
520.20	55.376
520.55	54.219
520.89	55.049
521.23	54.704
521.58	53.842
521.92	54.256
522.26	54.606
522.61	55.202
522.95	52.732
523.29	53.074
523.64	54.512
523.98	53.235
524.32	53.619
524.66	53.217
525.01	51.961
525.35	53.717
525.69	51.970
526.04	52.773
526.38	52.532
526.72	51.411
527.06	53.421
527.41	50.309
527.75	53.826
528.09	53.757
528.43	51.689
528.78	52.551
529.12	50.788
529.46	53.582
529.80	53.342
530.15	52.025
530.49	50.831
530.83	51.266
531.17	53.590
531.51	53.761
531.86	52.581
532.20	52.412
532.54	52.466
532.88	51.476
533.22	50.281
533.57	50.864
533.91	51.174
534.25	51.276
534.59	51.495
534.93	51.338
535.27	50.573
535.62	51.343
535.96	51.161
536.30	51.621
536.64	51.771
536.98	50.763
537.32	51.942
537.66	50.667
538.01	51.745
538.35	50.162
538.69	51.181
539.03	49.708
539.37	50.224
539.71	49.903
540.05	50.588
540.39	49.103
540.73	49.612
541.07	51.136
541.42	49.967
541.76	50.258
542.10	50.582
542.44	49.801
542.78	50.132
543.12	47.857
543.46	50.557
543.80	50.683
544.14	48.010
544.48	49.778
544.82	49.711
545.16	49.252
545.50	48.907
545.84	48.925
546.18	49.158
546.52	49.828
546.86	49.210
547.20	48.820
547.54	49.165
547.88	49.043
548.22	48.381
548.56	47.799
548.90	48.271
549.24	48.822
549.58	48.499
549.92	48.764
550.26	49.006
550.60	47.510
550.94	49.085
551.28	48.281
551.62	49.676
551.96	48.211
552.30	48.737
552.64	49.358
552.98	48.000
553.32	48.146
553.66	47.376
554.00	48.456
554.34	47.343
554.68	49.356
555.02	47.884
555.36	47.599
555.69	47.226
556.03	48.452
556.37	48.363
556.71	46.180
557.05	46.429
557.39	47.026
557.73	47.565
558.07	48.949
558.41	48.480
558.75	46.730
559.08	48.471
559.42	47.166
559.76	46.765
560.10	45.539
560.44	47.030
560.78	46.041
561.12	47.230
561.45	47.588
561.79	46.012
562.13	46.747
562.47	48.224
562.81	46.932
563.15	45.886
563.48	45.955
563.82	46.510
564.16	46.370
564.50	46.680
564.84	45.891
565.17	46.525
565.51	47.412
565.85	45.749
566.19	44.834
566.52	45.915
566.86	45.389
567.20	46.403
567.54	45.947
567.88	46.388
568.21	46.349
568.55	46.107
568.89	46.255
569.23	44.920
569.56	44.332
569.90	44.981
570.24	45.497
570.57	44.577
570.91	44.279
571.25	44.132
571.59	44.948
571.92	44.470
572.26	44.223
572.60	45.225
572.93	44.258
573.27	44.306
573.61	44.249
573.95	44.910
574.28	44.271
574.62	44.485
574.96	43.560
575.29	43.720
575.63	44.207
575.97	43.556
576.30	43.548
576.64	43.846
576.98	43.632
577.31	43.669
577.65	44.235
577.98	44.009
578.32	43.527
578.66	44.109
578.99	43.164
579.33	43.767
579.67	43.639
580.00	44.282
580.34	44.566
580.67	43.654
581.01	43.512
581.35	43.629
581.68	44.002
582.02	43.712
582.35	44.286
582.69	43.642
583.02	43.879
583.36	44.478
583.70	43.981
584.03	43.966
584.37	43.926
584.70	44.201
585.04	42.931
585.37	43.336
585.71	43.210
586.04	42.812
586.38	44.305
586.72	43.745
587.05	42.842
587.39	43.509
587.72	43.211
588.06	43.650
588.39	43.045
588.73	42.916
589.06	43.347
589.40	42.795
589.73	43.576
590.07	42.847
590.40	43.515
590.73	44.418
591.07	44.567
591.40	43.315
591.74	43.377
592.07	43.368
592.41	44.150
592.74	43.333
593.08	42.672
593.41	43.214
593.75	42.536
594.08	42.642
594.41	43.089
594.75	43.031
595.08	42.233
595.42	43.082
595.75	42.557
596.09	42.997
596.42	42.633
596.75	42.550
597.09	41.948
597.42	41.906
597.75	42.820
598.09	42.739
598.42	42.526
598.76	41.832
599.09	42.417
599.42	41.958
599.76	41.947
600.09	41.639
600.42	41.052
600.76	41.429
601.09	41.421
601.42	42.161
601.76	42.770
602.09	42.727
602.42	42.476
602.76	42.362
603.09	42.329
603.42	42.210
603.76	41.692
604.09	41.722
604.42	42.479
604.76	41.839
605.09	41.721
605.42	41.471
605.75	42.136
606.09	41.643
606.42	41.765
606.75	42.182
607.09	42.193
607.42	42.062
607.75	41.308
608.08	40.990
608.42	41.147
608.75	42.065
609.08	40.287
609.41	41.504
609.75	40.972
610.08	41.753
610.41	40.968
610.74	42.384
611.07	41.947
611.41	42.247
611.74	42.383
612.07	42.961
612.40	42.288
612.73	41.737
613.07	42.134
613.40	42.285
613.73	40.640
614.06	41.290
614.39	41.793
614.72	41.263
615.06	41.544
615.39	40.552
615.72	41.155
616.05	41.308
616.38	41.634
616.71	42.458
617.05	42.933
617.38	41.311
617.71	40.901
618.04	42.248
618.37	42.046
618.70	42.937
619.03	42.039
619.36	41.819
619.69	40.845
620.03	42.170
620.36	40.909
620.69	42.534
621.02	41.593
621.35	42.130
621.68	39.720
622.01	41.486
622.34	42.133
622.67	42.738
623.00	41.306
623.33	40.100
623.66	41.387
623.99	41.753
624.32	40.514
624.65	40.678
624.99	40.722
625.32	41.492
625.65	41.548
625.98	42.198
626.31	41.369
626.64	42.449
626.97	41.147
627.30	41.646
627.63	40.935
627.96	40.622
628.29	41.732
628.62	41.080
628.95	42.453
629.28	39.416
629.61	42.346
629.94	43.810
630.26	40.991
630.59	39.943
630.92	40.517
631.25	41.362
631.58	39.740
631.91	41.684
632.24	40.612
632.57	42.183
632.90	41.228
633.23	40.940
633.56	42.373
633.89	42.016
634.22	40.976
634.55	41.065
634.88	40.000
635.20	42.055
635.53	40.723
635.86	41.584
636.19	39.765
636.52	41.407
636.85	42.039
637.18	40.207
637.51	41.017
637.83	37.485
638.16	41.432
638.49	41.310
638.82	41.972
639.15	41.250
639.48	40.524
639.81	42.627
640.13	42.057
640.46	42.416
640.79	39.234
641.12	40.028
641.45	39.246
641.77	42.710
642.10	42.836
642.43	39.339
642.76	40.712
643.09	42.791
643.41	41.275
643.74	40.278
644.07	40.396
644.40	40.951
644.73	42.677
645.05	41.521
645.38	39.494
645.71	40.902
646.04	42.027
646.36	43.072
646.69	41.973
647.02	40.476
647.35	40.206
647.67	41.770
648.00	39.675
648.33	40.759
648.66	41.212
648.98	39.430
649.31	39.312
649.64	40.508
649.96	39.493
650.29	42.970
650.62	38.997
650.94	39.708
651.27	41.216
651.60	40.932
651.92	42.812
652.25	41.205
652.58	39.408
652.90	39.021
653.23	40.062
653.56	39.685
653.88	40.887
654.21	41.232
654.54	40.759
654.86	40.031
655.19	37.973
655.52	33.891
655.84	34.288
656.17	44.553
656.49	60.153
656.82	61.144
657.15	46.252
657.47	34.513
657.80	26.457
658.13	26.795
658.45	39.476
658.78	39.293
659.10	38.478
659.43	40.095
659.75	40.063
660.08	40.506
660.41	41.899
660.73	40.534
661.06	39.809
661.38	40.000
661.71	42.885
662.03	42.406
662.36	39.165
662.68	40.562
663.01	42.020
663.33	39.490
663.66	39.916
663.98	41.253
664.31	39.076
664.63	37.247
664.96	37.827
665.28	42.418
665.61	38.791
665.93	37.827
666.26	40.365
666.58	41.632
666.91	41.438
667.23	42.247
667.56	39.093
667.88	39.957
668.21	42.644
668.53	40.998
668.86	39.394
669.18	41.791
669.50	40.652
669.83	43.573
670.15	40.222
670.48	40.959
670.80	42.888
671.13	38.641
671.45	41.277
671.77	42.159
672.10	38.078
672.42	40.813
672.75	38.474
673.07	40.845
673.39	41.049
673.72	42.578
674.04	40.000
674.37	41.359
674.69	38.037
675.01	38.494
675.34	43.532
675.66	43.789
675.98	41.548
676.31	42.017
676.63	39.703
676.95	41.300
677.28	41.355
677.60	42.418
677.92	41.772
678.25	42.505
678.57	40.438
678.89	40.281
679.22	40.472
679.54	40.458
679.86	41.651
680.18	40.787
680.51	40.603
680.83	38.968
681.15	40.566
681.48	39.887
681.80	41.973
682.12	41.762
682.44	36.750
682.77	40.530
683.09	42.489
683.41	40.798
683.73	40.177
684.06	39.463
684.38	39.139
684.70	42.442
685.02	42.777
685.34	39.377
685.67	40.210
685.99	38.488
686.31	37.713
686.63	40.459
686.96	40.357
687.28	41.336
687.60	37.138
687.92	40.037
688.24	38.403
688.56	41.566
688.89	42.946
689.21	45.852
689.53	43.215
689.85	43.681
690.17	41.408
690.49	41.826
690.82	42.757
691.14	38.393
691.46	38.397
691.78	41.767
692.10	44.008
692.42	41.118
692.74	37.344
693.06	42.979
693.39	40.862
693.71	43.231
694.03	41.053
694.35	42.857
694.67	38.902
694.99	43.171
695.31	40.931
695.63	40.909
695.95	41.076
696.27	40.609
696.59	44.041
696.91	42.228
697.23	36.854
697.56	40.725
697.88	39.468
698.20	42.083
698.52	41.290
698.84	41.203
699.16	38.249
699.48	41.568
699.80	41.787
700.12	45.714
700.44	43.767
700.76	45.028
701.08	44.253
701.40	39.665
701.72	43.149
702.04	44.602
702.36	38.810
702.68	41.076
703.00	40.720
703.32	39.894
703.64	43.164
703.96	44.011
704.28	41.860
704.60	47.507
704.91	45.401
705.23	42.522
705.55	45.183
705.87	42.857
706.19	41.343
706.51	41.433
706.83	45.758
707.15	44.538
707.47	41.667
707.79	43.243
708.11	43.151
708.43	40.238
708.74	41.071
709.06	43.117
709.38	43.570
709.70	46.802
710.02	43.323
710.34	41.212
710.66	43.881
710.98	42.614
711.29	41.279
711.61	44.838
711.93	41.667
712.25	45.659
712.57	48.897
712.89	42.907
713.20	44.985
713.52	44.079
713.84	43.671
714.16	42.378
714.48	40.230
714.80	48.024
715.11	43.228
715.43	40.059
715.75	41.159
716.07	43.770
716.39	42.633
716.70	43.522
717.02	47.122
717.34	44.170
717.66	47.761
717.97	41.833
718.29	43.704
718.61	41.971
718.93	41.544
719.24	45.329
719.56	41.356
719.88	43.729
720.20	44.257
720.51	44.251
720.83	47.212
721.15	42.910
721.46	41.844
721.78	50.538
722.10	42.642
722.42	49.624
722.73	41.573
723.05	47.541
723.37	42.105
723.68	45.946
724.00	45.935
724.32	45.968
724.63	39.837
724.95	45.188
725.27	53.036
725.58	49.219
725.90	45.255
726.22	44.906
726.53	38.194
726.85	44.710
727.16	44.128
727.48	47.163
727.80	43.939
728.11	42.029
728.43	48.077
728.74	43.011
729.06	47.445
729.38	48.897
729.69	43.060
730.01	40.614
730.32	41.667
730.64	43.813
730.96	41.584
731.27	47.351
731.59	44.037
731.90	41.108
732.22	40.994
732.53	38.700
732.85	39.744
733.16	43.087
733.48	44.518
733.80	45.779
734.11	48.726
734.43	45.266
734.74	39.714
735.06	40.401
735.37	45.954
735.69	42.357
736.00	43.137
736.32	45.171
736.63	43.450
736.95	44.728
737.26	39.456
737.58	42.581
737.89	43.478
738.21	44.027
738.52	43.214
738.83	40.000
739.15	43.462
739.46	43.796
739.78	44.792
740.09	41.846
740.41	43.226
740.72	45.296
741.04	42.222
741.35	40.000
741.66	52.000
741.98	48.113
742.29	49.282
742.61	44.828
742.92	40.724
743.23	44.872
743.55	48.400
743.86	50.439
744.18	49.115
744.49	49.761
744.80	50.235
745.12	51.818
745.43	47.137
745.74	48.649
746.06	52.752
746.37	44.395
746.68	46.154
747.00	49.074
747.31	43.333
747.62	43.363
747.94	43.172
748.25	41.702
748.56	47.577
748.88	44.059
749.19	53.000
749.50	48.372
749.82	41.463
750.13	42.857
750.44	44.161
750.75	45.965
751.07	45.338
751.38	42.509
751.69	41.155
752.01	42.105
752.32	44.404
752.63	43.617
752.94	45.902
753.26	47.600
753.57	41.870
753.88	43.359
754.19	42.857
754.51	41.319
754.82	38.628
755.13	44.151
755.44	43.609
755.75	40.876
756.07	42.553
756.38	43.066
756.69	43.289
757.00	40.120
757.31	37.982
757.63	42.982
757.94	40.483
758.25	39.216
758.56	40.247
758.87	37.366
759.18	41.515
759.50	42.947
759.81	43.302
760.12	40.000
760.43	44.699
760.74	41.848
761.05	42.090
761.36	43.850
761.67	44.602
761.99	39.752
762.30	42.361
762.61	42.748
762.92	43.359
763.23	44.118
763.54	47.600
763.85	42.188
764.16	49.231
764.47	48.289
764.78	44.170
765.10	41.139
765.41	43.363
765.72	42.814
766.03	44.828
766.34	42.333
766.65	49.787
766.96	44.444
767.27	50.254
767.58	51.042
767.89	45.789
768.20	51.724
768.51	47.716
768.82	46.330
769.13	42.683
769.44	43.725
769.75	42.918
770.06	41.284
770.37	48.869
770.68	50.000
770.99	44.889
771.30	42.623
771.61	49.327
771.92	47.131
772.23	51.681
772.54	52.308
772.85	55.497
773.16	51.596
773.47	51.087
773.78	51.777
774.09	47.024
774.39	46.784
774.70	52.469
775.01	58.696
775.32	54.248
775.63	55.263
775.94	47.482
776.25	56.693
776.56	48.507
776.87	57.377
777.18	53.906
777.48	58.015
777.79	57.576
778.10	59.259
778.41	58.929
778.72	50.365
779.03	47.651
779.34	52.349
779.65	54.054
779.95	54.601
780.26	60.784
780.57	54.483
780.88	60.937
781.19	52.632
781.50	54.730
781.80	47.170
782.11	48.588
782.42	44.304
782.73	47.853
783.04	51.351
783.34	60.563
783.65	71.233
783.96	52.985
784.27	49.650
784.57	51.799
784.88	51.852
785.19	61.111
785.50	67.925
785.81	52.239
786.11	62.295
786.42	54.264
786.73	59.292
787.04	64.151
787.34	48.214
787.65	63.000
787.96	63.964
788.26	48.760
788.57	54.237
788.88	58.678
789.19	52.083
789.49	62.121
789.80	58.779
790.11	72.381
790.41	73.267
790.72	75.904
791.03	69.565
791.33	72.093
791.64	58.763
791.95	64.356
792.25	67.778
792.56	67.532
792.87	97.436
793.17	77.215
793.48	75.862
793.79	66.667
794.09	67.045
794.40	62.185
794.70	60.294
795.01	61.481
795.32	51.799
795.62	59.055
795.93	59.483
796.23	55.752
796.54	64.706
796.85	83.784
797.15	74.648
797.46	69.697
797.76	66.265
798.07	73.418
798.37	89.231
798.68	83.333
798.99	61.972
799.29	70.130
799.60	75.000
799.90	79.452
800.21	82.090
800.51	82.759
800.82	89.474
801.12	85.246
801.43	72.727
801.73	62.162
802.04	95.238
802.34	79.012
802.65	85.938
802.95	96.610
803.26	106.250
803.56	67.143
803.87	81.538
804.17	88.235
804.48	101.852
804.78	65.517
805.09	69.118
805.39	71.154
805.70	89.286
806.00	77.049
806.30	75.758
806.61	78.049
806.91	70.886
807.22	80.263
807.52	73.134
807.83	77.465
808.13	95.312
808.43	81.667
808.74	71.053
809.04	88.406
809.35	91.045
809.65	82.895
809.95	95.161
810.26	91.525
810.56	76.190
810.86	97.727
811.17	116.667
811.47	101.667
811.77	90.741
812.08	109.091
812.38	76.000
812.69	158.333
812.99	134.091
813.29	95.918
813.59	80.952
813.90	108.163
814.20	90.909
814.50	87.692
814.81	89.706
815.11	110.204
815.41	90.164
815.72	107.143
816.02	101.818
816.32	100.000
816.62	107.500
816.93	114.634
817.23	128.571
817.53	102.273
817.84	166.667
818.14	104.348
818.44	104.444
818.74	117.647
819.04	105.000
819.35	154.286
819.65	126.471
819.95	175.000
820.25	155.000
820.56	125.641
820.86	120.455
821.16	125.581
821.46	102.564
821.76	110.000
822.07	120.000
822.37	115.000
822.67	130.303
822.97	88.235
823.27	175.000
823.57	135.135
823.88	102.500
824.18	166.667
824.48	130.952
824.78	180.000
825.08	116.667
825.38	127.027
825.69	107.317
825.99	204.167
826.29	96.552
826.59	113.158
826.89	113.158
827.19	152.941
827.49	151.613
827.79	120.455
828.09	122.727
828.39	119.149
828.70	97.959
829.00	114.815
829.30	125.806
829.60	132.500
829.90	260.000
830.20	157.143
830.50	121.739
830.80	204.348
831.10	200.000
831.40	143.333
831.70	143.478
832.00	150.000
832.30	148.148
832.60	225.000
832.90	163.333
833.20	321.429
833.50	154.839
833.80	158.621
834.10	165.625
834.40	165.385
834.70	233.333
835.00	200.000
835.30	154.286
835.60	230.769
835.90	148.276
836.20	207.143
836.50	168.966
836.80	164.000
837.10	136.111
837.40	219.048
837.70	223.529
838.00	151.852
838.30	133.333
838.60	195.238
838.90	165.385
839.19	220.000
839.49	307.143
839.79	260.000
840.09	225.000
840.39	147.619
840.69	178.261
840.99	188.889
841.29	380.000
841.59	275.000
841.88	200.000
842.18	110.345
842.48	176.190
842.78	130.000
843.08	195.652
843.38	134.375
843.68	650.000
843.97	153.846
844.27	141.379
844.57	242.857
844.87	300.000
845.17	200.000
845.47	866.667
845.76	266.667
846.06	270.588
846.36	425.000
846.66	292.857
846.96	243.750
847.25	381.818
847.55	363.636
847.85	186.957
848.15	330.000
848.44	357.143
848.74	216.667
849.04	217.647
849.34	420.000
849.63	168.421
849.93	236.364
850.23	840.000
850.53	285.714
850.82	1800.000
851.12	-3100.000
851.42	2700.000
851.71	245.000
852.01	-766.667
852.31	220.833
852.61	1433.333
852.90	190.476
853.20	152.000
853.50	258.824
853.79	190.476
854.09	154.167
854.39	262.500
854.68	154.054
854.98	145.161
855.28	166.667
855.57	148.276
855.87	170.370
856.17	210.526
856.46	213.333
856.76	217.647
857.05	165.517
857.35	145.833
857.65	246.667
857.94	160.870
858.24	203.846
858.53	200.000
858.83	190.909
859.13	280.000
859.42	0.000
859.72	411.111
860.01	363.636
860.31	145.455
860.60	210.526
860.90	186.957
861.20	422.222
861.49	375.000
861.79	-3400.000
862.08	487.500
862.38	176.190
862.67	238.462
862.97	276.471
863.26	300.000
863.56	222.222
863.85	258.333
864.15	425.000
864.44	293.333
864.74	666.667
865.03	625.000
865.33	178.947
865.62	336.364
865.92	461.538
866.21	291.667
866.51	0.000
866.80	381.818
867.10	660.000
867.39	300.000
867.69	309.091
867.98	226.316
868.27	281.818
868.57	178.947
868.86	-3700.000
869.16	237.500
869.45	1550.000
869.75	-2200.000
870.04	275.000
870.33	442.857
870.63	575.000
870.92	1900.000
871.22	571.429
871.51	258.824
871.80	133.333
872.10	321.429
>>>>>End Processed Spectral Data<<<<<
