SpectraSuite Data File
++++++++++++++++++++++++++++++++++++
Date: Wed May 13 20:35:30 PDT 2015
User: schluterlab
Dark Spectrum Present: Yes
Reference Spectrum Present: Yes
Number of Sampled Component Spectra: 1
Spectrometers: USB2E3373
Integration Time (usec): 3000 (USB2E3373)
Spectra Averaged: 3 (USB2E3373)
Boxcar Smoothing: 0 (USB2E3373)
Correct for Electrical Dark: No (USB2E3373)
Strobe/Lamp Enabled: No (USB2E3373)
Correct for Detector Non-linearity: No (USB2E3373)
Correct for Stray Light: No (USB2E3373)
Number of Pixels in Processed Spectrum: 2048
>>>>>Begin Processed Spectral Data<<<<<
178.53	0.000
178.91	-925.000
179.29	-875.000
179.67	-177.778
180.04	-725.000
180.42	1550.000
180.80	700.000
181.18	-800.000
181.56	571.429
181.94	0.000
182.31	-557.143
182.69	933.333
183.07	-350.000
183.45	-300.000
183.83	409.091
184.20	-370.000
184.58	1700.000
184.96	3800.000
185.34	-800.000
185.72	-350.000
186.09	-1900.000
186.47	2600.000
186.85	1600.000
187.23	3300.000
187.61	-1133.333
187.98	975.000
188.36	418.182
188.74	454.545
189.12	-620.000
189.49	380.000
189.87	-3500.000
190.25	-725.000
190.63	328.571
191.00	253.846
191.38	633.333
191.76	-750.000
192.14	1100.000
192.51	450.000
192.89	733.333
193.27	512.500
193.65	-675.000
194.02	350.000
194.40	640.000
194.78	390.000
195.15	441.667
195.53	460.000
195.91	-1300.000
196.29	250.000
196.66	210.526
197.04	-240.000
197.42	0.000
197.79	360.000
198.17	-2600.000
198.55	557.143
198.92	550.000
199.30	480.000
199.68	0.000
200.05	194.444
200.43	571.429
200.81	3200.000
201.18	1100.000
201.56	-1166.667
201.94	466.667
202.31	444.444
202.69	375.000
203.07	450.000
203.44	0.000
203.82	925.000
204.19	557.143
204.57	335.714
204.95	475.000
205.32	1266.667
205.70	390.909
206.08	271.429
206.45	1450.000
206.83	275.000
207.20	700.000
207.58	500.000
207.96	233.333
208.33	387.500
208.71	-666.667
209.08	585.714
209.46	488.889
209.84	372.727
210.21	-1033.333
210.59	975.000
210.96	-325.000
211.34	1200.000
211.71	380.000
212.09	600.000
212.46	0.000
212.84	1366.667
213.22	1000.000
213.59	-3900.000
213.97	650.000
214.34	528.571
214.72	518.182
215.09	720.000
215.47	-1900.000
215.84	-1900.000
216.22	1100.000
216.59	271.429
216.97	1275.000
217.34	400.000
217.72	-466.667
218.09	0.000
218.47	-3400.000
218.84	411.111
219.22	514.286
219.59	1266.667
219.97	-428.571
220.34	680.000
220.72	-1566.667
221.09	314.286
221.47	1275.000
221.84	-550.000
222.22	0.000
222.59	825.000
222.97	-1400.000
223.34	800.000
223.72	307.692
224.09	620.000
224.46	1500.000
224.84	-4100.000
225.21	-760.000
225.59	-3200.000
225.96	440.000
226.34	245.000
226.71	1850.000
227.08	562.500
227.46	410.000
227.83	-825.000
228.21	-1500.000
228.58	455.556
228.95	-1500.000
229.33	-1350.000
229.70	933.333
230.08	557.143
230.45	-580.000
230.82	375.000
231.20	600.000
231.57	457.143
231.95	375.000
232.32	159.091
232.69	345.455
233.07	414.286
233.44	330.769
233.81	-1233.333
234.19	215.789
234.56	300.000
234.93	250.000
235.31	309.091
235.68	200.000
236.05	228.571
236.43	127.273
236.80	236.842
237.17	3000.000
237.55	161.905
237.92	150.000
238.29	176.190
238.67	106.452
239.04	117.241
239.41	102.778
239.79	73.913
240.16	85.714
240.53	95.455
240.91	72.549
241.28	70.000
241.65	72.000
242.02	66.667
242.40	58.065
242.77	58.333
243.14	64.516
243.51	56.180
243.89	57.647
244.26	40.000
244.63	53.763
245.00	34.043
245.38	39.604
245.75	36.449
246.12	34.862
246.49	48.175
246.87	40.000
247.24	40.769
247.61	36.429
247.98	35.948
248.36	33.784
248.73	29.936
249.10	35.032
249.47	30.508
249.84	34.759
250.22	28.877
250.59	27.811
250.96	32.323
251.33	31.280
251.70	32.178
252.08	29.048
252.45	27.803
252.82	28.261
253.19	24.681
253.56	29.804
253.94	24.896
254.31	26.953
254.68	24.615
255.05	23.247
255.42	22.358
255.79	23.529
256.16	25.271
256.54	19.435
256.91	25.979
257.28	24.101
257.65	20.132
258.02	21.739
258.39	25.237
258.76	17.726
259.14	24.702
259.51	20.973
259.88	22.981
260.25	19.335
260.62	20.809
260.99	21.739
261.36	24.625
261.73	20.057
262.10	21.221
262.47	21.690
262.85	19.220
263.22	21.652
263.59	20.798
263.96	18.132
264.33	19.060
264.70	18.947
265.07	23.529
265.44	20.202
265.81	18.248
266.18	19.849
266.55	17.805
266.92	17.199
267.29	19.444
267.66	19.954
268.03	18.182
268.40	17.757
268.77	18.616
269.14	17.568
269.51	19.413
269.88	20.047
270.25	16.704
270.62	17.079
270.99	20.215
271.36	18.884
271.73	17.757
272.10	18.478
272.47	18.495
272.84	20.130
273.21	19.706
273.58	15.721
273.95	15.094
274.32	18.595
274.69	17.559
275.06	15.354
275.43	20.426
275.80	19.439
276.17	16.701
276.54	18.087
276.91	17.589
277.28	16.992
277.65	18.375
278.02	15.735
278.39	18.164
278.76	16.545
279.13	16.415
279.50	16.946
279.87	18.127
280.23	15.569
280.60	16.441
280.97	17.190
281.34	18.230
281.71	18.545
282.08	17.274
282.45	15.636
282.82	16.696
283.19	17.291
283.56	16.316
283.92	17.936
284.29	15.168
284.66	15.789
285.03	17.541
285.40	13.732
285.77	15.657
286.14	15.026
286.51	16.333
286.87	17.094
287.24	17.101
287.61	16.372
287.98	15.584
288.35	16.799
288.72	14.798
289.08	15.493
289.45	15.486
289.82	14.959
290.19	14.443
290.56	12.711
290.93	13.897
291.29	11.963
291.66	14.159
292.03	17.006
292.40	15.565
292.77	14.053
293.13	16.567
293.50	13.703
293.87	13.185
294.24	13.630
294.60	11.790
294.97	13.663
295.34	14.104
295.71	15.199
296.08	13.675
296.44	13.893
296.81	13.606
297.18	15.447
297.55	10.554
297.91	12.269
298.28	12.985
298.65	14.491
299.02	13.175
299.38	11.023
299.75	11.186
300.12	11.622
300.48	11.875
300.85	13.070
301.22	12.484
301.59	10.859
301.95	13.980
302.32	12.709
302.69	10.992
303.05	11.758
303.42	11.235
303.79	10.872
304.15	10.956
304.52	11.472
304.89	12.195
305.25	10.557
305.62	12.797
305.99	11.334
306.35	11.521
306.72	11.883
307.09	12.320
307.45	14.077
307.82	11.830
308.19	12.031
308.55	12.298
308.92	11.923
309.29	11.510
309.65	12.301
310.02	11.734
310.38	11.505
310.75	12.355
311.12	12.282
311.48	12.121
311.85	12.474
312.22	11.759
312.58	11.642
312.95	12.672
313.31	11.553
313.68	13.202
314.05	13.708
314.41	13.166
314.78	13.192
315.14	13.009
315.51	13.594
315.87	15.248
316.24	13.009
316.61	15.010
316.97	13.209
317.34	13.699
317.70	15.966
318.07	16.169
318.43	15.753
318.80	17.807
319.16	17.326
319.53	16.510
319.89	17.905
320.26	19.500
320.62	19.246
320.99	19.192
321.35	18.283
321.72	20.637
322.08	21.915
322.45	22.687
322.81	22.190
323.18	23.699
323.54	23.006
323.91	24.151
324.27	24.187
324.64	25.722
325.00	24.797
325.37	26.570
325.73	28.366
326.10	28.508
326.46	28.853
326.83	30.544
327.19	31.085
327.56	31.010
327.92	31.759
328.29	32.653
328.65	34.438
329.01	33.213
329.38	34.598
329.74	34.811
330.11	35.627
330.47	37.466
330.84	38.051
331.20	36.066
331.56	37.156
331.93	38.148
332.29	36.291
332.66	39.912
333.02	39.031
333.38	39.837
333.75	39.840
334.11	39.947
334.48	38.953
334.84	41.176
335.20	40.727
335.57	40.254
335.93	39.018
336.29	39.652
336.66	41.569
337.02	39.910
337.38	40.741
337.75	40.285
338.11	42.256
338.47	41.897
338.84	42.255
339.20	41.468
339.56	41.788
339.93	42.727
340.29	41.576
340.65	41.711
341.02	41.885
341.38	43.149
341.74	43.421
342.11	42.271
342.47	43.348
342.83	43.236
343.20	43.203
343.56	41.786
343.92	43.860
344.28	43.282
344.65	42.734
345.01	42.845
345.37	42.281
345.73	42.893
346.10	42.199
346.46	42.203
346.82	43.245
347.19	43.191
347.55	42.939
347.91	43.528
348.27	42.317
348.63	43.645
349.00	41.990
349.36	43.678
349.72	42.502
350.08	42.058
350.45	43.206
350.81	41.186
351.17	41.653
351.53	42.424
351.89	42.822
352.26	43.646
352.62	42.101
352.98	43.355
353.34	42.153
353.70	41.899
354.07	41.855
354.43	41.825
354.79	42.076
355.15	41.341
355.51	44.444
355.87	42.204
356.24	41.450
356.60	41.780
356.96	42.397
357.32	41.864
357.68	43.071
358.04	41.647
358.40	41.647
358.77	42.645
359.13	41.121
359.49	41.725
359.85	40.000
360.21	42.105
360.57	42.257
360.93	41.692
361.29	39.683
361.66	42.105
362.02	41.045
362.38	42.053
362.74	40.848
363.10	41.007
363.46	41.012
363.82	43.235
364.18	41.410
364.54	41.308
364.90	40.439
365.26	42.500
365.62	41.271
365.98	39.956
366.35	39.828
366.71	40.347
367.07	40.277
367.43	42.163
367.79	40.542
368.15	42.098
368.51	40.988
368.87	42.113
369.23	42.429
369.59	42.071
369.95	40.147
370.31	40.741
370.67	40.072
371.03	41.273
371.39	40.379
371.75	40.588
372.11	39.900
372.47	40.469
372.83	40.634
373.19	39.812
373.55	41.390
373.91	41.016
374.27	40.275
374.63	39.782
374.99	40.607
375.35	40.126
375.71	40.713
376.07	40.192
376.42	40.234
376.78	39.231
377.14	39.349
377.50	40.397
377.86	39.428
378.22	39.886
378.58	38.471
378.94	39.346
379.30	38.931
379.66	39.530
380.02	39.189
380.38	38.737
380.74	39.736
381.09	39.792
381.45	39.029
381.81	39.128
382.17	40.064
382.53	39.245
382.89	39.198
383.25	38.837
383.61	39.963
383.97	38.462
384.32	39.426
384.68	37.856
385.04	38.414
385.40	38.328
385.76	39.619
386.12	38.148
386.48	38.829
386.83	39.192
387.19	39.518
387.55	38.652
387.91	38.513
388.27	37.646
388.62	37.431
388.98	38.329
389.34	39.174
389.70	38.259
390.06	39.227
390.42	39.494
390.77	37.913
391.13	37.843
391.49	38.515
391.85	38.511
392.20	37.098
392.56	37.942
392.92	38.081
393.28	37.574
393.64	38.129
393.99	37.202
394.35	38.275
394.71	37.202
395.07	37.383
395.42	37.021
395.78	37.786
396.14	37.554
396.50	38.095
396.85	38.334
397.21	36.436
397.57	36.764
397.92	36.659
398.28	35.930
398.64	36.440
399.00	36.877
399.35	36.548
399.71	36.400
400.07	36.192
400.42	36.012
400.78	36.610
401.14	36.585
401.49	37.254
401.85	37.205
402.21	36.048
402.57	35.410
402.92	36.003
403.28	36.665
403.63	35.272
403.99	35.924
404.35	36.485
404.70	35.731
405.06	34.653
405.42	35.496
405.77	36.000
406.13	34.876
406.49	35.955
406.84	34.259
407.20	33.688
407.55	35.227
407.91	35.200
408.27	35.865
408.62	34.678
408.98	34.314
409.34	34.932
409.69	35.871
410.05	35.130
410.40	33.272
410.76	34.110
411.11	33.896
411.47	34.760
411.83	34.637
412.18	34.508
412.54	33.811
412.89	34.699
413.25	33.884
413.60	34.033
413.96	33.030
414.31	33.961
414.67	34.347
415.03	34.305
415.38	34.729
415.74	34.534
416.09	34.879
416.45	33.802
416.80	33.576
417.16	34.853
417.51	34.705
417.87	32.113
418.22	34.132
418.58	33.118
418.93	34.582
419.29	33.609
419.64	32.997
420.00	32.927
420.35	33.623
420.71	33.353
421.06	31.981
421.42	32.398
421.77	33.352
422.12	32.454
422.48	31.247
422.83	32.149
423.19	32.928
423.54	33.024
423.90	32.638
424.25	31.491
424.61	32.857
424.96	33.878
425.31	32.226
425.67	31.517
426.02	31.143
426.38	33.394
426.73	32.241
427.09	32.097
427.44	32.892
427.79	32.777
428.15	31.905
428.50	32.475
428.85	33.075
429.21	32.192
429.56	31.623
429.92	30.951
430.27	31.033
430.62	31.132
430.98	31.655
431.33	31.340
431.68	31.990
432.04	31.736
432.39	32.210
432.74	31.957
433.10	31.692
433.45	31.370
433.80	31.430
434.16	31.036
434.51	32.368
434.86	31.813
435.22	30.906
435.57	31.368
435.92	31.071
436.28	31.317
436.63	31.402
436.98	30.967
437.34	31.366
437.69	30.980
438.04	32.040
438.39	31.284
438.75	32.365
439.10	31.173
439.45	31.582
439.81	30.937
440.16	31.169
440.51	31.869
440.86	30.400
441.22	30.534
441.57	30.414
441.92	31.269
442.27	30.678
442.63	30.174
442.98	31.437
443.33	30.380
443.68	30.976
444.03	30.503
444.39	30.282
444.74	30.736
445.09	31.267
445.44	30.399
445.79	30.777
446.15	30.228
446.50	30.695
446.85	29.959
447.20	30.597
447.55	30.709
447.91	30.061
448.26	30.217
448.61	31.939
448.96	29.845
449.31	31.046
449.66	30.445
450.02	29.526
450.37	29.989
450.72	29.611
451.07	29.433
451.42	29.544
451.77	29.771
452.12	29.619
452.47	30.348
452.83	30.012
453.18	30.012
453.53	30.118
453.88	29.711
454.23	30.126
454.58	30.951
454.93	31.405
455.28	30.362
455.63	29.672
455.98	30.298
456.34	29.460
456.69	30.307
457.04	29.721
457.39	28.697
457.74	30.238
458.09	29.327
458.44	29.361
458.79	28.254
459.14	29.345
459.49	30.239
459.84	29.363
460.19	28.757
460.54	28.356
460.89	29.183
461.24	29.569
461.59	29.402
461.94	28.730
462.29	29.555
462.64	29.611
462.99	27.521
463.34	29.867
463.69	28.330
464.04	29.507
464.39	29.275
464.74	28.936
465.09	28.227
465.44	27.922
465.79	27.908
466.14	28.462
466.49	28.087
466.84	28.430
467.19	29.149
467.54	28.812
467.89	27.791
468.24	29.145
468.59	28.022
468.94	27.978
469.29	29.242
469.64	29.317
469.99	28.890
470.34	28.534
470.68	28.305
471.03	28.095
471.38	28.978
471.73	28.448
472.08	29.868
472.43	28.015
472.78	27.584
473.13	27.792
473.48	27.216
473.83	28.293
474.17	27.131
474.52	27.792
474.87	29.130
475.22	28.265
475.57	27.942
475.92	27.403
476.27	27.452
476.61	27.910
476.96	28.367
477.31	28.048
477.66	27.188
478.01	26.660
478.36	27.604
478.70	26.791
479.05	27.583
479.40	26.970
479.75	26.792
480.10	26.491
480.45	26.606
480.79	26.087
481.14	27.006
481.49	26.626
481.84	26.520
482.19	26.533
482.53	26.560
482.88	27.036
483.23	27.383
483.58	26.433
483.92	26.242
484.27	25.664
484.62	25.948
484.97	26.015
485.31	25.479
485.66	23.894
486.01	23.397
486.36	23.429
486.70	23.755
487.05	24.515
487.40	24.719
487.75	24.617
488.09	25.447
488.44	24.850
488.79	26.112
489.13	25.898
489.48	25.326
489.83	25.550
490.17	26.173
490.52	26.041
490.87	25.645
491.22	25.330
491.56	26.150
491.91	25.966
492.26	25.172
492.60	26.129
492.95	25.538
493.30	25.794
493.64	25.432
493.99	24.745
494.34	25.532
494.68	25.183
495.03	26.081
495.37	25.174
495.72	26.023
496.07	25.197
496.41	24.735
496.76	25.550
497.11	25.079
497.45	25.198
497.80	25.192
498.14	25.121
498.49	25.902
498.84	25.407
499.18	25.429
499.53	25.071
499.87	25.582
500.22	25.530
500.56	25.534
500.91	24.663
501.26	24.893
501.60	25.534
501.95	24.840
502.29	25.351
502.64	25.279
502.98	25.292
503.33	24.269
503.67	25.336
504.02	25.070
504.36	25.082
504.71	25.647
505.06	24.819
505.40	24.842
505.75	24.204
506.09	24.538
506.44	24.322
506.78	25.231
507.13	24.987
507.47	25.051
507.82	25.076
508.16	25.127
508.51	24.404
508.85	25.025
509.19	24.745
509.54	24.949
509.88	24.833
510.23	24.576
510.57	26.316
510.92	24.754
511.26	25.283
511.61	25.830
511.95	24.426
512.30	23.966
512.64	24.825
512.98	25.241
513.33	25.482
513.67	24.653
514.02	24.892
514.36	24.522
514.70	25.235
515.05	25.209
515.39	24.902
515.74	24.944
516.08	25.042
516.42	25.416
516.77	25.139
517.11	24.084
517.46	25.564
517.80	25.668
518.14	24.667
518.49	25.379
518.83	25.000
519.17	25.000
519.52	25.467
519.86	23.902
520.20	25.491
520.55	25.015
520.89	24.878
521.23	25.633
521.58	24.610
521.92	26.026
522.26	24.588
522.61	25.296
522.95	24.800
523.29	24.893
523.64	25.000
523.98	25.139
524.32	24.427
524.66	25.436
525.01	24.387
525.35	24.226
525.69	24.384
526.04	25.171
526.38	24.100
526.72	23.804
527.06	24.105
527.41	23.577
527.75	25.852
528.09	24.663
528.43	24.857
528.78	24.954
529.12	23.455
529.46	23.882
529.80	24.319
530.15	25.670
530.49	23.631
530.83	24.304
531.17	23.695
531.51	24.319
531.86	24.903
532.20	24.707
532.54	24.087
532.88	24.840
533.22	23.485
533.57	24.383
533.91	23.961
534.25	23.998
534.59	23.856
534.93	23.617
535.27	23.899
535.62	23.810
535.96	23.540
536.30	24.031
536.64	24.404
536.98	24.353
537.32	24.687
537.66	24.267
538.01	23.700
538.35	24.370
538.69	23.995
539.03	23.587
539.37	23.131
539.71	22.100
540.05	23.987
540.39	23.522
540.73	23.027
541.07	24.010
541.42	24.658
541.76	24.323
542.10	23.803
542.44	23.377
542.78	24.572
543.12	22.521
543.46	24.393
543.80	23.617
544.14	23.235
544.48	24.381
544.82	23.541
545.16	23.227
545.50	23.779
545.84	24.462
546.18	23.704
546.52	23.675
546.86	23.780
547.20	24.005
547.54	23.313
547.88	23.469
548.22	22.976
548.56	23.522
548.90	21.703
549.24	22.761
549.58	23.738
549.92	24.038
550.26	24.645
550.60	23.167
550.94	22.324
551.28	22.604
551.62	22.574
551.96	22.386
552.30	22.799
552.64	23.191
552.98	23.119
553.32	23.061
553.66	22.359
554.00	24.228
554.34	22.981
554.68	23.534
555.02	23.484
555.36	22.965
555.69	22.869
556.03	22.476
556.37	22.988
556.71	21.419
557.05	22.269
557.39	22.673
557.73	22.865
558.07	23.713
558.41	23.300
558.75	22.777
559.08	23.192
559.42	21.995
559.76	23.456
560.10	22.198
560.44	23.410
560.78	21.956
561.12	22.164
561.45	22.751
561.79	22.413
562.13	22.736
562.47	22.404
562.81	22.106
563.15	21.070
563.48	22.149
563.82	23.027
564.16	22.237
564.50	21.354
564.84	20.480
565.17	22.008
565.51	21.853
565.85	21.954
566.19	21.853
566.52	21.596
566.86	21.157
567.20	21.698
567.54	20.890
567.88	20.750
568.21	22.222
568.55	20.829
568.89	19.844
569.23	20.143
569.56	19.393
569.90	19.321
570.24	19.376
570.57	19.075
570.91	17.873
571.25	19.055
571.59	18.999
571.92	18.577
572.26	18.660
572.60	18.889
572.93	18.441
573.27	18.338
573.61	18.230
573.95	18.475
574.28	18.241
574.62	17.833
574.96	17.754
575.29	18.016
575.63	17.785
575.97	18.250
576.30	18.003
576.64	17.918
576.98	17.696
577.31	17.398
577.65	17.264
577.98	17.853
578.32	17.117
578.66	17.673
578.99	17.759
579.33	17.647
579.67	17.295
580.00	17.957
580.34	17.632
580.67	17.632
581.01	17.810
581.35	16.977
581.68	17.500
582.02	17.054
582.35	17.288
582.69	17.112
583.02	17.682
583.36	17.731
583.70	17.682
584.03	17.712
584.37	18.366
584.70	17.372
585.04	17.295
585.37	17.451
585.71	17.881
586.04	17.057
586.38	17.372
586.72	18.199
587.05	17.522
587.39	17.546
587.72	17.238
588.06	17.556
588.39	17.888
588.73	17.835
589.06	17.950
589.40	17.980
589.73	18.092
590.07	18.007
590.40	17.537
590.73	19.009
591.07	19.373
591.40	18.937
591.74	18.745
592.07	19.066
592.41	18.355
592.74	17.678
593.08	17.655
593.41	17.589
593.75	17.083
594.08	18.203
594.41	17.957
594.75	18.115
595.08	18.039
595.42	18.179
595.75	17.949
596.09	18.213
596.42	18.389
596.75	18.573
597.09	19.091
597.42	18.718
597.75	17.982
598.09	18.696
598.42	17.869
598.76	18.119
599.09	17.256
599.42	17.322
599.76	17.972
600.09	17.486
600.42	17.896
600.76	17.679
601.09	17.413
601.42	18.151
601.76	17.495
602.09	17.905
602.42	17.914
602.76	18.259
603.09	17.349
603.42	17.806
603.76	17.873
604.09	17.681
604.42	18.019
604.76	18.684
605.09	17.912
605.42	18.042
605.75	17.881
606.09	17.568
606.42	18.063
606.75	17.669
607.09	17.455
607.42	17.287
607.75	17.511
608.08	18.020
608.42	17.840
608.75	18.124
609.08	17.761
609.41	18.134
609.75	18.628
610.08	17.672
610.41	17.831
610.74	17.644
611.07	18.231
611.41	18.646
611.74	18.602
612.07	18.685
612.40	19.045
612.73	18.105
613.07	18.534
613.40	18.747
613.73	17.829
614.06	18.548
614.39	18.511
614.72	18.316
615.06	19.013
615.39	17.304
615.72	18.661
616.05	17.597
616.38	18.899
616.71	18.943
617.05	19.317
617.38	18.160
617.71	17.658
618.04	19.952
618.37	18.510
618.70	18.482
619.03	19.803
619.36	19.756
619.69	19.577
620.03	19.299
620.36	19.452
620.69	20.068
621.02	20.428
621.35	19.107
621.68	19.159
622.01	18.963
622.34	18.911
622.67	18.935
623.00	19.222
623.33	19.014
623.66	19.014
623.99	18.041
624.32	19.330
624.65	18.927
624.99	18.555
625.32	18.899
625.65	19.910
625.98	20.215
626.31	20.451
626.64	20.408
626.97	20.366
627.30	19.618
627.63	20.016
627.96	20.690
628.29	19.423
628.62	20.037
628.95	21.415
629.28	20.073
629.61	21.357
629.94	21.429
630.26	20.591
630.59	19.638
630.92	19.732
631.25	20.138
631.58	21.021
631.91	20.588
632.24	20.675
632.57	21.721
632.90	20.724
633.23	20.358
633.56	22.486
633.89	21.065
634.22	21.112
634.55	22.722
634.88	20.958
635.20	21.744
635.53	21.084
635.86	22.153
636.19	19.765
636.52	22.491
636.85	21.191
637.18	20.507
637.51	22.340
637.83	19.359
638.16	23.018
638.49	21.159
638.82	22.124
639.15	21.750
639.48	21.571
639.81	23.324
640.13	23.047
640.46	21.879
640.79	20.872
641.12	21.045
641.45	22.067
641.77	21.355
642.10	21.930
642.43	22.072
642.76	21.981
643.09	23.620
643.41	21.396
643.74	22.840
644.07	20.884
644.40	23.620
644.73	24.252
645.05	24.723
645.38	22.749
645.71	21.900
646.04	23.090
646.36	26.711
646.69	25.251
647.02	24.150
647.35	23.024
647.67	23.009
648.00	25.041
648.33	22.937
648.66	21.212
648.98	23.988
649.31	21.824
649.64	21.824
649.96	23.249
650.29	22.907
650.62	22.492
650.94	24.473
651.27	25.507
651.60	21.298
651.92	23.323
652.25	21.173
652.58	21.963
652.90	23.697
653.23	22.650
653.56	21.890
653.88	23.772
654.21	24.487
654.54	21.617
654.86	22.741
655.19	20.405
655.52	14.465
655.84	12.379
656.17	15.284
656.49	20.993
656.82	21.304
657.15	16.604
657.47	12.483
657.80	9.551
658.13	9.754
658.45	14.571
658.78	14.452
659.10	15.301
659.43	15.793
659.75	16.704
660.08	16.962
660.41	20.484
660.73	21.474
661.06	21.497
661.38	23.273
661.71	24.808
662.03	25.641
662.36	23.260
662.68	23.092
663.01	24.040
663.33	24.204
663.66	22.899
663.98	23.758
664.31	20.378
664.63	22.470
664.96	22.535
665.28	22.541
665.61	25.146
665.93	23.340
666.26	24.341
666.58	23.431
666.91	24.313
667.23	25.393
667.56	22.678
667.88	24.359
668.21	25.373
668.53	21.475
668.86	22.511
669.18	23.241
669.50	25.870
669.83	27.451
670.15	24.444
670.48	22.004
670.80	23.276
671.13	24.204
671.45	22.340
671.77	25.255
672.10	21.811
672.42	21.908
672.75	22.886
673.07	22.535
673.39	21.700
673.72	20.898
674.04	22.157
674.37	24.854
674.69	24.744
675.01	22.594
675.34	25.257
675.66	25.053
675.98	24.033
676.31	27.311
676.63	24.204
676.95	24.109
677.28	24.766
677.60	25.275
677.92	27.004
678.25	24.641
678.57	24.502
678.89	23.447
679.22	20.432
679.54	22.901
679.86	24.404
680.18	22.898
680.51	22.163
680.83	22.064
681.15	24.528
681.48	24.575
681.80	21.083
682.12	22.222
682.44	18.375
682.77	23.422
683.09	23.176
683.41	24.834
683.73	24.283
684.06	23.967
684.38	21.526
684.70	23.256
685.02	22.702
685.34	23.993
685.67	18.706
685.99	20.619
686.31	20.137
686.63	16.784
686.96	21.607
687.28	20.939
687.60	18.659
687.92	23.583
688.24	21.863
688.56	24.498
688.89	23.859
689.21	26.856
689.53	22.547
689.85	24.390
690.17	20.911
690.49	25.478
690.82	21.495
691.14	19.866
691.46	20.886
691.78	23.896
692.10	20.868
692.42	22.355
692.74	20.539
693.06	22.766
693.39	21.355
693.71	24.454
694.03	22.526
694.35	22.727
694.67	24.485
694.99	26.341
695.31	21.078
695.63	22.488
695.95	23.716
696.27	19.797
696.59	23.057
696.91	24.870
697.23	21.596
697.56	22.814
697.88	21.472
698.20	21.875
698.52	21.720
698.84	20.935
699.16	22.811
699.48	23.278
699.80	21.981
700.12	27.532
700.44	25.995
700.76	24.862
701.08	26.149
701.40	25.140
701.72	27.405
702.04	27.841
702.36	24.079
702.68	23.229
703.00	22.992
703.32	21.543
703.64	22.520
703.96	27.019
704.28	25.000
704.60	27.859
704.91	25.816
705.23	24.340
705.55	24.585
705.87	27.907
706.19	30.742
706.51	28.660
706.83	29.394
707.15	28.852
707.47	21.970
707.79	25.061
708.11	23.744
708.43	21.905
708.74	24.490
709.06	22.597
709.38	24.409
709.70	26.453
710.02	26.706
710.34	24.242
710.66	26.269
710.98	25.852
711.29	24.419
711.61	28.024
711.93	25.641
712.25	30.225
712.57	27.941
712.89	28.720
713.20	26.444
713.52	29.276
713.84	26.266
714.16	23.171
714.48	25.287
714.80	27.052
715.11	25.072
715.43	21.958
715.75	25.797
716.07	24.601
716.39	26.646
716.70	28.571
717.02	27.698
717.34	26.855
717.66	33.582
717.97	34.661
718.29	28.519
718.61	27.372
718.93	29.412
719.24	26.298
719.56	25.763
719.88	25.085
720.20	28.041
720.51	25.784
720.83	28.996
721.15	27.985
721.46	25.887
721.78	27.599
722.10	25.283
722.42	29.699
722.73	29.213
723.05	30.328
723.37	25.911
723.68	27.413
724.00	29.268
724.32	30.242
724.63	26.016
724.95	28.033
725.27	27.935
725.58	29.297
725.90	28.832
726.22	27.925
726.53	28.819
726.85	30.034
727.16	29.181
727.48	25.887
727.80	26.894
728.11	30.435
728.43	26.538
728.74	23.297
729.06	30.292
729.38	31.250
729.69	25.979
730.01	21.160
730.32	21.528
730.64	25.084
730.96	23.102
731.27	25.497
731.59	28.135
731.90	24.781
732.22	24.534
732.53	26.006
732.85	24.038
733.16	24.437
733.48	27.243
733.80	25.649
734.11	29.299
734.43	26.627
734.74	22.857
735.06	22.636
735.37	26.590
735.69	22.611
736.00	27.778
736.32	27.726
736.63	28.115
736.95	27.796
737.26	19.388
737.58	20.645
737.89	26.421
738.21	26.280
738.52	25.357
738.83	27.547
739.15	26.538
739.46	26.277
739.78	27.083
740.09	25.846
740.41	27.742
740.72	24.042
741.04	27.407
741.35	22.500
741.66	31.111
741.98	22.170
742.29	24.880
742.61	34.483
742.92	23.982
743.23	26.496
743.55	28.400
743.86	25.877
744.18	29.646
744.49	32.536
744.80	34.272
745.12	39.091
745.43	30.837
745.74	33.333
746.06	32.569
746.37	30.942
746.68	30.769
747.00	36.111
747.31	28.095
747.62	26.106
747.94	26.872
748.25	30.213
748.56	29.075
748.88	26.238
749.19	37.500
749.50	31.163
749.82	26.016
750.13	24.898
750.44	31.022
750.75	24.561
751.07	29.260
751.38	23.345
751.69	30.325
752.01	30.451
752.32	25.993
752.63	28.369
752.94	28.689
753.26	33.200
753.57	26.829
753.88	27.734
754.19	25.000
754.51	26.389
754.82	22.744
755.13	26.792
755.44	25.188
755.75	23.358
756.07	30.142
756.38	22.628
756.69	26.174
757.00	22.754
757.31	21.365
757.63	21.637
757.94	22.520
758.25	21.814
758.56	22.716
758.87	23.925
759.18	24.242
759.50	22.257
759.81	23.676
760.12	21.250
760.43	23.209
760.74	22.826
761.05	24.294
761.36	22.193
761.67	26.705
761.99	24.534
762.30	26.389
762.61	28.626
762.92	30.469
763.23	25.630
763.54	31.200
763.85	25.391
764.16	28.077
764.47	27.376
764.78	23.322
765.10	19.937
765.41	23.894
765.72	23.054
766.03	24.451
766.34	21.000
766.65	31.064
766.96	25.641
767.27	31.472
767.58	30.208
767.89	38.947
768.20	39.080
768.51	29.949
768.82	33.945
769.13	24.390
769.44	25.101
769.75	24.034
770.06	20.642
770.37	30.317
770.68	31.019
770.99	32.444
771.30	23.770
771.61	30.493
771.92	31.148
772.23	31.933
772.54	25.641
772.85	31.937
773.16	34.574
773.47	30.978
773.78	36.548
774.09	29.167
774.39	35.088
774.70	35.185
775.01	42.029
775.32	38.562
775.63	38.816
775.94	43.165
776.25	40.157
776.56	38.060
776.87	44.262
777.18	40.625
777.48	45.802
777.79	39.394
778.10	45.185
778.41	39.286
778.72	36.496
779.03	36.913
779.34	36.913
779.65	33.108
779.95	34.356
780.26	42.484
780.57	37.241
780.88	42.187
781.19	39.850
781.50	35.135
781.80	30.818
782.11	32.203
782.42	29.114
782.73	32.515
783.04	39.865
783.34	39.437
783.65	41.781
783.96	41.791
784.27	34.965
784.57	32.374
784.88	37.963
785.19	44.444
785.50	34.906
785.81	45.522
786.11	43.443
786.42	38.760
786.73	46.018
787.04	44.340
787.34	48.214
787.65	43.000
787.96	36.937
788.26	31.405
788.57	53.390
788.88	42.149
789.19	48.611
789.49	46.970
789.80	37.405
790.11	55.238
790.41	48.515
790.72	43.373
791.03	59.783
791.33	58.140
791.64	48.454
791.95	51.485
792.25	66.667
792.56	49.351
792.87	65.385
793.17	64.557
793.48	59.770
793.79	50.575
794.09	56.818
794.40	42.857
794.70	44.118
795.01	33.333
795.32	34.532
795.62	44.882
795.93	34.483
796.23	43.363
796.54	42.353
796.85	60.811
797.15	80.282
797.46	59.091
797.76	62.651
798.07	68.354
798.37	56.923
798.68	63.636
798.99	50.704
799.29	51.948
799.60	50.000
799.90	58.904
800.21	55.224
800.51	65.517
800.82	103.509
801.12	70.492
801.43	54.545
801.73	59.459
802.04	63.492
802.34	67.901
802.65	70.312
802.95	61.017
803.26	84.375
803.56	47.143
803.87	66.154
804.17	66.176
804.48	81.481
804.78	68.966
805.09	79.412
805.39	92.308
805.70	78.571
806.00	73.770
806.30	57.576
806.61	60.976
806.91	55.696
807.22	48.684
807.52	41.791
807.83	54.930
808.13	57.813
808.43	55.000
808.74	60.526
809.04	60.870
809.35	64.179
809.65	67.105
809.95	82.258
810.26	66.102
810.56	74.603
810.86	118.182
811.17	92.857
811.47	93.333
811.77	61.111
812.08	70.909
812.38	82.000
812.69	100.000
812.99	97.727
813.29	93.878
813.59	83.333
813.90	95.918
814.20	78.182
814.50	69.231
814.81	97.059
815.11	85.714
815.41	78.689
815.72	100.000
816.02	83.636
816.32	100.000
816.62	77.500
816.93	109.756
817.23	123.810
817.53	93.182
817.84	136.364
818.14	104.348
818.44	86.667
818.74	117.647
819.04	95.000
819.35	114.286
819.65	141.176
819.95	114.286
820.25	155.000
820.56	107.692
820.86	100.000
821.16	86.047
821.46	89.744
821.76	96.000
822.07	114.286
822.37	107.500
822.67	112.121
822.97	82.353
823.27	150.000
823.57	94.595
823.88	110.000
824.18	113.333
824.48	100.000
824.78	148.000
825.08	137.500
825.38	110.811
825.69	97.561
825.99	162.500
826.29	113.793
826.59	121.053
826.89	76.316
827.19	147.059
827.49	119.355
827.79	104.545
828.09	115.909
828.39	93.617
828.70	95.918
829.00	77.778
829.30	135.484
829.60	95.000
829.90	200.000
830.20	125.000
830.50	156.522
830.80	139.130
831.10	150.000
831.40	146.667
831.70	113.043
832.00	184.615
832.30	122.222
832.60	237.500
832.90	130.000
833.20	285.714
833.50	151.613
833.80	165.517
834.10	146.875
834.40	161.538
834.70	161.111
835.00	242.857
835.30	108.571
835.60	215.385
835.90	113.793
836.20	257.143
836.50	148.276
836.80	136.000
837.10	136.111
837.40	200.000
837.70	258.824
838.00	133.333
838.30	180.952
838.60	223.810
838.90	180.769
839.19	170.000
839.49	257.143
839.79	270.000
840.09	165.000
840.39	161.905
840.69	221.739
840.99	194.444
841.29	340.000
841.59	216.667
841.88	293.750
842.18	165.517
842.48	185.714
842.78	143.333
843.08	186.957
843.38	112.500
843.68	616.667
843.97	173.077
844.27	120.690
844.57	200.000
844.87	237.500
845.17	140.741
845.47	866.667
845.76	300.000
846.06	235.294
846.36	425.000
846.66	264.286
846.96	212.500
847.25	272.727
847.55	290.909
847.85	182.609
848.15	320.000
848.44	250.000
848.74	183.333
849.04	247.059
849.34	390.000
849.63	173.684
849.93	327.273
850.23	680.000
850.53	357.143
850.82	1450.000
851.12	-1700.000
851.42	2500.000
851.71	220.000
852.01	-1000.000
852.31	212.500
852.61	1233.333
852.90	223.810
853.20	164.000
853.50	235.294
853.79	195.238
854.09	166.667
854.39	225.000
854.68	143.243
854.98	132.258
855.28	130.000
855.57	179.310
855.87	122.222
856.17	221.053
856.46	180.000
856.76	229.412
857.05	134.483
857.35	141.667
857.65	220.000
857.94	169.565
858.24	200.000
858.53	265.000
858.83	163.636
859.13	226.667
859.42	0.000
859.72	400.000
860.01	409.091
860.31	181.818
860.60	215.789
860.90	191.304
861.20	411.111
861.49	400.000
861.79	-3300.000
862.08	425.000
862.38	185.714
862.67	192.308
862.97	270.588
863.26	344.444
863.56	172.222
863.85	308.333
864.15	400.000
864.44	280.000
864.74	466.667
865.03	425.000
865.33	184.211
865.62	263.636
865.92	246.154
866.21	250.000
866.51	0.000
866.80	281.818
867.10	920.000
867.39	300.000
867.69	327.273
867.98	221.053
868.27	381.818
868.57	200.000
868.86	-2600.000
869.16	268.750
869.45	1050.000
869.75	-2500.000
870.04	383.333
870.33	414.286
870.63	525.000
870.92	2000.000
871.22	471.429
871.51	270.588
871.80	133.333
872.10	250.000
>>>>>End Processed Spectral Data<<<<<
