SpectraSuite Data File
++++++++++++++++++++++++++++++++++++
Date: Wed May 13 20:30:36 PDT 2015
User: schluterlab
Dark Spectrum Present: Yes
Reference Spectrum Present: Yes
Number of Sampled Component Spectra: 1
Spectrometers: USB2E3373
Integration Time (usec): 3000 (USB2E3373)
Spectra Averaged: 3 (USB2E3373)
Boxcar Smoothing: 0 (USB2E3373)
Correct for Electrical Dark: No (USB2E3373)
Strobe/Lamp Enabled: No (USB2E3373)
Correct for Detector Non-linearity: No (USB2E3373)
Correct for Stray Light: No (USB2E3373)
Number of Pixels in Processed Spectrum: 2048
>>>>>Begin Processed Spectral Data<<<<<
178.53	0.000
178.91	-875.000
179.29	-1075.000
179.67	-166.667
180.04	-1100.000
180.42	2100.000
180.80	820.000
181.18	-725.000
181.56	642.857
181.94	0.000
182.31	-514.286
182.69	1466.667
183.07	-312.500
183.45	-433.333
183.83	409.091
184.20	-260.000
184.58	1700.000
184.96	2900.000
185.34	-780.000
185.72	-500.000
186.09	-2300.000
186.47	1850.000
186.85	1950.000
187.23	3600.000
187.61	-1266.667
187.98	1175.000
188.36	300.000
188.74	336.364
189.12	-580.000
189.49	440.000
189.87	-4000.000
190.25	-875.000
190.63	371.429
191.00	353.846
191.38	650.000
191.76	-1050.000
192.14	1175.000
192.51	412.500
192.89	716.667
193.27	450.000
193.65	-800.000
194.02	470.000
194.40	480.000
194.78	470.000
195.15	450.000
195.53	490.000
195.91	-1500.000
196.29	275.000
196.66	300.000
197.04	-270.000
197.42	0.000
197.79	470.000
198.17	-3000.000
198.55	414.286
198.92	525.000
199.30	680.000
199.68	0.000
200.05	316.667
200.43	514.286
200.81	4100.000
201.18	1366.667
201.56	-1066.667
201.94	366.667
202.31	500.000
202.69	375.000
203.07	360.000
203.44	0.000
203.82	750.000
204.19	714.286
204.57	342.857
204.95	400.000
205.32	1100.000
205.70	418.182
206.08	307.143
206.45	2400.000
206.83	262.500
207.20	583.333
207.58	620.000
207.96	233.333
208.33	550.000
208.71	-616.667
209.08	642.857
209.46	433.333
209.84	409.091
210.21	-1200.000
210.59	1050.000
210.96	-425.000
211.34	1950.000
211.71	500.000
212.09	683.333
212.46	0.000
212.84	1166.667
213.22	1025.000
213.59	-3000.000
213.97	516.667
214.34	700.000
214.72	463.636
215.09	800.000
215.47	-1500.000
215.84	-2050.000
216.22	1100.000
216.59	321.429
216.97	875.000
217.34	463.636
217.72	-633.333
218.09	0.000
218.47	-2700.000
218.84	544.444
219.22	657.143
219.59	1366.667
219.97	-357.143
220.34	700.000
220.72	-1600.000
221.09	285.714
221.47	1225.000
221.84	-650.000
222.22	0.000
222.59	1250.000
222.97	-1950.000
223.34	780.000
223.72	415.385
224.09	740.000
224.46	1350.000
224.84	-4300.000
225.21	-780.000
225.59	-3900.000
225.96	500.000
226.34	220.000
226.71	1650.000
227.08	525.000
227.46	410.000
227.83	-750.000
228.21	-1400.000
228.58	355.556
228.95	-1750.000
229.33	-1900.000
229.70	1266.667
230.08	700.000
230.45	-720.000
230.82	333.333
231.20	616.667
231.57	500.000
231.95	325.000
232.32	181.818
232.69	345.455
233.07	442.857
233.44	284.615
233.81	-1400.000
234.19	289.474
234.56	333.333
234.93	216.667
235.31	436.364
235.68	223.077
236.05	278.571
236.43	118.182
236.80	210.526
237.17	3100.000
237.55	204.762
237.92	178.571
238.29	176.190
238.67	145.161
239.04	213.793
239.41	100.000
239.79	80.435
240.16	133.333
240.53	118.182
240.91	86.275
241.28	86.000
241.65	82.000
242.02	75.362
242.40	66.129
242.77	66.667
243.14	68.817
243.51	75.281
243.89	67.059
244.26	63.333
244.63	60.215
245.00	45.745
245.38	56.436
245.75	52.336
246.12	44.037
246.49	51.825
246.87	49.600
247.24	46.154
247.61	46.429
247.98	47.712
248.36	31.757
248.73	38.854
249.10	42.675
249.47	39.548
249.84	44.920
250.22	33.155
250.59	39.053
250.96	37.374
251.33	37.441
251.70	44.554
252.08	35.714
252.45	31.839
252.82	36.957
253.19	36.596
253.56	36.863
253.94	36.929
254.31	32.812
254.68	33.462
255.05	35.793
255.42	27.236
255.79	33.824
256.16	31.769
256.54	32.509
256.91	32.740
257.28	26.978
257.65	33.333
258.02	30.435
258.39	29.338
258.76	31.104
259.14	28.571
259.51	29.483
259.88	25.155
260.25	30.211
260.62	28.324
260.99	31.056
261.36	27.628
261.73	29.513
262.10	27.907
262.47	29.577
262.85	27.855
263.22	23.647
263.59	29.630
263.96	25.824
264.33	30.287
264.70	23.421
265.07	26.598
265.44	27.778
265.81	28.710
266.18	30.653
266.55	27.561
266.92	31.204
267.29	28.704
267.66	25.917
268.03	25.909
268.40	27.336
268.77	24.582
269.14	25.225
269.51	26.185
269.88	26.107
270.25	26.411
270.62	27.640
270.99	25.806
271.36	26.609
271.73	23.598
272.10	25.217
272.47	26.667
272.84	24.892
273.21	26.625
273.58	24.454
273.95	24.319
274.32	23.760
274.69	24.411
275.06	25.000
275.43	25.957
275.80	24.649
276.17	25.051
276.54	25.364
276.91	24.901
277.28	22.461
277.65	20.890
278.02	24.845
278.39	25.781
278.76	22.182
279.13	24.717
279.50	23.836
279.87	25.100
280.23	22.754
280.60	23.791
280.97	22.181
281.34	24.248
281.71	24.182
282.08	24.184
282.45	22.000
282.82	22.025
283.19	21.390
283.56	23.860
283.92	23.519
284.29	23.457
284.66	23.049
285.03	23.327
285.40	22.711
285.77	22.896
286.14	20.553
286.51	24.000
286.87	23.761
287.24	22.638
287.61	21.509
287.98	20.942
288.35	20.285
288.72	21.495
289.08	21.283
289.45	20.923
289.82	22.114
290.19	20.722
290.56	19.296
290.93	19.033
291.29	20.092
291.66	18.879
292.03	21.221
292.40	22.614
292.77	18.343
293.13	19.701
293.50	19.096
293.87	18.222
294.24	20.741
294.60	17.904
294.97	18.750
295.34	20.451
295.71	19.034
296.08	19.088
296.44	17.607
296.81	17.834
297.18	20.596
297.55	16.095
297.91	17.150
298.28	19.143
298.65	20.235
299.02	18.182
299.38	17.131
299.75	15.633
300.12	17.497
300.48	17.875
300.85	17.509
301.22	16.178
301.59	18.182
301.95	16.625
302.32	16.046
302.69	16.368
303.05	16.242
303.42	16.420
303.79	16.648
304.15	14.569
304.52	14.137
304.89	16.144
305.25	14.617
305.62	15.742
305.99	16.057
306.35	16.219
306.72	15.919
307.09	16.426
307.45	17.455
307.82	14.397
308.19	16.887
308.55	16.613
308.92	15.252
309.29	15.312
309.65	14.316
310.02	16.596
310.38	16.344
310.75	14.995
311.12	15.660
311.48	14.629
311.85	16.352
312.22	16.129
312.58	15.073
312.95	16.262
313.31	14.854
313.68	16.008
314.05	16.864
314.41	15.276
314.78	16.818
315.14	14.995
315.51	15.448
315.87	15.347
316.24	15.690
316.61	15.302
316.97	14.188
317.34	15.068
317.70	15.010
318.07	15.399
318.43	15.656
318.80	15.464
319.16	16.008
319.53	14.634
319.89	14.952
320.26	16.500
320.62	16.667
320.99	15.455
321.35	15.960
321.72	16.940
322.08	15.400
322.45	16.219
322.81	15.795
323.18	15.029
323.54	16.883
323.91	17.170
324.27	15.966
324.64	15.191
325.00	15.059
325.37	17.106
325.73	16.248
326.10	16.770
326.46	15.502
326.83	15.531
327.19	16.567
327.56	15.941
327.92	15.836
328.29	17.480
328.65	17.587
329.01	15.704
329.38	15.819
329.74	15.789
330.11	16.117
330.47	16.804
330.84	17.004
331.20	15.574
331.56	16.330
331.93	17.407
332.29	16.415
332.66	18.319
333.02	16.728
333.38	17.796
333.75	17.825
334.11	16.904
334.48	16.948
334.84	17.555
335.20	17.364
335.57	15.956
335.93	16.518
336.29	16.850
336.66	17.313
337.02	16.833
337.38	17.315
337.75	16.845
338.11	17.278
338.47	16.390
338.84	18.240
339.20	16.881
339.56	17.336
339.93	16.636
340.29	17.572
340.65	17.201
341.02	17.714
341.38	16.726
341.74	16.667
342.11	17.205
342.47	16.388
342.83	16.353
343.20	17.316
343.56	16.091
343.92	17.193
344.28	17.177
344.65	18.057
345.01	17.088
345.37	16.123
345.73	16.667
346.10	16.880
346.46	17.203
346.82	16.557
347.19	16.541
347.55	16.831
347.91	17.152
348.27	17.502
348.63	16.555
349.00	16.100
349.36	16.667
349.72	16.038
350.08	14.911
350.45	16.436
350.81	16.328
351.17	16.856
351.53	16.544
351.89	16.337
352.26	17.048
352.62	16.921
352.98	16.613
353.34	16.270
353.70	14.321
354.07	15.806
354.43	16.270
354.79	16.171
355.15	15.563
355.51	16.946
355.87	16.653
356.24	15.554
356.60	15.156
356.96	15.607
357.32	16.353
357.68	16.535
358.04	15.914
358.40	16.627
358.77	16.588
359.13	15.470
359.49	16.078
359.85	14.206
360.21	15.231
360.57	16.887
360.93	15.692
361.29	15.873
361.66	14.706
362.02	15.896
362.38	15.513
362.74	16.220
363.10	14.878
363.46	15.187
363.82	15.420
364.18	15.051
364.54	16.939
364.90	15.652
365.26	15.515
365.62	15.413
365.98	14.755
366.35	15.186
366.71	16.341
367.07	14.712
367.43	15.385
367.79	16.702
368.15	16.092
368.51	15.625
368.87	15.703
369.23	15.069
369.59	14.989
369.95	14.926
370.31	15.954
370.67	15.362
371.03	16.479
371.39	14.942
371.75	14.559
372.11	14.438
372.47	15.103
372.83	16.066
373.19	15.246
373.55	15.521
373.91	15.906
374.27	14.777
374.63	14.691
374.99	15.395
375.35	14.864
375.71	15.696
376.07	16.529
376.42	15.131
376.78	16.302
377.14	14.925
377.50	15.430
377.86	14.694
378.22	15.360
378.58	14.599
378.94	14.959
379.30	15.331
379.66	15.609
380.02	15.541
380.38	14.026
380.74	15.666
381.09	15.770
381.45	16.042
381.81	15.111
382.17	15.032
382.53	14.717
382.89	15.617
383.25	15.134
383.61	15.180
383.97	15.385
384.32	15.721
384.68	14.312
385.04	15.243
385.40	15.170
385.76	14.435
386.12	15.155
386.48	15.481
386.83	15.074
387.19	15.832
387.55	15.708
387.91	15.115
388.27	14.654
388.62	15.734
388.98	14.312
389.34	16.521
389.70	15.083
390.06	16.350
390.42	15.824
390.77	15.712
391.13	16.018
391.49	15.482
391.85	14.449
392.20	14.700
392.56	14.899
392.92	15.715
393.28	13.905
393.64	15.887
393.99	15.699
394.35	15.074
394.71	14.492
395.07	14.330
395.42	15.266
395.78	15.140
396.14	14.960
396.50	15.727
396.85	15.766
397.21	14.982
397.57	15.251
397.92	15.325
398.28	14.854
398.64	16.069
399.00	15.501
399.35	15.116
399.71	15.394
400.07	15.789
400.42	15.583
400.78	15.320
401.14	14.939
401.49	15.403
401.85	15.729
402.21	16.228
402.57	15.176
402.92	15.385
403.28	15.365
403.63	15.037
403.99	15.478
404.35	15.939
404.70	15.528
405.06	14.793
405.42	14.785
405.77	14.743
406.13	15.463
406.49	15.494
406.84	15.121
407.20	14.953
407.55	15.124
407.91	16.267
408.27	14.933
408.62	15.653
408.98	15.748
409.34	16.175
409.69	16.000
410.05	15.551
410.40	15.413
410.76	15.173
411.11	15.923
411.47	14.888
411.83	15.883
412.18	15.337
412.54	15.629
412.89	16.024
413.25	15.348
413.60	15.998
413.96	15.179
414.31	15.857
414.67	16.603
415.03	15.629
415.38	16.366
415.74	15.627
416.09	15.415
416.45	15.462
416.80	16.722
417.16	16.890
417.51	15.660
417.87	15.478
418.22	16.151
418.58	16.075
418.93	15.848
419.29	15.532
419.64	16.373
420.00	16.402
420.35	15.710
420.71	16.318
421.06	15.692
421.42	15.205
421.77	17.096
422.12	15.834
422.48	15.219
422.83	15.958
423.19	15.691
423.54	16.309
423.90	16.522
424.25	15.969
424.61	15.833
424.96	15.510
425.31	16.058
425.67	15.000
426.02	15.029
426.38	16.300
426.73	15.799
427.09	16.170
427.44	15.699
427.79	15.929
428.15	16.548
428.50	16.033
428.85	16.210
429.21	16.013
429.56	14.774
429.92	15.148
430.27	15.392
430.62	15.310
430.98	15.153
431.33	15.876
431.68	16.597
432.04	15.548
432.39	15.363
432.74	15.260
433.10	15.676
433.45	16.501
433.80	15.521
434.16	15.438
434.51	15.632
434.86	16.249
435.22	15.898
435.57	15.441
435.92	16.150
436.28	15.362
436.63	16.280
436.98	15.398
437.34	16.100
437.69	16.103
438.04	15.627
438.39	16.060
438.75	15.630
439.10	15.922
439.45	16.057
439.81	16.133
440.16	15.867
440.51	15.700
440.86	15.692
441.22	16.073
441.57	15.180
441.92	16.172
442.27	15.554
442.63	16.166
442.98	16.620
443.33	15.217
443.68	15.798
444.03	16.203
444.39	15.628
444.74	16.126
445.09	15.957
445.44	16.074
445.79	15.289
446.15	16.199
446.50	15.670
446.85	15.519
447.20	15.757
447.55	16.304
447.91	15.885
448.26	15.637
448.61	15.602
448.96	16.058
449.31	17.042
449.66	16.545
450.02	15.097
450.37	14.683
450.72	15.341
451.07	15.478
451.42	15.076
451.77	16.970
452.12	15.993
452.47	15.983
452.83	15.326
453.18	16.015
453.53	16.388
453.88	15.535
454.23	16.019
454.58	16.111
454.93	15.702
455.28	16.209
455.63	16.080
455.98	16.548
456.34	15.829
456.69	15.466
457.04	16.409
457.39	15.897
457.74	15.902
458.09	16.389
458.44	16.021
458.79	15.239
459.14	15.745
459.49	16.170
459.84	15.512
460.19	15.203
460.54	15.220
460.89	15.634
461.24	16.029
461.59	16.444
461.94	15.598
462.29	16.142
462.64	15.954
462.99	16.786
463.34	16.400
463.69	16.135
464.04	15.942
464.39	15.768
464.74	16.102
465.09	16.224
465.44	15.235
465.79	15.268
466.14	15.435
466.49	15.740
466.84	16.521
467.19	15.872
467.54	15.750
467.89	15.666
468.24	16.230
468.59	15.873
468.94	15.638
469.29	16.131
469.64	16.867
469.99	16.576
470.34	15.456
470.68	16.523
471.03	16.190
471.38	15.914
471.73	16.855
472.08	16.118
472.43	15.641
472.78	16.261
473.13	15.982
473.48	16.854
473.83	16.646
474.17	15.432
474.52	16.625
474.87	16.871
475.22	16.251
475.57	15.690
475.92	16.038
476.27	16.065
476.61	15.389
476.96	15.173
477.31	16.013
477.66	15.481
478.01	15.316
478.36	15.600
478.70	15.732
479.05	15.815
479.40	15.967
479.75	15.963
480.10	15.258
480.45	15.326
480.79	15.146
481.14	15.264
481.49	15.757
481.84	15.226
482.19	15.902
482.53	15.183
482.88	15.356
483.23	16.121
483.58	16.106
483.92	15.604
484.27	14.423
484.62	14.655
484.97	15.254
485.31	14.897
485.66	13.938
486.01	13.891
486.36	13.551
486.70	13.433
487.05	13.667
487.40	13.994
487.75	13.691
488.09	13.740
488.44	14.343
488.79	14.720
489.13	14.706
489.48	14.804
489.83	14.502
490.17	15.300
490.52	14.836
490.87	14.880
491.22	14.961
491.56	14.989
491.91	15.123
492.26	14.607
492.60	15.438
492.95	14.079
493.30	15.561
493.64	14.792
493.99	14.717
494.34	15.264
494.68	15.797
495.03	15.367
495.37	15.170
495.72	15.156
496.07	15.220
496.41	14.912
496.76	14.996
497.11	15.534
497.45	15.370
497.80	14.683
498.14	14.783
498.49	14.683
498.84	15.292
499.18	15.048
499.53	15.195
499.87	15.377
500.22	15.732
500.56	15.097
500.91	15.433
501.26	14.841
501.60	15.947
501.95	14.986
502.29	15.745
502.64	15.503
502.98	15.147
503.33	15.356
503.67	15.313
504.02	15.529
504.36	15.723
504.71	14.998
505.06	15.277
505.40	14.827
505.75	14.706
506.09	15.258
506.44	14.998
506.78	15.733
507.13	15.245
507.47	15.202
507.82	15.350
508.16	15.653
508.51	15.779
508.85	15.442
509.19	15.510
509.54	15.255
509.88	15.559
510.23	15.167
510.57	16.873
510.92	16.209
511.26	15.468
511.61	16.079
511.95	15.031
512.30	16.013
512.64	15.744
512.98	15.809
513.33	16.274
513.67	14.621
514.02	15.152
514.36	16.166
514.70	16.325
515.05	14.891
515.39	16.433
515.74	15.935
516.08	16.098
516.42	16.204
516.77	15.998
517.11	15.538
517.46	16.817
517.80	16.551
518.14	14.881
518.49	16.453
518.83	15.795
519.17	15.878
519.52	15.393
519.86	15.916
520.20	16.647
520.55	16.876
520.89	16.423
521.23	16.526
521.58	16.507
521.92	16.656
522.26	15.802
522.61	16.822
522.95	16.022
523.29	16.007
523.64	15.732
523.98	16.205
524.32	17.069
524.66	16.777
525.01	15.931
525.35	16.605
525.69	15.764
526.04	16.947
526.38	16.718
526.72	15.828
527.06	16.196
527.41	15.099
527.75	16.399
528.09	17.084
528.43	16.699
528.78	16.656
529.12	16.545
529.46	17.391
529.80	16.027
530.15	17.632
530.49	16.123
530.83	16.646
531.17	16.710
531.51	17.575
531.86	16.452
532.20	16.297
532.54	17.233
532.88	16.752
533.22	16.240
533.57	16.605
533.91	16.376
534.25	16.039
534.59	15.924
534.93	16.895
535.27	15.872
535.62	16.972
535.96	16.384
536.30	16.084
536.64	16.291
536.98	16.589
537.32	16.063
537.66	16.133
538.01	16.524
538.35	16.354
538.69	17.230
539.03	16.504
539.37	15.144
539.71	15.230
540.05	16.013
540.39	16.346
540.73	16.300
541.07	16.677
541.42	15.656
541.76	16.968
542.10	16.300
542.44	16.424
542.78	16.667
543.12	15.867
543.46	16.984
543.80	16.135
544.14	15.533
544.48	16.317
544.82	16.357
545.16	16.981
545.50	16.710
545.84	15.860
546.18	17.239
546.52	17.068
546.86	16.220
547.20	16.925
547.54	16.366
547.88	17.602
548.22	16.314
548.56	16.918
548.90	15.493
549.24	15.758
549.58	17.258
549.92	16.415
550.26	15.909
550.60	17.566
550.94	17.254
551.28	16.606
551.62	17.038
551.96	16.632
552.30	17.338
552.64	17.444
552.98	17.492
553.32	16.251
553.66	16.837
554.00	16.060
554.34	17.253
554.68	17.310
555.02	16.714
555.36	16.423
555.69	16.644
556.03	17.026
556.37	17.053
556.71	15.962
557.05	15.966
557.39	17.075
557.73	16.584
558.07	16.896
558.41	16.715
558.75	17.340
559.08	16.928
559.42	16.402
559.76	17.794
560.10	16.274
560.44	15.933
560.78	16.168
561.12	17.084
561.45	17.080
561.79	16.018
562.13	16.499
562.47	17.486
562.81	15.969
563.15	16.254
563.48	16.313
563.82	16.438
564.16	16.351
564.50	15.820
564.84	15.297
565.17	15.251
565.51	15.719
565.85	16.624
566.19	15.529
566.52	17.289
566.86	15.371
567.20	15.979
567.54	15.297
567.88	15.426
568.21	16.085
568.55	15.571
568.89	16.002
569.23	14.706
569.56	14.858
569.90	14.830
570.24	14.424
570.57	14.417
570.91	14.124
571.25	13.620
571.59	13.873
571.92	13.681
572.26	13.894
572.60	13.814
572.93	14.033
573.27	13.872
573.61	14.070
573.95	14.031
574.28	13.266
574.62	13.776
574.96	13.333
575.29	13.215
575.63	13.288
575.97	13.590
576.30	13.728
576.64	13.293
576.98	13.223
577.31	13.193
577.65	13.550
577.98	13.390
578.32	13.205
578.66	13.522
578.99	13.330
579.33	13.290
579.67	12.819
580.00	12.923
580.34	13.028
580.67	12.834
581.01	13.492
581.35	12.927
581.68	13.074
582.02	13.101
582.35	12.911
582.69	13.095
583.02	13.266
583.36	12.451
583.70	13.262
584.03	13.166
584.37	13.570
584.70	13.114
585.04	13.381
585.37	13.048
585.71	13.134
586.04	13.699
586.38	13.088
586.72	13.891
587.05	13.040
587.39	13.456
587.72	13.270
588.06	13.474
588.39	13.498
588.73	13.318
589.06	14.179
589.40	14.175
589.73	13.939
590.07	14.306
590.40	14.213
590.73	14.208
591.07	14.408
591.40	14.298
591.74	14.675
592.07	14.703
592.41	14.551
592.74	14.232
593.08	13.924
593.41	13.825
593.75	13.741
594.08	13.912
594.41	13.963
594.75	14.011
595.08	14.209
595.42	14.396
595.75	14.103
596.09	13.969
596.42	14.420
596.75	14.141
597.09	15.455
597.42	14.334
597.75	14.834
598.09	14.826
598.42	14.991
598.76	14.512
599.09	13.797
599.42	14.301
599.76	13.763
600.09	14.353
600.42	13.733
600.76	13.714
601.09	13.880
601.42	13.737
601.76	14.080
602.09	14.032
602.42	15.207
602.76	14.833
603.09	13.926
603.42	14.760
603.76	15.015
604.09	14.114
604.42	13.779
604.76	14.762
605.09	14.723
605.42	14.664
605.75	14.528
606.09	13.908
606.42	14.221
606.75	14.724
607.09	14.860
607.42	14.463
607.75	14.388
608.08	14.416
608.42	15.105
608.75	14.472
609.08	14.570
609.41	14.422
609.75	14.769
610.08	15.740
610.41	13.920
610.74	15.137
611.07	14.872
611.41	14.524
611.74	15.435
612.07	14.855
612.40	15.163
612.73	15.000
613.07	16.379
613.40	15.166
613.73	14.473
614.06	15.161
614.39	15.836
614.72	15.579
615.06	15.756
615.39	14.862
615.72	15.389
616.05	15.364
616.38	15.842
616.71	15.321
617.05	15.901
617.38	15.093
617.71	15.796
618.04	15.625
618.37	15.553
618.70	15.557
619.03	16.316
619.36	16.565
619.69	16.620
620.03	16.690
620.36	16.778
620.69	16.301
621.02	16.150
621.35	16.053
621.68	15.810
622.01	16.099
622.34	17.398
622.67	17.795
623.00	16.361
623.33	16.154
623.66	16.512
623.99	15.464
624.32	16.334
624.65	16.243
624.99	15.722
625.32	16.148
625.65	16.454
625.98	16.910
626.31	17.496
626.64	17.224
626.97	16.791
627.30	16.874
627.63	17.473
627.96	17.578
628.29	17.848
628.62	18.207
628.95	18.585
629.28	18.431
629.61	19.065
629.94	17.810
630.26	16.778
630.59	18.875
630.92	18.678
631.25	17.177
631.58	18.118
631.91	17.647
632.24	18.249
632.57	18.783
632.90	18.531
633.23	18.121
633.56	18.644
633.89	19.479
634.22	20.091
634.55	20.237
634.88	20.120
635.20	19.833
635.53	19.880
635.86	19.926
636.19	19.059
636.52	19.262
636.85	19.359
637.18	17.857
637.51	20.095
637.83	18.742
638.16	17.903
638.49	19.395
638.82	19.343
639.15	20.750
639.48	19.451
639.81	20.777
640.13	21.224
640.46	21.611
640.79	18.758
641.12	18.569
641.45	20.112
641.77	20.913
642.10	20.468
642.43	21.021
642.76	21.672
643.09	21.319
643.41	21.700
643.74	22.377
644.07	19.360
644.40	22.239
644.73	22.362
645.05	22.187
645.38	21.327
645.71	21.095
646.04	22.591
646.36	23.205
646.69	20.903
647.02	20.748
647.35	22.852
647.67	23.894
648.00	23.415
648.33	20.297
648.66	22.121
648.98	22.789
649.31	18.984
649.64	20.030
649.96	20.417
650.29	20.537
650.62	20.388
650.94	22.528
651.27	25.169
651.60	22.629
651.92	23.003
652.25	21.010
652.58	23.209
652.90	22.117
653.23	19.877
653.56	20.630
653.88	22.029
654.21	21.327
654.54	22.112
654.86	20.093
655.19	18.514
655.52	14.047
655.84	12.405
656.17	15.029
656.49	20.407
656.82	19.436
657.15	14.620
657.47	10.777
657.80	7.855
658.13	7.900
658.45	12.006
658.78	12.212
659.10	12.156
659.43	13.138
659.75	13.711
660.08	15.253
660.41	17.132
660.73	19.060
661.06	20.541
661.38	23.818
661.71	23.654
662.03	24.260
662.36	22.465
662.68	22.490
663.01	23.232
663.33	24.416
663.66	22.689
663.98	24.190
664.31	21.218
664.63	22.470
664.96	21.328
665.28	23.566
665.61	21.442
665.93	21.730
666.26	22.921
666.58	27.406
666.91	25.581
667.23	25.169
667.56	22.462
667.88	23.077
668.21	24.094
668.53	24.078
668.86	22.511
669.18	25.160
669.50	24.348
669.83	27.669
670.15	23.556
670.48	23.312
670.80	23.491
671.13	23.567
671.45	22.979
671.77	24.847
672.10	21.072
672.42	22.615
672.75	21.061
673.07	21.479
673.39	22.242
673.72	22.266
674.04	23.137
674.37	21.359
674.69	22.495
675.01	21.548
675.34	25.462
675.66	26.526
675.98	23.625
676.31	23.739
676.63	23.779
676.95	24.109
677.28	22.664
677.60	23.297
677.92	26.160
678.25	21.766
678.57	23.108
678.89	23.647
679.22	20.039
679.54	23.092
679.86	22.752
680.18	22.719
680.51	22.695
680.83	20.819
681.15	23.019
681.48	21.361
681.80	20.696
682.12	21.456
682.44	20.309
682.77	22.811
683.09	24.893
683.41	23.725
683.73	20.751
684.06	25.207
684.38	22.309
684.70	21.705
685.02	21.576
685.34	22.344
685.67	21.503
685.99	20.962
686.31	19.966
686.63	16.608
686.96	19.107
687.28	21.119
687.60	20.290
687.92	21.755
688.24	21.103
688.56	23.695
688.89	23.651
689.21	24.236
689.53	24.008
689.85	23.060
690.17	22.360
690.49	25.690
690.82	23.364
691.14	23.214
691.46	22.996
691.78	23.092
692.10	22.107
692.42	22.954
692.74	20.124
693.06	24.043
693.39	23.614
693.71	21.179
694.03	23.368
694.35	22.294
694.67	23.570
694.99	26.098
695.31	22.059
695.63	23.684
695.95	23.472
696.27	20.558
696.59	25.130
696.91	27.461
697.23	23.239
697.56	21.962
697.88	19.836
698.20	20.833
698.52	24.086
698.84	24.499
699.16	23.272
699.48	23.990
699.80	24.879
700.12	25.714
700.44	23.607
700.76	26.519
701.08	23.851
701.40	22.905
701.72	27.988
702.04	27.841
702.36	24.079
702.68	26.912
703.00	24.100
703.32	24.202
703.64	23.324
703.96	25.348
704.28	27.326
704.60	29.619
704.91	26.706
705.23	26.979
705.55	30.233
705.87	33.555
706.19	29.329
706.51	30.530
706.83	26.970
707.15	27.451
707.47	22.222
707.79	25.553
708.11	24.886
708.43	22.381
708.74	23.980
709.06	27.792
709.38	25.984
709.70	27.326
710.02	27.300
710.34	26.364
710.66	26.567
710.98	30.682
711.29	24.419
711.61	26.549
711.93	23.718
712.25	26.367
712.57	32.353
712.89	24.567
713.20	26.748
713.52	30.592
713.84	26.899
714.16	29.268
714.48	26.724
714.80	29.483
715.11	27.954
715.43	24.926
715.75	24.928
716.07	27.476
716.39	25.705
716.70	29.236
717.02	25.899
717.34	30.742
717.66	31.716
717.97	32.271
718.29	27.407
718.61	30.657
718.93	25.735
719.24	30.796
719.56	26.102
719.88	26.102
720.20	29.730
720.51	28.920
720.83	27.138
721.15	27.612
721.46	29.433
721.78	32.616
722.10	30.189
722.42	24.812
722.73	30.712
723.05	26.230
723.37	26.721
723.68	30.888
724.00	28.455
724.32	32.661
724.63	30.081
724.95	31.381
725.27	33.603
725.58	33.203
725.90	31.752
726.22	30.189
726.53	25.000
726.85	30.034
727.16	28.826
727.48	28.014
727.80	26.136
728.11	28.261
728.43	26.923
728.74	29.032
729.06	30.657
729.38	30.515
729.69	29.537
730.01	25.597
730.32	26.389
730.64	28.094
730.96	23.102
731.27	28.808
731.59	27.217
731.90	23.907
732.22	23.292
732.53	25.387
732.85	25.321
733.16	22.830
733.48	27.575
733.80	29.545
734.11	30.255
734.43	26.036
734.74	22.571
735.06	20.630
735.37	25.434
735.69	25.159
736.00	29.085
736.32	26.480
736.63	23.962
736.95	28.115
737.26	20.068
737.58	26.452
737.89	27.425
738.21	28.328
738.52	28.214
738.83	26.415
739.15	26.154
739.46	29.562
739.78	26.389
740.09	25.538
740.41	29.355
740.72	25.436
741.04	25.556
741.35	32.083
741.66	32.889
741.98	29.245
742.29	33.014
742.61	39.655
742.92	28.959
743.23	32.906
743.55	30.400
743.86	32.456
744.18	33.628
744.49	31.100
744.80	37.089
745.12	35.455
745.43	33.040
745.74	36.937
746.06	33.028
746.37	31.390
746.68	27.149
747.00	32.870
747.31	35.238
747.62	28.319
747.94	30.837
748.25	29.787
748.56	33.480
748.88	27.723
749.19	36.500
749.50	34.884
749.82	27.236
750.13	25.306
750.44	27.372
750.75	28.070
751.07	30.547
751.38	28.571
751.69	29.242
752.01	28.195
752.32	28.159
752.63	27.305
752.94	28.689
753.26	33.600
753.57	30.081
753.88	32.812
754.19	26.786
754.51	28.819
754.82	20.939
755.13	27.925
755.44	30.075
755.75	27.737
756.07	24.113
756.38	23.358
756.69	27.517
757.00	24.251
757.31	25.223
757.63	26.023
757.94	21.984
758.25	22.549
758.56	20.000
758.87	21.505
759.18	25.758
759.50	28.213
759.81	25.857
760.12	20.938
760.43	25.788
760.74	24.728
761.05	25.141
761.36	22.995
761.67	27.841
761.99	22.050
762.30	26.042
762.61	28.244
762.92	33.594
763.23	32.353
763.54	31.600
763.85	27.344
764.16	33.846
764.47	30.418
764.78	24.735
765.10	24.684
765.41	29.499
765.72	23.353
766.03	23.511
766.34	27.333
766.65	30.213
766.96	29.487
767.27	30.964
767.58	35.938
767.89	35.263
768.20	36.782
768.51	32.995
768.82	36.239
769.13	29.268
769.44	29.555
769.75	31.330
770.06	26.147
770.37	25.792
770.68	36.574
770.99	30.222
771.30	24.180
771.61	31.839
771.92	34.016
772.23	29.832
772.54	27.692
772.85	35.079
773.16	30.319
773.47	35.326
773.78	39.086
774.09	33.333
774.39	39.766
774.70	34.568
775.01	39.855
775.32	43.791
775.63	46.053
775.94	36.691
776.25	42.520
776.56	51.493
776.87	46.721
777.18	39.844
777.48	51.145
777.79	40.909
778.10	44.444
778.41	45.536
778.72	29.927
779.03	42.953
779.34	40.268
779.65	31.757
779.95	41.718
780.26	38.562
780.57	42.759
780.88	47.656
781.19	42.857
781.50	46.622
781.80	39.623
782.11	33.333
782.42	36.076
782.73	34.969
783.04	38.514
783.34	37.324
783.65	43.836
783.96	45.522
784.27	40.559
784.57	36.691
784.88	38.889
785.19	53.175
785.50	52.830
785.81	49.254
786.11	46.721
786.42	44.961
786.73	31.858
787.04	44.340
787.34	48.214
787.65	53.000
787.96	37.838
788.26	48.760
788.57	53.390
788.88	48.760
789.19	45.139
789.49	49.242
789.80	39.695
790.11	57.143
790.41	52.475
790.72	50.602
791.03	59.783
791.33	50.000
791.64	55.670
791.95	51.485
792.25	52.222
792.56	50.649
792.87	76.923
793.17	68.354
793.48	58.621
793.79	56.322
794.09	56.818
794.40	44.538
794.70	55.882
795.01	39.259
795.32	42.446
795.62	42.520
795.93	41.379
796.23	37.168
796.54	43.529
796.85	70.270
797.15	74.648
797.46	63.636
797.76	66.265
798.07	62.025
798.37	46.154
798.68	72.727
798.99	67.606
799.29	51.948
799.60	56.818
799.90	64.384
800.21	80.597
800.51	70.690
800.82	82.456
801.12	68.852
801.43	65.152
801.73	60.811
802.04	96.825
802.34	80.247
802.65	71.875
802.95	81.356
803.26	81.250
803.56	62.857
803.87	72.308
804.17	72.059
804.48	83.333
804.78	77.586
805.09	69.118
805.39	71.154
805.70	85.714
806.00	106.557
806.30	72.727
806.61	64.634
806.91	59.494
807.22	57.895
807.52	62.687
807.83	77.465
808.13	70.312
808.43	65.000
808.74	44.737
809.04	63.768
809.35	76.119
809.65	50.000
809.95	83.871
810.26	76.271
810.56	77.778
810.86	81.818
811.17	97.619
811.47	85.000
811.77	70.370
812.08	96.364
812.38	98.000
812.69	88.889
812.99	118.182
813.29	89.796
813.59	76.190
813.90	102.041
814.20	90.909
814.50	76.923
814.81	76.471
815.11	95.918
815.41	72.131
815.72	114.286
816.02	87.273
816.32	95.238
816.62	92.500
816.93	87.805
817.23	109.524
817.53	125.000
817.84	136.364
818.14	108.696
818.44	95.556
818.74	126.471
819.04	90.000
819.35	108.571
819.65	152.941
819.95	160.714
820.25	145.000
820.56	138.462
820.86	127.273
821.16	106.977
821.46	117.949
821.76	96.000
822.07	122.857
822.37	130.000
822.67	121.212
822.97	68.627
823.27	157.143
823.57	137.838
823.88	135.000
824.18	116.667
824.48	126.190
824.78	152.000
825.08	137.500
825.38	132.432
825.69	92.683
825.99	162.500
826.29	127.586
826.59	105.263
826.89	118.421
827.19	147.059
827.49	148.387
827.79	118.182
828.09	100.000
828.39	100.000
828.70	114.286
829.00	140.741
829.30	116.129
829.60	105.000
829.90	200.000
830.20	160.714
830.50	117.391
830.80	173.913
831.10	150.000
831.40	110.000
831.70	165.217
832.00	173.077
832.30	144.444
832.60	256.250
832.90	166.667
833.20	357.143
833.50	167.742
833.80	158.621
834.10	171.875
834.40	146.154
834.70	250.000
835.00	266.667
835.30	140.000
835.60	207.692
835.90	134.483
836.20	250.000
836.50	203.448
836.80	116.000
837.10	147.222
837.40	209.524
837.70	264.706
838.00	122.222
838.30	195.238
838.60	214.286
838.90	173.077
839.19	210.000
839.49	300.000
839.79	260.000
840.09	215.000
840.39	190.476
840.69	186.957
840.99	194.444
841.29	280.000
841.59	241.667
841.88	293.750
842.18	151.724
842.48	209.524
842.78	160.000
843.08	230.435
843.38	146.875
843.68	533.333
843.97	196.154
844.27	124.138
844.57	209.524
844.87	268.750
845.17	174.074
845.47	1233.333
845.76	322.222
846.06	235.294
846.36	437.500
846.66	271.429
846.96	231.250
847.25	300.000
847.55	327.273
847.85	182.609
848.15	310.000
848.44	257.143
848.74	216.667
849.04	235.294
849.34	460.000
849.63	226.316
849.93	336.364
850.23	780.000
850.53	285.714
850.82	1600.000
851.12	-3900.000
851.42	3800.000
851.71	225.000
852.01	-933.333
852.31	212.500
852.61	1600.000
852.90	238.095
853.20	180.000
853.50	241.176
853.79	185.714
854.09	170.833
854.39	287.500
854.68	151.351
854.98	145.161
855.28	113.333
855.57	168.966
855.87	185.185
856.17	147.368
856.46	146.667
856.76	252.941
857.05	168.966
857.35	200.000
857.65	246.667
857.94	204.348
858.24	165.385
858.53	245.000
858.83	231.818
859.13	253.333
859.42	0.000
859.72	444.444
860.01	318.182
860.31	163.636
860.60	236.842
860.90	230.435
861.20	422.222
861.49	366.667
861.79	-2700.000
862.08	525.000
862.38	214.286
862.67	238.462
862.97	252.941
863.26	466.667
863.56	227.778
863.85	266.667
864.15	312.500
864.44	266.667
864.74	583.333
865.03	437.500
865.33	200.000
865.62	318.182
865.92	346.154
866.21	316.667
866.51	0.000
866.80	372.727
867.10	860.000
867.39	323.077
867.69	400.000
867.98	236.842
868.27	481.818
868.57	231.579
868.86	-3700.000
869.16	250.000
869.45	1450.000
869.75	-3900.000
870.04	358.333
870.33	557.143
870.63	925.000
870.92	2000.000
871.22	714.286
871.51	311.765
871.80	166.667
872.10	314.286
>>>>>End Processed Spectral Data<<<<<
