SpectraSuite Data File
++++++++++++++++++++++++++++++++++++
Date: Wed May 13 20:33:56 PDT 2015
User: schluterlab
Dark Spectrum Present: Yes
Reference Spectrum Present: Yes
Number of Sampled Component Spectra: 1
Spectrometers: USB2E3373
Integration Time (usec): 3000 (USB2E3373)
Spectra Averaged: 3 (USB2E3373)
Boxcar Smoothing: 0 (USB2E3373)
Correct for Electrical Dark: No (USB2E3373)
Strobe/Lamp Enabled: No (USB2E3373)
Correct for Detector Non-linearity: No (USB2E3373)
Correct for Stray Light: No (USB2E3373)
Number of Pixels in Processed Spectrum: 2048
>>>>>Begin Processed Spectral Data<<<<<
178.53	0.000
178.91	-825.000
179.29	-850.000
179.67	-144.444
180.04	-1050.000
180.42	1550.000
180.80	540.000
181.18	-500.000
181.56	442.857
181.94	0.000
182.31	-557.143
182.69	1333.333
183.07	-412.500
183.45	-433.333
183.83	472.727
184.20	-250.000
184.58	1650.000
184.96	4800.000
185.34	-620.000
185.72	-312.500
186.09	-1450.000
186.47	2000.000
186.85	1800.000
187.23	3800.000
187.61	-1066.667
187.98	1250.000
188.36	409.091
188.74	354.545
189.12	-460.000
189.49	340.000
189.87	-3900.000
190.25	-925.000
190.63	278.571
191.00	261.538
191.38	566.667
191.76	-875.000
192.14	1025.000
192.51	412.500
192.89	816.667
193.27	375.000
193.65	-650.000
194.02	370.000
194.40	540.000
194.78	550.000
195.15	391.667
195.53	470.000
195.91	-1650.000
196.29	231.250
196.66	242.105
197.04	-210.000
197.42	0.000
197.79	420.000
198.17	-3700.000
198.55	385.714
198.92	512.500
199.30	560.000
199.68	0.000
200.05	277.778
200.43	528.571
200.81	3000.000
201.18	1366.667
201.56	-1166.667
201.94	400.000
202.31	400.000
202.69	283.333
203.07	330.000
203.44	0.000
203.82	850.000
204.19	571.429
204.57	335.714
204.95	450.000
205.32	1233.333
205.70	354.545
206.08	314.286
206.45	1900.000
206.83	281.250
207.20	566.667
207.58	460.000
207.96	227.778
208.33	512.500
208.71	-666.667
209.08	614.286
209.46	500.000
209.84	345.455
210.21	-1066.667
210.59	900.000
210.96	-337.500
211.34	1500.000
211.71	390.000
212.09	483.333
212.46	0.000
212.84	1033.333
213.22	1075.000
213.59	-2900.000
213.97	533.333
214.34	685.714
214.72	436.364
215.09	700.000
215.47	-1300.000
215.84	-2100.000
216.22	966.667
216.59	300.000
216.97	800.000
217.34	400.000
217.72	-566.667
218.09	0.000
218.47	-2000.000
218.84	533.333
219.22	528.571
219.59	1266.667
219.97	-271.429
220.34	700.000
220.72	-1100.000
221.09	307.143
221.47	1075.000
221.84	-600.000
222.22	0.000
222.59	975.000
222.97	-1900.000
223.34	880.000
223.72	338.462
224.09	680.000
224.46	1950.000
224.84	-3300.000
225.21	-800.000
225.59	-3000.000
225.96	480.000
226.34	220.000
226.71	2000.000
227.08	537.500
227.46	420.000
227.83	-675.000
228.21	-1650.000
228.58	511.111
228.95	-1250.000
229.33	-1350.000
229.70	1233.333
230.08	471.429
230.45	-580.000
230.82	291.667
231.20	600.000
231.57	571.429
231.95	400.000
232.32	172.727
232.69	354.545
233.07	642.857
233.44	269.231
233.81	-1166.667
234.19	226.316
234.56	325.000
234.93	325.000
235.31	263.636
235.68	269.231
236.05	342.857
236.43	151.515
236.80	263.158
237.17	4700.000
237.55	195.238
237.92	182.143
238.29	252.381
238.67	138.710
239.04	217.241
239.41	125.000
239.79	108.696
240.16	145.238
240.53	131.818
240.91	96.078
241.28	92.000
241.65	110.000
242.02	85.507
242.40	106.452
242.77	95.000
243.14	83.871
243.51	101.124
243.89	82.353
244.26	75.556
244.63	70.968
245.00	77.660
245.38	84.158
245.75	68.224
246.12	66.972
246.49	72.263
246.87	75.200
247.24	66.923
247.61	66.429
247.98	64.706
248.36	55.405
248.73	61.783
249.10	62.420
249.47	59.322
249.84	65.241
250.22	56.150
250.59	62.130
250.96	58.081
251.33	56.398
251.70	60.891
252.08	58.095
252.45	57.848
252.82	50.870
253.19	63.404
253.56	52.941
253.94	56.017
254.31	59.375
254.68	56.538
255.05	52.030
255.42	54.472
255.79	56.250
256.16	54.874
256.54	54.770
256.91	52.313
257.28	53.237
257.65	51.815
258.02	49.068
258.39	47.950
258.76	51.505
259.14	52.083
259.51	54.103
259.88	49.689
260.25	54.079
260.62	49.711
260.99	55.590
261.36	53.754
261.73	52.436
262.10	50.581
262.47	49.014
262.85	48.468
263.22	49.858
263.59	51.567
263.96	50.000
264.33	48.564
264.70	52.105
265.07	49.872
265.44	49.747
265.81	47.689
266.18	45.477
266.55	48.049
266.92	50.614
267.29	47.917
267.66	46.789
268.03	45.909
268.40	48.364
268.77	47.017
269.14	46.171
269.51	49.210
269.88	49.650
270.25	48.307
270.62	48.539
270.99	48.387
271.36	49.356
271.73	47.897
272.10	45.652
272.47	49.247
272.84	45.887
273.21	47.589
273.58	44.978
273.95	44.654
274.32	44.421
274.69	47.537
275.06	43.307
275.43	47.447
275.80	45.892
276.17	44.196
276.54	47.401
276.91	47.431
277.28	44.727
277.65	46.615
278.02	46.377
278.39	47.656
278.76	44.545
279.13	42.830
279.50	45.065
279.87	42.430
280.23	45.509
280.60	44.681
280.97	44.732
281.34	44.602
281.71	45.455
282.08	44.146
282.45	43.818
282.82	44.405
283.19	44.029
283.56	45.088
283.92	46.362
284.29	43.563
284.66	44.283
285.03	44.665
285.40	42.077
285.77	44.781
286.14	42.314
286.51	42.500
286.87	42.222
287.24	41.857
287.61	40.128
287.98	41.883
288.35	40.887
288.72	41.589
289.08	41.158
289.45	40.692
289.82	39.024
290.19	38.776
290.56	40.123
290.93	37.311
291.29	40.491
291.66	39.528
292.03	37.500
292.40	38.473
292.77	36.243
293.13	39.254
293.50	35.714
293.87	37.037
294.24	36.593
294.60	36.827
294.97	36.919
295.34	36.248
295.71	35.227
296.08	34.473
296.44	35.076
296.81	34.875
297.18	35.501
297.55	33.245
297.91	31.926
298.28	36.546
298.65	35.640
299.02	35.310
299.38	34.529
299.75	34.501
300.12	32.567
300.48	32.750
300.85	32.306
301.22	34.140
301.59	31.818
301.95	32.997
302.32	32.349
302.69	31.063
303.05	32.121
303.42	32.963
303.79	32.163
304.15	30.070
304.52	29.896
304.89	30.314
305.25	31.323
305.62	30.351
305.99	31.759
306.35	31.096
306.72	31.614
307.09	31.077
307.45	30.968
307.82	29.353
308.19	31.015
308.55	31.715
308.92	30.720
309.29	28.194
309.65	29.056
310.02	29.598
310.38	28.495
310.75	30.095
311.12	29.887
311.48	28.945
311.85	31.447
312.22	29.761
312.58	29.314
312.95	31.573
313.31	28.350
313.68	30.353
314.05	29.882
314.41	30.352
314.78	29.708
315.14	29.295
315.51	29.351
315.87	28.218
316.24	28.997
316.61	28.168
316.97	28.082
317.34	28.180
317.70	28.489
318.07	29.355
318.43	30.137
318.80	29.522
319.16	30.038
319.53	30.019
319.89	30.381
320.26	30.500
320.62	30.357
320.99	31.010
321.35	31.313
321.72	32.238
322.08	32.675
322.45	31.940
322.81	31.202
323.18	31.214
323.54	32.468
323.91	31.415
324.27	31.262
324.64	31.221
325.00	31.380
325.37	32.939
325.73	33.842
326.10	33.274
326.46	32.616
326.83	33.305
327.19	33.732
327.56	34.321
327.92	33.946
328.29	35.581
328.65	33.702
329.01	35.289
329.38	34.690
329.74	35.457
330.11	35.156
330.47	36.180
330.84	36.673
331.20	35.883
331.56	35.229
331.93	36.019
332.29	34.605
332.66	35.664
333.02	34.918
333.38	36.314
333.75	36.007
334.11	36.833
334.48	36.912
334.84	34.743
335.20	36.364
335.57	34.361
335.93	34.732
336.29	35.073
336.66	35.708
337.02	35.385
337.38	38.148
337.75	35.027
338.11	35.631
338.47	36.372
338.84	36.572
339.20	35.780
339.56	38.595
339.93	34.636
340.29	35.870
340.65	35.918
341.02	34.817
341.38	35.854
341.74	35.351
342.11	34.323
342.47	36.300
342.83	35.103
343.20	35.758
343.56	35.383
343.92	35.439
344.28	35.204
344.65	35.598
345.01	34.596
345.37	34.134
345.73	34.941
346.10	35.294
346.46	33.390
346.82	35.173
347.19	36.675
347.55	35.304
347.91	34.466
348.27	35.579
348.63	36.288
349.00	34.790
349.36	33.826
349.72	34.563
350.08	33.225
350.45	35.964
350.81	34.444
351.17	33.874
351.53	34.234
351.89	33.746
352.26	34.728
352.62	35.766
352.98	34.117
353.34	36.072
353.70	34.534
354.07	34.758
354.43	33.016
354.79	34.352
355.15	34.318
355.51	35.012
355.87	34.939
356.24	34.365
356.60	33.681
356.96	34.755
357.32	35.568
357.68	34.646
358.04	33.967
358.40	34.363
358.77	33.959
359.13	33.307
359.49	33.490
359.85	33.333
360.21	34.131
360.57	33.930
360.93	35.000
361.29	34.618
361.66	33.437
362.02	34.328
362.38	34.221
362.74	33.557
363.10	33.531
363.46	34.483
363.82	34.694
364.18	33.113
364.54	33.878
364.90	33.853
365.26	34.044
365.62	33.747
365.98	33.893
366.35	33.524
366.71	33.623
367.07	34.377
367.43	34.978
367.79	34.190
368.15	35.417
368.51	33.648
368.87	34.761
369.23	35.040
369.59	34.757
369.95	33.897
370.31	33.832
370.67	33.116
371.03	34.682
371.39	34.329
371.75	34.118
372.11	33.428
372.47	34.311
372.83	35.159
373.19	34.032
373.55	35.033
373.91	35.567
374.27	33.540
374.63	34.036
374.99	35.169
375.35	33.636
375.71	33.516
376.07	34.225
376.42	33.150
376.78	34.659
377.14	34.803
377.50	34.305
377.86	33.644
378.22	34.324
378.58	33.709
378.94	34.192
379.30	33.588
379.66	34.518
380.02	34.705
380.38	34.608
380.74	34.454
381.09	34.474
381.45	35.710
381.81	35.197
382.17	35.414
382.53	35.157
382.89	34.815
383.25	34.021
383.61	36.183
383.97	35.147
384.32	34.685
384.68	33.767
385.04	34.849
385.40	34.861
385.76	33.968
386.12	35.492
386.48	34.991
386.83	35.343
387.19	35.869
387.55	34.508
387.91	34.643
388.27	34.335
388.62	34.419
388.98	35.012
389.34	35.044
389.70	35.132
390.06	35.171
390.42	36.122
390.77	35.751
391.13	36.950
391.49	35.660
391.85	34.691
392.20	34.322
392.56	35.227
392.92	35.315
393.28	34.911
393.64	35.791
393.99	35.064
394.35	34.739
394.71	34.630
395.07	34.829
395.42	36.341
395.78	36.323
396.14	35.816
396.50	36.905
396.85	36.491
397.21	36.252
397.57	36.578
397.92	36.418
398.28	35.370
398.64	37.276
399.00	35.758
399.35	35.984
399.71	37.616
400.07	36.665
400.42	37.914
400.78	36.490
401.14	36.890
401.49	36.537
401.85	36.661
402.21	38.084
402.57	36.644
402.92	38.146
403.28	37.726
403.63	37.624
403.99	37.325
404.35	37.939
404.70	37.590
405.06	37.041
405.42	38.241
405.77	37.029
406.13	36.851
406.49	37.020
406.84	38.571
407.20	38.002
407.55	38.800
407.91	39.000
408.27	38.545
408.62	38.411
408.98	38.909
409.34	39.176
409.69	38.839
410.05	38.228
410.40	38.349
410.76	39.427
411.11	38.902
411.47	39.681
411.83	38.790
412.18	38.776
412.54	39.539
412.89	39.398
413.25	39.374
413.60	39.901
413.96	39.830
414.31	39.915
414.67	39.924
415.03	39.735
415.38	39.755
415.74	39.743
416.09	41.084
416.45	39.224
416.80	39.855
417.16	39.678
417.51	39.283
417.87	39.563
418.22	40.883
418.58	40.930
418.93	40.295
419.29	40.484
419.64	40.491
420.00	40.305
420.35	40.348
420.71	40.347
421.06	40.453
421.42	40.643
421.77	40.639
422.12	39.978
422.48	39.234
422.83	41.176
423.19	40.497
423.54	40.627
423.90	40.348
424.25	38.917
424.61	39.524
424.96	40.933
425.31	40.033
425.67	39.157
426.02	40.057
426.38	41.697
426.73	40.550
427.09	40.973
427.44	40.196
427.79	39.908
428.15	39.702
428.50	40.550
428.85	40.763
429.21	39.923
429.56	39.347
429.92	39.607
430.27	40.070
430.62	40.092
430.98	40.737
431.33	40.670
431.68	39.791
432.04	39.563
432.39	39.634
432.74	41.412
433.10	40.351
433.45	41.749
433.80	40.299
434.16	40.331
434.51	40.842
434.86	41.505
435.22	41.023
435.57	41.581
435.92	39.906
436.28	41.637
436.63	41.004
436.98	40.813
437.34	40.250
437.69	40.548
438.04	40.866
438.39	41.433
438.75	41.429
439.10	41.453
439.45	40.614
439.81	40.846
440.16	40.655
440.51	39.719
440.86	40.649
441.22	41.268
441.57	40.817
441.92	40.890
442.27	40.689
442.63	41.601
442.98	41.521
443.33	41.196
443.68	41.404
444.03	41.435
444.39	40.652
444.74	40.963
445.09	40.970
445.44	41.279
445.79	40.772
446.15	39.492
446.50	40.765
446.85	40.596
447.20	42.733
447.55	41.374
447.91	40.982
448.26	40.846
448.61	41.210
448.96	41.251
449.31	40.945
449.66	41.137
450.02	41.560
450.37	41.156
450.72	40.609
451.07	40.829
451.42	41.641
451.77	41.280
452.12	40.531
452.47	40.299
452.83	40.851
453.18	40.770
453.53	41.868
453.88	41.347
454.23	41.064
454.58	41.429
454.93	41.767
455.28	41.397
455.63	41.444
455.98	42.560
456.34	41.018
456.69	41.703
457.04	41.486
457.39	40.444
457.74	40.743
458.09	41.633
458.44	40.650
458.79	40.347
459.14	41.253
459.49	41.097
459.84	40.609
460.19	41.721
460.54	40.914
460.89	39.934
461.24	42.077
461.59	41.371
461.94	42.047
462.29	42.018
462.64	40.715
462.99	40.794
463.34	41.667
463.69	41.964
464.04	42.783
464.39	40.464
464.74	42.246
465.09	41.375
465.44	40.886
465.79	40.604
466.14	42.146
466.49	40.656
466.84	42.148
467.19	41.883
467.54	42.750
467.89	40.996
468.24	40.954
468.59	42.491
468.94	40.318
469.29	42.159
469.64	43.106
469.99	42.152
470.34	42.140
470.68	42.529
471.03	41.565
471.38	43.363
471.73	42.039
472.08	42.105
472.43	41.457
472.78	42.660
473.13	42.362
473.48	42.135
473.83	42.012
474.17	41.630
474.52	41.998
474.87	42.323
475.22	42.542
475.57	41.429
475.92	43.016
476.27	41.939
476.61	42.140
476.96	40.957
477.31	42.386
477.66	41.685
478.01	40.146
478.36	42.253
478.70	40.550
479.05	41.906
479.40	41.812
479.75	41.739
480.10	41.103
480.45	41.361
480.79	41.233
481.14	42.123
481.49	41.576
481.84	41.061
482.19	42.481
482.53	41.147
482.88	42.345
483.23	41.402
483.58	41.674
483.92	41.846
484.27	40.218
484.62	40.647
484.97	40.560
485.31	40.137
485.66	39.798
486.01	39.517
486.36	39.575
486.70	39.330
487.05	39.513
487.40	39.658
487.75	39.102
488.09	39.763
488.44	39.059
488.79	40.181
489.13	40.527
489.48	40.905
489.83	40.268
490.17	42.218
490.52	41.010
490.87	40.886
491.22	41.382
491.56	40.820
491.91	41.601
492.26	40.606
492.60	40.507
492.95	41.347
493.30	41.542
493.64	41.251
493.99	41.504
494.34	41.721
494.68	42.353
495.03	41.494
495.37	41.135
495.72	42.203
496.07	42.181
496.41	40.929
496.76	40.677
497.11	41.558
497.45	40.894
497.80	42.370
498.14	41.401
498.49	41.707
498.84	41.323
499.18	41.381
499.53	41.833
499.87	40.494
500.22	41.121
500.56	43.204
500.91	41.683
501.26	41.536
501.60	41.623
501.95	41.155
502.29	42.643
502.64	42.086
502.98	41.748
503.33	40.448
503.67	41.717
504.02	41.674
504.36	41.554
504.71	41.426
505.06	40.916
505.40	41.711
505.75	41.225
506.09	41.399
506.44	41.539
506.78	41.987
507.13	41.696
507.47	41.364
507.82	42.148
508.16	41.945
508.51	42.212
508.85	42.006
509.19	41.378
509.54	41.531
509.88	41.731
510.23	42.211
510.57	42.157
510.92	42.310
511.26	41.778
511.61	41.183
511.95	42.067
512.30	41.569
512.64	42.558
512.98	42.551
513.33	43.094
513.67	42.689
514.02	43.019
514.36	42.709
514.70	42.889
515.05	41.550
515.39	42.457
515.74	42.399
516.08	42.482
516.42	42.564
516.77	42.531
517.11	42.342
517.46	43.059
517.80	43.670
518.14	42.733
518.49	43.582
518.83	41.989
519.17	43.476
519.52	42.388
519.86	42.727
520.20	42.312
520.55	43.866
520.89	43.613
521.23	43.185
521.58	42.797
521.92	43.417
522.26	41.489
522.61	43.178
522.95	42.910
523.29	42.970
523.64	43.476
523.98	44.732
524.32	42.280
524.66	43.536
525.01	43.934
525.35	42.999
525.69	42.734
526.04	43.240
526.38	43.136
526.72	43.190
527.06	43.691
527.41	41.770
527.75	42.508
528.09	43.288
528.43	43.467
528.78	42.594
529.12	44.242
529.46	43.417
529.80	42.884
530.15	44.486
530.49	42.769
530.83	42.911
531.17	44.256
531.51	44.877
531.86	43.871
532.20	44.720
532.54	43.370
532.88	42.811
533.22	42.786
533.57	42.778
533.91	41.902
534.25	43.378
534.59	43.624
534.93	42.356
535.27	42.849
535.62	42.735
535.96	43.628
536.30	42.975
536.64	42.498
536.98	43.663
537.32	42.857
537.66	43.400
538.01	42.857
538.35	42.922
538.69	43.204
539.03	42.105
539.37	40.447
539.71	41.802
540.05	43.007
540.39	43.389
540.73	41.527
541.07	43.997
541.42	42.792
541.76	43.097
542.10	42.755
542.44	42.649
542.78	43.017
543.12	42.610
543.46	41.967
543.80	42.615
544.14	41.463
544.48	43.238
544.82	41.565
545.16	42.941
545.50	42.416
545.84	42.272
546.18	42.761
546.52	42.670
546.86	42.474
547.20	42.953
547.54	42.685
547.88	43.048
548.22	41.719
548.56	41.635
548.90	41.485
549.24	42.492
549.58	42.292
549.92	43.132
550.26	42.330
550.60	41.770
550.94	42.254
551.28	41.624
551.62	42.559
551.96	41.404
552.30	42.594
552.64	43.002
552.98	42.576
553.32	42.819
553.66	42.945
554.00	43.034
554.34	40.580
554.68	42.704
555.02	41.396
555.36	41.336
555.69	42.490
556.03	40.646
556.37	40.723
556.71	41.473
557.05	41.947
557.39	41.218
557.73	40.438
558.07	41.987
558.41	41.968
558.75	41.293
559.08	42.506
559.42	42.177
559.76	42.500
560.10	42.113
560.44	40.182
560.78	39.854
561.12	41.491
561.45	40.939
561.79	40.804
562.13	41.650
562.47	42.623
562.81	40.865
563.15	41.070
563.48	41.180
563.82	40.900
564.16	40.746
564.50	41.406
564.84	41.277
565.17	40.154
565.51	40.256
565.85	41.307
566.19	39.825
566.52	41.292
566.86	39.904
567.20	41.097
567.54	40.354
567.88	40.521
568.21	40.476
568.55	39.181
568.89	39.154
569.23	38.458
569.56	39.271
569.90	38.491
570.24	38.536
570.57	38.218
570.91	37.201
571.25	37.153
571.59	37.673
571.92	37.500
572.26	37.551
572.60	38.408
572.93	37.181
573.27	37.297
573.61	36.851
573.95	37.442
574.28	36.633
574.62	36.540
574.96	36.583
575.29	36.445
575.63	36.433
575.97	36.241
576.30	36.245
576.64	36.138
576.98	36.607
577.31	36.206
577.65	36.482
577.98	36.188
578.32	35.346
578.66	36.143
578.99	35.951
579.33	35.802
579.67	35.612
580.00	35.435
580.34	35.975
580.67	35.618
581.01	35.417
581.35	36.061
581.68	36.173
582.02	35.648
582.35	35.660
582.69	35.892
583.02	35.510
583.36	35.393
583.70	35.664
584.03	35.711
584.37	35.257
584.70	35.475
585.04	35.250
585.37	35.205
585.71	35.644
586.04	35.540
586.38	35.737
586.72	36.012
587.05	35.099
587.39	35.488
587.72	35.790
588.06	35.592
588.39	35.199
588.73	35.964
589.06	36.179
589.40	36.061
589.73	35.973
590.07	35.907
590.40	35.221
590.73	36.300
591.07	36.508
591.40	36.019
591.74	36.104
592.07	36.038
592.41	36.751
592.74	35.468
593.08	36.076
593.41	36.349
593.75	35.041
594.08	35.568
594.41	35.984
594.75	35.896
595.08	35.397
595.42	35.517
595.75	35.791
596.09	35.411
596.42	35.521
596.75	35.500
597.09	36.147
597.42	35.034
597.75	35.921
598.09	35.783
598.42	35.137
598.76	34.941
599.09	35.272
599.42	35.226
599.76	35.871
600.09	34.608
600.42	34.514
600.76	34.250
601.09	34.718
601.42	34.893
601.76	34.915
602.09	34.466
602.42	35.430
602.76	34.502
603.09	35.208
603.42	35.338
603.76	34.985
604.09	34.471
604.42	35.263
604.76	34.838
605.09	35.387
605.42	34.074
605.75	35.182
606.09	34.567
606.42	35.472
606.75	34.840
607.09	34.533
607.42	34.574
607.75	33.418
608.08	34.607
608.42	35.096
608.75	34.040
609.08	33.811
609.41	34.507
609.75	34.588
610.08	34.354
610.41	34.358
610.74	34.626
611.07	35.128
611.41	35.329
611.74	34.641
612.07	34.834
612.40	36.097
612.73	35.737
613.07	34.860
613.40	35.545
613.73	34.609
614.06	33.871
614.39	33.613
614.72	34.684
615.06	33.771
615.39	33.758
615.72	33.896
616.05	34.078
616.38	35.575
616.71	34.739
617.05	34.688
617.38	34.636
617.71	34.595
618.04	34.675
618.37	34.299
618.70	34.350
619.03	35.000
619.36	34.487
619.69	34.296
620.03	35.371
620.36	35.695
620.69	35.890
621.02	35.546
621.35	34.534
621.68	35.125
622.01	34.675
622.34	35.703
622.67	34.829
623.00	34.996
623.33	34.596
623.66	35.525
623.99	35.935
624.32	34.522
624.65	34.887
624.99	34.419
625.32	34.323
625.65	35.462
625.98	34.896
626.31	34.992
626.64	34.857
626.97	35.661
627.30	34.746
627.63	34.537
627.96	34.819
628.29	35.608
628.62	36.688
628.95	35.943
629.28	35.766
629.61	37.122
629.94	36.000
630.26	35.367
630.59	36.130
630.92	35.057
631.25	33.959
631.58	34.835
631.91	34.888
632.24	35.338
632.57	35.887
632.90	36.184
633.23	35.459
633.56	36.158
633.89	37.033
634.22	37.684
634.55	36.450
634.88	34.611
635.20	37.157
635.53	37.590
635.86	35.520
636.19	34.824
636.52	35.871
636.85	34.250
637.18	34.793
637.51	36.879
637.83	32.552
638.16	35.934
638.49	36.398
638.82	36.789
639.15	37.125
639.48	35.910
639.81	38.204
640.13	37.370
640.46	36.242
640.79	35.535
641.12	34.388
641.45	36.034
641.77	37.703
642.10	35.380
642.43	35.736
642.76	37.152
643.09	36.503
643.41	36.571
643.74	37.346
644.07	36.738
644.40	37.423
644.73	38.425
645.05	37.876
645.38	36.019
645.71	36.715
646.04	35.880
646.36	40.735
646.69	36.957
647.02	36.395
647.35	37.801
647.67	37.699
648.00	37.236
648.33	35.479
648.66	35.758
648.98	37.931
649.31	34.081
649.64	35.426
649.96	37.407
650.29	36.651
650.62	36.084
650.94	35.008
651.27	38.514
651.60	37.604
651.92	36.581
652.25	35.668
652.58	36.916
652.90	36.651
653.23	36.364
653.56	35.591
653.88	33.914
654.21	37.125
654.54	36.139
654.86	36.137
655.19	33.649
655.52	28.332
655.84	28.395
656.17	36.486
656.49	48.833
656.82	48.472
657.15	36.245
657.47	26.494
657.80	19.696
658.13	19.756
658.45	28.457
658.78	28.289
659.10	28.066
659.43	29.067
659.75	29.120
660.08	30.949
660.41	31.750
660.73	32.656
661.06	31.688
661.38	38.364
661.71	37.692
662.03	36.686
662.36	34.990
662.68	35.141
663.01	39.596
663.33	35.881
663.66	37.605
663.98	38.229
664.31	35.714
664.63	34.211
664.96	35.211
665.28	37.910
665.61	38.012
665.93	36.217
666.26	36.308
666.58	39.121
666.91	38.055
667.23	37.303
667.56	34.989
667.88	38.889
668.21	36.674
668.53	37.093
668.86	37.662
669.18	35.394
669.50	33.696
669.83	40.305
670.15	38.667
670.48	36.819
670.80	37.284
671.13	37.580
671.45	36.170
671.77	35.642
672.10	36.969
672.42	35.512
672.75	34.494
673.07	36.444
673.39	32.188
673.72	36.914
674.04	36.667
674.37	35.340
674.69	35.583
675.01	33.682
675.34	37.372
675.66	38.526
675.98	34.216
676.31	36.134
676.63	35.032
676.95	34.801
677.28	36.682
677.60	36.923
677.92	39.451
678.25	37.577
678.57	34.861
678.89	37.074
679.22	33.006
679.54	37.023
679.86	37.798
680.18	36.852
680.51	35.106
680.83	34.520
681.15	37.547
681.48	35.728
681.80	35.590
682.12	34.100
682.44	32.495
682.77	35.642
683.09	38.841
683.41	35.477
683.73	34.879
684.06	36.777
684.38	34.834
684.70	37.209
685.02	35.272
685.34	34.615
685.67	33.042
685.99	33.849
686.31	33.447
686.63	31.802
686.96	34.464
687.28	34.296
687.60	34.420
687.92	34.369
688.24	33.270
688.56	35.743
688.89	36.100
689.21	38.210
689.53	32.568
689.85	38.803
690.17	35.404
690.49	37.580
690.82	39.019
691.14	34.598
691.46	35.021
691.78	34.940
692.10	36.983
692.42	34.930
692.74	32.988
693.06	35.745
693.39	36.345
693.71	33.843
694.03	33.474
694.35	34.416
694.67	35.240
694.99	37.317
695.31	31.618
695.63	34.928
695.95	39.364
696.27	33.503
696.59	38.342
696.91	35.751
697.23	34.272
697.56	37.313
697.88	35.174
698.20	33.542
698.52	34.409
698.84	37.194
699.16	34.332
699.48	35.629
699.80	36.957
700.12	36.883
700.44	36.074
700.76	38.674
701.08	38.506
701.40	40.223
701.72	35.569
702.04	43.750
702.36	34.278
702.68	38.527
703.00	37.119
703.32	33.245
703.64	37.534
703.96	34.262
704.28	37.791
704.60	39.296
704.91	38.576
705.23	39.003
705.55	37.874
705.87	41.528
706.19	40.989
706.51	37.695
706.83	38.182
707.15	39.216
707.47	36.616
707.79	37.101
708.11	37.215
708.43	36.429
708.74	35.459
709.06	37.922
709.38	37.008
709.70	40.116
710.02	37.685
710.34	36.364
710.66	37.015
710.98	39.489
711.29	38.372
711.61	39.823
711.93	37.821
712.25	40.193
712.57	41.544
712.89	38.062
713.20	36.778
713.52	42.105
713.84	36.392
714.16	39.024
714.48	35.345
714.80	41.337
715.11	36.888
715.43	36.499
715.75	37.391
716.07	39.297
716.39	42.006
716.70	39.535
717.02	38.129
717.34	37.102
717.66	44.776
717.97	41.833
718.29	40.370
718.61	37.226
718.93	41.544
719.24	35.640
719.56	38.983
719.88	36.949
720.20	40.541
720.51	38.676
720.83	45.353
721.15	39.925
721.46	36.525
721.78	37.276
722.10	41.509
722.42	45.113
722.73	40.824
723.05	40.574
723.37	42.105
723.68	41.699
724.00	41.870
724.32	37.903
724.63	45.528
724.95	32.636
725.27	41.700
725.58	39.062
725.90	41.606
726.22	38.113
726.53	38.194
726.85	41.980
727.16	39.146
727.48	37.234
727.80	36.742
728.11	36.232
728.43	37.692
728.74	40.143
729.06	43.066
729.38	43.015
729.69	43.060
730.01	35.836
730.32	37.153
730.64	40.134
730.96	34.323
731.27	39.735
731.59	38.838
731.90	37.901
732.22	40.994
732.53	36.223
732.85	37.821
733.16	38.585
733.48	36.545
733.80	39.610
734.11	36.943
734.43	39.349
734.74	39.714
735.06	35.244
735.37	39.306
735.69	32.803
736.00	42.484
736.32	41.121
736.63	35.783
736.95	38.658
737.26	32.993
737.58	35.806
737.89	37.793
738.21	37.201
738.52	40.714
738.83	34.717
739.15	37.692
739.46	44.891
739.78	38.889
740.09	38.769
740.41	37.419
740.72	37.631
741.04	39.259
741.35	43.750
741.66	46.222
741.98	38.208
742.29	41.148
742.61	44.397
742.92	41.176
743.23	42.308
743.55	40.400
743.86	39.035
744.18	41.150
744.49	46.890
744.80	47.887
745.12	43.636
745.43	43.172
745.74	43.243
746.06	46.789
746.37	39.462
746.68	38.462
747.00	42.130
747.31	43.810
747.62	34.071
747.94	40.969
748.25	38.723
748.56	41.850
748.88	43.069
749.19	48.000
749.50	42.326
749.82	41.057
750.13	38.776
750.44	36.861
750.75	38.246
751.07	40.514
751.38	43.554
751.69	43.321
752.01	40.602
752.32	38.267
752.63	40.426
752.94	44.262
753.26	41.600
753.57	36.992
753.88	41.016
754.19	42.857
754.51	38.194
754.82	37.545
755.13	38.868
755.44	39.098
755.75	35.401
756.07	37.589
756.38	37.591
756.69	37.584
757.00	36.527
757.31	36.499
757.63	37.719
757.94	35.121
758.25	36.029
758.56	37.531
758.87	31.720
759.18	36.667
759.50	34.483
759.81	37.383
760.12	35.625
760.43	37.249
760.74	36.413
761.05	36.723
761.36	33.957
761.67	37.216
761.99	36.335
762.30	37.153
762.61	39.313
762.92	38.672
763.23	37.815
763.54	41.600
763.85	39.844
764.16	41.538
764.47	45.627
764.78	36.396
765.10	32.595
765.41	36.283
765.72	37.126
766.03	36.677
766.34	37.667
766.65	44.255
766.96	43.162
767.27	42.640
767.58	43.229
767.89	46.842
768.20	47.126
768.51	46.193
768.82	44.037
769.13	37.805
769.44	37.247
769.75	37.339
770.06	35.780
770.37	43.891
770.68	37.037
770.99	39.556
771.30	34.836
771.61	46.188
771.92	47.541
772.23	41.597
772.54	42.564
772.85	47.644
773.16	49.468
773.47	42.935
773.78	49.239
774.09	42.857
774.39	45.614
774.70	45.679
775.01	60.870
775.32	54.902
775.63	51.974
775.94	45.324
776.25	53.543
776.56	47.761
776.87	66.393
777.18	52.344
777.48	49.618
777.79	56.061
778.10	49.630
778.41	50.000
778.72	41.606
779.03	51.007
779.34	46.309
779.65	48.649
779.95	50.307
780.26	48.366
780.57	48.966
780.88	59.375
781.19	48.120
781.50	52.703
781.80	50.943
782.11	41.808
782.42	48.734
782.73	45.399
783.04	56.081
783.34	57.746
783.65	63.699
783.96	58.209
784.27	44.755
784.57	41.727
784.88	49.074
785.19	50.794
785.50	60.377
785.81	60.448
786.11	59.836
786.42	50.388
786.73	54.867
787.04	59.434
787.34	66.964
787.65	60.000
787.96	53.153
788.26	51.240
788.57	59.322
788.88	64.463
789.19	44.444
789.49	57.576
789.80	58.015
790.11	55.238
790.41	61.386
790.72	62.651
791.03	57.609
791.33	55.814
791.64	57.732
791.95	65.347
792.25	77.778
792.56	64.935
792.87	85.897
793.17	72.152
793.48	79.310
793.79	78.161
794.09	61.364
794.40	53.782
794.70	54.412
795.01	46.667
795.32	53.237
795.62	51.969
795.93	60.345
796.23	54.867
796.54	63.529
796.85	71.622
797.15	83.099
797.46	69.697
797.76	65.060
798.07	58.228
798.37	75.385
798.68	83.333
798.99	67.606
799.29	72.727
799.60	65.909
799.90	78.082
800.21	86.567
800.51	77.586
800.82	101.754
801.12	75.410
801.43	86.364
801.73	71.622
802.04	90.476
802.34	70.370
802.65	71.875
802.95	89.831
803.26	81.250
803.56	68.571
803.87	67.692
804.17	73.529
804.48	105.556
804.78	65.517
805.09	88.235
805.39	94.231
805.70	87.500
806.00	88.525
806.30	92.424
806.61	76.829
806.91	62.025
807.22	69.737
807.52	65.672
807.83	70.423
808.13	78.125
808.43	81.667
808.74	67.105
809.04	75.362
809.35	79.104
809.65	69.737
809.95	95.161
810.26	96.610
810.56	79.365
810.86	100.000
811.17	107.143
811.47	81.667
811.77	88.889
812.08	87.273
812.38	102.000
812.69	119.444
812.99	127.273
813.29	95.918
813.59	59.524
813.90	93.878
814.20	72.727
814.50	76.923
814.81	92.647
815.11	108.163
815.41	100.000
815.72	121.429
816.02	96.364
816.32	102.381
816.62	97.500
816.93	85.366
817.23	111.905
817.53	97.727
817.84	139.394
818.14	117.391
818.44	91.111
818.74	132.353
819.04	105.000
819.35	120.000
819.65	147.059
819.95	132.143
820.25	170.000
820.56	107.692
820.86	120.455
821.16	113.953
821.46	112.821
821.76	114.000
822.07	145.714
822.37	135.000
822.67	130.303
822.97	98.039
823.27	164.286
823.57	116.216
823.88	115.000
824.18	166.667
824.48	121.429
824.78	200.000
825.08	141.667
825.38	100.000
825.69	109.756
825.99	187.500
826.29	141.379
826.59	110.526
826.89	110.526
827.19	138.235
827.49	129.032
827.79	100.000
828.09	138.636
828.39	82.979
828.70	108.163
829.00	125.926
829.30	135.484
829.60	105.000
829.90	253.333
830.20	135.714
830.50	130.435
830.80	152.174
831.10	170.000
831.40	140.000
831.70	113.043
832.00	188.462
832.30	148.148
832.60	237.500
832.90	160.000
833.20	321.429
833.50	148.387
833.80	141.379
834.10	171.875
834.40	150.000
834.70	266.667
835.00	233.333
835.30	157.143
835.60	207.692
835.90	158.621
836.20	228.571
836.50	144.828
836.80	160.000
837.10	111.111
837.40	190.476
837.70	205.882
838.00	140.741
838.30	176.190
838.60	223.810
838.90	165.385
839.19	170.000
839.49	342.857
839.79	255.000
840.09	150.000
840.39	214.286
840.69	191.304
840.99	244.444
841.29	310.000
841.59	233.333
841.88	287.500
842.18	148.276
842.48	161.905
842.78	140.000
843.08	169.565
843.38	115.625
843.68	716.667
843.97	153.846
844.27	155.172
844.57	233.333
844.87	225.000
845.17	203.704
845.47	1166.667
845.76	244.444
846.06	223.529
846.36	437.500
846.66	242.857
846.96	225.000
847.25	336.364
847.55	363.636
847.85	217.391
848.15	410.000
848.44	278.571
848.74	150.000
849.04	288.235
849.34	440.000
849.63	173.684
849.93	345.455
850.23	920.000
850.53	300.000
850.82	1750.000
851.12	-4200.000
851.42	4100.000
851.71	170.000
852.01	-833.333
852.31	162.500
852.61	1533.333
852.90	209.524
853.20	192.000
853.50	282.353
853.79	190.476
854.09	125.000
854.39	218.750
854.68	143.243
854.98	151.613
855.28	140.000
855.57	193.103
855.87	159.259
856.17	205.263
856.46	180.000
856.76	223.529
857.05	141.379
857.35	125.000
857.65	253.333
857.94	143.478
858.24	226.923
858.53	195.000
858.83	181.818
859.13	306.667
859.42	0.000
859.72	422.222
860.01	381.818
860.31	172.727
860.60	221.053
860.90	156.522
861.20	344.444
861.49	375.000
861.79	-3200.000
862.08	412.500
862.38	209.524
862.67	284.615
862.97	247.059
863.26	366.667
863.56	244.444
863.85	333.333
864.15	487.500
864.44	293.333
864.74	600.000
865.03	450.000
865.33	210.526
865.62	336.364
865.92	330.769
866.21	300.000
866.51	0.000
866.80	345.455
867.10	820.000
867.39	376.923
867.69	390.909
867.98	226.316
868.27	336.364
868.57	200.000
868.86	-2600.000
869.16	256.250
869.45	1350.000
869.75	-2900.000
870.04	233.333
870.33	542.857
870.63	800.000
870.92	1850.000
871.22	542.857
871.51	252.941
871.80	157.143
872.10	278.571
>>>>>End Processed Spectral Data<<<<<
