SpectraSuite Data File
++++++++++++++++++++++++++++++++++++
Date: Wed May 13 20:25:08 PDT 2015
User: schluterlab
Dark Spectrum Present: Yes
Reference Spectrum Present: Yes
Number of Sampled Component Spectra: 1
Spectrometers: USB2E3373
Integration Time (usec): 3000 (USB2E3373)
Spectra Averaged: 3 (USB2E3373)
Boxcar Smoothing: 0 (USB2E3373)
Correct for Electrical Dark: No (USB2E3373)
Strobe/Lamp Enabled: No (USB2E3373)
Correct for Detector Non-linearity: No (USB2E3373)
Correct for Stray Light: No (USB2E3373)
Number of Pixels in Processed Spectrum: 2048
>>>>>Begin Processed Spectral Data<<<<<
178.53	0.000
178.91	-1325.000
179.29	-1175.000
179.67	-194.444
180.04	-1275.000
180.42	1950.000
180.80	1080.000
181.18	-900.000
181.56	671.429
181.94	0.000
182.31	-614.286
182.69	1633.333
183.07	-575.000
183.45	-555.556
183.83	509.091
184.20	-360.000
184.58	2450.000
184.96	4600.000
185.34	-820.000
185.72	-562.500
186.09	-2250.000
186.47	2350.000
186.85	2050.000
187.23	5000.000
187.61	-1966.667
187.98	1525.000
188.36	454.545
188.74	509.091
189.12	-940.000
189.49	460.000
189.87	-4300.000
190.25	-1300.000
190.63	385.714
191.00	346.154
191.38	850.000
191.76	-1400.000
192.14	1250.000
192.51	662.500
192.89	766.667
193.27	550.000
193.65	-1175.000
194.02	540.000
194.40	820.000
194.78	510.000
195.15	425.000
195.53	570.000
195.91	-1650.000
196.29	343.750
196.66	278.947
197.04	-330.000
197.42	0.000
197.79	650.000
198.17	-3500.000
198.55	671.429
198.92	650.000
199.30	660.000
199.68	0.000
200.05	294.444
200.43	714.286
200.81	3300.000
201.18	1966.667
201.56	-1600.000
201.94	633.333
202.31	633.333
202.69	375.000
203.07	550.000
203.44	0.000
203.82	900.000
204.19	814.286
204.57	471.429
204.95	662.500
205.32	1266.667
205.70	590.909
206.08	328.571
206.45	2650.000
206.83	400.000
207.20	1016.667
207.58	760.000
207.96	311.111
208.33	787.500
208.71	-716.667
209.08	757.143
209.46	644.444
209.84	527.273
210.21	-1866.667
210.59	1275.000
210.96	-487.500
211.34	2850.000
211.71	550.000
212.09	783.333
212.46	0.000
212.84	1500.000
213.22	1250.000
213.59	-4100.000
213.97	933.333
214.34	714.286
214.72	572.727
215.09	1080.000
215.47	-2100.000
215.84	-2650.000
216.22	1666.667
216.59	435.714
216.97	1225.000
217.34	445.455
217.72	-683.333
218.09	0.000
218.47	-4300.000
218.84	577.778
219.22	814.286
219.59	1666.667
219.97	-414.286
220.34	1060.000
220.72	-1466.667
221.09	371.429
221.47	1350.000
221.84	-733.333
222.22	0.000
222.59	1350.000
222.97	-3150.000
223.34	1060.000
223.72	438.462
224.09	840.000
224.46	2600.000
224.84	-5800.000
225.21	-880.000
225.59	-4900.000
225.96	500.000
226.34	275.000
226.71	2200.000
227.08	712.500
227.46	540.000
227.83	-1175.000
228.21	-2000.000
228.58	600.000
228.95	-2800.000
229.33	-2300.000
229.70	1633.333
230.08	571.429
230.45	-740.000
230.82	441.667
231.20	883.333
231.57	671.429
231.95	466.667
232.32	231.818
232.69	418.182
233.07	628.571
233.44	369.231
233.81	-1600.000
234.19	284.211
234.56	425.000
234.93	358.333
235.31	490.909
235.68	338.462
236.05	350.000
236.43	203.030
236.80	252.632
237.17	6100.000
237.55	242.857
237.92	210.714
238.29	257.143
238.67	187.097
239.04	193.103
239.41	144.444
239.79	119.565
240.16	161.905
240.53	165.909
240.91	152.941
241.28	122.000
241.65	144.000
242.02	117.391
242.40	127.419
242.77	123.333
243.14	91.398
243.51	85.393
243.89	90.588
244.26	82.222
244.63	82.796
245.00	82.979
245.38	87.129
245.75	81.308
246.12	77.982
246.49	89.781
246.87	89.600
247.24	87.692
247.61	73.571
247.98	72.549
248.36	75.676
248.73	75.796
249.10	70.064
249.47	64.972
249.84	64.171
250.22	68.984
250.59	69.231
250.96	68.687
251.33	68.720
251.70	67.327
252.08	66.667
252.45	62.780
252.82	59.565
253.19	64.255
253.56	60.784
253.94	63.485
254.31	58.594
254.68	65.385
255.05	57.565
255.42	61.382
255.79	58.456
256.16	58.484
256.54	57.244
256.91	57.651
257.28	50.719
257.65	56.436
258.02	57.453
258.39	52.997
258.76	56.522
259.14	51.488
259.51	55.015
259.88	56.832
260.25	57.100
260.62	52.023
260.99	56.211
261.36	56.156
261.73	52.722
262.10	52.326
262.47	55.211
262.85	50.418
263.22	53.561
263.59	52.137
263.96	57.143
264.33	50.131
264.70	55.526
265.07	50.639
265.44	50.000
265.81	51.825
266.18	51.759
266.55	50.244
266.92	51.597
267.29	52.546
267.66	51.376
268.03	50.000
268.40	49.766
268.77	49.403
269.14	50.225
269.51	51.016
269.88	50.350
270.25	50.790
270.62	48.539
270.99	49.892
271.36	50.215
271.73	50.234
272.10	49.130
272.47	52.473
272.84	49.784
273.21	49.476
273.58	46.507
273.95	47.589
274.32	46.901
274.69	47.752
275.06	46.850
275.43	49.574
275.80	48.096
276.17	49.898
276.54	51.143
276.91	48.221
277.28	46.875
277.65	46.615
278.02	49.275
278.39	48.633
278.76	46.364
279.13	46.792
279.50	46.182
279.87	48.207
280.23	49.301
280.60	46.422
280.97	46.950
281.34	46.903
281.71	44.364
282.08	48.177
282.45	44.909
282.82	45.648
283.19	43.672
283.56	45.439
283.92	47.547
284.29	44.974
284.66	43.920
285.03	47.197
285.40	45.599
285.77	44.276
286.14	44.387
286.51	44.333
286.87	44.444
287.24	46.417
287.61	42.697
287.98	43.182
288.35	40.412
288.72	41.745
289.08	39.280
289.45	39.703
289.82	43.740
290.19	38.462
290.56	41.041
290.93	39.426
291.29	41.871
291.66	41.888
292.03	43.605
292.40	39.794
292.77	39.497
293.13	39.254
293.50	40.233
293.87	38.074
294.24	37.037
294.60	37.555
294.97	37.936
295.34	37.941
295.71	37.358
296.08	37.179
296.44	35.901
296.81	35.931
297.18	38.347
297.55	35.092
297.91	34.697
298.28	36.145
298.65	33.551
299.02	37.813
299.38	35.857
299.75	33.693
300.12	34.100
300.48	33.750
300.85	34.155
301.22	33.758
301.59	33.081
301.95	34.005
302.32	35.173
302.69	33.572
303.05	34.303
303.42	33.951
303.79	33.409
304.15	31.352
304.52	31.402
304.89	31.010
305.25	32.947
305.62	32.390
305.99	32.940
306.35	33.110
306.72	33.296
307.09	32.408
307.45	32.658
307.82	31.138
308.19	33.444
308.55	32.147
308.92	32.331
309.29	29.673
309.65	31.495
310.02	31.290
310.38	31.290
310.75	30.412
311.12	32.037
311.48	30.408
311.85	32.285
312.22	30.593
312.58	31.081
312.95	32.946
313.31	30.680
313.68	32.536
314.05	32.742
314.41	32.764
314.78	31.219
315.14	32.572
315.51	31.205
315.87	31.782
316.24	31.877
316.61	32.164
316.97	31.311
317.34	32.583
317.70	34.704
318.07	34.167
318.43	35.323
318.80	35.052
319.16	35.499
319.53	34.709
319.89	35.810
320.26	35.500
320.62	36.706
320.99	37.576
321.35	37.980
321.72	38.706
322.08	39.289
322.45	40.597
322.81	42.054
323.18	43.256
323.54	42.393
323.91	43.774
324.27	44.933
324.64	45.480
325.00	44.725
325.37	46.679
325.73	47.127
326.10	47.308
326.46	47.760
326.83	49.957
327.19	50.811
327.56	52.439
327.92	53.018
328.29	52.351
328.65	54.880
329.01	55.776
329.38	56.522
329.74	57.248
330.11	58.624
330.47	59.596
330.84	59.559
331.20	59.745
331.56	57.798
331.93	60.741
332.29	58.917
332.66	60.442
333.02	61.792
333.38	62.602
333.75	62.745
334.11	63.345
334.48	63.975
334.84	64.154
335.20	65.273
335.57	63.191
335.93	64.107
336.29	64.652
336.66	66.005
337.02	65.249
337.38	66.111
337.75	66.132
338.11	67.771
338.47	66.851
338.84	67.828
339.20	66.697
339.56	67.701
339.93	67.818
340.29	68.297
340.65	69.162
341.02	67.714
341.38	69.306
341.74	69.298
342.11	68.646
342.47	70.044
342.83	68.750
343.20	70.216
343.56	69.419
343.92	72.193
344.28	70.408
344.65	71.539
345.01	70.791
345.37	71.955
345.73	71.827
346.10	71.270
346.46	72.966
346.82	70.593
347.19	71.512
347.55	71.018
347.91	71.683
348.27	72.062
348.63	74.080
349.00	72.006
349.36	73.153
349.72	72.013
350.08	71.718
350.45	73.230
350.81	73.842
351.17	72.934
351.53	74.283
351.89	73.185
352.26	74.191
352.62	75.621
352.98	75.365
353.34	76.417
353.70	75.450
354.07	75.161
354.43	74.286
354.79	74.497
355.15	74.860
355.51	76.419
355.87	75.918
356.24	76.792
356.60	75.301
356.96	78.600
357.32	78.332
357.68	78.031
358.04	76.326
358.40	79.414
358.77	78.482
359.13	78.848
359.49	77.882
359.85	79.286
360.21	79.825
360.57	78.911
360.93	77.846
361.29	78.307
361.66	79.180
362.02	79.627
362.38	81.521
362.74	79.167
363.10	79.127
363.46	78.577
363.82	79.894
364.18	78.414
364.54	80.312
364.90	80.028
365.26	82.794
365.62	82.177
365.98	80.278
366.35	79.656
366.71	81.056
367.07	81.719
367.43	81.567
367.79	82.370
368.15	83.261
368.51	80.596
368.87	82.084
369.23	82.809
369.59	83.056
369.95	81.838
370.31	81.197
370.67	81.449
371.03	82.322
371.39	83.090
371.75	83.603
372.11	82.361
372.47	83.724
372.83	84.870
373.19	82.803
373.55	85.366
373.91	85.125
374.27	80.619
374.63	82.836
374.99	81.427
375.35	83.531
375.71	82.934
376.07	83.128
376.42	85.282
376.78	82.240
377.14	82.904
377.50	84.901
377.86	83.710
378.22	84.766
378.58	82.644
378.94	83.092
379.30	83.779
379.66	84.708
380.02	83.231
380.38	82.271
380.74	84.154
381.09	83.313
381.45	83.651
381.81	83.845
382.17	83.376
382.53	84.843
382.89	82.901
383.25	84.365
383.61	84.325
383.97	81.926
384.32	82.969
384.68	82.838
385.04	84.696
385.40	81.981
385.76	83.661
386.12	84.326
386.48	83.197
386.83	85.183
387.19	84.292
387.55	83.117
387.91	82.588
388.27	82.955
388.62	84.020
388.98	81.880
389.34	82.728
389.70	84.365
390.06	84.918
390.42	82.879
390.77	81.807
391.13	82.897
391.49	82.805
391.85	81.413
392.20	81.830
392.56	82.955
392.92	83.225
393.28	81.124
393.64	82.554
393.99	81.368
394.35	83.127
394.71	81.995
395.07	81.121
395.42	82.262
395.78	81.997
396.14	80.695
396.50	83.396
396.85	83.026
397.21	80.210
397.57	81.277
397.92	80.829
398.28	79.709
398.64	81.661
399.00	81.421
399.35	79.752
399.71	80.729
400.07	80.308
400.42	80.061
400.78	80.579
401.14	80.732
401.49	80.478
401.85	81.125
402.21	79.222
402.57	80.938
402.92	80.139
403.28	78.638
403.63	79.332
403.99	80.382
404.35	78.970
404.70	77.398
405.06	79.150
405.42	79.601
405.77	78.286
406.13	77.935
406.49	78.001
406.84	77.614
407.20	77.364
407.55	77.601
407.91	78.400
408.27	78.685
408.62	76.400
408.98	76.532
409.34	77.306
409.69	76.710
410.05	76.580
410.40	76.147
410.76	76.464
411.11	74.487
411.47	75.527
411.83	74.710
412.18	75.387
412.54	76.775
412.89	74.639
413.25	75.030
413.60	74.985
413.96	73.163
414.31	76.002
414.67	75.729
415.03	75.497
415.38	75.515
415.74	74.662
416.09	77.662
416.45	75.033
416.80	74.422
417.16	75.804
417.51	75.050
417.87	73.282
418.22	74.322
418.58	72.950
418.93	73.342
419.29	74.602
419.64	72.670
420.00	72.195
420.35	73.333
420.71	73.162
421.06	72.315
421.42	72.222
421.77	73.262
422.12	71.252
422.48	71.722
422.83	72.918
423.19	70.608
423.54	73.709
423.90	72.406
424.25	71.413
424.61	71.667
424.96	73.061
425.31	70.764
425.67	69.270
426.02	70.457
426.38	73.260
426.73	71.036
427.09	72.097
427.44	70.730
427.79	71.420
428.15	69.583
428.50	71.445
428.85	70.262
429.21	70.790
429.56	69.414
429.92	69.149
430.27	69.265
430.62	67.896
430.98	69.901
431.33	69.742
431.68	70.157
432.04	68.850
432.39	70.303
432.74	70.856
433.10	70.855
433.45	69.038
433.80	69.124
434.16	68.376
434.51	68.789
434.86	69.612
435.22	68.260
435.57	69.970
435.92	70.334
436.28	70.047
436.63	69.260
436.98	68.403
437.34	71.020
437.69	70.070
438.04	69.758
438.39	69.612
438.75	69.436
439.10	69.218
439.45	69.303
439.81	68.520
440.16	68.097
440.51	69.420
440.86	68.442
441.22	68.298
441.57	67.994
441.92	68.833
442.27	68.407
442.63	68.510
442.98	68.789
443.33	66.739
443.68	67.837
444.03	67.204
444.39	66.991
444.74	67.587
445.09	67.547
445.44	67.687
445.79	66.452
446.15	65.961
446.50	67.690
446.85	67.420
447.20	67.772
447.55	67.783
447.91	67.733
448.26	68.002
448.61	66.309
448.96	68.106
449.31	67.492
449.66	67.304
450.02	66.574
450.37	66.440
450.72	66.385
451.07	64.778
451.42	66.079
451.77	66.647
452.12	66.282
452.47	65.236
452.83	66.667
453.18	65.465
453.53	66.729
453.88	67.513
454.23	65.690
454.58	66.081
454.93	67.641
455.28	65.835
455.63	65.959
455.98	66.786
456.34	65.641
456.69	67.877
457.04	66.997
457.39	66.043
457.74	64.655
458.09	64.922
458.44	64.937
458.79	63.178
459.14	65.011
459.49	64.857
459.84	64.044
460.19	65.056
460.54	61.979
460.89	63.906
461.24	64.117
461.59	65.485
461.94	63.872
462.29	64.332
462.64	62.859
462.99	63.826
463.34	64.133
463.69	63.790
464.04	63.652
464.39	63.304
464.74	62.389
465.09	62.123
465.44	61.330
465.79	61.969
466.14	61.303
466.49	61.958
466.84	63.164
467.19	63.005
467.54	62.500
467.89	61.044
468.24	62.129
468.59	63.248
468.94	60.171
469.29	63.882
469.64	63.655
469.99	63.667
470.34	64.267
470.68	63.218
471.03	61.361
471.38	63.238
471.73	63.025
472.08	63.487
472.43	61.746
472.78	62.607
473.13	61.040
473.48	62.172
473.83	62.317
474.17	60.299
474.52	61.352
474.87	60.187
475.22	60.998
475.57	59.968
475.92	59.426
476.27	60.034
476.61	60.121
476.96	59.703
477.31	60.858
477.66	60.449
478.01	59.435
478.36	59.757
478.70	59.450
479.05	60.756
479.40	59.877
479.75	60.752
480.10	59.145
480.45	60.067
480.79	59.771
481.14	58.953
481.49	59.279
481.84	58.802
482.19	60.064
482.53	58.440
482.88	58.353
483.23	60.000
483.58	59.600
483.92	59.185
484.27	56.819
484.62	58.233
484.97	56.760
485.31	57.158
485.66	54.326
486.01	53.906
486.36	52.610
486.70	54.575
487.05	54.623
487.40	55.720
487.75	56.134
488.09	57.476
488.44	57.438
488.79	58.553
489.13	58.900
489.48	58.157
489.83	58.394
490.17	58.308
490.52	56.643
490.87	57.576
491.22	57.435
491.56	56.446
491.91	56.352
492.26	56.775
492.60	56.636
492.95	56.688
493.30	56.495
493.64	56.230
493.99	55.339
494.34	57.077
494.68	55.907
495.03	57.096
495.37	54.723
495.72	57.310
496.07	55.452
496.41	54.735
496.76	55.321
497.11	55.831
497.45	56.171
497.80	56.190
498.14	56.184
498.49	56.976
498.84	56.136
499.18	55.667
499.53	55.935
499.87	55.172
500.22	55.346
500.56	56.262
500.91	54.615
501.26	55.334
501.60	56.478
501.95	54.904
502.29	56.045
502.64	54.376
502.98	54.324
503.33	54.113
503.67	55.267
504.02	54.771
504.36	54.328
504.71	55.105
505.06	55.518
505.40	55.177
505.75	54.147
506.09	54.082
506.44	55.895
506.78	54.847
507.13	55.729
507.47	55.253
507.82	54.306
508.16	55.876
508.51	55.251
508.85	54.518
509.19	55.357
509.54	55.306
509.88	54.972
510.23	54.807
510.57	56.244
510.92	55.619
511.26	55.036
511.61	54.927
511.95	54.280
512.30	54.136
512.64	55.508
512.98	54.984
513.33	55.835
513.67	55.229
514.02	54.275
514.36	55.270
514.70	56.447
515.05	55.047
515.39	55.468
515.74	55.011
516.08	56.233
516.42	56.215
516.77	56.020
517.11	54.218
517.46	54.345
517.80	56.388
518.14	54.372
518.49	54.784
518.83	55.511
519.17	54.908
519.52	54.782
519.86	56.018
520.20	56.243
520.55	56.373
520.89	55.414
521.23	55.911
521.58	55.522
521.92	56.216
522.26	55.278
522.61	57.009
522.95	55.556
523.29	56.360
523.64	56.768
523.98	57.055
524.32	56.876
524.66	55.502
525.01	56.005
525.35	55.452
525.69	55.542
526.04	54.704
526.38	55.949
526.72	55.644
527.06	55.869
527.41	53.342
527.75	55.884
528.09	55.556
528.43	55.131
528.78	55.255
529.12	54.545
529.46	55.787
529.80	55.631
530.15	54.642
530.49	53.477
530.83	55.570
531.17	55.157
531.51	56.939
531.86	54.839
532.20	55.737
532.54	55.029
532.88	55.456
533.22	54.466
533.57	54.321
533.91	55.449
534.25	54.313
534.59	55.766
534.93	53.242
535.27	53.832
535.62	53.846
535.96	56.372
536.30	54.927
536.64	55.312
536.98	56.669
537.32	53.390
537.66	55.400
538.01	55.563
538.35	54.234
538.69	54.499
539.03	53.606
539.37	53.227
539.71	52.819
540.05	54.510
540.39	53.488
540.73	54.204
541.07	54.250
541.42	54.599
541.76	54.903
542.10	55.045
542.44	54.238
542.78	55.336
543.12	53.167
543.46	53.902
543.80	54.782
544.14	52.696
544.48	53.270
544.82	52.919
545.16	54.717
545.50	51.992
545.84	53.898
546.18	54.141
546.52	54.921
546.86	54.089
547.20	54.552
547.54	53.707
547.88	53.125
548.22	52.179
548.56	52.642
548.90	52.497
549.24	54.343
549.58	53.274
549.92	52.679
550.26	54.403
550.60	52.697
550.94	53.310
551.28	52.890
551.62	55.068
551.96	52.772
552.30	53.515
552.64	52.671
552.98	52.271
553.32	53.068
553.66	52.829
554.00	53.809
554.34	52.588
554.68	55.079
555.02	53.032
555.36	54.071
555.69	52.977
556.03	52.624
556.37	53.274
556.71	51.842
557.05	52.381
557.39	53.184
557.73	52.717
558.07	53.227
558.41	53.184
558.75	53.857
559.08	52.573
559.42	54.649
559.76	52.941
560.10	51.606
560.44	51.992
560.78	51.297
561.12	50.923
561.45	52.477
561.79	50.758
562.13	52.381
562.47	52.664
562.81	53.068
563.15	52.441
563.48	52.586
563.82	52.316
564.16	52.060
564.50	50.911
564.84	50.379
565.17	51.931
565.51	52.013
565.85	51.459
566.19	50.720
566.52	52.375
566.86	50.211
567.20	50.236
567.54	50.856
567.88	50.190
568.21	51.270
568.55	50.101
568.89	49.076
569.23	48.307
569.56	47.530
569.90	47.170
570.24	48.009
570.57	47.807
570.91	45.992
571.25	46.973
571.59	46.598
571.92	46.515
572.26	47.256
572.60	47.267
572.93	46.897
573.27	47.382
573.61	47.571
573.95	46.899
574.28	46.080
574.62	46.574
574.96	45.591
575.29	46.387
575.63	46.443
575.97	46.394
576.30	47.265
576.64	46.424
576.98	46.135
577.31	45.448
577.65	45.537
577.98	45.718
578.32	45.413
578.66	45.388
578.99	46.473
579.33	46.115
579.67	45.366
580.00	45.912
580.34	46.037
580.67	46.608
581.01	46.211
581.35	44.774
581.68	44.988
582.02	44.709
582.35	45.172
582.69	45.348
583.02	46.014
583.36	47.060
583.70	46.753
584.03	46.813
584.37	46.324
584.70	46.630
585.04	45.377
585.37	45.154
585.71	45.465
586.04	45.301
586.38	46.317
586.72	46.258
587.05	45.640
587.39	45.594
587.72	46.380
588.06	46.318
588.39	45.871
588.73	46.700
589.06	46.931
589.40	47.003
589.73	46.533
590.07	46.619
590.40	46.072
590.73	47.892
591.07	47.619
591.40	48.292
591.74	48.398
592.07	46.946
592.41	45.473
592.74	45.805
593.08	44.737
593.41	45.049
593.75	44.441
594.08	45.558
594.41	44.998
594.75	46.691
595.08	45.956
595.42	46.515
595.75	46.368
596.09	47.315
596.42	46.483
596.75	47.657
597.09	46.883
597.42	45.995
597.75	46.787
598.09	46.783
598.42	46.005
598.76	46.129
599.09	44.698
599.42	44.651
599.76	45.827
600.09	44.918
600.42	44.960
600.76	44.464
601.09	45.392
601.42	46.005
601.76	45.009
602.09	45.968
602.42	45.860
602.76	46.393
603.09	45.437
603.42	45.490
603.76	45.046
604.09	45.289
604.42	45.821
604.76	46.099
605.09	45.828
605.42	44.463
605.75	45.364
606.09	45.710
606.42	44.912
606.75	46.288
607.09	45.207
607.42	45.486
607.75	45.105
608.08	45.202
608.42	46.078
608.75	45.176
609.08	45.097
609.41	45.550
609.75	45.545
610.08	45.994
610.41	46.229
610.74	45.364
611.07	46.196
611.41	46.124
611.74	45.752
612.07	46.687
612.40	46.800
612.73	46.158
613.07	46.121
613.40	46.340
613.73	44.835
614.06	46.129
614.39	45.726
614.72	46.105
615.06	46.113
615.39	45.488
615.72	45.092
616.05	45.455
616.38	46.359
616.71	47.209
617.05	46.231
617.38	46.422
617.71	47.267
618.04	46.094
618.37	45.890
618.70	46.049
619.03	46.447
619.36	46.911
619.69	46.901
620.03	48.420
620.36	45.388
620.69	47.603
621.02	47.861
621.35	48.395
621.68	46.495
622.01	46.517
622.34	46.218
622.67	48.061
623.00	45.708
623.33	46.104
623.66	45.390
623.99	46.024
624.32	45.506
624.65	45.833
624.99	45.467
625.32	45.764
625.65	46.431
625.98	48.501
626.31	47.823
626.64	47.592
626.97	48.628
627.30	47.880
627.63	47.580
627.96	47.855
628.29	47.944
628.62	47.941
628.95	48.962
629.28	47.536
629.61	47.021
629.94	47.905
630.26	46.806
630.59	47.092
630.92	46.839
631.25	47.483
631.58	47.948
631.91	48.073
632.24	47.679
632.57	47.744
632.90	49.671
633.23	49.329
633.56	48.927
633.89	48.471
634.22	48.922
634.55	50.296
634.88	48.144
635.20	49.104
635.53	48.193
635.86	48.639
636.19	48.000
636.52	48.789
636.85	47.881
637.18	45.853
637.51	48.818
637.83	47.596
638.16	49.233
638.49	50.000
638.82	50.569
639.15	48.750
639.48	48.878
639.81	51.743
640.13	50.130
640.46	49.262
640.79	47.160
641.12	48.556
641.45	49.581
641.77	51.546
642.10	49.269
642.43	49.850
642.76	50.155
643.09	50.000
643.41	49.621
643.74	51.389
644.07	49.085
644.40	50.920
644.73	51.654
645.05	51.189
645.38	50.869
645.71	51.047
646.04	50.997
646.36	53.088
646.69	53.512
647.02	49.490
647.35	50.344
647.67	52.389
648.00	51.545
648.33	51.320
648.66	49.394
648.98	48.726
649.31	48.281
649.64	48.580
649.96	48.733
650.29	50.395
650.62	50.809
650.94	50.243
651.27	53.041
651.60	50.749
651.92	50.639
652.25	48.371
652.58	50.000
652.90	48.815
653.23	47.766
653.56	48.504
653.88	51.030
654.21	50.395
654.54	50.825
654.86	49.533
655.19	46.351
655.52	35.625
655.84	32.637
656.17	42.430
656.49	57.157
656.82	59.998
657.15	46.421
657.47	34.954
657.80	26.830
658.13	28.778
658.45	42.952
658.78	43.488
659.10	45.032
659.43	46.426
659.75	46.807
660.08	50.000
660.41	50.466
660.73	50.699
661.06	49.363
661.38	52.182
661.71	50.962
662.03	52.663
662.36	48.111
662.68	50.402
663.01	52.525
663.33	49.682
663.66	51.471
663.98	51.404
664.31	50.000
664.63	47.166
664.96	48.692
665.28	50.615
665.61	49.123
665.93	51.107
666.26	51.521
666.58	50.209
666.91	52.431
667.23	53.708
667.56	50.108
667.88	50.641
668.21	52.026
668.53	48.590
668.86	51.082
669.18	50.320
669.50	51.087
669.83	53.159
670.15	54.222
670.48	51.634
670.80	50.647
671.13	49.257
671.45	51.915
671.77	53.157
672.10	48.059
672.42	49.293
672.75	45.937
673.07	48.592
673.39	48.282
673.72	49.609
674.04	49.412
674.37	50.291
674.69	49.080
675.01	46.862
675.34	50.924
675.66	51.368
675.98	49.695
676.31	49.370
676.63	51.168
676.95	48.218
677.28	51.168
677.60	50.110
677.92	51.055
678.25	49.281
678.57	49.203
678.89	47.495
679.22	49.705
679.54	48.664
679.86	49.725
680.18	45.081
680.51	50.532
680.83	47.509
681.15	48.113
681.48	49.149
681.80	48.162
682.12	48.467
682.44	45.648
682.77	49.898
683.09	54.077
683.41	51.441
683.73	48.124
684.06	48.140
684.38	46.575
684.70	48.256
685.02	46.529
685.34	47.436
685.67	46.154
685.99	47.079
686.31	45.904
686.63	43.993
686.96	48.036
687.28	44.946
687.60	46.558
687.92	48.995
688.24	47.909
688.56	50.402
688.89	50.415
689.21	51.092
689.53	50.104
689.85	48.559
690.17	46.377
690.49	49.257
690.82	52.103
691.14	47.545
691.46	43.671
691.78	47.992
692.10	48.347
692.42	48.902
692.74	47.095
693.06	48.511
693.39	48.049
693.71	46.507
694.03	48.632
694.35	48.918
694.67	46.911
694.99	51.220
695.31	46.569
695.63	51.196
695.95	50.611
696.27	46.447
696.59	51.295
696.91	49.741
697.23	43.662
697.56	47.548
697.88	46.217
698.20	45.417
698.52	46.667
698.84	46.325
699.16	46.544
699.48	49.881
699.80	47.585
700.12	52.468
700.44	50.398
700.76	47.790
701.08	47.414
701.40	51.397
701.72	51.312
702.04	55.398
702.36	44.193
702.68	50.425
703.00	52.078
703.32	50.000
703.64	47.185
703.96	50.696
704.28	49.709
704.60	53.079
704.91	51.632
705.23	51.320
705.55	51.827
705.87	57.475
706.19	50.177
706.51	50.779
706.83	51.818
707.15	49.020
707.47	47.475
707.79	48.894
708.11	46.804
708.43	46.429
708.74	47.194
709.06	51.429
709.38	46.719
709.70	50.291
710.02	49.852
710.34	49.394
710.66	50.746
710.98	46.591
711.29	49.128
711.61	51.622
711.93	50.962
712.25	55.305
712.57	55.515
712.89	54.671
713.20	49.848
713.52	50.329
713.84	50.000
714.16	49.085
714.48	49.138
714.80	52.584
715.11	50.144
715.43	46.588
715.75	52.174
716.07	49.521
716.39	48.589
716.70	50.166
717.02	54.317
717.34	49.117
717.66	52.985
717.97	50.598
718.29	53.704
718.61	53.285
718.93	52.206
719.24	47.405
719.56	50.847
719.88	48.475
720.20	50.676
720.51	52.962
720.83	55.762
721.15	51.119
721.46	52.837
721.78	51.971
722.10	55.849
722.42	53.759
722.73	49.438
723.05	51.230
723.37	51.822
723.68	55.598
724.00	56.098
724.32	53.629
724.63	56.098
724.95	55.230
725.27	54.251
725.58	51.172
725.90	51.460
726.22	54.340
726.53	47.917
726.85	50.853
727.16	56.228
727.48	52.482
727.80	48.864
728.11	46.377
728.43	51.538
728.74	51.613
729.06	53.285
729.38	52.574
729.69	55.872
730.01	50.512
730.32	49.306
730.64	46.488
730.96	47.855
731.27	51.656
731.59	48.012
731.90	44.898
732.22	49.379
732.53	46.130
732.85	51.923
733.16	44.373
733.48	46.844
733.80	45.455
734.11	49.363
734.43	46.450
734.74	46.286
735.06	46.132
735.37	48.266
735.69	47.771
736.00	52.288
736.32	46.417
736.63	46.965
736.95	46.645
737.26	46.599
737.58	47.419
737.89	48.829
738.21	51.536
738.52	50.000
738.83	51.321
739.15	50.000
739.46	51.095
739.78	49.306
740.09	48.308
740.41	50.645
740.72	43.902
741.04	49.259
741.35	47.917
741.66	59.111
741.98	51.887
742.29	58.852
742.61	57.328
742.92	52.036
743.23	50.000
743.55	50.400
743.86	52.632
744.18	57.522
744.49	58.852
744.80	60.094
745.12	58.636
745.43	54.626
745.74	59.459
746.06	55.505
746.37	56.951
746.68	55.204
747.00	54.167
747.31	57.143
747.62	46.903
747.94	53.744
748.25	50.638
748.56	53.304
748.88	52.475
749.19	55.000
749.50	53.488
749.82	48.374
750.13	50.612
750.44	46.350
750.75	48.070
751.07	45.981
751.38	49.129
751.69	51.625
752.01	49.624
752.32	49.458
752.63	50.355
752.94	49.590
753.26	57.600
753.57	47.967
753.88	53.516
754.19	44.643
754.51	51.389
754.82	48.375
755.13	51.321
755.44	54.135
755.75	47.810
756.07	45.035
756.38	47.810
756.69	47.651
757.00	42.216
757.31	41.840
757.63	45.029
757.94	42.895
758.25	41.176
758.56	40.000
758.87	41.935
759.18	45.758
759.50	43.887
759.81	47.352
760.12	45.000
760.43	44.699
760.74	43.750
761.05	46.893
761.36	44.652
761.67	43.750
761.99	44.099
762.30	51.042
762.61	48.473
762.92	49.609
763.23	50.840
763.54	52.400
763.85	49.219
764.16	52.692
764.47	52.471
764.78	49.117
765.10	44.620
765.41	42.183
765.72	46.108
766.03	45.141
766.34	41.000
766.65	49.362
766.96	52.137
767.27	55.330
767.58	55.729
767.89	59.474
768.20	55.747
768.51	57.360
768.82	53.670
769.13	49.187
769.44	44.939
769.75	53.219
770.06	45.413
770.37	54.751
770.68	51.852
770.99	46.667
771.30	45.902
771.61	53.363
771.92	48.770
772.23	53.361
772.54	55.385
772.85	58.639
773.16	55.851
773.47	54.348
773.78	53.807
774.09	58.929
774.39	56.725
774.70	62.346
775.01	68.116
775.32	59.477
775.63	69.737
775.94	62.590
776.25	63.780
776.56	65.672
776.87	57.377
777.18	64.063
777.48	56.489
777.79	65.152
778.10	69.630
778.41	70.536
778.72	55.474
779.03	59.732
779.34	59.060
779.65	54.054
779.95	63.804
780.26	71.895
780.57	72.414
780.88	80.469
781.19	63.910
781.50	64.189
781.80	63.522
782.11	58.192
782.42	62.025
782.73	57.055
783.04	61.486
783.34	57.746
783.65	66.438
783.96	63.433
784.27	56.643
784.57	61.151
784.88	64.815
785.19	69.048
785.50	75.472
785.81	69.403
786.11	76.230
786.42	66.667
786.73	72.566
787.04	74.528
787.34	68.750
787.65	81.000
787.96	73.874
788.26	61.157
788.57	75.424
788.88	75.207
789.19	68.750
789.49	67.424
789.80	68.702
790.11	82.857
790.41	87.129
790.72	75.904
791.03	75.000
791.33	86.047
791.64	78.351
791.95	82.178
792.25	75.556
792.56	94.805
792.87	97.436
793.17	96.203
793.48	85.057
793.79	81.609
794.09	88.636
794.40	73.950
794.70	69.853
795.01	52.593
795.32	58.273
795.62	62.205
795.93	72.414
796.23	77.876
796.54	85.882
796.85	86.486
797.15	100.000
797.46	93.939
797.76	80.723
798.07	82.278
798.37	83.077
798.68	96.970
798.99	76.056
799.29	92.208
799.60	78.409
799.90	101.370
800.21	107.463
800.51	91.379
800.82	128.070
801.12	111.475
801.43	100.000
801.73	83.784
802.04	109.524
802.34	106.173
802.65	89.062
802.95	125.424
803.26	115.625
803.56	104.286
803.87	90.769
804.17	85.294
804.48	124.074
804.78	94.828
805.09	97.059
805.39	98.077
805.70	116.071
806.00	96.721
806.30	98.485
806.61	86.585
806.91	89.873
807.22	88.158
807.52	79.104
807.83	98.592
808.13	109.375
808.43	113.333
808.74	82.895
809.04	101.449
809.35	101.493
809.65	90.789
809.95	119.355
810.26	106.780
810.56	100.000
810.86	122.727
811.17	154.762
811.47	110.000
811.77	107.407
812.08	132.727
812.38	126.000
812.69	138.889
812.99	154.545
813.29	128.571
813.59	111.905
813.90	116.327
814.20	100.000
814.50	84.615
814.81	107.353
815.11	104.082
815.41	114.754
815.72	126.190
816.02	120.000
816.32	130.952
816.62	125.000
816.93	124.390
817.23	147.619
817.53	131.818
817.84	163.636
818.14	141.304
818.44	131.111
818.74	194.118
819.04	125.000
819.35	162.857
819.65	176.471
819.95	200.000
820.25	250.000
820.56	158.974
820.86	150.000
821.16	153.488
821.46	158.974
821.76	144.000
822.07	174.286
822.37	147.500
822.67	157.576
822.97	123.529
823.27	207.143
823.57	148.649
823.88	170.000
824.18	180.000
824.48	166.667
824.78	212.000
825.08	175.000
825.38	151.351
825.69	129.268
825.99	195.833
826.29	196.552
826.59	184.211
826.89	168.421
827.19	179.412
827.49	170.968
827.79	150.000
828.09	152.273
828.39	119.149
828.70	124.490
829.00	207.407
829.30	161.290
829.60	172.500
829.90	246.667
830.20	207.143
830.50	200.000
830.80	226.087
831.10	163.333
831.40	196.667
831.70	200.000
832.00	226.923
832.30	203.704
832.60	331.250
832.90	200.000
833.20	457.143
833.50	203.226
833.80	175.862
834.10	196.875
834.40	196.154
834.70	277.778
835.00	309.524
835.30	165.714
835.60	346.154
835.90	210.345
836.20	350.000
836.50	203.448
836.80	192.000
837.10	177.778
837.40	252.381
837.70	288.235
838.00	211.111
838.30	261.905
838.60	285.714
838.90	211.538
839.19	260.000
839.49	371.429
839.79	270.000
840.09	255.000
840.39	242.857
840.69	226.087
840.99	244.444
841.29	500.000
841.59	283.333
841.88	350.000
842.18	193.103
842.48	280.952
842.78	196.667
843.08	256.522
843.38	181.250
843.68	766.667
843.97	230.769
844.27	210.345
844.57	319.048
844.87	300.000
845.17	170.370
845.47	1600.000
845.76	422.222
846.06	276.471
846.36	662.500
846.66	371.429
846.96	243.750
847.25	418.182
847.55	454.545
847.85	295.652
848.15	520.000
848.44	278.571
848.74	244.444
849.04	317.647
849.34	460.000
849.63	221.053
849.93	454.545
850.23	980.000
850.53	450.000
850.82	2500.000
851.12	-3300.000
851.42	3900.000
851.71	260.000
852.01	-933.333
852.31	225.000
852.61	1766.667
852.90	304.762
853.20	212.000
853.50	288.235
853.79	261.905
854.09	204.167
854.39	356.250
854.68	178.378
854.98	203.226
855.28	186.667
855.57	203.448
855.87	196.296
856.17	263.158
856.46	253.333
856.76	270.588
857.05	224.138
857.35	245.833
857.65	440.000
857.94	243.478
858.24	230.769
858.53	300.000
858.83	245.455
859.13	313.333
859.42	0.000
859.72	622.222
860.01	436.364
860.31	250.000
860.60	294.737
860.90	221.739
861.20	488.889
861.49	483.333
861.79	-4900.000
862.08	575.000
862.38	271.429
862.67	330.769
862.97	411.765
863.26	522.222
863.56	333.333
863.85	383.333
864.15	612.500
864.44	386.667
864.74	700.000
865.03	650.000
865.33	289.474
865.62	418.182
865.92	353.846
866.21	416.667
866.51	0.000
866.80	445.455
867.10	1160.000
867.39	400.000
867.69	509.091
867.98	300.000
868.27	418.182
868.57	310.526
868.86	-4200.000
869.16	337.500
869.45	2250.000
869.75	-5300.000
870.04	433.333
870.33	600.000
870.63	1075.000
870.92	2450.000
871.22	857.143
871.51	341.176
871.80	185.714
872.10	350.000
>>>>>End Processed Spectral Data<<<<<
