SpectraSuite Data File
++++++++++++++++++++++++++++++++++++
Date: Wed May 13 20:26:54 PDT 2015
User: schluterlab
Dark Spectrum Present: Yes
Reference Spectrum Present: Yes
Number of Sampled Component Spectra: 1
Spectrometers: USB2E3373
Integration Time (usec): 3000 (USB2E3373)
Spectra Averaged: 3 (USB2E3373)
Boxcar Smoothing: 0 (USB2E3373)
Correct for Electrical Dark: No (USB2E3373)
Strobe/Lamp Enabled: No (USB2E3373)
Correct for Detector Non-linearity: No (USB2E3373)
Correct for Stray Light: No (USB2E3373)
Number of Pixels in Processed Spectrum: 2048
>>>>>Begin Processed Spectral Data<<<<<
178.53	0.000
178.91	-1350.000
179.29	-1325.000
179.67	-172.222
180.04	-1375.000
180.42	2050.000
180.80	820.000
181.18	-825.000
181.56	628.571
181.94	0.000
182.31	-600.000
182.69	1300.000
183.07	-512.500
183.45	-422.222
183.83	472.727
184.20	-380.000
184.58	1900.000
184.96	4400.000
185.34	-800.000
185.72	-537.500
186.09	-2200.000
186.47	2150.000
186.85	2200.000
187.23	4900.000
187.61	-1533.333
187.98	1225.000
188.36	418.182
188.74	445.455
189.12	-840.000
189.49	530.000
189.87	-4700.000
190.25	-1050.000
190.63	364.286
191.00	430.769
191.38	750.000
191.76	-900.000
192.14	1150.000
192.51	600.000
192.89	833.333
193.27	450.000
193.65	-1125.000
194.02	440.000
194.40	780.000
194.78	620.000
195.15	466.667
195.53	560.000
195.91	-2100.000
196.29	293.750
196.66	305.263
197.04	-350.000
197.42	0.000
197.79	570.000
198.17	-4400.000
198.55	600.000
198.92	587.500
199.30	760.000
199.68	0.000
200.05	305.556
200.43	742.857
200.81	3200.000
201.18	1433.333
201.56	-1400.000
201.94	588.889
202.31	522.222
202.69	383.333
203.07	470.000
203.44	0.000
203.82	1200.000
204.19	642.857
204.57	392.857
204.95	537.500
205.32	1266.667
205.70	554.545
206.08	371.429
206.45	2000.000
206.83	362.500
207.20	716.667
207.58	680.000
207.96	322.222
208.33	600.000
208.71	-750.000
209.08	614.286
209.46	566.667
209.84	354.545
210.21	-1766.667
210.59	1225.000
210.96	-400.000
211.34	2100.000
211.71	450.000
212.09	700.000
212.46	0.000
212.84	1500.000
213.22	1200.000
213.59	-3500.000
213.97	750.000
214.34	614.286
214.72	536.364
215.09	740.000
215.47	-2250.000
215.84	-2450.000
216.22	1566.667
216.59	364.286
216.97	1175.000
217.34	372.727
217.72	-650.000
218.09	0.000
218.47	-5600.000
218.84	477.778
219.22	728.571
219.59	1300.000
219.97	-700.000
220.34	1000.000
220.72	-1566.667
221.09	442.857
221.47	1350.000
221.84	-816.667
222.22	0.000
222.59	1250.000
222.97	-1850.000
223.34	920.000
223.72	353.846
224.09	1020.000
224.46	2100.000
224.84	-4300.000
225.21	-860.000
225.59	-4400.000
225.96	490.000
226.34	330.000
226.71	2400.000
227.08	587.500
227.46	500.000
227.83	-950.000
228.21	-2400.000
228.58	600.000
228.95	-2450.000
229.33	-1850.000
229.70	1466.667
230.08	728.571
230.45	-940.000
230.82	375.000
231.20	850.000
231.57	585.714
231.95	400.000
232.32	218.182
232.69	336.364
233.07	742.857
233.44	323.077
233.81	-1366.667
234.19	284.211
234.56	375.000
234.93	358.333
235.31	400.000
235.68	307.692
236.05	335.714
236.43	145.455
236.80	226.316
237.17	4700.000
237.55	238.095
237.92	207.143
238.29	257.143
238.67	212.903
239.04	206.897
239.41	172.222
239.79	115.217
240.16	145.238
240.53	143.182
240.91	121.569
241.28	114.000
241.65	112.000
242.02	110.145
242.40	112.903
242.77	105.000
243.14	91.398
243.51	87.640
243.89	88.235
244.26	86.667
244.63	86.022
245.00	84.043
245.38	84.158
245.75	73.832
246.12	74.312
246.49	74.453
246.87	88.000
247.24	84.615
247.61	75.000
247.98	71.895
248.36	69.595
248.73	66.879
249.10	74.522
249.47	67.232
249.84	71.123
250.22	62.567
250.59	69.231
250.96	64.646
251.33	64.929
251.70	61.881
252.08	60.476
252.45	60.538
252.82	58.261
253.19	61.277
253.56	58.431
253.94	62.241
254.31	61.328
254.68	60.385
255.05	61.993
255.42	59.350
255.79	58.824
256.16	59.928
256.54	57.244
256.91	59.431
257.28	55.396
257.65	53.465
258.02	53.416
258.39	53.312
258.76	54.515
259.14	54.762
259.51	51.064
259.88	53.416
260.25	53.474
260.62	52.601
260.99	52.174
261.36	54.354
261.73	54.155
262.10	51.744
262.47	54.930
262.85	54.318
263.22	52.707
263.59	55.271
263.96	49.176
264.33	51.175
264.70	56.053
265.07	50.639
265.44	50.000
265.81	50.608
266.18	51.508
266.55	51.951
266.92	51.597
267.29	50.463
267.66	48.853
268.03	51.136
268.40	48.131
268.77	48.687
269.14	50.676
269.51	49.887
269.88	49.883
270.25	49.887
270.62	48.764
270.99	46.882
271.36	48.283
271.73	53.037
272.10	53.043
272.47	50.323
272.84	48.701
273.21	49.266
273.58	48.690
273.95	44.654
274.32	46.901
274.69	47.752
275.06	47.638
275.43	48.511
275.80	47.695
276.17	48.065
276.54	49.064
276.91	46.443
277.28	49.414
277.65	48.162
278.02	48.033
278.39	49.414
278.76	43.636
279.13	48.868
279.50	46.555
279.87	47.809
280.23	48.104
280.60	46.422
280.97	47.689
281.34	48.142
281.71	46.545
282.08	47.601
282.45	47.273
282.82	47.780
283.19	45.098
283.56	44.912
283.92	44.501
284.29	46.208
284.66	45.554
285.03	44.846
285.40	44.014
285.77	47.811
286.14	44.732
286.51	45.000
286.87	45.470
287.24	45.765
287.61	44.462
287.98	42.857
288.35	43.899
288.72	41.433
289.08	43.036
289.45	41.845
289.82	43.415
290.19	40.502
290.56	41.501
290.93	40.030
291.29	40.798
291.66	40.265
292.03	41.570
292.40	41.997
292.77	38.314
293.13	38.657
293.50	37.901
293.87	38.667
294.24	38.074
294.60	39.156
294.97	39.680
295.34	38.223
295.71	40.199
296.08	38.034
296.44	38.377
296.81	35.799
297.18	38.347
297.55	35.488
297.91	35.620
298.28	37.885
298.65	36.292
299.02	37.286
299.38	37.185
299.75	35.445
300.12	35.632
300.48	35.250
300.85	36.128
301.22	35.796
301.59	34.217
301.95	36.272
302.32	35.430
302.69	35.006
303.05	35.273
303.42	32.963
303.79	33.296
304.15	32.867
304.52	33.951
304.89	33.101
305.25	34.107
305.62	33.182
305.99	35.183
306.35	33.445
306.72	34.417
307.09	32.630
307.45	35.135
307.82	32.701
308.19	33.664
308.55	34.844
308.92	33.620
309.29	32.946
309.65	33.404
310.02	32.347
310.38	32.796
310.75	33.685
311.12	33.163
311.48	34.483
311.85	34.801
312.22	34.235
312.58	33.784
312.95	35.269
313.31	32.330
313.68	33.056
314.05	34.517
314.41	34.271
314.78	34.240
315.14	34.558
315.51	35.118
315.87	35.248
316.24	35.750
316.61	34.405
316.97	32.485
317.34	33.855
317.70	34.704
318.07	35.130
318.43	34.736
318.80	34.677
319.16	35.122
319.53	33.490
319.89	34.381
320.26	36.000
320.62	35.317
320.99	35.657
321.35	35.556
321.72	36.756
322.08	35.538
322.45	36.716
322.81	35.659
323.18	36.802
323.54	35.714
323.91	37.075
324.27	35.564
324.64	34.296
325.00	35.618
325.37	35.760
325.73	35.458
326.10	35.569
326.46	35.215
326.83	36.756
327.19	35.269
327.56	34.321
327.92	36.045
328.29	36.380
328.65	36.556
329.01	35.108
329.38	34.968
329.74	36.657
330.11	35.061
330.47	36.180
330.84	35.570
331.20	35.610
331.56	34.679
331.93	35.556
332.29	33.718
332.66	34.779
333.02	35.375
333.38	34.508
333.75	36.185
334.11	36.121
334.48	33.629
334.84	33.824
335.20	33.909
335.57	34.723
335.93	34.554
336.29	34.249
336.66	34.986
337.02	34.842
337.38	35.463
337.75	34.492
338.11	33.303
338.47	34.070
338.84	34.830
339.20	34.862
339.56	34.580
339.93	33.909
340.29	33.696
340.65	33.601
341.02	34.031
341.38	34.875
341.74	32.719
342.11	34.236
342.47	33.304
342.83	33.733
343.20	33.853
343.56	32.098
343.92	34.211
344.28	33.248
344.65	33.620
345.01	31.734
345.37	32.247
345.73	33.418
346.10	32.907
346.46	33.136
346.82	32.125
347.19	31.746
347.55	32.184
347.91	32.605
348.27	33.032
348.63	32.358
349.00	31.796
349.36	32.677
349.72	32.157
350.08	32.334
350.45	31.896
350.81	31.844
351.17	32.091
351.53	31.040
351.89	32.343
352.26	33.070
352.62	31.195
352.98	31.037
353.34	32.950
353.70	30.360
354.07	31.855
354.43	30.873
354.79	30.813
355.15	31.445
355.51	32.454
355.87	32.490
356.24	30.782
356.60	30.874
356.96	31.215
357.32	31.316
357.68	30.709
358.04	29.612
358.40	31.433
358.77	30.595
359.13	30.545
359.49	31.765
359.85	30.952
360.21	30.622
360.57	31.440
360.93	30.308
361.29	30.461
361.66	31.269
362.02	30.896
362.38	30.570
362.74	30.580
363.10	28.942
363.46	31.548
363.82	29.781
364.18	29.883
364.54	30.981
364.90	30.878
365.26	29.779
365.62	30.387
365.98	29.730
366.35	29.226
366.71	29.429
367.07	30.299
367.43	29.390
367.79	29.836
368.15	29.454
368.51	29.578
368.87	28.908
369.23	30.066
369.59	30.051
369.95	30.147
370.31	29.701
370.67	28.333
371.03	31.161
371.39	29.738
371.75	29.706
372.11	30.228
372.47	29.472
372.83	29.971
373.19	29.046
373.55	29.933
373.91	30.560
374.27	29.622
374.63	28.655
374.99	29.167
375.35	29.239
375.71	28.855
376.07	29.904
376.42	28.748
376.78	28.960
377.14	28.765
377.50	28.609
377.86	27.926
378.22	28.066
378.58	27.757
378.94	28.347
379.30	27.163
379.66	28.871
380.02	28.747
380.38	28.112
380.74	28.451
381.09	29.095
381.45	28.949
381.81	29.177
382.17	28.726
382.53	28.050
382.89	28.827
383.25	28.956
383.61	29.678
383.97	27.017
384.32	28.260
384.68	27.200
385.04	27.167
385.40	27.988
385.76	28.624
386.12	27.461
386.48	28.131
386.83	28.159
387.19	29.499
387.55	28.386
387.91	27.570
388.27	27.039
388.62	28.642
388.98	27.027
389.34	28.160
389.70	28.081
390.06	28.010
390.42	28.145
390.77	28.244
391.13	27.122
391.49	27.982
391.85	27.435
392.20	26.435
392.56	28.030
392.92	27.251
393.28	27.041
393.64	27.458
393.99	27.795
394.35	27.419
394.71	27.290
395.07	25.919
395.42	27.503
395.78	26.972
396.14	27.561
396.50	28.321
396.85	28.481
397.21	27.312
397.57	27.650
397.92	26.863
398.28	25.617
398.64	28.256
399.00	26.301
399.35	26.678
399.71	26.620
400.07	27.499
400.42	26.871
400.78	27.201
401.14	27.256
401.49	27.761
401.85	25.590
402.21	26.228
402.57	26.959
402.92	26.923
403.28	27.608
403.63	26.238
403.99	27.197
404.35	26.424
404.70	27.098
405.06	26.616
405.42	27.386
405.77	26.457
406.13	26.524
406.49	26.434
406.84	26.639
407.20	26.478
407.55	26.930
407.91	27.667
408.27	26.484
408.62	26.370
408.98	25.980
409.34	26.015
409.69	26.065
410.05	26.022
410.40	26.667
410.76	26.165
411.11	25.995
411.47	25.687
411.83	25.840
412.18	26.160
412.54	26.463
412.89	27.289
413.25	26.446
413.60	26.374
413.96	25.683
414.31	25.699
414.67	26.933
415.03	26.954
415.38	26.418
415.74	26.495
416.09	27.041
416.45	26.707
416.80	25.909
417.16	26.810
417.51	26.941
417.87	25.241
418.22	26.940
418.58	27.502
418.93	26.167
419.29	25.843
419.64	26.196
420.00	26.646
420.35	26.261
420.71	26.479
421.06	25.716
421.42	25.088
421.77	26.289
422.12	25.491
422.48	25.472
422.83	26.209
423.19	26.188
423.54	26.291
423.90	25.913
424.25	26.410
424.61	24.881
424.96	25.831
425.31	25.969
425.67	24.382
426.02	25.714
426.38	25.702
426.73	26.039
427.09	26.322
427.44	25.359
427.79	26.682
428.15	25.774
428.50	26.390
428.85	27.354
429.21	25.014
429.56	24.883
429.92	24.308
430.27	25.770
430.62	24.834
430.98	26.103
431.33	25.412
431.68	25.445
432.04	25.666
432.39	25.585
432.74	25.554
433.10	25.467
433.45	24.840
433.80	25.721
434.16	25.267
434.51	25.632
434.86	26.340
435.22	25.737
435.57	25.410
435.92	25.336
436.28	25.919
436.63	25.552
436.98	25.129
437.34	26.476
437.69	26.021
438.04	26.026
438.39	25.851
438.75	26.438
439.10	26.201
439.45	25.797
439.81	25.619
440.16	25.692
440.51	26.948
440.86	26.404
441.22	24.917
441.57	26.274
441.92	25.998
442.27	25.511
442.63	25.066
442.98	26.592
443.33	26.359
443.68	25.658
444.03	26.061
444.39	24.635
444.74	26.082
445.09	25.391
445.44	25.861
445.79	25.680
446.15	25.781
446.50	25.633
446.85	25.540
447.20	24.783
447.55	26.075
447.91	26.310
448.26	26.767
448.61	25.042
448.96	26.744
449.31	26.378
449.66	26.393
450.02	25.460
450.37	25.454
450.72	26.114
451.07	26.325
451.42	25.532
451.77	26.365
452.12	25.635
452.47	25.995
452.83	25.758
453.18	25.672
453.53	26.964
453.88	26.580
454.23	26.121
454.58	26.166
454.93	27.018
455.28	25.935
455.63	26.699
455.98	26.964
456.34	26.508
456.69	26.237
457.04	27.307
457.39	26.768
457.74	26.988
458.09	26.279
458.44	26.625
458.79	26.030
459.14	26.637
459.49	27.496
459.84	25.928
460.19	26.164
460.54	25.868
460.89	25.178
461.24	26.776
461.59	27.949
461.94	26.695
462.29	26.944
462.64	27.632
462.99	26.415
463.34	27.200
463.69	26.892
464.04	26.841
464.39	26.667
464.74	27.332
465.09	26.719
465.44	26.205
465.79	26.510
466.14	26.656
466.49	27.253
466.84	27.671
467.19	26.735
467.54	27.250
467.89	26.951
468.24	26.876
468.59	27.045
468.94	26.817
469.29	26.992
469.64	27.912
469.99	27.943
470.34	27.543
470.68	28.017
471.03	27.211
471.38	27.936
471.73	27.981
472.08	28.224
472.43	27.450
472.78	27.781
473.13	26.958
473.48	28.277
473.83	27.805
474.17	26.385
474.52	27.295
474.87	28.138
475.22	27.394
475.57	26.867
475.92	27.244
476.27	27.057
476.61	27.358
476.96	27.158
477.31	26.531
477.66	26.915
478.01	27.026
478.36	27.552
478.70	26.687
479.05	27.316
479.40	27.533
479.75	26.995
480.10	26.789
480.45	26.226
480.79	26.947
481.14	26.908
481.49	26.673
481.84	26.109
482.19	27.669
482.53	26.835
482.88	26.850
483.23	26.869
483.58	27.343
483.92	27.929
484.27	25.621
484.62	26.422
484.97	25.700
485.31	25.925
485.66	24.435
486.01	24.189
486.36	23.542
486.70	23.353
487.05	23.478
487.40	24.617
487.75	23.987
488.09	24.810
488.44	24.583
488.79	25.895
489.13	25.745
489.48	25.693
489.83	26.716
490.17	26.918
490.52	26.395
490.87	27.137
491.22	26.830
491.56	26.105
491.91	26.664
492.26	26.964
492.60	27.097
492.95	25.865
493.30	27.103
493.64	27.438
493.99	26.973
494.34	26.549
494.68	27.289
495.03	27.256
495.37	26.896
495.72	27.680
496.07	28.074
496.41	26.106
496.76	27.045
497.11	26.655
497.45	26.595
497.80	28.119
498.14	27.101
498.49	27.463
498.84	27.037
499.18	26.762
499.53	27.398
499.87	26.794
500.22	27.320
500.56	27.427
500.91	27.115
501.26	27.833
501.60	27.575
501.95	26.948
502.29	27.601
502.64	27.002
502.98	27.115
503.33	26.828
503.67	27.796
504.02	27.035
504.36	26.673
504.71	27.357
505.06	27.036
505.40	27.321
505.75	26.712
506.09	27.162
506.44	27.035
506.78	27.618
507.13	27.461
507.47	28.081
507.82	27.609
508.16	28.419
508.51	28.818
508.85	27.210
509.19	28.112
509.54	27.347
509.88	26.893
510.23	27.763
510.57	28.431
510.92	28.224
511.26	27.595
511.61	28.683
511.95	27.192
512.30	28.261
512.64	28.855
512.98	28.457
513.33	27.998
513.67	28.122
514.02	28.409
514.36	28.782
514.70	28.500
515.05	27.886
515.39	28.435
515.74	28.097
516.08	30.073
516.42	29.301
516.77	29.710
517.11	27.858
517.46	29.233
517.80	29.094
518.14	28.199
518.49	29.988
518.83	29.091
519.17	28.926
519.52	28.636
519.86	29.435
520.20	29.133
520.55	29.922
520.89	29.562
521.23	30.398
521.58	29.832
521.92	29.700
522.26	28.920
522.61	30.218
522.95	29.036
523.29	29.397
523.64	30.305
523.98	29.513
524.32	29.916
524.66	29.826
525.01	30.392
525.35	29.554
525.69	29.618
526.04	29.782
526.38	29.835
526.72	29.877
527.06	29.630
527.41	28.032
527.75	30.289
528.09	29.672
528.43	30.465
528.78	29.687
529.12	29.455
529.46	29.822
529.80	30.446
530.15	29.533
530.49	30.092
530.83	29.873
531.17	31.005
531.51	30.091
531.86	29.806
532.20	29.661
532.54	30.237
532.88	30.039
533.22	29.357
533.57	29.506
533.91	29.440
534.25	29.526
534.59	29.408
534.93	28.971
535.27	28.908
535.62	28.632
535.96	29.881
536.30	29.498
536.64	29.684
536.98	30.325
537.32	30.086
537.66	30.333
538.01	30.151
538.35	29.606
538.69	30.377
539.03	29.305
539.37	28.243
539.71	28.257
540.05	30.065
540.39	29.236
540.73	29.366
541.07	29.981
541.42	29.615
541.76	30.065
542.10	30.401
542.44	28.675
542.78	30.698
543.12	29.175
543.46	28.918
543.80	29.473
544.14	29.268
544.48	29.778
544.82	28.608
545.16	30.189
545.50	29.370
545.84	29.301
546.18	29.764
546.52	30.076
546.86	30.309
547.20	29.332
547.54	29.593
547.88	30.230
548.22	28.082
548.56	28.491
548.90	29.321
549.24	29.360
549.58	29.263
549.92	28.984
550.26	29.901
550.60	29.599
550.94	30.211
551.28	30.871
551.62	30.913
551.96	29.895
552.30	30.512
552.64	30.291
552.98	30.169
553.32	29.670
553.66	29.584
554.00	31.023
554.34	29.538
554.68	30.758
555.02	29.760
555.36	29.715
555.69	29.499
556.03	30.956
556.37	29.945
556.71	29.673
557.05	30.042
557.39	30.301
557.73	28.934
558.07	31.327
558.41	30.029
558.75	30.566
559.08	31.245
559.42	30.537
559.76	30.368
560.10	30.121
560.44	29.140
560.78	28.343
561.12	29.815
561.45	28.944
561.79	29.268
562.13	29.376
562.47	30.123
562.81	29.916
563.15	29.030
563.48	28.846
563.82	29.615
564.16	29.169
564.50	29.232
564.84	28.319
565.17	29.022
565.51	29.521
565.85	29.188
566.19	28.366
566.52	29.196
566.86	28.692
567.20	29.009
567.54	28.995
567.88	28.191
568.21	27.831
568.55	27.553
568.89	26.800
569.23	26.693
569.56	25.789
569.90	26.981
570.24	26.050
570.57	26.114
570.91	25.016
571.25	24.645
571.59	25.037
571.92	25.518
572.26	24.754
572.60	25.165
572.93	24.738
573.27	24.549
573.61	24.930
573.95	25.065
574.28	24.372
574.62	23.955
574.96	23.847
575.29	23.885
575.63	24.365
575.97	23.874
576.30	24.482
576.64	24.564
576.98	23.894
577.31	24.099
577.65	23.844
577.98	23.663
578.32	23.590
578.66	23.669
578.99	23.853
579.33	23.723
579.67	23.693
580.00	23.544
580.34	24.134
580.67	24.462
581.01	24.039
581.35	23.543
581.68	23.805
582.02	23.299
582.35	23.870
582.69	23.953
583.02	23.959
583.36	24.095
583.70	24.301
584.03	23.981
584.37	24.190
584.70	25.131
585.04	24.022
585.37	24.418
585.71	24.225
586.04	23.846
586.38	24.530
586.72	24.441
587.05	24.450
587.39	23.879
587.72	24.066
588.06	24.039
588.39	24.636
588.73	24.318
589.06	24.930
589.40	25.253
589.73	24.745
590.07	25.196
590.40	24.662
590.73	25.917
591.07	26.089
591.40	25.432
591.74	26.494
592.07	26.353
592.41	26.581
592.74	25.281
593.08	25.916
593.41	25.308
593.75	24.672
594.08	24.573
594.41	25.168
594.75	25.767
595.08	25.125
595.42	25.534
595.75	25.570
596.09	25.347
596.42	25.776
596.75	25.918
597.09	25.844
597.42	25.295
597.75	25.614
598.09	26.522
598.42	25.515
598.76	25.415
599.09	25.960
599.42	25.328
599.76	25.805
600.09	25.610
600.42	24.982
600.76	25.000
601.09	25.428
601.42	25.495
601.76	25.465
602.09	25.652
602.42	25.916
602.76	27.005
603.09	25.846
603.42	25.888
603.76	25.191
604.09	25.165
604.42	25.968
604.76	26.529
605.09	25.863
605.42	25.224
605.75	25.000
606.09	25.376
606.42	25.705
606.75	25.135
607.09	26.162
607.42	26.359
607.75	25.401
608.08	25.619
608.42	26.490
608.75	26.060
609.08	25.671
609.41	26.226
609.75	25.727
610.08	26.532
610.41	25.745
610.74	26.064
611.07	27.668
611.41	26.938
611.74	27.401
612.07	26.398
612.40	27.335
612.73	27.474
613.07	27.478
613.40	27.699
613.73	26.639
614.06	26.559
614.39	27.111
614.72	27.158
615.06	27.416
615.39	26.539
615.72	26.431
616.05	26.688
616.38	26.459
616.71	27.969
617.05	27.267
617.38	26.398
617.71	28.168
618.04	28.726
618.37	26.730
618.70	28.251
619.03	28.684
619.36	28.377
619.69	28.662
620.03	29.121
620.36	28.944
620.69	29.658
621.02	30.088
621.35	28.348
621.68	29.751
622.01	29.334
622.34	31.089
622.67	30.038
623.00	28.613
623.33	29.235
623.66	29.235
623.99	30.265
624.32	29.529
624.65	28.390
624.99	29.745
625.32	29.109
625.65	29.226
625.98	29.669
626.31	29.782
626.64	30.122
626.97	29.510
627.30	30.590
627.63	30.435
627.96	30.193
628.29	31.934
628.62	30.650
628.95	33.396
629.28	31.113
629.61	31.439
629.94	32.190
630.26	31.649
630.59	31.077
630.92	31.801
631.25	31.096
631.58	32.432
631.91	32.961
632.24	33.017
632.57	33.683
632.90	32.456
633.23	32.438
633.56	33.898
633.89	33.975
634.22	33.371
634.55	34.556
634.88	32.455
635.20	35.245
635.53	34.096
635.86	33.911
636.19	33.176
636.52	33.103
636.85	33.219
637.18	32.949
637.51	34.279
637.83	31.443
638.16	35.294
638.49	34.131
638.82	35.398
639.15	34.500
639.48	34.663
639.81	36.729
640.13	36.719
640.46	36.644
640.79	36.063
641.12	32.875
641.45	33.939
641.77	35.935
642.10	34.503
642.43	36.937
642.76	35.139
643.09	38.804
643.41	34.750
643.74	36.420
644.07	35.671
644.40	37.117
644.73	36.693
645.05	39.778
645.38	37.125
645.71	37.037
646.04	37.708
646.36	38.397
646.69	39.130
647.02	36.905
647.35	37.801
647.67	38.584
648.00	36.911
648.33	36.139
648.66	33.485
648.98	37.331
649.31	36.323
649.64	37.967
649.96	35.320
650.29	38.073
650.62	38.026
650.94	36.629
651.27	37.838
651.60	38.270
651.92	36.741
652.25	35.668
652.58	38.318
652.90	37.757
653.23	34.052
653.56	35.906
653.88	36.926
654.21	39.494
654.54	38.449
654.86	34.891
655.19	33.784
655.52	23.790
655.84	21.315
656.17	26.713
656.49	36.097
656.82	35.249
657.15	26.085
657.47	19.179
657.80	14.819
658.13	15.283
658.45	22.910
658.78	22.886
659.10	23.573
659.43	24.847
659.75	25.368
660.08	28.101
660.41	31.378
660.73	35.705
661.06	34.076
661.38	38.000
661.71	40.000
662.03	38.264
662.36	38.370
662.68	39.157
663.01	39.192
663.33	39.278
663.66	39.496
663.98	42.117
664.31	38.235
664.63	37.854
664.96	37.626
665.28	39.959
665.61	35.867
665.93	38.833
666.26	39.959
666.58	38.494
666.91	42.283
667.23	41.573
667.56	38.661
667.88	38.248
668.21	40.725
668.53	39.913
668.86	39.827
669.18	39.659
669.50	38.478
669.83	42.919
670.15	40.444
670.48	41.612
670.80	40.517
671.13	39.703
671.45	41.064
671.77	41.548
672.10	39.926
672.42	36.749
672.75	35.323
673.07	35.387
673.39	36.709
673.72	37.891
674.04	38.627
674.37	38.252
674.69	37.423
675.01	39.121
675.34	40.452
675.66	39.368
675.98	41.141
676.31	38.655
676.63	40.552
676.95	38.784
677.28	41.355
677.60	37.582
677.92	41.350
678.25	36.756
678.57	37.450
678.89	38.677
679.22	38.310
679.54	37.405
679.86	36.330
680.18	36.673
680.51	37.589
680.83	35.943
681.15	36.981
681.48	40.643
681.80	36.364
682.12	35.441
682.44	35.783
682.77	38.697
683.09	39.914
683.41	42.350
683.73	40.618
684.06	37.810
684.38	37.965
684.70	37.209
685.02	38.649
685.34	37.546
685.67	35.839
685.99	32.646
686.31	36.860
686.63	33.922
686.96	36.071
687.28	34.657
687.60	36.957
687.92	38.940
688.24	35.741
688.56	37.550
688.89	38.382
689.21	42.795
689.53	38.205
689.85	36.585
690.17	36.025
690.49	39.703
690.82	41.121
691.14	38.393
691.46	38.608
691.78	37.550
692.10	38.223
692.42	35.729
692.74	36.307
693.06	37.872
693.39	37.577
693.71	39.301
694.03	39.158
694.35	40.476
694.67	37.757
694.99	40.244
695.31	39.706
695.63	36.842
695.95	41.320
696.27	39.848
696.59	42.228
696.91	43.005
697.23	35.915
697.56	37.740
697.88	36.401
698.20	38.958
698.52	38.065
698.84	38.307
699.16	35.253
699.48	38.005
699.80	38.889
700.12	46.234
700.44	42.175
700.76	40.608
701.08	43.678
701.40	42.737
701.72	42.857
702.04	44.318
702.36	41.643
702.68	45.609
703.00	42.659
703.32	39.362
703.64	41.555
703.96	42.340
704.28	44.767
704.60	45.748
704.91	40.356
705.23	39.883
705.55	48.173
705.87	48.173
706.19	43.816
706.51	43.302
706.83	48.182
707.15	40.896
707.47	41.667
707.79	39.558
708.11	38.356
708.43	37.143
708.74	39.286
709.06	39.221
709.38	41.470
709.70	41.860
710.02	43.323
710.34	40.909
710.66	40.597
710.98	40.625
711.29	43.895
711.61	41.593
711.93	45.192
712.25	46.624
712.57	50.000
712.89	49.481
713.20	43.161
713.52	48.026
713.84	42.722
714.16	42.988
714.48	41.379
714.80	44.681
715.11	44.380
715.43	39.466
715.75	39.420
716.07	42.492
716.39	42.947
716.70	44.518
717.02	48.561
717.34	40.636
717.66	51.493
717.97	52.191
718.29	48.519
718.61	43.066
718.93	45.588
719.24	44.637
719.56	45.424
719.88	48.814
720.20	41.554
720.51	48.432
720.83	52.045
721.15	46.642
721.46	46.454
721.78	45.878
722.10	47.925
722.42	47.368
722.73	51.311
723.05	47.951
723.37	45.749
723.68	46.718
724.00	47.967
724.32	45.161
724.63	48.780
724.95	47.280
725.27	47.368
725.58	46.484
725.90	47.080
726.22	47.547
726.53	46.875
726.85	43.686
727.16	45.552
727.48	42.908
727.80	45.455
728.11	42.029
728.43	42.692
728.74	46.237
729.06	47.810
729.38	51.471
729.69	45.907
730.01	40.614
730.32	41.319
730.64	42.809
730.96	39.604
731.27	44.371
731.59	41.590
731.90	41.108
732.22	42.236
732.53	41.486
732.85	42.308
733.16	44.373
733.48	44.518
733.80	42.532
734.11	45.541
734.43	40.533
734.74	42.000
735.06	38.968
735.37	41.329
735.69	39.172
736.00	45.425
736.32	44.237
736.63	41.853
736.95	42.812
737.26	38.776
737.58	43.226
737.89	44.147
738.21	45.051
738.52	42.143
738.83	42.642
739.15	43.077
739.46	44.161
739.78	45.139
740.09	40.615
740.41	43.548
740.72	42.509
741.04	44.815
741.35	45.833
741.66	53.333
741.98	47.170
742.29	54.067
742.61	56.897
742.92	52.941
743.23	52.564
743.55	44.400
743.86	47.368
744.18	57.080
744.49	54.545
744.80	56.808
745.12	53.182
745.43	51.542
745.74	49.099
746.06	54.128
746.37	56.054
746.68	55.656
747.00	53.241
747.31	50.476
747.62	46.903
747.94	55.947
748.25	46.809
748.56	49.780
748.88	51.980
749.19	57.000
749.50	52.093
749.82	47.967
750.13	48.980
750.44	48.540
750.75	45.614
751.07	42.122
751.38	42.160
751.69	44.043
752.01	47.368
752.32	45.487
752.63	42.199
752.94	49.180
753.26	50.000
753.57	45.122
753.88	45.312
754.19	46.071
754.51	45.486
754.82	42.960
755.13	48.302
755.44	46.241
755.75	45.985
756.07	42.908
756.38	42.336
756.69	42.953
757.00	40.419
757.31	38.279
757.63	40.643
757.94	37.265
758.25	37.990
758.56	35.556
758.87	38.978
759.18	38.182
759.50	39.185
759.81	40.810
760.12	40.625
760.43	42.693
760.74	37.772
761.05	40.395
761.36	39.572
761.67	41.193
761.99	40.062
762.30	42.014
762.61	46.183
762.92	47.656
763.23	42.017
763.54	51.600
763.85	42.578
764.16	46.154
764.47	48.669
764.78	45.230
765.10	41.772
765.41	41.003
765.72	38.922
766.03	40.439
766.34	38.000
766.65	46.383
766.96	46.581
767.27	52.792
767.58	54.688
767.89	52.632
768.20	56.322
768.51	44.670
768.82	51.835
769.13	47.967
769.44	48.178
769.75	47.210
770.06	41.743
770.37	50.226
770.68	50.926
770.99	44.444
771.30	41.393
771.61	51.570
771.92	41.803
772.23	48.319
772.54	51.282
772.85	53.403
773.16	52.660
773.47	57.065
773.78	55.330
774.09	53.571
774.39	57.895
774.70	66.667
775.01	61.594
775.32	57.516
775.63	55.921
775.94	52.518
776.25	67.717
776.56	67.910
776.87	70.492
777.18	67.187
777.48	76.336
777.79	71.212
778.10	60.741
778.41	73.214
778.72	57.664
779.03	63.758
779.34	58.389
779.65	52.703
779.95	54.601
780.26	58.170
780.57	62.069
780.88	67.969
781.19	58.647
781.50	61.486
781.80	59.119
782.11	51.412
782.42	57.595
782.73	49.080
783.04	59.459
783.34	59.155
783.65	67.123
783.96	69.403
784.27	59.441
784.57	55.396
784.88	71.296
785.19	67.460
785.50	83.019
785.81	73.881
786.11	66.393
786.42	60.465
786.73	67.257
787.04	73.585
787.34	75.000
787.65	75.000
787.96	75.676
788.26	69.421
788.57	71.186
788.88	68.595
789.19	59.028
789.49	71.212
789.80	67.176
790.11	80.952
790.41	78.218
790.72	75.904
791.03	79.348
791.33	84.884
791.64	79.381
791.95	80.198
792.25	84.444
792.56	90.909
792.87	97.436
793.17	96.203
793.48	83.908
793.79	88.506
794.09	73.864
794.40	63.025
794.70	62.500
795.01	54.074
795.32	54.676
795.62	57.480
795.93	71.552
796.23	71.681
796.54	69.412
796.85	90.541
797.15	101.408
797.46	89.394
797.76	78.313
798.07	87.342
798.37	83.077
798.68	89.394
798.99	97.183
799.29	93.506
799.60	76.136
799.90	90.411
800.21	105.970
800.51	115.517
800.82	122.807
801.12	118.033
801.43	112.121
801.73	86.486
802.04	109.524
802.34	79.012
802.65	92.188
802.95	111.864
803.26	109.375
803.56	77.143
803.87	96.923
804.17	97.059
804.48	107.407
804.78	103.448
805.09	88.235
805.39	101.923
805.70	105.357
806.00	100.000
806.30	96.970
806.61	80.488
806.91	84.810
807.22	71.053
807.52	88.060
807.83	90.141
808.13	100.000
808.43	110.000
808.74	76.316
809.04	97.101
809.35	101.493
809.65	109.211
809.95	127.419
810.26	105.085
810.56	98.413
810.86	129.545
811.17	145.238
811.47	103.333
811.77	127.778
812.08	110.909
812.38	116.000
812.69	130.556
812.99	145.455
813.29	142.857
813.59	121.429
813.90	126.531
814.20	107.273
814.50	98.462
814.81	123.529
815.11	112.245
815.41	96.721
815.72	164.286
816.02	132.727
816.32	138.095
816.62	135.000
816.93	139.024
817.23	145.238
817.53	163.636
817.84	160.606
818.14	139.130
818.44	120.000
818.74	150.000
819.04	147.500
819.35	182.857
819.65	167.647
819.95	150.000
820.25	240.000
820.56	158.974
820.86	150.000
821.16	158.140
821.46	115.385
821.76	148.000
822.07	157.143
822.37	130.000
822.67	169.697
822.97	119.608
823.27	175.000
823.57	154.054
823.88	137.500
824.18	183.333
824.48	161.905
824.78	240.000
825.08	225.000
825.38	148.649
825.69	136.585
825.99	208.333
826.29	196.552
826.59	142.105
826.89	139.474
827.19	158.824
827.49	177.419
827.79	140.909
828.09	131.818
828.39	121.277
828.70	120.408
829.00	185.185
829.30	180.645
829.60	117.500
829.90	340.000
830.20	135.714
830.50	217.391
830.80	239.130
831.10	170.000
831.40	166.667
831.70	160.870
832.00	203.846
832.30	188.889
832.60	300.000
832.90	210.000
833.20	407.143
833.50	212.903
833.80	186.207
834.10	187.500
834.40	257.692
834.70	316.667
835.00	295.238
835.30	154.286
835.60	284.615
835.90	168.966
836.20	378.571
836.50	179.310
836.80	228.000
837.10	175.000
837.40	247.619
837.70	335.294
838.00	211.111
838.30	276.190
838.60	252.381
838.90	215.385
839.19	290.000
839.49	400.000
839.79	310.000
840.09	280.000
840.39	266.667
840.69	243.478
840.99	300.000
841.29	460.000
841.59	341.667
841.88	350.000
842.18	179.310
842.48	304.762
842.78	166.667
843.08	213.043
843.38	187.500
843.68	933.333
843.97	211.538
844.27	182.759
844.57	271.429
844.87	356.250
845.17	233.333
845.47	1600.000
845.76	488.889
846.06	335.294
846.36	550.000
846.66	357.143
846.96	281.250
847.25	454.545
847.55	363.636
847.85	221.739
848.15	490.000
848.44	314.286
848.74	216.667
849.04	270.588
849.34	450.000
849.63	242.105
849.93	390.909
850.23	880.000
850.53	421.429
850.82	2300.000
851.12	-4200.000
851.42	2800.000
851.71	190.000
852.01	-1233.333
852.31	237.500
852.61	1500.000
852.90	242.857
853.20	208.000
853.50	294.118
853.79	247.619
854.09	195.833
854.39	337.500
854.68	145.946
854.98	158.065
855.28	146.667
855.57	213.793
855.87	214.815
856.17	215.789
856.46	220.000
856.76	311.765
857.05	186.207
857.35	241.667
857.65	340.000
857.94	191.304
858.24	230.769
858.53	275.000
858.83	227.273
859.13	320.000
859.42	0.000
859.72	488.889
860.01	436.364
860.31	213.636
860.60	252.632
860.90	186.957
861.20	500.000
861.49	516.667
861.79	-4900.000
862.08	575.000
862.38	276.190
862.67	292.308
862.97	270.588
863.26	477.778
863.56	272.222
863.85	391.667
864.15	562.500
864.44	366.667
864.74	800.000
865.03	662.500
865.33	263.158
865.62	409.091
865.92	384.615
866.21	408.333
866.51	0.000
866.80	390.909
867.10	1060.000
867.39	384.615
867.69	309.091
867.98	247.368
868.27	390.909
868.57	300.000
868.86	-4000.000
869.16	337.500
869.45	1850.000
869.75	-3400.000
870.04	441.667
870.33	571.429
870.63	1200.000
870.92	2600.000
871.22	700.000
871.51	376.471
871.80	252.381
872.10	357.143
>>>>>End Processed Spectral Data<<<<<
