SpectraSuite Data File
++++++++++++++++++++++++++++++++++++
Date: Wed May 13 20:35:07 PDT 2015
User: schluterlab
Dark Spectrum Present: Yes
Reference Spectrum Present: Yes
Number of Sampled Component Spectra: 1
Spectrometers: USB2E3373
Integration Time (usec): 3000 (USB2E3373)
Spectra Averaged: 3 (USB2E3373)
Boxcar Smoothing: 0 (USB2E3373)
Correct for Electrical Dark: No (USB2E3373)
Strobe/Lamp Enabled: No (USB2E3373)
Correct for Detector Non-linearity: No (USB2E3373)
Correct for Stray Light: No (USB2E3373)
Number of Pixels in Processed Spectrum: 2048
>>>>>Begin Processed Spectral Data<<<<<
178.53	0.000
178.91	-700.000
179.29	-900.000
179.67	-172.222
180.04	-975.000
180.42	1850.000
180.80	760.000
181.18	-650.000
181.56	357.143
181.94	0.000
182.31	-457.143
182.69	866.667
183.07	-412.500
183.45	-388.889
183.83	345.455
184.20	-270.000
184.58	1850.000
184.96	4400.000
185.34	-580.000
185.72	-375.000
186.09	-1600.000
186.47	1550.000
186.85	1600.000
187.23	4400.000
187.61	-1400.000
187.98	1150.000
188.36	363.636
188.74	327.273
189.12	-560.000
189.49	400.000
189.87	-3600.000
190.25	-725.000
190.63	321.429
191.00	269.231
191.38	466.667
191.76	-900.000
192.14	1075.000
192.51	625.000
192.89	733.333
193.27	287.500
193.65	-900.000
194.02	370.000
194.40	640.000
194.78	360.000
195.15	408.333
195.53	430.000
195.91	-1250.000
196.29	281.250
196.66	289.474
197.04	-260.000
197.42	0.000
197.79	540.000
198.17	-2900.000
198.55	557.143
198.92	550.000
199.30	620.000
199.68	0.000
200.05	205.556
200.43	585.714
200.81	3800.000
201.18	1166.667
201.56	-1100.000
201.94	377.778
202.31	455.556
202.69	316.667
203.07	450.000
203.44	0.000
203.82	825.000
204.19	585.714
204.57	328.571
204.95	562.500
205.32	966.667
205.70	409.091
206.08	242.857
206.45	2050.000
206.83	268.750
207.20	516.667
207.58	460.000
207.96	261.111
208.33	475.000
208.71	-583.333
209.08	585.714
209.46	444.444
209.84	318.182
210.21	-1033.333
210.59	850.000
210.96	-287.500
211.34	1750.000
211.71	390.000
212.09	616.667
212.46	0.000
212.84	1333.333
213.22	975.000
213.59	-2600.000
213.97	516.667
214.34	628.571
214.72	409.091
215.09	620.000
215.47	-1600.000
215.84	-1500.000
216.22	1166.667
216.59	300.000
216.97	1150.000
217.34	354.545
217.72	-350.000
218.09	0.000
218.47	-3000.000
218.84	444.444
219.22	642.857
219.59	1066.667
219.97	-414.286
220.34	780.000
220.72	-1400.000
221.09	357.143
221.47	1300.000
221.84	-750.000
222.22	0.000
222.59	1025.000
222.97	-1850.000
223.34	880.000
223.72	307.692
224.09	780.000
224.46	1350.000
224.84	-3200.000
225.21	-700.000
225.59	-2200.000
225.96	440.000
226.34	240.000
226.71	1950.000
227.08	437.500
227.46	480.000
227.83	-675.000
228.21	-1550.000
228.58	455.556
228.95	-1400.000
229.33	-1550.000
229.70	1166.667
230.08	600.000
230.45	-620.000
230.82	283.333
231.20	550.000
231.57	342.857
231.95	358.333
232.32	168.182
232.69	372.727
233.07	485.714
233.44	253.846
233.81	-1000.000
234.19	221.053
234.56	333.333
234.93	350.000
235.31	409.091
235.68	253.846
236.05	292.857
236.43	121.212
236.80	168.421
237.17	2900.000
237.55	138.095
237.92	200.000
238.29	233.333
238.67	158.065
239.04	162.069
239.41	113.889
239.79	82.609
240.16	128.571
240.53	106.818
240.91	86.275
241.28	120.000
241.65	100.000
242.02	72.464
242.40	96.774
242.77	88.333
243.14	67.742
243.51	73.034
243.89	60.000
244.26	60.000
244.63	62.366
245.00	54.255
245.38	64.356
245.75	57.009
246.12	59.633
246.49	71.533
246.87	68.000
247.24	56.154
247.61	51.429
247.98	54.902
248.36	44.595
248.73	49.045
249.10	63.057
249.47	46.328
249.84	52.406
250.22	52.406
250.59	51.479
250.96	54.040
251.33	48.815
251.70	54.950
252.08	47.143
252.45	44.843
252.82	46.522
253.19	50.638
253.56	41.176
253.94	47.718
254.31	44.141
254.68	43.846
255.05	41.697
255.42	43.496
255.79	45.221
256.16	47.292
256.54	42.403
256.91	46.975
257.28	39.928
257.65	40.594
258.02	43.478
258.39	40.063
258.76	43.478
259.14	40.179
259.51	43.161
259.88	38.509
260.25	43.505
260.62	38.728
260.99	37.888
261.36	41.742
261.73	40.688
262.10	41.570
262.47	40.282
262.85	39.554
263.22	37.892
263.59	41.880
263.96	38.462
264.33	40.992
264.70	41.316
265.07	40.153
265.44	39.646
265.81	35.036
266.18	37.940
266.55	41.463
266.92	40.541
267.29	39.815
267.66	35.780
268.03	35.000
268.40	39.019
268.77	33.890
269.14	35.811
269.51	36.117
269.88	39.627
270.25	36.795
270.62	36.180
270.99	40.000
271.36	36.266
271.73	39.252
272.10	38.043
272.47	38.280
272.84	36.364
273.21	38.155
273.58	33.843
273.95	35.430
274.32	33.884
274.69	36.403
275.06	33.268
275.43	36.596
275.80	36.072
276.17	34.420
276.54	37.630
276.91	36.364
277.28	34.180
277.65	35.783
278.02	36.439
278.39	35.742
278.76	35.091
279.13	34.528
279.50	35.568
279.87	36.853
280.23	34.531
280.60	34.043
280.97	34.196
281.34	37.522
281.71	34.000
282.08	37.236
282.45	33.636
282.82	34.103
283.19	34.225
283.56	33.684
283.92	36.041
284.29	32.275
284.66	36.298
285.03	33.454
285.40	34.507
285.77	34.680
286.14	34.197
286.51	31.000
286.87	32.821
287.24	32.573
287.61	31.461
287.98	32.305
288.35	32.330
288.72	31.776
289.08	32.707
289.45	31.960
289.82	30.894
290.19	30.455
290.56	30.015
290.93	30.514
291.29	31.902
291.66	30.383
292.03	31.977
292.40	32.159
292.77	28.698
293.13	28.507
293.50	28.863
293.87	29.333
294.24	29.185
294.60	28.384
294.97	27.471
295.34	29.196
295.71	28.551
296.08	27.635
296.44	29.023
296.81	27.741
297.18	29.133
297.55	25.066
297.91	27.177
298.28	27.309
298.65	26.762
299.02	26.482
299.38	27.092
299.75	24.933
300.12	24.777
300.48	25.625
300.85	25.401
301.22	25.732
301.59	25.000
301.95	25.567
302.32	26.573
302.69	26.165
303.05	23.758
303.42	24.321
303.79	23.896
304.15	21.911
304.52	24.218
304.89	24.042
305.25	24.594
305.62	23.556
305.99	24.793
306.35	24.049
306.72	24.776
307.09	23.196
307.45	26.464
307.82	22.768
308.19	23.068
308.55	22.654
308.92	25.994
309.29	22.281
309.65	24.072
310.02	22.939
310.38	22.903
310.75	25.132
311.12	23.439
311.48	23.197
311.85	23.375
312.22	24.454
312.58	21.518
312.95	24.921
313.31	22.621
313.68	23.597
314.05	24.359
314.41	22.412
314.78	23.364
315.14	23.138
315.51	22.348
315.87	21.485
316.24	22.939
316.61	23.977
316.97	21.918
317.34	22.114
317.70	22.753
318.07	22.810
318.43	22.994
318.80	22.493
319.16	22.599
319.53	21.576
319.89	22.762
320.26	23.100
320.62	22.917
320.99	22.626
321.35	21.515
321.72	23.203
322.08	22.409
322.45	23.781
322.81	22.965
323.18	22.929
323.54	21.429
323.91	22.547
324.27	22.562
324.64	21.994
325.00	21.641
325.37	23.294
325.73	22.262
326.10	21.801
326.46	22.581
326.83	22.692
327.19	21.520
327.56	22.387
327.92	21.785
328.29	23.514
328.65	22.652
329.01	22.112
329.38	22.202
329.74	22.345
330.11	21.206
330.47	20.569
330.84	23.438
331.20	21.858
331.56	22.661
331.93	21.296
332.29	21.739
332.66	22.478
333.02	20.932
333.38	22.222
333.75	22.816
334.11	22.776
334.48	22.272
334.84	22.610
335.20	21.364
335.57	21.487
335.93	21.339
336.29	22.436
336.66	22.182
337.02	21.086
337.38	21.574
337.75	21.925
338.11	21.397
338.47	20.902
338.84	22.456
339.20	20.734
339.56	22.536
339.93	20.636
340.29	20.833
340.65	22.282
341.02	21.640
341.38	21.441
341.74	21.667
342.11	20.961
342.47	21.410
342.83	21.404
343.20	22.251
343.56	19.966
343.92	21.316
344.28	21.599
344.65	20.636
345.01	19.865
345.37	20.326
345.73	20.981
346.10	20.716
346.46	20.508
346.82	20.346
347.19	20.886
347.55	20.033
347.91	20.631
348.27	20.953
348.63	21.656
349.00	19.498
349.36	20.279
349.72	20.369
350.08	20.178
350.45	20.504
350.81	18.765
351.17	21.799
351.53	20.966
351.89	20.050
352.26	20.994
352.62	20.850
352.98	19.935
353.34	20.460
353.70	17.430
354.07	19.677
354.43	20.079
354.79	19.389
355.15	19.154
355.51	21.503
355.87	19.918
356.24	20.847
356.60	19.567
356.96	18.986
357.32	20.196
357.68	19.606
358.04	19.794
358.40	20.111
358.77	19.484
359.13	19.100
359.49	20.235
359.85	18.016
360.21	19.378
360.57	19.300
360.93	19.231
361.29	19.803
361.66	18.963
362.02	20.149
362.38	18.859
362.74	18.676
363.10	18.801
363.46	19.296
363.82	19.199
364.18	19.090
364.54	20.208
364.90	19.972
365.26	19.485
365.62	18.846
365.98	18.408
366.35	18.266
366.71	19.161
367.07	19.155
367.43	18.723
367.79	19.486
368.15	19.181
368.51	18.314
368.87	19.129
369.23	19.824
369.59	19.117
369.95	18.309
370.31	19.231
370.67	18.261
371.03	18.951
371.39	18.950
371.75	19.191
372.11	17.994
372.47	18.622
372.83	18.804
373.19	19.003
373.55	19.438
373.91	19.440
374.27	19.038
374.63	17.818
374.99	19.421
375.35	18.562
375.71	18.711
376.07	19.067
376.42	18.088
376.78	18.025
377.14	17.843
377.50	18.609
377.86	17.819
378.22	18.837
378.58	18.108
378.94	18.228
379.30	17.176
379.66	17.640
380.02	18.489
380.38	18.154
380.74	17.707
381.09	18.704
381.45	17.763
381.81	18.489
382.17	17.643
382.53	18.113
382.89	18.827
383.25	18.261
383.61	18.030
383.97	17.824
384.32	17.904
384.68	18.154
385.04	17.763
385.40	17.833
385.76	18.059
386.12	17.811
386.48	18.817
386.83	18.666
387.19	18.615
387.55	18.244
387.91	17.473
388.27	17.658
388.62	19.053
388.98	17.383
389.34	17.772
389.70	17.535
390.06	18.885
390.42	18.288
390.77	17.621
391.13	17.677
391.49	16.942
391.85	17.950
392.20	17.413
392.56	18.182
392.92	18.011
393.28	16.568
393.64	18.106
393.99	17.838
394.35	17.742
394.71	17.880
395.07	17.196
395.42	17.491
395.78	17.239
396.14	17.194
396.50	17.732
396.85	18.182
397.21	16.769
397.57	17.235
397.92	17.728
398.28	16.592
398.64	17.802
399.00	17.515
399.35	16.695
399.71	16.725
400.07	17.800
400.42	17.791
400.78	17.189
401.14	17.805
401.49	17.910
401.85	17.120
402.21	17.126
402.57	16.718
402.92	18.285
403.28	17.614
403.63	16.894
403.99	17.389
404.35	17.333
404.70	16.906
405.06	17.181
405.42	17.842
405.77	16.743
406.13	17.099
406.49	16.736
406.84	17.366
407.20	16.489
407.55	17.422
407.91	18.400
408.27	17.486
408.62	17.219
408.98	17.708
409.34	17.897
409.69	17.097
410.05	17.596
410.40	18.043
410.76	17.324
411.11	17.431
411.47	17.444
411.83	17.532
412.18	17.007
412.54	17.933
412.89	17.530
413.25	17.828
413.60	17.727
413.96	17.304
414.31	17.740
414.67	17.871
415.03	17.152
415.38	17.848
415.74	17.878
416.09	17.374
416.45	18.005
416.80	16.722
417.16	17.359
417.51	17.717
417.87	16.185
418.22	17.476
418.58	17.495
418.93	17.875
419.29	17.059
419.64	17.695
420.00	17.866
420.35	17.971
420.71	17.812
421.06	16.289
421.42	16.959
421.77	17.545
422.12	16.901
422.48	16.622
422.83	17.531
423.19	17.845
423.54	17.121
423.90	18.435
424.25	17.867
424.61	16.726
424.96	17.784
425.31	17.442
425.67	17.303
426.02	17.657
426.38	17.827
426.73	16.676
427.09	17.568
427.44	17.481
427.79	17.481
428.15	18.036
428.50	17.847
428.85	17.759
429.21	16.897
429.56	17.159
429.92	16.608
430.27	16.931
430.62	16.590
430.98	16.969
431.33	17.113
431.68	17.330
432.04	17.891
432.39	16.562
432.74	16.697
433.10	16.695
433.45	16.968
433.80	17.406
434.16	17.415
434.51	17.053
434.86	17.731
435.22	16.843
435.57	16.657
435.92	17.554
436.28	17.794
436.63	18.543
436.98	17.287
437.34	17.710
437.69	18.203
438.04	16.695
438.39	17.910
438.75	17.606
439.10	17.542
439.45	17.178
439.81	16.918
440.16	16.996
440.51	17.165
440.86	17.429
441.22	17.853
441.57	16.879
441.92	17.195
442.27	17.061
442.63	17.430
442.98	17.915
443.33	17.337
443.68	17.192
444.03	17.570
444.39	16.748
444.74	17.857
445.09	17.951
445.44	17.988
445.79	17.417
446.15	18.211
446.50	17.447
446.85	17.318
447.20	17.593
447.55	17.253
447.91	17.430
448.26	17.474
448.61	16.902
448.96	18.106
449.31	17.773
449.66	17.276
450.02	16.880
450.37	17.517
450.72	17.484
451.07	17.063
451.42	17.629
451.77	18.203
452.12	17.552
452.47	17.910
452.83	17.541
453.18	18.154
453.53	18.429
453.88	17.129
454.23	18.410
454.58	17.989
454.93	18.945
455.28	17.955
455.63	17.779
455.98	17.500
456.34	17.965
456.69	17.971
457.04	18.514
457.39	17.767
457.74	17.934
458.09	17.884
458.44	17.674
458.79	17.028
459.14	17.720
459.49	17.922
459.84	17.673
460.19	18.444
460.54	18.345
460.89	18.541
461.24	18.154
461.59	19.756
461.94	18.126
462.29	18.457
462.64	18.251
462.99	17.892
463.34	18.133
463.69	17.824
464.04	18.551
464.39	18.841
464.74	18.004
465.09	18.335
465.44	17.008
465.79	17.114
466.14	17.734
466.49	17.519
466.84	18.564
467.19	18.286
467.54	18.687
467.89	17.527
468.24	18.266
468.59	19.170
468.94	17.838
469.29	18.059
469.64	18.675
469.99	18.403
470.34	17.834
470.68	18.678
471.03	17.619
471.38	18.763
471.73	18.921
472.08	18.816
472.43	18.467
472.78	18.302
473.13	18.742
473.48	19.538
473.83	19.024
474.17	17.735
474.52	18.734
474.87	18.447
475.22	18.398
475.57	18.001
475.92	18.216
476.27	18.546
476.61	18.147
476.96	18.087
477.31	17.478
477.66	18.107
478.01	17.721
478.36	17.980
478.70	17.394
479.05	18.637
479.40	18.270
479.75	17.539
480.10	17.942
480.45	17.373
480.79	17.296
481.14	18.689
481.49	17.845
481.84	18.016
482.19	18.128
482.53	17.844
482.88	17.590
483.23	18.131
483.58	17.652
483.92	17.666
484.27	17.124
484.62	17.716
484.97	17.304
485.31	17.089
485.66	16.396
486.01	15.973
486.36	15.856
486.70	15.703
487.05	16.103
487.40	16.216
487.75	16.210
488.09	16.591
488.44	16.945
488.79	17.324
489.13	16.845
489.48	17.007
489.83	17.695
490.17	17.580
490.52	17.759
490.87	17.910
491.22	17.553
491.56	17.358
491.91	18.427
492.26	18.374
492.60	18.249
492.95	17.587
493.30	17.991
493.64	17.639
493.99	18.152
494.34	18.039
494.68	18.544
495.03	18.374
495.37	18.846
495.72	18.275
496.07	18.051
496.41	17.655
496.76	17.766
497.11	17.965
497.45	18.072
497.80	18.186
498.14	17.585
498.49	18.585
498.84	17.929
499.18	18.238
499.53	17.854
499.87	18.313
500.22	18.041
500.56	19.320
500.91	17.500
501.26	18.208
501.60	18.462
501.95	18.148
502.29	17.994
502.64	18.296
502.98	18.326
503.33	18.327
503.67	18.144
504.02	18.054
504.36	18.718
504.71	18.661
505.06	18.024
505.40	18.571
505.75	17.743
506.09	18.124
506.44	18.254
506.78	18.217
507.13	18.324
507.47	19.141
507.82	18.744
508.16	18.490
508.51	19.330
508.85	18.272
509.19	18.724
509.54	18.622
509.88	18.753
510.23	18.355
510.57	19.814
510.92	18.540
511.26	18.962
511.61	18.568
511.95	18.476
512.30	18.505
512.64	19.130
512.98	19.453
513.33	19.433
513.67	19.317
514.02	18.777
514.36	19.115
514.70	19.480
515.05	19.018
515.39	19.462
515.74	18.975
516.08	19.843
516.42	19.534
516.77	20.011
517.11	19.478
517.46	19.526
517.80	20.151
518.14	18.413
518.49	19.720
518.83	19.773
519.17	18.938
519.52	19.355
519.86	19.852
520.20	19.538
520.55	19.988
520.89	20.438
521.23	20.567
521.58	19.988
521.92	19.841
522.26	19.341
522.61	19.564
522.95	19.337
523.29	19.294
523.64	19.878
523.98	20.579
524.32	20.145
524.66	19.844
525.01	20.527
525.35	20.508
525.69	19.828
526.04	20.561
526.38	20.378
526.72	19.877
527.06	20.904
527.41	18.688
527.75	20.386
528.09	20.681
528.43	20.140
528.78	20.221
529.12	20.121
529.46	20.269
529.80	20.978
530.15	20.125
530.49	19.385
530.83	20.316
531.17	20.235
531.51	21.077
531.86	21.097
532.20	20.535
532.54	20.051
532.88	21.181
533.22	20.112
533.57	20.000
533.91	20.169
534.25	20.170
534.59	20.134
534.93	19.572
535.27	19.493
535.62	20.391
535.96	20.841
536.30	19.072
536.64	19.639
536.98	20.836
537.32	19.552
537.66	19.933
538.01	19.552
538.35	20.362
538.69	20.549
539.03	20.143
539.37	18.786
539.71	19.248
540.05	19.608
540.39	19.668
540.73	20.375
541.07	20.636
541.42	20.417
541.76	19.806
542.10	20.505
542.44	20.662
542.78	20.553
543.12	18.682
543.46	20.918
543.80	20.299
544.14	18.421
544.48	20.190
544.82	20.462
545.16	20.169
545.50	19.537
545.84	20.296
546.18	19.596
546.52	20.303
546.86	20.137
547.20	20.904
547.54	20.574
547.88	20.791
548.22	19.240
548.56	20.000
548.90	19.654
549.24	19.529
549.58	20.532
549.92	20.398
550.26	20.881
550.60	20.332
550.94	20.070
551.28	21.068
551.62	20.848
551.96	19.789
552.30	20.887
552.64	20.149
552.98	20.542
553.32	20.701
553.66	20.927
554.00	21.139
554.34	20.635
554.68	21.173
555.02	20.522
555.36	20.877
555.69	19.892
556.03	20.458
556.37	20.396
556.71	20.396
557.05	20.868
557.39	20.574
557.73	21.030
558.07	21.320
558.41	20.405
558.75	21.234
559.08	20.507
559.42	21.013
559.76	21.324
560.10	20.842
560.44	21.314
560.78	19.760
561.12	20.580
561.45	20.404
561.79	20.105
562.13	20.389
562.47	20.492
562.81	20.014
563.15	20.334
563.48	20.159
563.82	20.026
564.16	20.144
564.50	19.271
564.84	19.848
565.17	20.592
565.51	20.383
565.85	21.129
566.19	19.662
566.52	19.696
566.86	19.470
567.20	20.224
567.54	19.635
567.88	19.772
568.21	19.418
568.55	18.807
568.89	18.920
569.23	18.939
569.56	17.814
569.90	17.925
570.24	17.940
570.57	18.055
570.91	16.839
571.25	17.264
571.59	17.320
571.92	17.425
572.26	17.331
572.60	17.508
572.93	16.972
573.27	17.096
573.61	17.560
573.95	17.054
574.28	16.558
574.62	16.715
574.96	16.703
575.29	16.756
575.63	17.378
575.97	16.688
576.30	16.782
576.64	16.578
576.98	16.310
577.31	16.613
577.65	16.895
577.98	16.486
578.32	16.064
578.66	16.562
578.99	16.366
579.33	16.437
579.67	16.273
580.00	16.567
580.34	16.849
580.67	16.686
581.01	16.888
581.35	16.384
581.68	16.626
582.02	15.952
582.35	16.365
582.69	16.354
583.02	16.573
583.36	16.694
583.70	16.733
584.03	16.797
584.37	16.733
584.70	16.980
585.04	16.610
585.37	16.636
585.71	16.612
586.04	17.057
586.38	17.085
586.72	17.371
587.05	16.762
587.39	16.544
587.72	16.851
588.06	16.542
588.39	17.695
588.73	16.867
589.06	17.233
589.40	17.441
589.73	17.459
590.07	17.438
590.40	17.172
590.73	17.408
591.07	18.112
591.40	17.967
591.74	18.571
592.07	18.412
592.41	17.735
592.74	17.453
593.08	17.355
593.41	16.957
593.75	17.083
594.08	17.231
594.41	17.745
594.75	17.708
595.08	17.144
595.42	17.443
595.75	16.952
596.09	18.062
596.42	18.035
596.75	17.518
597.09	18.615
597.42	17.201
597.75	18.154
598.09	18.652
598.42	17.741
598.76	17.471
599.09	18.054
599.42	17.394
599.76	17.533
600.09	17.086
600.42	17.202
600.76	16.893
601.09	17.377
601.42	17.542
601.76	17.306
602.09	17.628
602.42	17.237
602.76	17.735
603.09	17.860
603.42	18.157
603.76	17.492
604.09	17.836
604.42	17.611
604.76	17.967
605.09	17.824
605.42	17.486
605.75	17.508
606.09	17.324
606.42	17.573
606.75	17.835
607.09	17.999
607.42	17.458
607.75	17.679
608.08	17.803
608.42	18.108
608.75	17.809
609.08	17.299
609.41	18.277
609.75	17.532
610.08	17.861
610.41	17.784
610.74	18.307
611.07	18.528
611.41	18.155
611.74	18.451
612.07	18.634
612.40	18.206
612.73	18.474
613.07	19.127
613.40	18.378
613.73	17.672
614.06	18.495
614.39	18.406
614.72	18.368
615.06	18.540
615.39	18.524
615.72	19.274
616.05	17.703
616.38	19.011
616.71	19.418
617.05	19.552
617.38	19.122
617.71	19.459
618.04	18.870
618.37	18.687
618.70	19.104
619.03	19.737
619.36	19.823
619.69	19.507
620.03	20.192
620.36	19.051
620.69	20.137
621.02	20.723
621.35	19.734
621.68	19.626
622.01	20.511
622.34	20.651
622.67	20.000
623.00	20.470
623.33	19.228
623.66	19.657
623.99	20.177
624.32	19.900
624.65	19.986
624.99	19.618
625.32	20.058
625.65	19.234
625.98	19.677
626.31	20.607
626.64	20.490
626.97	19.950
627.30	20.615
627.63	22.067
627.96	21.951
628.29	21.522
628.62	21.958
628.95	22.453
629.28	20.712
629.61	22.456
629.94	22.571
630.26	22.212
630.59	21.926
630.92	21.360
631.25	20.336
631.58	22.322
631.91	22.617
632.24	22.046
632.57	23.085
632.90	21.711
633.23	23.490
633.56	23.277
633.89	22.877
634.22	22.815
634.55	25.325
634.88	22.754
635.20	24.492
635.53	22.410
635.86	23.639
636.19	24.235
636.52	23.529
636.85	23.024
637.18	22.120
637.51	24.113
637.83	20.592
638.16	23.529
638.49	23.804
638.82	23.641
639.15	24.125
639.48	24.190
639.81	24.531
640.13	23.958
640.46	25.369
640.79	23.646
641.12	23.934
641.45	24.302
641.77	24.890
642.10	24.561
642.43	24.625
642.76	26.471
643.09	25.307
643.41	25.190
643.74	27.315
644.07	23.780
644.40	28.221
644.73	26.457
645.05	26.941
645.38	24.645
645.71	25.282
646.04	24.086
646.36	26.377
646.69	27.258
647.02	24.490
647.35	25.086
647.67	26.549
648.00	27.154
648.33	24.092
648.66	24.697
648.98	25.337
649.31	23.318
649.64	23.468
649.96	24.888
650.29	25.750
650.62	24.595
650.94	26.742
651.27	27.534
651.60	26.290
651.92	26.038
652.25	23.127
652.58	25.078
652.90	24.645
653.23	23.421
653.56	25.669
653.88	24.406
654.21	26.540
654.54	25.908
654.86	23.209
655.19	22.838
655.52	17.035
655.84	14.520
656.17	18.511
656.49	24.947
656.82	24.682
657.15	18.199
657.47	13.569
657.80	10.204
658.13	10.455
658.45	15.369
658.78	15.199
659.10	14.984
659.43	15.759
659.75	17.061
660.08	18.165
660.41	19.274
660.73	22.236
661.06	23.885
661.38	24.727
661.71	26.538
662.03	27.416
662.36	25.646
662.68	28.112
663.01	28.283
663.33	28.025
663.66	27.941
663.98	28.510
664.31	28.361
664.63	26.113
664.96	25.151
665.28	28.074
665.61	25.731
665.93	26.358
666.26	27.383
666.58	27.615
666.91	27.484
667.23	31.011
667.56	28.510
667.88	28.846
668.21	29.211
668.53	26.247
668.86	27.922
669.18	30.490
669.50	30.652
669.83	30.937
670.15	28.444
670.48	26.144
670.80	28.017
671.13	29.299
671.45	27.447
671.77	27.495
672.10	26.617
672.42	25.265
672.75	25.041
673.07	26.408
673.39	24.412
673.72	25.977
674.04	25.490
674.37	26.214
674.69	25.767
675.01	25.105
675.34	29.979
675.66	29.684
675.98	27.495
676.31	28.571
676.63	28.875
676.95	28.512
677.28	25.467
677.60	25.934
677.92	29.958
678.25	27.310
678.57	27.490
678.89	26.653
679.22	25.933
679.54	25.191
679.86	27.339
680.18	25.581
680.51	27.837
680.83	28.114
681.15	25.094
681.48	27.977
681.80	26.112
682.12	27.969
682.44	25.145
682.77	26.884
683.09	28.970
683.41	28.603
683.73	27.594
684.06	27.893
684.38	25.636
684.70	27.326
685.02	26.079
685.34	25.824
685.67	24.301
685.99	23.711
686.31	24.573
686.63	24.028
686.96	24.286
687.28	25.632
687.60	23.913
687.92	26.508
688.24	26.236
688.56	24.900
688.89	28.216
689.21	29.476
689.53	26.722
689.85	27.938
690.17	24.845
690.49	26.752
690.82	26.168
691.14	27.455
691.46	25.738
691.78	27.510
692.10	26.860
692.42	27.944
692.74	26.349
693.06	27.660
693.39	25.667
693.71	28.384
694.03	28.211
694.35	28.571
694.67	27.460
694.99	25.854
695.31	29.167
695.63	28.708
695.95	27.628
696.27	28.426
696.59	29.016
696.91	28.238
697.23	24.413
697.56	27.079
697.88	23.926
698.20	24.167
698.52	27.527
698.84	28.285
699.16	26.959
699.48	27.078
699.80	24.638
700.12	30.390
700.44	29.708
700.76	28.177
701.08	30.172
701.40	28.492
701.72	28.280
702.04	35.511
702.36	25.779
702.68	30.312
703.00	31.025
703.32	29.787
703.64	29.759
703.96	28.969
704.28	32.558
704.60	31.672
704.91	30.564
705.23	28.446
705.55	32.558
705.87	32.890
706.19	32.862
706.51	30.218
706.83	31.515
707.15	32.213
707.47	28.788
707.79	24.816
708.11	27.397
708.43	26.667
708.74	26.531
709.06	28.052
709.38	27.559
709.70	29.651
710.02	32.344
710.34	28.182
710.66	34.627
710.98	30.682
711.29	29.651
711.61	34.513
711.93	26.603
712.25	31.833
712.57	31.618
712.89	29.412
713.20	25.836
713.52	31.579
713.84	28.165
714.16	26.220
714.48	29.023
714.80	33.739
715.11	28.242
715.43	27.300
715.75	30.725
716.07	32.588
716.39	28.527
716.70	31.561
717.02	32.374
717.34	32.509
717.66	35.448
717.97	31.873
718.29	32.222
718.61	36.131
718.93	35.294
719.24	33.218
719.56	28.814
719.88	33.559
720.20	32.432
720.51	33.101
720.83	31.227
721.15	30.224
721.46	33.688
721.78	29.749
722.10	33.585
722.42	35.714
722.73	31.461
723.05	34.836
723.37	32.794
723.68	33.205
724.00	36.179
724.32	32.258
724.63	34.553
724.95	35.565
725.27	34.008
725.58	32.813
725.90	37.956
726.22	32.830
726.53	29.861
726.85	34.130
727.16	30.961
727.48	31.560
727.80	32.197
728.11	29.348
728.43	32.308
728.74	33.692
729.06	33.942
729.38	39.706
729.69	34.520
730.01	27.645
730.32	29.514
730.64	26.421
730.96	25.083
731.27	30.464
731.59	31.804
731.90	29.155
732.22	29.193
732.53	30.031
732.85	30.128
733.16	29.260
733.48	31.894
733.80	31.818
734.11	27.707
734.43	31.361
734.74	29.143
735.06	29.226
735.37	28.035
735.69	28.662
736.00	31.373
736.32	30.530
736.63	26.837
736.95	32.588
737.26	27.891
737.58	23.548
737.89	30.769
738.21	27.986
738.52	33.929
738.83	27.925
739.15	31.538
739.46	32.847
739.78	29.514
740.09	28.000
740.41	30.000
740.72	24.390
741.04	28.519
741.35	28.333
741.66	37.333
741.98	35.377
742.29	38.756
742.61	40.086
742.92	32.127
743.23	29.487
743.55	35.600
743.86	31.140
744.18	39.823
744.49	33.971
744.80	40.376
745.12	37.273
745.43	36.564
745.74	35.586
746.06	32.110
746.37	39.013
746.68	32.579
747.00	34.722
747.31	38.571
747.62	30.973
747.94	33.040
748.25	33.191
748.56	41.410
748.88	35.149
749.19	39.000
749.50	39.070
749.82	32.927
750.13	33.061
750.44	30.292
750.75	31.930
751.07	34.084
751.38	39.024
751.69	32.130
752.01	32.707
752.32	27.798
752.63	33.333
752.94	29.508
753.26	34.400
753.57	29.268
753.88	35.156
754.19	34.643
754.51	32.986
754.82	28.881
755.13	35.094
755.44	29.699
755.75	29.562
756.07	30.142
756.38	29.562
756.69	31.879
757.00	27.844
757.31	28.487
757.63	26.316
757.94	30.831
758.25	27.451
758.56	26.667
758.87	27.151
759.18	30.303
759.50	26.019
759.81	26.168
760.12	27.187
760.43	29.226
760.74	29.348
761.05	30.508
761.36	25.134
761.67	28.977
761.99	30.124
762.30	33.333
762.61	33.206
762.92	37.500
763.23	34.034
763.54	40.400
763.85	32.422
764.16	35.769
764.47	33.840
764.78	28.975
765.10	27.215
765.41	27.434
765.72	28.144
766.03	32.288
766.34	32.000
766.65	36.596
766.96	35.897
767.27	37.563
767.58	34.896
767.89	41.579
768.20	44.253
768.51	36.041
768.82	39.450
769.13	31.707
769.44	31.984
769.75	31.330
770.06	25.229
770.37	32.127
770.68	35.648
770.99	38.222
771.30	28.279
771.61	31.839
771.92	32.787
772.23	38.655
772.54	37.436
772.85	40.314
773.16	32.447
773.47	41.304
773.78	37.563
774.09	43.452
774.39	36.257
774.70	43.210
775.01	48.551
775.32	46.405
775.63	47.368
775.94	41.007
776.25	51.181
776.56	40.299
776.87	50.820
777.18	50.000
777.48	46.565
777.79	48.485
778.10	48.148
778.41	42.857
778.72	39.416
779.03	43.624
779.34	46.309
779.65	37.162
779.95	42.331
780.26	45.752
780.57	41.379
780.88	50.781
781.19	45.113
781.50	43.243
781.80	41.509
782.11	35.028
782.42	37.342
782.73	39.264
783.04	50.000
783.34	45.070
783.65	50.685
783.96	48.507
784.27	41.259
784.57	40.288
784.88	37.963
785.19	50.000
785.50	51.887
785.81	46.269
786.11	50.820
786.42	49.612
786.73	41.593
787.04	54.717
787.34	50.000
787.65	52.000
787.96	56.757
788.26	40.496
788.57	55.085
788.88	48.760
789.19	48.611
789.49	48.485
789.80	44.275
790.11	67.619
790.41	57.426
790.72	57.831
791.03	65.217
791.33	55.814
791.64	59.794
791.95	63.366
792.25	55.556
792.56	67.532
792.87	69.231
793.17	64.557
793.48	75.862
793.79	62.069
794.09	61.364
794.40	47.059
794.70	50.000
795.01	48.148
795.32	38.849
795.62	40.945
795.93	51.724
796.23	46.903
796.54	54.118
796.85	68.919
797.15	91.549
797.46	71.212
797.76	68.675
798.07	72.152
798.37	61.538
798.68	74.242
798.99	76.056
799.29	74.026
799.60	51.136
799.90	69.863
800.21	68.657
800.51	74.138
800.82	78.947
801.12	67.213
801.43	86.364
801.73	60.811
802.04	69.841
802.34	77.778
802.65	73.438
802.95	91.525
803.26	84.375
803.56	64.286
803.87	64.615
804.17	79.412
804.48	96.296
804.78	77.586
805.09	70.588
805.39	73.077
805.70	76.786
806.00	81.967
806.30	69.697
806.61	62.195
806.91	54.430
807.22	50.000
807.52	56.716
807.83	73.239
808.13	98.437
808.43	80.000
808.74	51.316
809.04	73.913
809.35	80.597
809.65	68.421
809.95	98.387
810.26	66.102
810.56	80.952
810.86	109.091
811.17	116.667
811.47	81.667
811.77	72.222
812.08	109.091
812.38	96.000
812.69	100.000
812.99	88.636
813.29	95.918
813.59	69.048
813.90	81.633
814.20	89.091
814.50	69.231
814.81	67.647
815.11	112.245
815.41	72.131
815.72	111.905
816.02	116.364
816.32	97.619
816.62	70.000
816.93	107.317
817.23	97.619
817.53	97.727
817.84	118.182
818.14	95.652
818.44	86.667
818.74	114.706
819.04	100.000
819.35	120.000
819.65	126.471
819.95	117.857
820.25	135.000
820.56	143.590
820.86	104.545
821.16	106.977
821.46	89.744
821.76	96.000
822.07	108.571
822.37	92.500
822.67	130.303
822.97	80.392
823.27	157.143
823.57	100.000
823.88	122.500
824.18	160.000
824.48	121.429
824.78	144.000
825.08	154.167
825.38	124.324
825.69	92.683
825.99	170.833
826.29	110.345
826.59	139.474
826.89	126.316
827.19	161.765
827.49	161.290
827.79	115.909
828.09	113.636
828.39	97.872
828.70	89.796
829.00	125.926
829.30	112.903
829.60	125.000
829.90	153.333
830.20	167.857
830.50	182.609
830.80	165.217
831.10	156.667
831.40	126.667
831.70	160.870
832.00	176.923
832.30	144.444
832.60	237.500
832.90	150.000
833.20	314.286
833.50	125.806
833.80	148.276
834.10	121.875
834.40	161.538
834.70	233.333
835.00	223.810
835.30	137.143
835.60	238.462
835.90	151.724
836.20	250.000
836.50	141.379
836.80	128.000
837.10	141.667
837.40	161.905
837.70	205.882
838.00	137.037
838.30	180.952
838.60	200.000
838.90	150.000
839.19	190.000
839.49	314.286
839.79	280.000
840.09	175.000
840.39	219.048
840.69	182.609
840.99	194.444
841.29	280.000
841.59	191.667
841.88	237.500
842.18	158.621
842.48	185.714
842.78	176.667
843.08	143.478
843.38	121.875
843.68	616.667
843.97	188.462
844.27	162.069
844.57	219.048
844.87	262.500
845.17	162.963
845.47	1033.333
845.76	366.667
846.06	211.765
846.36	462.500
846.66	321.429
846.96	243.750
847.25	236.364
847.55	227.273
847.85	213.043
848.15	390.000
848.44	207.143
848.74	150.000
849.04	252.941
849.34	340.000
849.63	163.158
849.93	363.636
850.23	680.000
850.53	307.143
850.82	1350.000
851.12	-2500.000
851.42	3400.000
851.71	220.000
852.01	-666.667
852.31	220.833
852.61	900.000
852.90	223.810
853.20	168.000
853.50	205.882
853.79	195.238
854.09	187.500
854.39	225.000
854.68	137.838
854.98	148.387
855.28	136.667
855.57	165.517
855.87	155.556
856.17	173.684
856.46	173.333
856.76	229.412
857.05	127.586
857.35	212.500
857.65	206.667
857.94	178.261
858.24	153.846
858.53	275.000
858.83	195.455
859.13	186.667
859.42	0.000
859.72	477.778
860.01	290.909
860.31	190.909
860.60	189.474
860.90	169.565
861.20	422.222
861.49	358.333
861.79	-3900.000
862.08	462.500
862.38	176.190
862.67	230.769
862.97	247.059
863.26	455.556
863.56	238.889
863.85	250.000
864.15	425.000
864.44	300.000
864.74	666.667
865.03	437.500
865.33	231.579
865.62	300.000
865.92	338.462
866.21	283.333
866.51	0.000
866.80	354.545
867.10	760.000
867.39	353.846
867.69	272.727
867.98	189.474
868.27	254.545
868.57	247.368
868.86	-3200.000
869.16	268.750
869.45	1800.000
869.75	-2100.000
870.04	291.667
870.33	485.714
870.63	700.000
870.92	1950.000
871.22	342.857
871.51	241.176
871.80	185.714
872.10	264.286
>>>>>End Processed Spectral Data<<<<<
