SpectraSuite Data File
++++++++++++++++++++++++++++++++++++
Date: Wed May 13 20:36:56 PDT 2015
User: schluterlab
Dark Spectrum Present: Yes
Reference Spectrum Present: Yes
Number of Sampled Component Spectra: 1
Spectrometers: USB2E3373
Integration Time (usec): 3000 (USB2E3373)
Spectra Averaged: 3 (USB2E3373)
Boxcar Smoothing: 0 (USB2E3373)
Correct for Electrical Dark: No (USB2E3373)
Strobe/Lamp Enabled: No (USB2E3373)
Correct for Detector Non-linearity: No (USB2E3373)
Correct for Stray Light: No (USB2E3373)
Number of Pixels in Processed Spectrum: 2048
>>>>>Begin Processed Spectral Data<<<<<
178.53	0.000
178.91	-1050.000
179.29	-925.000
179.67	-144.444
180.04	-1100.000
180.42	1900.000
180.80	960.000
181.18	-650.000
181.56	400.000
181.94	0.000
182.31	-371.429
182.69	1400.000
183.07	-387.500
183.45	-355.556
183.83	372.727
184.20	-300.000
184.58	1400.000
184.96	4600.000
185.34	-640.000
185.72	-325.000
186.09	-1800.000
186.47	1950.000
186.85	1550.000
187.23	4600.000
187.61	-1533.333
187.98	1025.000
188.36	400.000
188.74	336.364
189.12	-620.000
189.49	380.000
189.87	-2700.000
190.25	-700.000
190.63	285.714
191.00	415.385
191.38	566.667
191.76	-1000.000
192.14	1325.000
192.51	587.500
192.89	683.333
193.27	475.000
193.65	-1000.000
194.02	420.000
194.40	720.000
194.78	410.000
195.15	358.333
195.53	420.000
195.91	-1750.000
196.29	256.250
196.66	221.053
197.04	-200.000
197.42	0.000
197.79	420.000
198.17	-3100.000
198.55	442.857
198.92	425.000
199.30	740.000
199.68	0.000
200.05	300.000
200.43	585.714
200.81	3100.000
201.18	1500.000
201.56	-1300.000
201.94	388.889
202.31	400.000
202.69	316.667
203.07	440.000
203.44	0.000
203.82	875.000
204.19	542.857
204.57	328.571
204.95	475.000
205.32	1133.333
205.70	400.000
206.08	335.714
206.45	2400.000
206.83	231.250
207.20	600.000
207.58	380.000
207.96	244.444
208.33	500.000
208.71	-666.667
209.08	614.286
209.46	344.444
209.84	281.818
210.21	-1000.000
210.59	1175.000
210.96	-400.000
211.34	1900.000
211.71	410.000
212.09	516.667
212.46	0.000
212.84	1166.667
213.22	1150.000
213.59	-3300.000
213.97	733.333
214.34	471.429
214.72	436.364
215.09	820.000
215.47	-1500.000
215.84	-1800.000
216.22	1066.667
216.59	350.000
216.97	950.000
217.34	363.636
217.72	-566.667
218.09	0.000
218.47	-3100.000
218.84	411.111
219.22	528.571
219.59	866.667
219.97	-514.286
220.34	660.000
220.72	-966.667
221.09	335.714
221.47	1100.000
221.84	-550.000
222.22	0.000
222.59	1050.000
222.97	-2000.000
223.34	740.000
223.72	315.385
224.09	740.000
224.46	1400.000
224.84	-3300.000
225.21	-840.000
225.59	-2800.000
225.96	480.000
226.34	190.000
226.71	2100.000
227.08	475.000
227.46	360.000
227.83	-825.000
228.21	-1750.000
228.58	377.778
228.95	-1650.000
229.33	-1700.000
229.70	1166.667
230.08	542.857
230.45	-580.000
230.82	366.667
231.20	516.667
231.57	585.714
231.95	391.667
232.32	181.818
232.69	281.818
233.07	600.000
233.44	215.385
233.81	-1533.333
234.19	236.842
234.56	350.000
234.93	275.000
235.31	400.000
235.68	215.385
236.05	350.000
236.43	151.515
236.80	194.737
237.17	3800.000
237.55	214.286
237.92	182.143
238.29	242.857
238.67	154.839
239.04	189.655
239.41	136.111
239.79	104.348
240.16	147.619
240.53	129.545
240.91	109.804
241.28	116.000
241.65	120.000
242.02	101.449
242.40	80.645
242.77	113.333
243.14	83.871
243.51	86.517
243.89	76.471
244.26	75.556
244.63	82.796
245.00	64.894
245.38	84.158
245.75	68.224
246.12	69.725
246.49	76.642
246.87	76.000
247.24	74.615
247.61	66.429
247.98	67.320
248.36	62.162
248.73	63.057
249.10	65.605
249.47	63.277
249.84	68.449
250.22	63.636
250.59	64.497
250.96	60.606
251.33	58.294
251.70	64.851
252.08	60.952
252.45	56.502
252.82	60.870
253.19	54.894
253.56	54.902
253.94	58.091
254.31	62.891
254.68	56.923
255.05	56.458
255.42	60.569
255.79	56.250
256.16	60.289
256.54	56.890
256.91	58.363
257.28	51.079
257.65	52.475
258.02	54.348
258.39	54.574
258.76	50.502
259.14	51.488
259.51	52.888
259.88	55.280
260.25	51.964
260.62	50.867
260.99	51.553
261.36	52.252
261.73	55.587
262.10	51.744
262.47	54.648
262.85	53.482
263.22	50.997
263.59	54.131
263.96	53.846
264.33	49.347
264.70	53.158
265.07	50.895
265.44	52.020
265.81	49.878
266.18	50.251
266.55	50.244
266.92	51.351
267.29	50.000
267.66	48.853
268.03	50.455
268.40	47.664
268.77	49.165
269.14	47.297
269.51	49.661
269.88	46.620
270.25	47.404
270.62	50.562
270.99	50.323
271.36	46.781
271.73	50.701
272.10	50.870
272.47	48.817
272.84	48.052
273.21	46.960
273.58	47.380
273.95	46.751
274.32	49.587
274.69	49.893
275.06	43.898
275.43	52.128
275.80	46.493
276.17	49.695
276.54	48.233
276.91	48.221
277.28	45.313
277.65	46.035
278.02	46.791
278.39	49.414
278.76	44.727
279.13	47.925
279.50	46.555
279.87	46.813
280.23	49.900
280.60	48.936
280.97	45.471
281.34	44.956
281.71	46.364
282.08	45.681
282.45	43.455
282.82	46.536
283.19	44.207
283.56	44.561
283.92	45.685
284.29	43.739
284.66	44.283
285.03	46.835
285.40	43.662
285.77	44.613
286.14	44.560
286.51	44.667
286.87	43.590
287.24	44.137
287.61	42.857
287.98	44.156
288.35	42.472
288.72	40.498
289.08	41.315
289.45	42.339
289.82	42.764
290.19	39.089
290.56	41.194
290.93	38.671
291.29	41.411
291.66	40.855
292.03	41.715
292.40	39.354
292.77	38.314
293.13	40.299
293.50	39.650
293.87	37.926
294.24	37.481
294.60	36.681
294.97	39.099
295.34	39.633
295.71	37.784
296.08	37.464
296.44	35.351
296.81	35.799
297.18	38.211
297.55	34.301
297.91	35.620
298.28	35.341
298.65	35.901
299.02	35.705
299.38	35.591
299.75	33.693
300.12	33.589
300.48	33.750
300.85	34.895
301.22	34.395
301.59	33.712
301.95	34.131
302.32	32.478
302.69	32.616
303.05	33.455
303.42	32.840
303.79	32.276
304.15	31.935
304.52	32.793
304.89	31.940
305.25	31.671
305.62	34.881
305.99	33.294
306.35	31.544
306.72	32.511
307.09	32.852
307.45	33.671
307.82	30.915
308.19	31.898
308.55	32.039
308.92	32.438
309.29	31.573
309.65	32.025
310.02	31.078
310.38	32.151
310.75	33.580
311.12	31.627
311.48	31.870
311.85	32.285
312.22	34.131
312.58	34.304
312.95	33.474
313.31	30.874
313.68	33.368
314.05	34.418
314.41	32.663
314.78	32.024
315.14	34.955
315.51	32.750
315.87	33.663
316.24	32.075
316.61	34.795
316.97	32.779
317.34	34.149
317.70	35.851
318.07	36.092
318.43	35.910
318.80	35.801
319.16	36.911
319.53	35.929
319.89	38.857
320.26	41.200
320.62	40.774
320.99	38.687
321.35	40.404
321.72	42.197
322.08	40.178
322.45	42.289
322.81	42.151
323.18	42.389
323.54	41.929
323.91	43.302
324.27	46.367
324.64	47.810
325.00	45.446
325.37	47.862
325.73	49.102
326.10	50.221
326.46	50.627
326.83	52.114
327.19	52.092
327.56	53.049
327.92	53.193
328.29	55.546
328.65	56.446
329.01	53.520
329.38	55.597
329.74	56.971
330.11	57.776
330.47	57.208
330.84	56.434
331.20	58.015
331.56	59.266
331.93	61.574
332.29	58.917
332.66	60.973
333.02	60.238
333.38	59.621
333.75	61.765
334.11	61.922
334.48	62.023
334.84	62.684
335.20	64.455
335.57	60.834
335.93	62.946
336.29	63.095
336.66	64.563
337.02	63.439
337.38	64.352
337.75	62.210
338.11	63.026
338.47	64.733
338.84	64.161
339.20	64.404
339.56	65.328
339.93	65.455
340.29	63.315
340.65	64.082
341.02	65.620
341.38	64.769
341.74	65.614
342.11	64.803
342.47	66.079
342.83	65.668
343.20	63.810
343.56	63.606
343.92	65.789
344.28	65.646
344.65	66.208
345.01	64.394
345.37	64.837
345.73	64.382
346.10	65.132
346.46	65.169
346.82	63.509
347.19	64.411
347.55	63.875
347.91	65.858
348.27	66.146
348.63	65.468
349.00	65.129
349.36	66.420
349.72	66.399
350.08	63.857
350.45	65.175
350.81	64.338
351.17	65.721
351.53	65.684
351.89	64.934
352.26	65.904
352.62	64.876
352.98	66.126
353.34	65.571
353.70	65.712
354.07	64.274
354.43	63.968
354.79	64.843
355.15	65.044
355.51	66.267
355.87	65.878
356.24	66.694
356.60	65.357
356.96	66.533
357.32	68.438
357.68	66.063
358.04	64.371
358.40	64.925
358.77	63.224
359.13	65.509
359.49	64.471
359.85	65.000
360.21	65.470
360.57	64.747
360.93	65.154
361.29	65.231
361.66	64.241
362.02	65.522
362.38	65.779
362.74	65.104
363.10	64.101
363.46	64.784
363.82	65.760
364.18	63.803
364.54	66.048
364.90	64.660
365.26	64.926
365.62	65.595
365.98	64.427
366.35	64.112
366.71	66.233
367.07	64.312
367.43	64.586
367.79	64.954
368.15	65.302
368.51	64.608
368.87	63.883
369.23	65.399
369.59	64.301
369.95	63.971
370.31	64.886
370.67	63.261
371.03	65.318
371.39	65.889
371.75	65.147
372.11	63.869
372.47	65.982
372.83	64.553
373.19	62.066
373.55	64.154
373.91	67.084
374.27	63.436
374.63	65.091
374.99	65.254
375.35	63.364
375.71	63.468
376.07	63.923
376.42	65.062
376.78	65.010
377.14	64.247
377.50	65.629
377.86	63.298
378.22	64.033
378.58	62.469
378.94	63.985
379.30	65.267
379.66	64.086
380.02	63.206
380.38	63.267
380.74	63.866
381.09	63.081
381.45	64.536
381.81	63.145
382.17	64.331
382.53	63.396
382.89	64.198
383.25	62.914
383.61	64.870
383.97	63.102
384.32	61.510
384.68	62.454
385.04	62.999
385.40	62.910
385.76	62.101
386.12	62.565
386.48	62.366
386.83	65.234
387.19	63.822
387.55	63.389
387.91	61.125
388.27	61.864
388.62	62.569
388.98	61.978
389.34	62.641
389.70	62.293
390.06	62.674
390.42	62.322
390.77	61.387
391.13	62.987
391.49	62.056
391.85	61.744
392.20	61.451
392.56	61.553
392.92	63.037
393.28	61.598
393.64	61.031
393.99	61.026
394.35	62.221
394.71	62.359
395.07	60.000
395.42	62.237
395.78	61.705
396.14	60.273
396.50	61.341
396.85	62.556
397.21	60.358
397.57	61.066
397.92	61.298
398.28	59.641
398.64	58.662
399.00	61.108
399.35	60.575
399.71	60.995
400.07	59.905
400.42	60.613
400.78	60.133
401.14	59.573
401.49	60.597
401.85	60.073
402.21	58.503
402.57	59.963
402.92	60.908
403.28	60.150
403.63	59.406
403.99	59.936
404.35	59.576
404.70	59.712
405.06	58.183
405.42	59.701
405.77	58.229
406.13	58.014
406.49	58.900
406.84	58.712
407.20	57.506
407.55	58.009
407.91	59.133
408.27	59.477
408.62	58.399
408.98	58.456
409.34	57.319
409.69	59.032
410.05	57.931
410.40	57.859
410.76	59.080
411.11	57.539
411.47	58.403
411.83	56.323
412.18	56.153
412.54	57.534
412.89	56.747
413.25	57.084
413.60	57.011
413.96	56.102
414.31	56.561
414.67	56.844
415.03	56.954
415.38	55.155
415.74	57.685
416.09	57.152
416.45	55.823
416.80	55.585
417.16	56.300
417.51	58.261
417.87	55.748
418.22	56.719
418.58	56.553
418.93	56.020
419.29	56.206
419.64	56.297
420.00	56.585
420.35	54.087
420.71	55.828
421.06	54.057
421.42	54.444
421.77	55.774
422.12	55.081
422.48	53.751
422.83	55.387
423.19	53.646
423.54	54.730
423.90	54.899
424.25	54.606
424.61	54.524
424.96	54.927
425.31	53.378
425.67	53.764
426.02	53.829
426.38	54.090
426.73	53.072
427.09	53.313
427.44	53.191
427.79	52.904
428.15	52.262
428.50	53.189
428.85	53.754
429.21	52.015
429.56	53.758
429.92	53.196
430.27	51.787
430.62	52.227
430.98	52.621
431.33	50.928
431.68	52.513
432.04	51.757
432.39	51.399
432.74	52.184
433.10	52.292
433.45	51.603
433.80	51.552
434.16	52.137
434.51	51.895
434.86	52.223
435.22	52.362
435.57	52.766
435.92	51.258
436.28	52.847
436.63	52.539
436.98	51.631
437.34	53.250
437.69	53.151
438.04	51.883
438.39	51.045
438.75	52.876
439.10	50.335
439.45	51.122
439.81	51.480
440.16	50.311
440.51	50.498
440.86	50.955
441.22	50.779
441.57	50.955
441.92	50.256
442.27	50.807
442.63	51.132
442.98	51.155
443.33	50.543
443.68	49.974
444.03	50.366
444.39	48.978
444.74	50.433
445.09	50.458
445.44	49.481
445.79	50.322
446.15	49.603
446.50	49.973
446.85	49.126
447.20	49.108
447.55	50.140
447.91	49.035
448.26	49.861
448.61	48.954
448.96	49.834
449.31	51.462
449.66	49.578
450.02	49.192
450.37	49.150
450.72	48.618
451.07	48.751
451.42	47.903
451.77	49.031
452.12	47.171
452.47	48.694
452.83	49.709
453.18	48.839
453.53	49.474
453.88	48.317
454.23	49.851
454.58	49.122
454.93	49.460
455.28	48.878
455.63	47.755
455.98	49.762
456.34	49.937
456.69	49.468
457.04	49.598
457.39	47.691
457.74	47.649
458.09	47.269
458.44	48.518
458.79	46.800
459.14	48.363
459.49	47.636
459.84	48.033
460.19	46.671
460.54	45.197
460.89	46.626
461.24	48.087
461.59	48.576
461.94	47.411
462.29	47.418
462.64	46.394
462.99	46.584
463.34	47.533
463.69	47.092
464.04	46.841
464.39	46.377
464.74	46.524
465.09	46.321
465.44	45.651
465.79	45.805
466.14	46.032
466.49	45.717
466.84	46.293
467.19	46.047
467.54	46.437
467.89	45.018
468.24	45.433
468.59	46.337
468.94	44.594
469.29	45.501
469.64	45.716
469.99	45.670
470.34	46.103
470.68	45.905
471.03	45.578
471.38	46.352
471.73	45.503
472.08	46.316
472.43	46.043
472.78	46.478
473.13	44.480
473.48	44.819
473.83	45.427
474.17	45.364
474.52	44.293
474.87	44.950
475.22	44.864
475.57	44.116
475.92	44.928
476.27	44.419
476.61	43.905
476.96	44.420
477.31	44.375
477.66	44.475
478.01	44.067
478.36	44.315
478.70	44.081
479.05	44.089
479.40	43.654
479.75	44.230
480.10	43.390
480.45	43.551
480.79	42.236
481.14	43.053
481.49	43.806
481.84	42.890
482.19	43.162
482.53	43.211
482.88	42.997
483.23	42.991
483.58	43.039
483.92	42.924
484.27	42.048
484.62	42.500
484.97	40.678
485.31	41.541
485.66	40.511
486.01	40.070
486.36	39.430
486.70	38.928
487.05	39.400
487.40	39.581
487.75	39.157
488.09	39.430
488.44	39.326
488.79	40.072
489.13	40.642
489.48	40.742
489.83	41.260
490.17	41.561
490.52	40.788
490.87	40.932
491.22	41.246
491.56	40.547
491.91	41.740
492.26	40.928
492.60	41.060
492.95	41.254
493.30	41.729
493.64	41.017
493.99	40.761
494.34	40.749
494.68	42.216
495.03	41.306
495.37	40.577
495.72	41.520
496.07	41.995
496.41	39.690
496.76	40.721
497.11	40.837
497.45	40.615
497.80	40.595
498.14	40.193
498.49	41.024
498.84	41.467
499.18	40.190
499.53	40.788
499.87	40.168
500.22	40.132
500.56	41.214
500.91	39.663
501.26	40.019
501.60	40.626
501.95	39.001
502.29	39.456
502.64	40.922
502.98	39.691
503.33	40.082
503.67	39.304
504.02	39.663
504.36	40.150
504.71	40.010
505.06	39.084
505.40	38.746
505.75	39.585
506.09	40.039
506.44	40.602
506.78	39.065
507.13	40.888
507.47	39.293
507.82	40.628
508.16	40.020
508.51	40.639
508.85	40.119
509.19	40.663
509.54	39.847
509.88	39.516
510.23	38.869
510.57	39.990
510.92	39.617
511.26	39.671
511.61	40.249
511.95	39.614
512.30	39.236
512.64	39.764
512.98	41.050
513.33	39.347
513.67	39.488
514.02	39.773
514.36	39.978
514.70	39.181
515.05	38.762
515.39	38.923
515.74	39.471
516.08	39.631
516.42	40.622
516.77	41.137
517.11	39.179
517.46	40.011
517.80	40.534
518.14	39.896
518.49	39.090
518.83	39.602
519.17	39.550
519.52	39.049
519.86	40.046
520.20	40.058
520.55	40.395
520.89	39.720
521.23	40.712
521.58	39.496
521.92	39.069
522.26	38.316
522.61	39.439
522.95	40.147
523.29	40.170
523.64	39.634
523.98	39.926
524.32	38.540
524.66	38.425
525.01	40.196
525.35	39.281
525.69	39.286
526.04	38.131
526.38	39.109
526.72	38.712
527.06	39.736
527.41	38.181
527.75	40.450
528.09	39.242
528.43	39.707
528.78	38.660
529.12	38.364
529.46	39.559
529.80	38.676
530.15	39.439
530.49	37.785
530.83	39.241
531.17	40.209
531.51	40.208
531.86	38.323
532.20	40.352
532.54	39.206
532.88	38.703
533.22	37.414
533.57	37.037
533.91	38.049
534.25	37.971
534.59	38.255
534.93	37.954
535.27	38.141
535.62	38.034
535.96	37.539
536.30	37.508
536.64	38.184
536.98	37.890
537.32	37.393
537.66	38.067
538.01	38.315
538.35	38.397
538.69	39.056
539.03	37.687
539.37	37.764
539.71	36.617
540.05	38.301
540.39	37.608
540.73	36.999
541.07	37.703
541.42	38.226
541.76	37.613
542.10	38.422
542.44	38.411
542.78	38.142
543.12	36.852
543.46	37.902
543.80	37.541
544.14	36.970
544.48	38.603
544.82	37.524
545.16	38.126
545.50	36.761
545.84	37.231
546.18	37.912
546.52	38.266
546.86	36.495
547.20	36.750
547.54	37.275
547.88	36.926
548.22	36.862
548.56	36.792
548.90	36.236
549.24	36.431
549.58	37.790
549.92	37.500
550.26	37.571
550.60	37.275
550.94	37.254
551.28	36.576
551.62	37.958
551.96	37.474
552.30	36.928
552.64	37.863
552.98	37.288
553.32	37.222
553.66	37.287
554.00	37.337
554.34	36.922
554.68	37.768
555.02	37.518
555.36	36.465
555.69	35.589
556.03	36.608
556.37	36.494
556.71	36.562
557.05	36.064
557.39	37.299
557.73	37.121
558.07	37.781
558.41	36.035
558.75	36.150
559.08	37.584
559.42	36.508
559.76	37.059
560.10	35.617
560.44	36.478
560.78	36.327
561.12	36.346
561.45	35.789
561.79	35.531
562.13	34.876
562.47	36.407
562.81	36.262
563.15	35.719
563.48	36.207
563.82	35.421
564.16	36.298
564.50	36.133
564.84	35.209
565.17	34.878
565.51	35.208
565.85	36.104
566.19	34.126
566.52	35.339
566.86	33.996
567.20	35.142
567.54	35.103
567.88	34.166
568.21	33.862
568.55	34.125
568.89	34.484
569.23	34.002
569.56	33.279
569.90	33.509
570.24	33.118
570.57	32.030
570.91	31.545
571.25	31.624
571.59	31.311
571.92	31.221
572.26	31.167
572.60	31.231
572.93	30.915
573.27	31.352
573.61	31.156
573.95	31.240
574.28	30.854
574.62	30.709
574.96	30.203
575.29	30.044
575.63	30.742
575.97	30.253
576.30	30.722
576.64	30.478
576.98	30.360
577.31	30.453
577.65	30.228
577.98	30.499
578.32	30.004
578.66	29.937
578.99	30.062
579.33	29.872
579.67	29.774
580.00	30.089
580.34	30.185
580.67	30.395
581.01	29.638
581.35	30.333
581.68	30.035
582.02	29.718
582.35	29.476
582.69	29.714
583.02	29.211
583.36	29.929
583.70	29.645
584.03	29.127
584.37	29.671
584.70	29.363
585.04	29.574
585.37	29.613
585.71	30.005
586.04	29.766
586.38	29.728
586.72	30.075
587.05	29.992
587.39	28.918
587.72	29.915
588.06	29.989
588.39	29.547
588.73	29.774
589.06	30.227
589.40	30.539
589.73	30.975
590.07	30.036
590.40	30.106
590.73	30.835
591.07	30.281
591.40	30.915
591.74	30.952
592.07	30.628
592.41	31.087
592.74	29.775
593.08	30.879
593.41	30.307
593.75	29.981
594.08	30.339
594.41	30.470
594.75	30.758
595.08	30.422
595.42	30.508
595.75	30.021
596.09	30.680
596.42	31.002
596.75	30.350
597.09	30.823
597.42	29.216
597.75	30.574
598.09	30.435
598.42	30.498
598.76	29.996
599.09	29.723
599.42	30.240
599.76	30.051
600.09	29.727
600.42	29.949
600.76	29.750
601.09	29.290
601.42	29.642
601.76	29.715
602.09	29.407
602.42	29.896
602.76	30.109
603.09	29.504
603.42	30.457
603.76	30.107
604.09	29.624
604.42	29.678
604.76	30.114
605.09	31.105
605.42	30.312
605.75	30.050
606.09	30.094
606.42	30.364
606.75	30.112
607.09	30.264
607.42	29.568
607.75	30.084
608.08	30.525
608.42	30.480
608.75	29.531
609.08	29.510
609.41	29.795
609.75	29.967
610.08	30.631
610.41	29.888
610.74	31.126
611.07	31.522
611.41	31.452
611.74	31.171
612.07	31.936
612.40	30.955
612.73	30.421
613.07	31.573
613.40	29.542
613.73	29.733
614.06	30.699
614.39	30.624
614.72	30.632
615.06	30.672
615.39	30.361
615.72	30.726
616.05	30.675
616.38	30.517
616.71	31.116
617.05	31.272
617.38	30.788
617.71	31.652
618.04	31.851
618.37	31.993
618.70	30.927
619.03	31.842
619.36	31.704
619.69	32.042
620.03	31.799
620.36	32.019
620.69	32.603
621.02	32.522
621.35	31.950
621.68	31.075
622.01	31.889
622.34	32.451
622.67	31.787
623.00	31.695
623.33	32.023
623.66	32.023
623.99	31.885
624.32	31.241
624.65	31.285
624.99	30.524
625.32	31.571
625.65	30.729
625.98	32.975
626.31	32.970
626.64	31.673
626.97	32.918
627.30	32.585
627.63	32.814
627.96	33.389
628.29	32.633
628.62	34.126
628.95	32.358
629.28	32.208
629.61	34.097
629.94	34.190
630.26	33.842
630.59	31.459
630.92	33.429
631.25	32.774
631.58	32.132
631.91	33.469
632.24	34.810
632.57	34.208
632.90	34.430
633.23	35.011
633.56	34.576
633.89	33.522
634.22	34.733
634.55	35.621
634.88	35.210
635.20	35.962
635.53	35.783
635.86	35.396
636.19	33.647
636.52	32.641
636.85	34.364
637.18	33.871
637.51	35.225
637.83	34.155
638.16	36.189
638.49	36.272
638.82	35.525
639.15	35.750
639.48	34.165
639.81	35.523
640.13	34.896
640.46	35.034
640.79	34.082
641.12	34.801
641.45	34.916
641.77	36.819
642.10	36.988
642.43	35.285
642.76	36.378
643.09	36.963
643.41	33.384
643.74	36.728
644.07	36.128
644.40	36.656
644.73	36.378
645.05	37.084
645.38	35.071
645.71	38.486
646.04	36.047
646.36	39.399
646.69	37.625
647.02	36.224
647.35	35.739
647.67	38.584
648.00	35.122
648.33	35.809
648.66	34.545
648.98	35.832
649.31	35.277
649.64	35.426
649.96	35.022
650.29	34.913
650.62	36.731
650.94	35.170
651.27	38.007
651.60	36.439
651.92	37.061
652.25	35.993
652.58	35.981
652.90	35.545
653.23	33.744
653.56	35.906
653.88	35.024
654.21	35.387
654.54	37.459
654.86	35.047
655.19	33.784
655.52	27.017
655.84	26.202
656.17	33.175
656.49	43.572
656.82	42.259
657.15	30.377
657.47	22.098
657.80	16.151
658.13	16.016
658.45	24.050
658.78	23.677
659.10	23.203
659.43	23.860
659.75	24.699
660.08	26.646
660.41	30.261
660.73	31.893
661.06	32.803
661.38	37.636
661.71	37.500
662.03	38.067
662.36	35.984
662.68	35.743
663.01	38.990
663.33	37.155
663.66	39.286
663.98	36.501
664.31	37.185
664.63	37.045
664.96	34.205
665.28	40.164
665.61	35.478
665.93	37.425
666.26	36.917
666.58	39.121
666.91	38.478
667.23	39.551
667.56	37.365
667.88	38.248
668.21	35.394
668.53	38.178
668.86	36.364
669.18	40.299
669.50	36.739
669.83	41.612
670.15	37.778
670.48	38.998
670.80	38.578
671.13	36.943
671.45	35.745
671.77	36.864
672.10	36.044
672.42	36.219
672.75	33.831
673.07	35.739
673.39	34.539
673.72	34.570
674.04	35.686
674.37	36.117
674.69	36.605
675.01	34.310
675.34	36.756
675.66	39.368
675.98	38.697
676.31	38.025
676.63	35.669
676.95	38.155
677.28	39.953
677.60	35.165
677.92	37.342
678.25	39.425
678.57	35.657
678.89	36.874
679.22	35.363
679.54	38.550
679.86	36.330
680.18	34.526
680.51	34.574
680.83	35.765
681.15	37.925
681.48	35.350
681.80	33.656
682.12	33.333
682.44	32.302
682.77	37.271
683.09	37.124
683.41	35.477
683.73	37.748
684.06	36.157
684.38	34.834
684.70	33.915
685.02	35.835
685.34	34.066
685.67	33.042
685.99	30.756
686.31	31.911
686.63	33.569
686.96	34.643
687.28	33.935
687.60	35.326
687.92	34.918
688.24	33.270
688.56	34.940
688.89	36.722
689.21	38.210
689.53	37.161
689.85	39.690
690.17	32.712
690.49	35.244
690.82	37.850
691.14	35.491
691.46	34.599
691.78	34.137
692.10	37.397
692.42	34.331
692.74	33.610
693.06	35.106
693.39	34.497
693.71	37.118
694.03	35.579
694.35	35.281
694.67	35.011
694.99	36.585
695.31	37.255
695.63	37.560
695.95	34.719
696.27	34.010
696.59	36.788
696.91	37.565
697.23	35.915
697.56	36.247
697.88	33.947
698.20	34.167
698.52	36.344
698.84	35.189
699.16	34.562
699.48	35.629
699.80	37.198
700.12	38.182
700.44	37.666
700.76	38.398
701.08	37.644
701.40	38.547
701.72	43.732
702.04	39.489
702.36	36.544
702.68	39.377
703.00	39.335
703.32	34.309
703.64	38.070
703.96	38.719
704.28	42.151
704.60	39.003
704.91	37.982
705.23	38.710
705.55	40.532
705.87	43.189
706.19	40.989
706.51	41.433
706.83	39.394
707.15	40.336
707.47	35.101
707.79	37.838
708.11	35.845
708.43	34.762
708.74	32.908
709.06	37.922
709.38	38.845
709.70	36.919
710.02	40.059
710.34	40.000
710.66	36.418
710.98	41.193
711.29	34.884
711.61	37.758
711.93	40.705
712.25	41.158
712.57	42.279
712.89	41.522
713.20	39.210
713.52	40.789
713.84	37.342
714.16	40.854
714.48	39.943
714.80	44.073
715.11	36.888
715.43	36.202
715.75	37.391
716.07	36.422
716.39	39.812
716.70	39.203
717.02	39.928
717.34	36.749
717.66	42.910
717.97	47.410
718.29	41.111
718.61	40.511
718.93	38.971
719.24	38.062
719.56	37.966
719.88	40.000
720.20	40.541
720.51	37.631
720.83	42.751
721.15	38.433
721.46	37.234
721.78	41.935
722.10	40.377
722.42	42.857
722.73	34.831
723.05	41.393
723.37	42.105
723.68	39.768
724.00	42.683
724.32	42.339
724.63	40.650
724.95	38.075
725.27	41.296
725.58	45.312
725.90	43.066
726.22	40.377
726.53	40.278
726.85	35.154
727.16	38.078
727.48	37.234
727.80	41.288
728.11	37.681
728.43	40.000
728.74	41.219
729.06	44.526
729.38	48.162
729.69	37.367
730.01	36.177
730.32	36.806
730.64	41.137
730.96	36.304
731.27	40.066
731.59	38.838
731.90	34.694
732.22	36.335
732.53	36.223
732.85	36.859
733.16	35.370
733.48	41.196
733.80	36.039
734.11	41.083
734.43	37.278
734.74	33.714
735.06	36.390
735.37	41.040
735.69	32.803
736.00	42.157
736.32	39.252
736.63	35.144
736.95	40.895
737.26	34.014
737.58	36.129
737.89	37.793
738.21	39.249
738.52	40.000
738.83	36.604
739.15	36.154
739.46	40.146
739.78	39.931
740.09	38.769
740.41	38.387
740.72	34.146
741.04	41.481
741.35	35.000
741.66	46.222
741.98	40.566
742.29	46.411
742.61	49.569
742.92	42.534
743.23	39.316
743.55	40.400
743.86	40.789
744.18	43.363
744.49	44.976
744.80	48.826
745.12	43.182
745.43	42.291
745.74	48.198
746.06	48.165
746.37	44.395
746.68	40.271
747.00	43.056
747.31	44.286
747.62	37.168
747.94	43.172
748.25	34.894
748.56	39.648
748.88	43.069
749.19	46.500
749.50	43.721
749.82	40.244
750.13	40.816
750.44	39.416
750.75	40.351
751.07	39.871
751.38	41.115
751.69	39.350
752.01	38.722
752.32	36.462
752.63	37.234
752.94	39.754
753.26	42.800
753.57	37.398
753.88	41.797
754.19	40.357
754.51	40.972
754.82	38.989
755.13	35.849
755.44	42.857
755.75	37.956
756.07	41.489
756.38	37.956
756.69	40.940
757.00	34.132
757.31	36.499
757.63	35.965
757.94	36.729
758.25	35.539
758.56	32.593
758.87	36.559
759.18	35.455
759.50	36.050
759.81	40.187
760.12	35.938
760.43	37.536
760.74	36.957
761.05	37.288
761.36	36.631
761.67	37.784
761.99	34.472
762.30	37.500
762.61	39.313
762.92	41.406
763.23	39.496
763.54	45.600
763.85	42.578
764.16	36.154
764.47	43.726
764.78	33.922
765.10	37.658
765.41	39.233
765.72	38.922
766.03	35.423
766.34	35.333
766.65	37.447
766.96	35.897
767.27	44.670
767.58	43.750
767.89	45.789
768.20	50.575
768.51	48.223
768.82	44.037
769.13	37.398
769.44	38.866
769.75	36.052
770.06	34.862
770.37	42.081
770.68	44.907
770.99	40.889
771.30	36.066
771.61	44.843
771.92	42.623
772.23	46.639
772.54	45.641
772.85	43.455
773.16	49.468
773.47	46.196
773.78	48.223
774.09	45.833
774.39	50.292
774.70	41.358
775.01	47.101
775.32	54.248
775.63	51.974
775.94	46.763
776.25	51.181
776.56	51.493
776.87	56.557
777.18	53.906
777.48	58.779
777.79	49.242
778.10	53.333
778.41	59.821
778.72	47.445
779.03	49.664
779.34	44.295
779.65	45.946
779.95	47.853
780.26	50.980
780.57	50.345
780.88	60.156
781.19	46.617
781.50	52.027
781.80	49.057
782.11	44.633
782.42	45.570
782.73	44.785
783.04	48.649
783.34	51.408
783.65	54.110
783.96	59.701
784.27	44.755
784.57	48.201
784.88	50.926
785.19	59.524
785.50	58.491
785.81	53.731
786.11	71.311
786.42	61.240
786.73	58.407
787.04	59.434
787.34	59.821
787.65	61.000
787.96	58.559
788.26	54.545
788.57	66.102
788.88	57.025
789.19	51.389
789.49	65.152
789.80	54.962
790.11	76.190
790.41	61.386
790.72	61.446
791.03	58.696
791.33	65.116
791.64	64.948
791.95	65.347
792.25	64.444
792.56	71.429
792.87	80.769
793.17	81.013
793.48	66.667
793.79	60.920
794.09	67.045
794.40	56.303
794.70	54.412
795.01	48.148
795.32	53.957
795.62	44.882
795.93	52.586
796.23	51.327
796.54	67.059
796.85	62.162
797.15	78.873
797.46	71.212
797.76	75.904
798.07	72.152
798.37	76.923
798.68	72.727
798.99	52.113
799.29	57.143
799.60	48.864
799.90	90.411
800.21	79.104
800.51	79.310
800.82	105.263
801.12	67.213
801.43	89.394
801.73	68.919
802.04	93.651
802.34	76.543
802.65	90.625
802.95	94.915
803.26	82.813
803.56	72.857
803.87	80.000
804.17	77.941
804.48	98.148
804.78	72.414
805.09	82.353
805.39	71.154
805.70	73.214
806.00	77.049
806.30	77.273
806.61	71.951
806.91	79.747
807.22	72.368
807.52	64.179
807.83	84.507
808.13	79.687
808.43	88.333
808.74	69.737
809.04	85.507
809.35	83.582
809.65	75.000
809.95	104.839
810.26	64.407
810.56	80.952
810.86	113.636
811.17	133.333
811.47	110.000
811.77	75.926
812.08	98.182
812.38	100.000
812.69	138.889
812.99	118.182
813.29	102.041
813.59	88.095
813.90	104.082
814.20	94.545
814.50	81.538
814.81	79.412
815.11	83.673
815.41	86.885
815.72	121.429
816.02	101.818
816.32	140.476
816.62	87.500
816.93	78.049
817.23	111.905
817.53	100.000
817.84	127.273
818.14	104.348
818.44	115.556
818.74	141.176
819.04	122.500
819.35	85.714
819.65	111.765
819.95	182.143
820.25	185.000
820.56	107.692
820.86	100.000
821.16	104.651
821.46	105.128
821.76	116.000
822.07	145.714
822.37	122.500
822.67	154.545
822.97	92.157
823.27	139.286
823.57	132.432
823.88	130.000
824.18	153.333
824.48	116.667
824.78	176.000
825.08	154.167
825.38	124.324
825.69	126.829
825.99	179.167
826.29	134.483
826.59	126.316
826.89	113.158
827.19	150.000
827.49	164.516
827.79	109.091
828.09	113.636
828.39	97.872
828.70	100.000
829.00	103.704
829.30	151.613
829.60	110.000
829.90	200.000
830.20	160.714
830.50	147.826
830.80	178.261
831.10	180.000
831.40	123.333
831.70	143.478
832.00	173.077
832.30	159.259
832.60	200.000
832.90	150.000
833.20	328.571
833.50	164.516
833.80	151.724
834.10	168.750
834.40	150.000
834.70	294.444
835.00	228.571
835.30	131.429
835.60	330.769
835.90	155.172
836.20	221.429
836.50	137.931
836.80	184.000
837.10	152.778
837.40	171.429
837.70	211.765
838.00	148.148
838.30	147.619
838.60	209.524
838.90	188.462
839.19	190.000
839.49	292.857
839.79	235.000
840.09	210.000
840.39	233.333
840.69	217.391
840.99	238.889
841.29	360.000
841.59	266.667
841.88	281.250
842.18	120.690
842.48	219.048
842.78	143.333
843.08	191.304
843.38	146.875
843.68	783.333
843.97	180.769
844.27	165.517
844.57	242.857
844.87	281.250
845.17	181.481
845.47	1166.667
845.76	388.889
846.06	252.941
846.36	337.500
846.66	285.714
846.96	250.000
847.25	300.000
847.55	309.091
847.85	160.870
848.15	400.000
848.44	271.429
848.74	161.111
849.04	164.706
849.34	350.000
849.63	152.632
849.93	418.182
850.23	600.000
850.53	242.857
850.82	1300.000
851.12	-4200.000
851.42	3500.000
851.71	195.000
852.01	-1033.333
852.31	179.167
852.61	1300.000
852.90	209.524
853.20	196.000
853.50	247.059
853.79	200.000
854.09	162.500
854.39	268.750
854.68	145.946
854.98	154.839
855.28	140.000
855.57	168.966
855.87	140.741
856.17	163.158
856.46	206.667
856.76	194.118
857.05	189.655
857.35	170.833
857.65	293.333
857.94	165.217
858.24	165.385
858.53	200.000
858.83	159.091
859.13	226.667
859.42	0.000
859.72	500.000
860.01	300.000
860.31	213.636
860.60	210.526
860.90	182.609
861.20	444.444
861.49	400.000
861.79	-2700.000
862.08	450.000
862.38	223.810
862.67	223.077
862.97	235.294
863.26	355.556
863.56	233.333
863.85	225.000
864.15	462.500
864.44	280.000
864.74	766.667
865.03	475.000
865.33	189.474
865.62	345.455
865.92	292.308
866.21	316.667
866.51	0.000
866.80	363.636
867.10	800.000
867.39	307.692
867.69	390.909
867.98	231.579
868.27	345.455
868.57	268.421
868.86	-3200.000
869.16	256.250
869.45	1600.000
869.75	-3100.000
870.04	291.667
870.33	457.143
870.63	800.000
870.92	1750.000
871.22	585.714
871.51	229.412
871.80	209.524
872.10	307.143
>>>>>End Processed Spectral Data<<<<<
