SpectraSuite Data File
++++++++++++++++++++++++++++++++++++
Date: Wed May 13 20:29:20 PDT 2015
User: schluterlab
Dark Spectrum Present: Yes
Reference Spectrum Present: Yes
Number of Sampled Component Spectra: 1
Spectrometers: USB2E3373
Integration Time (usec): 3000 (USB2E3373)
Spectra Averaged: 3 (USB2E3373)
Boxcar Smoothing: 0 (USB2E3373)
Correct for Electrical Dark: No (USB2E3373)
Strobe/Lamp Enabled: No (USB2E3373)
Correct for Detector Non-linearity: No (USB2E3373)
Correct for Stray Light: No (USB2E3373)
Number of Pixels in Processed Spectrum: 2048
>>>>>Begin Processed Spectral Data<<<<<
178.53	0.000
178.91	-975.000
179.29	-1200.000
179.67	-211.111
180.04	-825.000
180.42	2250.000
180.80	820.000
181.18	-800.000
181.56	642.857
181.94	0.000
182.31	-600.000
182.69	1466.667
183.07	-512.500
183.45	-433.333
183.83	536.364
184.20	-260.000
184.58	1750.000
184.96	5400.000
185.34	-700.000
185.72	-562.500
186.09	-1650.000
186.47	2700.000
186.85	2150.000
187.23	5000.000
187.61	-1400.000
187.98	1275.000
188.36	490.909
188.74	381.818
189.12	-520.000
189.49	430.000
189.87	-5100.000
190.25	-1050.000
190.63	364.286
191.00	369.231
191.38	550.000
191.76	-850.000
192.14	1225.000
192.51	537.500
192.89	783.333
193.27	525.000
193.65	-1000.000
194.02	490.000
194.40	800.000
194.78	480.000
195.15	433.333
195.53	550.000
195.91	-1900.000
196.29	275.000
196.66	294.737
197.04	-300.000
197.42	0.000
197.79	630.000
198.17	-4100.000
198.55	628.571
198.92	500.000
199.30	680.000
199.68	0.000
200.05	277.778
200.43	471.429
200.81	3700.000
201.18	1300.000
201.56	-1333.333
201.94	566.667
202.31	477.778
202.69	383.333
203.07	390.000
203.44	0.000
203.82	850.000
204.19	728.571
204.57	357.143
204.95	500.000
205.32	1366.667
205.70	445.455
206.08	335.714
206.45	2200.000
206.83	268.750
207.20	633.333
207.58	580.000
207.96	227.778
208.33	612.500
208.71	-733.333
209.08	614.286
209.46	433.333
209.84	390.909
210.21	-1066.667
210.59	1275.000
210.96	-450.000
211.34	1950.000
211.71	520.000
212.09	700.000
212.46	0.000
212.84	966.667
213.22	900.000
213.59	-3500.000
213.97	550.000
214.34	742.857
214.72	454.545
215.09	760.000
215.47	-1700.000
215.84	-2250.000
216.22	1366.667
216.59	307.143
216.97	1075.000
217.34	400.000
217.72	-633.333
218.09	0.000
218.47	-4300.000
218.84	588.889
219.22	542.857
219.59	1433.333
219.97	-371.429
220.34	780.000
220.72	-1366.667
221.09	385.714
221.47	1250.000
221.84	-850.000
222.22	0.000
222.59	900.000
222.97	-2300.000
223.34	1040.000
223.72	376.923
224.09	820.000
224.46	1950.000
224.84	-4800.000
225.21	-900.000
225.59	-2800.000
225.96	370.000
226.34	280.000
226.71	2450.000
227.08	450.000
227.46	560.000
227.83	-775.000
228.21	-1750.000
228.58	522.222
228.95	-1500.000
229.33	-1450.000
229.70	1233.333
230.08	628.571
230.45	-740.000
230.82	383.333
231.20	633.333
231.57	528.571
231.95	400.000
232.32	154.545
232.69	300.000
233.07	585.714
233.44	284.615
233.81	-1400.000
234.19	278.947
234.56	375.000
234.93	291.667
235.31	354.545
235.68	261.538
236.05	207.143
236.43	169.697
236.80	178.947
237.17	3300.000
237.55	171.429
237.92	175.000
238.29	180.952
238.67	112.903
239.04	127.586
239.41	102.778
239.79	97.826
240.16	116.667
240.53	120.455
240.91	66.667
241.28	58.000
241.65	52.000
242.02	66.667
242.40	61.290
242.77	78.333
243.14	58.065
243.51	69.663
243.89	65.882
244.26	51.111
244.63	40.860
245.00	43.617
245.38	42.574
245.75	42.991
246.12	46.789
246.49	42.336
246.87	51.200
247.24	39.231
247.61	34.286
247.98	32.680
248.36	22.973
248.73	32.484
249.10	30.573
249.47	32.203
249.84	28.342
250.22	23.529
250.59	24.852
250.96	28.788
251.33	29.384
251.70	27.228
252.08	26.667
252.45	21.076
252.82	21.739
253.19	23.404
253.56	23.529
253.94	21.577
254.31	24.219
254.68	25.000
255.05	20.295
255.42	20.732
255.79	20.221
256.16	23.827
256.54	16.254
256.91	20.641
257.28	17.266
257.65	17.162
258.02	19.255
258.39	17.666
258.76	19.398
259.14	16.667
259.51	18.845
259.88	16.149
260.25	19.033
260.62	15.607
260.99	18.944
261.36	18.919
261.73	15.759
262.10	15.116
262.47	19.155
262.85	15.877
263.22	14.245
263.59	17.949
263.96	15.659
264.33	14.621
264.70	14.211
265.07	18.159
265.44	16.919
265.81	14.599
266.18	15.829
266.55	15.366
266.92	14.988
267.29	15.741
267.66	15.596
268.03	14.545
268.40	14.486
268.77	11.217
269.14	15.991
269.51	15.576
269.88	14.685
270.25	12.641
270.62	13.258
270.99	14.839
271.36	15.665
271.73	12.617
272.10	13.696
272.47	15.484
272.84	14.286
273.21	16.981
273.58	12.882
273.95	10.482
274.32	9.504
274.69	12.634
275.06	12.008
275.43	13.404
275.80	13.026
276.17	12.424
276.54	11.227
276.91	13.241
277.28	11.719
277.65	13.733
278.02	12.008
278.39	12.500
278.76	12.545
279.13	12.264
279.50	13.408
279.87	11.355
280.23	11.577
280.60	12.379
280.97	11.460
281.34	11.858
281.71	14.909
282.08	13.436
282.45	13.091
282.82	12.966
283.19	9.269
283.56	12.281
283.92	12.183
284.29	11.464
284.66	11.978
285.03	10.307
285.40	11.972
285.77	10.438
286.14	10.535
286.51	12.167
286.87	12.308
287.24	12.704
287.61	10.754
287.98	11.201
288.35	8.241
288.72	9.969
289.08	11.268
289.45	9.555
289.82	9.106
290.19	9.419
290.56	9.954
290.93	9.517
291.29	8.129
291.66	11.357
292.03	12.791
292.40	12.041
292.77	10.207
293.13	8.955
293.50	9.038
293.87	10.074
294.24	8.000
294.60	9.753
294.97	10.174
295.34	10.860
295.71	9.517
296.08	7.977
296.44	9.904
296.81	10.040
297.18	11.518
297.55	8.575
297.91	7.124
298.28	10.174
298.65	8.616
299.02	7.642
299.38	8.234
299.75	5.795
300.12	7.791
300.48	8.750
300.85	7.398
301.22	7.771
301.59	8.081
301.95	8.942
302.32	7.831
302.69	7.646
303.05	8.970
303.42	7.037
303.79	9.513
304.15	7.692
304.52	7.648
304.89	7.433
305.25	9.165
305.62	8.494
305.99	8.383
306.35	8.501
306.72	8.632
307.09	7.769
307.45	8.671
307.82	7.813
308.19	8.389
308.55	9.493
308.92	7.948
309.29	8.131
309.65	7.953
310.02	7.400
310.38	9.355
310.75	8.870
311.12	8.905
311.48	9.195
311.85	9.539
312.22	9.157
312.58	8.316
312.95	9.820
313.31	8.252
313.68	8.420
314.05	10.750
314.41	10.854
314.78	9.265
315.14	10.228
315.51	10.917
315.87	10.396
316.24	10.626
316.61	10.916
316.97	10.568
317.34	10.176
317.70	12.620
318.07	10.972
318.43	11.742
318.80	12.840
319.16	13.371
319.53	11.820
319.89	13.048
320.26	14.100
320.62	13.988
320.99	13.939
321.35	15.354
321.72	14.682
322.08	14.808
322.45	15.721
322.81	15.698
323.18	16.763
323.54	17.347
323.91	15.943
324.27	16.635
324.64	15.750
325.00	16.411
325.37	19.017
325.73	18.941
326.10	18.976
326.46	18.100
326.83	18.119
327.19	18.958
327.56	19.686
327.92	20.122
328.29	20.852
328.65	20.902
329.01	19.404
329.38	20.259
329.74	21.053
330.11	20.547
330.47	21.120
330.84	21.324
331.20	19.854
331.56	21.101
331.93	21.296
332.29	21.029
332.66	22.124
333.02	22.029
333.38	20.867
333.75	22.193
334.11	22.242
334.48	22.005
334.84	23.529
335.20	22.273
335.57	21.215
335.93	22.232
336.29	23.077
336.66	22.904
337.02	20.724
337.38	22.870
337.75	22.995
338.11	23.008
338.47	23.573
338.84	24.015
339.20	21.468
339.56	22.993
339.93	22.364
340.29	22.917
340.65	23.619
341.02	22.251
341.38	23.843
341.74	23.158
342.11	23.057
342.47	24.317
342.83	23.031
343.20	23.723
343.56	22.578
343.92	23.596
344.28	23.639
344.65	23.646
345.01	23.822
345.37	22.813
345.73	24.027
346.10	24.211
346.46	23.644
346.82	23.394
347.19	23.308
347.55	23.645
347.91	24.757
348.27	24.733
348.63	23.746
349.00	23.867
349.36	23.727
349.72	23.817
350.08	22.690
350.45	24.736
350.81	24.208
351.17	23.744
351.53	24.816
351.89	23.267
352.26	24.388
352.62	24.138
352.98	24.392
353.34	23.254
353.70	23.650
354.07	25.242
354.43	23.968
354.79	25.020
355.15	24.342
355.51	25.420
355.87	24.980
356.24	24.919
356.60	24.699
356.96	23.652
357.32	24.857
357.68	24.646
358.04	24.070
358.40	24.703
358.77	24.648
359.13	23.599
359.49	25.490
359.85	22.857
360.21	25.279
360.57	25.837
360.93	25.692
361.29	24.943
361.66	23.916
362.02	25.448
362.38	24.563
362.74	24.479
363.10	23.834
363.46	24.358
363.82	24.490
364.18	24.743
364.54	26.003
364.90	25.637
365.26	25.147
365.62	24.690
365.98	24.470
366.35	25.143
366.71	24.801
367.07	25.273
367.43	25.762
367.79	27.480
368.15	26.724
368.51	25.363
368.87	25.553
369.23	26.408
369.59	26.285
369.95	24.926
370.31	25.427
370.67	25.725
371.03	26.292
371.39	25.364
371.75	26.029
372.11	24.964
372.47	25.587
372.83	27.089
373.19	24.711
373.55	27.125
373.91	26.730
374.27	25.498
374.63	26.036
374.99	25.494
375.35	25.890
375.71	25.223
376.07	26.337
376.42	26.547
376.78	26.044
377.14	25.848
377.50	27.020
377.86	24.468
378.22	25.980
378.58	25.815
378.94	25.770
379.30	25.700
379.66	25.825
380.02	26.781
380.38	25.926
380.74	26.291
381.09	26.528
381.45	26.490
381.81	26.843
382.17	26.178
382.53	25.849
382.89	26.728
383.25	25.391
383.61	26.952
383.97	26.579
384.32	26.076
384.68	25.960
385.04	25.507
385.40	26.254
385.76	26.106
386.12	26.490
386.48	25.991
386.83	27.133
387.19	27.025
387.55	26.531
387.91	26.179
388.27	25.996
388.62	27.351
388.98	25.921
389.34	26.658
389.70	26.180
390.06	26.933
390.42	27.108
390.77	26.145
391.13	26.292
391.49	26.777
391.85	26.798
392.20	25.615
392.56	26.326
392.92	25.721
393.28	25.503
393.64	26.499
393.99	26.390
394.35	26.489
394.71	27.164
395.07	25.794
395.42	26.020
395.78	26.272
396.14	25.202
396.50	27.694
396.85	25.938
397.21	26.757
397.57	25.852
397.92	26.562
398.28	25.785
398.64	25.687
399.00	25.518
399.35	25.155
399.71	26.042
400.07	25.843
400.42	26.380
400.78	26.598
401.14	26.890
401.49	26.328
401.85	25.469
402.21	24.910
402.57	26.157
402.92	25.536
403.28	25.671
403.63	25.371
403.99	25.796
404.35	25.697
404.70	25.480
405.06	25.626
405.42	26.014
405.77	24.000
406.13	25.621
406.49	24.956
406.84	25.340
407.20	24.645
407.55	25.463
407.91	25.733
408.27	24.697
408.62	25.346
408.98	25.797
409.34	25.215
409.69	26.323
410.05	25.836
410.40	25.199
410.76	24.552
411.11	25.090
411.47	24.728
411.83	25.718
412.18	25.046
412.54	24.346
412.89	24.819
413.25	24.852
413.60	24.583
413.96	24.408
414.31	24.848
414.67	25.285
415.03	24.768
415.38	25.258
415.74	25.273
416.09	25.474
416.45	24.766
416.80	24.389
417.16	25.402
417.51	24.353
417.87	24.406
418.22	24.038
418.58	24.467
418.93	23.403
419.29	24.316
419.64	24.559
420.00	24.390
420.35	23.304
420.71	23.491
421.06	23.986
421.42	23.158
421.77	24.832
422.12	23.470
422.48	23.152
422.83	24.403
423.19	24.254
423.54	24.318
423.90	24.058
424.25	24.065
424.61	23.214
424.96	23.790
425.31	23.643
425.67	22.416
426.02	23.086
426.38	23.565
426.73	23.757
427.09	23.769
427.44	22.944
427.79	23.232
428.15	23.274
428.50	23.347
428.85	23.480
429.21	23.302
429.56	23.069
429.92	22.698
430.27	23.436
430.62	22.120
430.98	22.159
431.33	22.526
431.68	23.194
432.04	22.417
432.39	22.616
432.74	23.220
433.10	22.467
433.45	21.866
433.80	22.727
434.16	22.756
434.51	22.526
434.86	22.805
435.22	22.735
435.57	22.492
435.92	21.182
436.28	22.301
436.63	23.179
436.98	21.923
437.34	22.779
437.69	22.229
438.04	21.641
438.39	22.269
438.75	22.719
439.10	22.291
439.45	22.196
439.81	22.598
440.16	22.021
440.51	21.617
440.86	22.525
441.22	22.581
441.57	21.709
441.92	22.569
442.27	22.336
442.63	21.116
442.98	22.085
443.33	21.522
443.68	21.838
444.03	22.060
444.39	21.470
444.74	21.916
445.09	22.426
445.44	22.143
445.79	21.920
446.15	20.963
446.50	21.756
446.85	21.172
447.20	21.724
447.55	21.106
447.91	21.787
448.26	21.536
448.61	21.820
448.96	22.204
449.31	21.654
449.66	21.441
450.02	20.836
450.37	20.748
450.72	22.053
451.07	19.988
451.42	20.790
451.77	21.785
452.12	20.612
452.47	20.958
452.83	21.096
453.18	21.516
453.53	21.027
453.88	21.264
454.23	21.279
454.58	21.381
454.93	21.742
455.28	20.200
455.63	20.328
455.98	21.071
456.34	21.545
456.69	21.290
457.04	20.372
457.39	20.222
457.74	21.010
458.09	21.162
458.44	20.353
458.79	19.794
459.14	20.147
459.49	20.198
459.84	20.222
460.19	19.682
460.54	19.907
460.89	20.461
461.24	20.583
461.59	20.569
461.94	20.037
462.29	20.593
462.64	19.911
462.99	19.388
463.34	21.200
463.69	20.263
464.04	19.884
464.39	20.348
464.74	19.133
465.09	20.205
465.44	19.834
465.79	18.233
466.14	19.759
466.49	18.576
466.84	19.323
467.19	19.855
467.54	20.063
467.89	18.968
468.24	19.314
468.59	19.597
468.94	18.693
469.29	19.152
469.64	19.880
469.99	18.809
470.34	18.494
470.68	18.966
471.03	17.823
471.38	19.875
471.73	19.254
472.08	19.013
472.43	18.530
472.78	17.841
473.13	18.678
473.48	19.101
473.83	18.293
474.17	18.668
474.52	18.672
474.87	18.564
475.22	18.398
475.57	17.947
475.92	17.207
476.27	17.813
476.61	18.202
476.96	17.757
477.31	17.111
477.66	17.451
478.01	17.721
478.36	17.292
478.70	17.394
479.05	17.252
479.40	17.298
479.75	17.794
480.10	16.849
480.45	17.040
480.79	16.914
481.14	16.977
481.49	16.991
481.84	16.324
482.19	16.901
482.53	17.202
482.88	16.845
483.23	16.495
483.58	16.060
483.92	16.776
484.27	15.120
484.62	15.819
484.97	15.018
485.31	15.514
485.66	15.167
486.01	14.978
486.36	14.663
486.70	14.769
487.05	14.840
487.40	15.245
487.75	14.978
488.09	15.529
488.44	14.676
488.79	15.552
489.13	15.775
489.48	14.886
489.83	15.149
490.17	15.695
490.52	15.235
490.87	16.011
491.22	15.325
491.56	14.806
491.91	14.751
492.26	15.250
492.60	15.714
492.95	15.295
493.30	14.860
493.64	14.699
493.99	15.088
494.34	15.402
494.68	14.835
495.03	15.226
495.37	14.518
495.72	14.961
496.07	15.313
496.41	13.805
496.76	15.215
497.11	14.768
497.45	14.858
497.80	13.964
498.14	14.300
498.49	14.537
498.84	15.388
499.18	14.667
499.53	14.720
499.87	14.725
500.22	13.943
500.56	15.000
500.91	14.231
501.26	14.699
501.60	14.333
501.95	13.841
502.29	14.246
502.64	14.385
502.98	14.306
503.33	14.214
503.67	13.643
504.02	13.985
504.36	13.758
504.71	13.288
505.06	14.361
505.40	13.272
505.75	13.500
506.09	14.091
506.44	14.060
506.78	14.028
507.13	13.831
507.47	14.192
507.82	14.286
508.16	14.235
508.51	14.663
508.85	13.704
509.19	14.235
509.54	13.929
509.88	13.910
510.23	13.882
510.57	14.757
510.92	13.775
511.26	13.823
511.61	14.212
511.95	13.152
512.30	13.362
512.64	13.702
512.98	13.130
513.33	14.079
513.67	13.340
514.02	13.366
514.36	13.654
514.70	13.116
515.05	14.055
515.39	13.517
515.74	13.345
516.08	14.757
516.42	14.262
516.77	13.657
517.11	14.095
517.46	13.431
517.80	13.821
518.14	12.797
518.49	14.177
518.83	13.523
519.17	12.933
519.52	13.186
519.86	13.292
520.20	13.121
520.55	13.944
520.89	13.382
521.23	14.294
521.58	13.385
521.92	13.472
522.26	12.752
522.61	13.271
522.95	12.891
523.29	13.573
523.64	13.049
523.98	13.678
524.32	14.174
524.66	13.229
525.01	13.174
525.35	13.445
525.69	12.131
526.04	13.084
526.38	12.935
526.72	12.883
527.06	13.057
527.41	12.624
527.75	13.826
528.09	13.423
528.43	13.958
528.78	13.276
529.12	12.727
529.46	12.982
529.80	12.933
530.15	13.520
530.49	12.615
530.83	12.785
531.17	13.381
531.51	14.527
531.86	13.097
532.20	13.103
532.54	13.261
532.88	12.709
533.22	12.680
533.57	13.025
533.91	12.643
534.25	12.394
534.59	13.240
534.93	12.909
535.27	12.432
535.62	12.698
535.96	12.743
536.30	12.015
536.64	13.200
536.98	12.143
537.32	12.772
537.66	12.267
538.01	13.232
538.35	12.928
538.69	13.338
539.03	11.956
539.37	11.949
539.71	11.860
540.05	12.026
540.39	11.761
540.73	12.160
541.07	12.784
541.42	13.242
541.76	12.968
542.10	12.678
542.44	12.119
542.78	12.912
543.12	12.156
543.46	12.328
543.80	12.622
544.14	11.297
544.48	12.952
544.82	12.251
545.16	11.581
545.50	11.825
545.84	11.559
546.18	12.391
546.52	12.732
546.86	11.615
547.20	13.284
547.54	12.091
547.88	12.883
548.22	12.142
548.56	12.201
548.90	11.844
549.24	11.313
549.58	12.142
549.92	11.882
550.26	12.074
550.60	12.310
550.94	12.676
551.28	11.485
551.62	11.862
551.96	11.719
552.30	11.877
552.64	12.982
552.98	12.678
553.32	12.340
553.66	11.929
554.00	12.217
554.34	11.525
554.68	13.233
555.02	11.777
555.36	11.273
555.69	11.570
556.03	11.844
556.37	11.664
556.71	12.142
557.05	11.625
557.39	11.966
557.73	11.433
558.07	12.400
558.41	11.288
558.75	11.683
559.08	11.857
559.42	12.850
559.76	12.279
560.10	12.063
560.44	11.391
560.78	11.910
561.12	10.950
561.45	12.125
561.79	11.470
562.13	11.402
562.47	11.749
562.81	11.297
563.15	11.839
563.48	11.472
563.82	11.937
564.16	11.642
564.50	11.914
564.84	10.936
565.17	10.682
565.51	11.565
565.85	11.358
566.19	10.457
566.52	11.210
566.86	11.151
567.20	11.203
567.54	10.331
567.88	10.538
568.21	11.376
568.55	11.122
568.89	10.506
569.23	10.517
569.56	9.717
569.90	10.151
570.24	9.903
570.57	9.725
570.91	9.729
571.25	9.543
571.59	9.249
571.92	9.073
572.26	9.590
572.60	9.520
572.93	9.595
573.27	9.701
573.61	9.827
573.95	9.638
574.28	8.920
574.62	9.257
574.96	9.104
575.29	9.069
575.63	9.400
575.97	8.826
576.30	9.294
576.64	9.098
576.98	9.042
577.31	8.988
577.65	9.099
577.98	8.906
578.32	8.717
578.66	9.015
578.99	9.085
579.33	9.005
579.67	8.830
580.00	8.823
580.34	9.065
580.67	9.029
581.01	9.130
581.35	8.673
581.68	8.760
582.02	8.431
582.35	8.662
582.69	8.812
583.02	8.935
583.36	8.923
583.70	9.291
584.03	9.326
584.37	9.407
584.70	8.621
585.04	9.100
585.37	8.900
585.71	9.140
586.04	9.374
586.38	9.117
586.72	9.141
587.05	8.829
587.39	8.839
587.72	9.405
588.06	8.591
588.39	8.697
588.73	8.976
589.06	9.380
589.40	9.360
589.73	9.715
590.07	9.680
590.40	8.915
590.73	9.836
591.07	9.890
591.40	9.152
591.74	9.957
592.07	9.773
592.41	9.963
592.74	9.251
593.08	9.527
593.41	9.427
593.75	9.338
594.08	9.353
594.41	9.403
594.75	9.427
595.08	9.234
595.42	9.562
595.75	8.832
596.09	10.289
596.42	10.216
596.75	9.498
597.09	9.870
597.42	9.106
597.75	9.659
598.09	10.261
598.42	9.880
598.76	9.647
599.09	8.818
599.42	9.098
599.76	9.078
600.09	9.362
600.42	9.021
600.76	8.786
601.09	8.998
601.42	9.132
601.76	9.108
602.09	9.526
602.42	9.912
602.76	9.835
603.09	9.087
603.42	9.606
603.76	9.451
604.09	9.190
604.42	9.621
604.76	10.122
605.09	9.218
605.42	9.277
605.75	9.354
606.09	8.865
606.42	8.868
606.75	9.332
607.09	9.837
607.42	9.628
607.75	9.198
608.08	8.988
608.42	9.816
608.75	9.423
609.08	9.898
609.41	9.519
609.75	9.909
610.08	9.331
610.41	9.078
610.74	9.508
611.07	9.931
611.41	9.764
611.74	9.703
612.07	10.248
612.40	9.706
612.73	9.105
613.07	10.668
613.40	9.847
613.73	9.858
614.06	10.108
614.39	10.645
614.72	9.895
615.06	9.821
615.39	9.395
615.72	10.020
616.05	9.516
616.38	9.450
616.71	9.679
617.05	9.835
617.38	9.982
617.71	9.129
618.04	10.577
618.37	9.935
618.70	10.330
619.03	10.789
619.36	10.862
619.69	10.845
620.03	11.126
620.36	10.160
620.69	11.164
621.02	10.619
621.35	10.493
621.68	9.735
622.01	10.604
622.34	10.741
622.67	10.570
623.00	10.492
623.33	10.150
623.66	11.008
623.99	10.162
624.32	11.127
624.65	11.088
624.99	9.844
625.32	9.776
625.65	10.894
625.98	11.376
626.31	10.109
626.64	10.857
626.97	10.889
627.30	10.806
627.63	11.239
627.96	10.934
628.29	11.811
628.62	11.802
628.95	13.113
629.28	11.679
629.61	12.466
629.94	11.429
630.26	10.010
630.59	11.821
630.92	11.494
631.25	11.649
631.58	11.211
631.91	12.373
632.24	11.287
632.57	12.172
632.90	11.623
633.23	13.311
633.56	12.768
633.89	12.571
634.22	12.486
634.55	12.663
634.88	11.497
635.20	13.501
635.53	13.735
635.86	12.005
636.19	12.118
636.52	13.956
636.85	12.257
637.18	10.945
637.51	13.002
637.83	11.714
638.16	12.404
638.49	12.469
638.82	13.780
639.15	13.250
639.48	13.965
639.81	12.869
640.13	13.802
640.46	12.752
640.79	12.946
641.12	12.930
641.45	12.151
641.77	13.549
642.10	13.450
642.43	13.814
642.76	12.384
643.09	14.877
643.41	13.050
643.74	14.660
644.07	12.957
644.40	15.951
644.73	16.220
645.05	16.323
645.38	12.006
645.71	14.493
646.04	13.787
646.36	14.190
646.69	16.388
647.02	14.456
647.35	14.433
647.67	15.044
648.00	17.886
648.33	13.696
648.66	14.697
648.98	14.393
649.31	14.200
649.64	14.350
649.96	15.499
650.29	13.112
650.62	12.783
650.94	15.559
651.27	15.203
651.60	15.474
651.92	16.454
652.25	12.541
652.58	14.174
652.90	15.798
653.23	12.635
653.56	12.756
653.88	14.739
654.21	15.482
654.54	13.201
654.86	13.863
655.19	12.432
655.52	7.950
655.84	6.486
656.17	7.752
656.49	10.632
656.82	10.745
657.15	8.336
657.47	6.432
657.80	4.920
658.13	5.206
658.45	7.751
658.78	8.061
659.10	8.430
659.43	8.577
659.75	9.290
660.08	10.063
660.41	10.521
660.73	12.834
661.06	13.694
661.38	16.000
661.71	14.423
662.03	16.371
662.36	13.121
662.68	16.667
663.01	16.970
663.33	15.924
663.66	15.966
663.98	14.471
664.31	14.496
664.63	14.170
664.96	14.286
665.28	17.418
665.61	15.595
665.93	15.292
666.26	14.199
666.58	15.900
666.91	15.856
667.23	16.629
667.56	14.471
667.88	16.239
668.21	15.991
668.53	13.883
668.86	13.420
669.18	16.418
669.50	16.304
669.83	17.211
670.15	16.000
670.48	15.251
670.80	17.026
671.13	16.136
671.45	14.681
671.77	16.701
672.10	15.896
672.42	14.664
672.75	13.599
673.07	13.556
673.39	14.105
673.72	13.867
674.04	15.098
674.37	14.951
674.69	11.452
675.01	11.715
675.34	18.480
675.66	16.421
675.98	17.108
676.31	16.387
676.63	15.711
676.95	17.400
677.28	15.888
677.60	16.923
677.92	19.409
678.25	15.195
678.57	16.534
678.89	14.429
679.22	14.342
679.54	13.740
679.86	14.862
680.18	14.669
680.51	14.007
680.83	15.125
681.15	17.170
681.48	16.446
681.80	14.894
682.12	17.050
682.44	13.153
682.77	16.497
683.09	17.382
683.41	15.965
683.73	16.777
684.06	16.736
684.38	15.851
684.70	15.698
685.02	15.760
685.34	13.736
685.67	11.364
685.99	14.433
686.31	13.993
686.63	12.014
686.96	13.750
687.28	16.787
687.60	13.768
687.92	16.088
688.24	15.589
688.56	17.269
688.89	17.012
689.21	17.249
689.53	16.493
689.85	16.186
690.17	14.286
690.49	16.136
690.82	16.589
691.14	15.848
691.46	16.878
691.78	15.261
692.10	13.636
692.42	16.168
692.74	14.523
693.06	16.596
693.39	18.480
693.71	15.939
694.03	18.737
694.35	17.100
694.67	16.476
694.99	19.756
695.31	16.667
695.63	15.311
695.95	15.403
696.27	12.944
696.59	17.358
696.91	14.767
697.23	14.554
697.56	14.286
697.88	14.724
698.20	17.083
698.52	15.484
698.84	14.699
699.16	14.977
699.48	16.152
699.80	18.599
700.12	20.000
700.44	17.507
700.76	17.403
701.08	18.966
701.40	17.877
701.72	20.408
702.04	24.432
702.36	15.581
702.68	18.130
703.00	17.452
703.32	14.894
703.64	18.499
703.96	17.827
704.28	18.023
704.60	17.009
704.91	20.772
705.23	19.355
705.55	18.937
705.87	25.249
706.19	15.194
706.51	18.380
706.83	20.606
707.15	20.448
707.47	17.929
707.79	18.673
708.11	15.982
708.43	13.810
708.74	15.561
709.06	20.000
709.38	18.898
709.70	17.151
710.02	20.178
710.34	18.485
710.66	18.507
710.98	19.034
711.29	16.860
711.61	22.714
711.93	17.949
712.25	21.865
712.57	19.853
712.89	21.107
713.20	21.581
713.52	18.421
713.84	17.405
714.16	19.512
714.48	18.966
714.80	22.492
715.11	19.597
715.43	14.837
715.75	20.290
716.07	16.294
716.39	17.868
716.70	23.256
717.02	16.906
717.34	21.555
717.66	19.776
717.97	25.100
718.29	21.852
718.61	20.438
718.93	24.632
719.24	23.875
719.56	17.627
719.88	20.678
720.20	22.297
720.51	22.300
720.83	20.074
721.15	19.030
721.46	20.922
721.78	20.430
722.10	19.623
722.42	23.308
722.73	24.345
723.05	20.492
723.37	21.862
723.68	22.394
724.00	22.764
724.32	22.581
724.63	20.325
724.95	25.941
725.27	22.267
725.58	22.266
725.90	22.263
726.22	23.019
726.53	19.444
726.85	20.478
727.16	20.285
727.48	21.631
727.80	20.833
728.11	22.464
728.43	18.846
728.74	20.789
729.06	26.277
729.38	23.162
729.69	24.199
730.01	22.184
730.32	21.181
730.64	19.732
730.96	18.812
731.27	19.536
731.59	19.572
731.90	17.784
732.22	16.460
732.53	18.576
732.85	17.308
733.16	18.006
733.48	18.937
733.80	19.805
734.11	19.427
734.43	17.751
734.74	16.857
735.06	14.900
735.37	22.832
735.69	13.694
736.00	20.588
736.32	19.003
736.63	18.530
736.95	19.808
737.26	14.626
737.58	16.129
737.89	20.401
738.21	20.819
738.52	19.643
738.83	17.358
739.15	18.846
739.46	24.818
739.78	17.708
740.09	19.077
740.41	23.226
740.72	17.422
741.04	20.741
741.35	20.417
741.66	24.000
741.98	23.585
742.29	24.402
742.61	29.741
742.92	22.172
743.23	23.932
743.55	24.400
743.86	22.368
744.18	26.991
744.49	26.794
744.80	28.638
745.12	29.091
745.43	22.907
745.74	23.423
746.06	26.147
746.37	26.906
746.68	28.959
747.00	27.778
747.31	28.095
747.62	22.566
747.94	29.515
748.25	23.404
748.56	27.753
748.88	22.772
749.19	25.000
749.50	23.256
749.82	23.577
750.13	18.367
750.44	17.153
750.75	20.702
751.07	23.151
751.38	19.164
751.69	21.661
752.01	19.549
752.32	22.022
752.63	21.277
752.94	27.049
753.26	27.600
753.57	17.886
753.88	25.000
754.19	21.786
754.51	24.306
754.82	20.578
755.13	23.019
755.44	21.805
755.75	18.248
756.07	19.858
756.38	20.073
756.69	18.121
757.00	17.964
757.31	18.694
757.63	16.959
757.94	16.354
758.25	18.382
758.56	15.062
758.87	18.280
759.18	19.394
759.50	19.749
759.81	19.315
760.12	14.062
760.43	17.192
760.74	18.478
761.05	18.927
761.36	17.112
761.67	22.159
761.99	16.770
762.30	21.181
762.61	21.756
762.92	23.438
763.23	21.429
763.54	26.000
763.85	21.484
764.16	21.923
764.47	23.194
764.78	18.375
765.10	15.823
765.41	20.059
765.72	18.862
766.03	20.376
766.34	19.667
766.65	21.277
766.96	25.641
767.27	27.919
767.58	28.125
767.89	26.316
768.20	32.184
768.51	27.411
768.82	21.101
769.13	22.358
769.44	19.433
769.75	19.313
770.06	20.183
770.37	28.507
770.68	24.074
770.99	20.000
771.30	20.902
771.61	27.803
771.92	21.721
772.23	28.151
772.54	27.179
772.85	31.414
773.16	28.723
773.47	30.435
773.78	29.442
774.09	25.000
774.39	30.994
774.70	29.012
775.01	32.609
775.32	34.641
775.63	29.605
775.94	32.374
776.25	36.220
776.56	38.060
776.87	27.049
777.18	35.938
777.48	43.511
777.79	38.636
778.10	35.556
778.41	46.429
778.72	27.007
779.03	37.584
779.34	32.886
779.65	36.486
779.95	34.969
780.26	38.562
780.57	33.793
780.88	38.281
781.19	44.361
781.50	43.919
781.80	29.560
782.11	22.599
782.42	27.848
782.73	30.675
783.04	34.459
783.34	35.915
783.65	41.096
783.96	41.045
784.27	34.965
784.57	25.180
784.88	34.259
785.19	43.651
785.50	37.736
785.81	39.552
786.11	45.902
786.42	48.062
786.73	30.973
787.04	45.283
787.34	47.321
787.65	42.000
787.96	46.847
788.26	32.231
788.57	38.983
788.88	43.802
789.19	36.111
789.49	49.242
789.80	41.221
790.11	50.476
790.41	46.535
790.72	48.193
791.03	47.826
791.33	59.302
791.64	42.268
791.95	51.485
792.25	54.444
792.56	55.844
792.87	51.282
793.17	73.418
793.48	49.425
793.79	50.575
794.09	60.227
794.40	39.496
794.70	36.765
795.01	31.852
795.32	38.129
795.62	34.646
795.93	38.793
796.23	41.593
796.54	47.059
796.85	55.405
797.15	78.873
797.46	63.636
797.76	55.422
798.07	58.228
798.37	41.538
798.68	60.606
798.99	53.521
799.29	63.636
799.60	52.273
799.90	63.014
800.21	71.642
800.51	62.069
800.82	80.702
801.12	73.770
801.43	74.242
801.73	56.757
802.04	73.016
802.34	58.025
802.65	65.625
802.95	69.492
803.26	73.438
803.56	55.714
803.87	56.923
804.17	79.412
804.48	87.037
804.78	60.345
805.09	70.588
805.39	61.538
805.70	60.714
806.00	86.885
806.30	56.061
806.61	56.098
806.91	49.367
807.22	50.000
807.52	52.239
807.83	77.465
808.13	78.125
808.43	78.333
808.74	63.158
809.04	59.420
809.35	58.209
809.65	68.421
809.95	80.645
810.26	74.576
810.56	85.714
810.86	90.909
811.17	126.190
811.47	70.000
811.77	92.593
812.08	80.000
812.38	92.000
812.69	119.444
812.99	118.182
813.29	95.918
813.59	50.000
813.90	93.878
814.20	89.091
814.50	64.615
814.81	88.235
815.11	81.633
815.41	83.607
815.72	116.667
816.02	83.636
816.32	116.667
816.62	97.500
816.93	90.244
817.23	119.048
817.53	77.273
817.84	115.152
818.14	100.000
818.44	84.444
818.74	126.471
819.04	105.000
819.35	80.000
819.65	120.588
819.95	132.143
820.25	140.000
820.56	94.872
820.86	100.000
821.16	120.930
821.46	107.692
821.76	94.000
822.07	117.143
822.37	122.500
822.67	127.273
822.97	101.961
823.27	139.286
823.57	75.676
823.88	115.000
824.18	130.000
824.48	109.524
824.78	156.000
825.08	108.333
825.38	135.135
825.69	109.756
825.99	183.333
826.29	158.621
826.59	118.421
826.89	121.053
827.19	117.647
827.49	154.839
827.79	125.000
828.09	113.636
828.39	78.723
828.70	110.204
829.00	133.333
829.30	138.710
829.60	102.500
829.90	173.333
830.20	157.143
830.50	152.174
830.80	165.217
831.10	150.000
831.40	143.333
831.70	147.826
832.00	153.846
832.30	122.222
832.60	206.250
832.90	150.000
833.20	300.000
833.50	125.806
833.80	155.172
834.10	137.500
834.40	203.846
834.70	261.111
835.00	209.524
835.30	148.571
835.60	230.769
835.90	110.345
836.20	235.714
836.50	148.276
836.80	152.000
837.10	155.556
837.40	209.524
837.70	182.353
838.00	174.074
838.30	176.190
838.60	214.286
838.90	203.846
839.19	205.000
839.49	300.000
839.79	240.000
840.09	185.000
840.39	219.048
840.69	213.043
840.99	233.333
841.29	330.000
841.59	300.000
841.88	281.250
842.18	137.931
842.48	238.095
842.78	146.667
843.08	173.913
843.38	150.000
843.68	633.333
843.97	184.615
844.27	117.241
844.57	219.048
844.87	250.000
845.17	170.370
845.47	1200.000
845.76	255.556
846.06	252.941
846.36	462.500
846.66	278.571
846.96	225.000
847.25	172.727
847.55	363.636
847.85	213.043
848.15	360.000
848.44	278.571
848.74	194.444
849.04	211.765
849.34	440.000
849.63	168.421
849.93	309.091
850.23	660.000
850.53	307.143
850.82	1550.000
851.12	-4100.000
851.42	4500.000
851.71	200.000
852.01	-800.000
852.31	200.000
852.61	1233.333
852.90	204.762
853.20	176.000
853.50	241.176
853.79	190.476
854.09	187.500
854.39	275.000
854.68	154.054
854.98	170.968
855.28	113.333
855.57	137.931
855.87	140.741
856.17	231.579
856.46	166.667
856.76	211.765
857.05	162.069
857.35	183.333
857.65	286.667
857.94	204.348
858.24	184.615
858.53	210.000
858.83	213.636
859.13	246.667
859.42	0.000
859.72	400.000
860.01	354.545
860.31	213.636
860.60	205.263
860.90	169.565
861.20	400.000
861.49	425.000
861.79	-3200.000
862.08	575.000
862.38	252.381
862.67	323.077
862.97	300.000
863.26	488.889
863.56	244.444
863.85	283.333
864.15	525.000
864.44	306.667
864.74	666.667
865.03	475.000
865.33	242.105
865.62	327.273
865.92	384.615
866.21	325.000
866.51	0.000
866.80	309.091
867.10	940.000
867.39	323.077
867.69	327.273
867.98	263.158
868.27	372.727
868.57	205.263
868.86	-3500.000
869.16	256.250
869.45	1700.000
869.75	-2800.000
870.04	341.667
870.33	628.571
870.63	975.000
870.92	1800.000
871.22	771.429
871.51	276.471
871.80	200.000
872.10	314.286
>>>>>End Processed Spectral Data<<<<<
