SpectraSuite Data File
++++++++++++++++++++++++++++++++++++
Date: Wed May 13 20:25:15 PDT 2015
User: schluterlab
Dark Spectrum Present: Yes
Reference Spectrum Present: Yes
Number of Sampled Component Spectra: 1
Spectrometers: USB2E3373
Integration Time (usec): 3000 (USB2E3373)
Spectra Averaged: 3 (USB2E3373)
Boxcar Smoothing: 0 (USB2E3373)
Correct for Electrical Dark: No (USB2E3373)
Strobe/Lamp Enabled: No (USB2E3373)
Correct for Detector Non-linearity: No (USB2E3373)
Correct for Stray Light: No (USB2E3373)
Number of Pixels in Processed Spectrum: 2048
>>>>>Begin Processed Spectral Data<<<<<
178.53	0.000
178.91	-1175.000
179.29	-1200.000
179.67	-216.667
180.04	-1100.000
180.42	2450.000
180.80	880.000
181.18	-875.000
181.56	614.286
181.94	0.000
182.31	-500.000
182.69	1566.667
183.07	-550.000
183.45	-522.222
183.83	518.182
184.20	-330.000
184.58	1900.000
184.96	5600.000
185.34	-940.000
185.72	-562.500
186.09	-2250.000
186.47	2450.000
186.85	2350.000
187.23	4200.000
187.61	-1300.000
187.98	1175.000
188.36	527.273
188.74	463.636
189.12	-800.000
189.49	490.000
189.87	-4000.000
190.25	-1050.000
190.63	371.429
191.00	438.462
191.38	883.333
191.76	-1075.000
192.14	1300.000
192.51	575.000
192.89	800.000
193.27	500.000
193.65	-1375.000
194.02	470.000
194.40	1020.000
194.78	460.000
195.15	400.000
195.53	580.000
195.91	-1900.000
196.29	381.250
196.66	284.211
197.04	-360.000
197.42	0.000
197.79	590.000
198.17	-4100.000
198.55	757.143
198.92	562.500
199.30	940.000
199.68	0.000
200.05	350.000
200.43	742.857
200.81	3900.000
201.18	1633.333
201.56	-1133.333
201.94	588.889
202.31	477.778
202.69	400.000
203.07	420.000
203.44	0.000
203.82	1075.000
204.19	714.286
204.57	407.143
204.95	537.500
205.32	1333.333
205.70	481.818
206.08	342.857
206.45	2650.000
206.83	418.750
207.20	983.333
207.58	900.000
207.96	277.778
208.33	687.500
208.71	-700.000
209.08	657.143
209.46	533.333
209.84	418.182
210.21	-1533.333
210.59	1225.000
210.96	-525.000
211.34	2650.000
211.71	590.000
212.09	750.000
212.46	0.000
212.84	1466.667
213.22	1275.000
213.59	-4700.000
213.97	850.000
214.34	900.000
214.72	545.455
215.09	840.000
215.47	-2400.000
215.84	-2150.000
216.22	1600.000
216.59	428.571
216.97	1200.000
217.34	463.636
217.72	-666.667
218.09	0.000
218.47	-5200.000
218.84	600.000
219.22	785.714
219.59	1466.667
219.97	-542.857
220.34	1060.000
220.72	-1600.000
221.09	328.571
221.47	1350.000
221.84	-983.333
222.22	0.000
222.59	1175.000
222.97	-2950.000
223.34	1160.000
223.72	476.923
224.09	1100.000
224.46	2600.000
224.84	-4400.000
225.21	-940.000
225.59	-4600.000
225.96	570.000
226.34	325.000
226.71	3100.000
227.08	587.500
227.46	490.000
227.83	-1175.000
228.21	-2200.000
228.58	611.111
228.95	-2250.000
229.33	-1800.000
229.70	1600.000
230.08	785.714
230.45	-740.000
230.82	441.667
231.20	683.333
231.57	628.571
231.95	383.333
232.32	209.091
232.69	409.091
233.07	585.714
233.44	346.154
233.81	-1933.333
234.19	278.947
234.56	516.667
234.93	341.667
235.31	418.182
235.68	284.615
236.05	314.286
236.43	169.697
236.80	257.895
237.17	4900.000
237.55	257.143
237.92	175.000
238.29	242.857
238.67	161.290
239.04	186.207
239.41	147.222
239.79	106.522
240.16	142.857
240.53	127.273
240.91	82.353
241.28	88.000
241.65	90.000
242.02	88.406
242.40	108.065
242.77	93.333
243.14	68.817
243.51	75.281
243.89	71.765
244.26	71.111
244.63	61.290
245.00	58.511
245.38	65.347
245.75	57.944
246.12	51.376
246.49	56.204
246.87	60.800
247.24	52.308
247.61	48.571
247.98	46.405
248.36	42.568
248.73	46.497
249.10	49.682
249.47	41.808
249.84	41.176
250.22	41.176
250.59	39.645
250.96	40.909
251.33	38.389
251.70	36.139
252.08	43.810
252.45	36.323
252.82	33.913
253.19	36.596
253.56	31.373
253.94	36.100
254.31	32.422
254.68	39.615
255.05	35.055
255.42	33.333
255.79	34.191
256.16	33.935
256.54	28.975
256.91	35.587
257.28	28.777
257.65	32.013
258.02	34.472
258.39	31.546
258.76	29.431
259.14	32.738
259.51	29.787
259.88	25.466
260.25	31.118
260.62	30.347
260.99	28.571
261.36	31.832
261.73	24.069
262.10	30.523
262.47	30.423
262.85	27.577
263.22	25.641
263.59	31.624
263.96	25.275
264.33	27.937
264.70	26.579
265.07	29.668
265.44	27.525
265.81	23.844
266.18	25.377
266.55	27.561
266.92	27.273
267.29	25.463
267.66	26.376
268.03	26.136
268.40	27.103
268.77	25.298
269.14	24.550
269.51	27.991
269.88	27.739
270.25	25.056
270.62	24.270
270.99	25.161
271.36	26.824
271.73	24.299
272.10	26.522
272.47	25.806
272.84	24.242
273.21	25.157
273.58	25.983
273.95	22.851
274.32	20.248
274.69	25.482
275.06	21.850
275.43	24.468
275.80	23.647
276.17	22.811
276.54	25.364
276.91	23.320
277.28	23.438
277.65	23.211
278.02	24.845
278.39	24.219
278.76	24.000
279.13	22.264
279.50	24.022
279.87	22.311
280.23	26.547
280.60	22.437
280.97	21.442
281.34	24.779
281.71	23.455
282.08	22.649
282.45	20.000
282.82	22.558
283.19	21.390
283.56	21.404
283.92	22.843
284.29	22.222
284.66	21.960
285.03	22.061
285.40	20.951
285.77	19.697
286.14	20.725
286.51	21.333
286.87	22.222
287.24	23.616
287.61	21.348
287.98	21.104
288.35	21.078
288.72	21.184
289.08	20.188
289.45	20.758
289.82	20.813
290.19	17.582
290.56	18.530
290.93	19.033
291.29	20.399
291.66	19.469
292.03	20.494
292.40	18.796
292.77	20.266
293.13	18.209
293.50	19.971
293.87	18.074
294.24	18.370
294.60	17.322
294.97	18.314
295.34	18.336
295.71	19.460
296.08	16.952
296.44	19.120
296.81	17.437
297.18	18.564
297.55	15.435
297.91	17.150
298.28	17.537
298.65	17.363
299.02	17.260
299.38	17.131
299.75	15.633
300.12	17.114
300.48	17.125
300.85	16.400
301.22	17.962
301.59	16.667
301.95	15.995
302.32	15.276
302.69	15.651
303.05	14.545
303.42	15.309
303.79	15.629
304.15	14.802
304.52	14.484
304.89	14.402
305.25	15.081
305.62	15.515
305.99	15.939
306.35	13.647
306.72	15.807
307.09	16.093
307.45	16.779
307.82	14.509
308.19	16.004
308.55	17.044
308.92	14.608
309.29	14.150
309.65	14.528
310.02	15.116
310.38	14.839
310.75	15.417
311.12	16.274
311.48	14.943
311.85	15.514
312.22	14.984
312.58	14.657
312.95	15.945
313.31	15.049
313.68	12.890
314.05	17.653
314.41	15.276
314.78	15.206
315.14	15.690
315.51	16.169
315.87	15.446
316.24	14.796
316.61	15.984
316.97	15.656
317.34	15.656
317.70	17.208
318.07	15.977
318.43	17.123
318.80	17.526
319.16	17.608
319.53	16.604
319.89	18.095
320.26	19.200
320.62	19.841
320.99	19.596
321.35	20.707
321.72	19.405
322.08	20.533
322.45	20.299
322.81	21.318
323.18	21.580
323.54	21.985
323.91	22.453
324.27	21.702
324.64	23.113
325.00	23.174
325.37	24.659
325.73	25.135
326.10	24.537
326.46	26.165
326.83	26.057
327.19	26.302
327.56	25.958
327.92	27.647
328.29	28.749
328.65	28.177
329.01	28.249
329.38	29.232
329.74	29.271
330.11	29.406
330.47	31.405
330.84	30.790
331.20	31.421
331.56	31.560
331.93	31.296
332.29	31.588
332.66	31.681
333.02	32.633
333.38	32.882
333.75	33.779
334.11	32.295
334.48	32.742
334.84	34.375
335.20	33.091
335.57	33.092
335.93	32.946
336.29	34.249
336.66	34.175
337.02	32.489
337.38	35.370
337.75	33.601
338.11	33.751
338.47	33.886
338.84	35.747
339.20	35.229
339.56	35.310
339.93	34.364
340.29	35.779
340.65	35.561
341.02	35.166
341.38	36.388
341.74	35.702
342.11	35.808
342.47	36.740
342.83	35.702
343.20	37.662
343.56	36.394
343.92	36.228
344.28	36.139
344.65	37.747
345.01	35.522
345.37	35.163
345.73	37.394
346.10	38.107
346.46	37.797
346.82	36.409
347.19	35.756
347.55	35.140
347.91	36.165
348.27	37.387
348.63	36.789
349.00	36.974
349.36	35.632
349.72	36.247
350.08	36.305
350.45	36.290
350.81	37.206
351.17	36.143
351.53	35.545
351.89	35.891
352.26	38.122
352.62	36.327
352.98	36.710
353.34	36.154
353.70	35.925
354.07	35.806
354.43	36.349
354.79	36.283
355.15	36.552
355.51	37.410
355.87	37.469
356.24	37.052
356.60	35.766
356.96	37.973
357.32	37.776
357.68	37.480
358.04	36.975
358.40	37.451
358.77	36.385
359.13	35.991
359.49	37.490
359.85	36.429
360.21	36.603
360.57	36.732
360.93	36.846
361.29	36.886
361.66	37.307
362.02	36.642
362.38	36.426
362.74	36.458
363.10	36.417
363.46	36.904
363.82	36.961
364.18	35.977
364.54	36.181
364.90	37.181
365.26	38.015
365.62	37.180
365.98	36.669
366.35	35.602
366.71	36.804
367.07	36.125
367.43	37.808
367.79	38.829
368.15	38.578
368.51	36.919
368.87	38.116
369.23	37.015
369.59	37.726
369.95	36.544
370.31	37.108
370.67	36.812
371.03	37.378
371.39	37.609
371.75	36.765
372.11	36.486
372.47	37.757
372.83	38.040
373.19	37.139
373.55	38.877
373.91	39.175
374.27	36.701
374.63	37.018
374.99	36.935
375.35	36.636
375.71	36.326
376.07	36.626
376.42	37.414
376.78	37.972
377.14	37.110
377.50	37.947
377.86	37.234
378.22	37.358
378.58	35.965
378.94	36.832
379.30	36.641
379.66	37.881
380.02	37.469
380.38	36.855
380.74	36.975
381.09	37.836
381.45	37.431
381.81	37.592
382.17	37.643
382.53	37.673
382.89	36.852
383.25	38.149
383.61	39.033
383.97	38.649
384.32	38.490
384.68	36.865
385.04	37.246
385.40	37.709
385.76	38.145
386.12	38.277
386.48	37.823
386.83	38.486
387.19	38.404
387.55	37.786
387.91	38.392
388.27	37.707
388.62	38.291
388.98	37.285
389.34	38.235
389.70	38.013
390.06	38.403
390.42	37.354
390.77	37.913
391.13	38.290
391.49	38.135
391.85	36.601
392.20	37.098
392.56	36.932
392.92	38.376
393.28	35.207
393.64	37.050
393.99	36.347
394.35	36.414
394.71	38.143
395.07	37.009
395.42	37.886
395.78	38.041
396.14	36.872
396.50	37.406
396.85	36.618
397.21	36.621
397.57	36.764
397.92	37.260
398.28	36.435
398.64	36.440
399.00	36.318
399.35	36.435
399.71	36.516
400.07	35.896
400.42	36.135
400.78	37.093
401.14	35.976
401.49	35.881
401.85	35.693
402.21	35.868
402.57	36.644
402.92	36.255
403.28	36.790
403.63	36.200
403.99	36.369
404.35	36.000
404.70	34.532
405.06	35.294
405.42	35.995
405.77	35.429
406.13	34.819
406.49	35.837
406.84	34.554
407.20	34.752
407.55	35.673
407.91	35.800
408.27	34.397
408.62	33.955
408.98	34.314
409.34	34.809
409.69	36.065
410.05	33.581
410.40	34.924
410.76	34.050
411.11	33.715
411.47	33.546
411.83	33.048
412.18	33.333
412.54	33.873
412.89	33.193
413.25	34.179
413.60	33.107
413.96	33.090
414.31	33.414
414.67	33.714
415.03	33.642
415.38	33.441
415.74	32.605
416.09	34.422
416.45	33.601
416.80	33.642
417.16	33.713
417.51	33.908
417.87	32.755
418.22	32.177
418.58	32.989
418.93	32.494
419.29	31.700
419.64	31.990
420.00	31.402
420.35	32.232
420.71	32.756
421.06	31.146
421.42	31.579
421.77	32.007
422.12	30.657
422.48	30.491
422.83	31.974
423.19	30.000
423.54	30.760
423.90	31.014
424.25	29.927
424.61	29.762
424.96	29.913
425.31	30.509
425.67	30.337
426.02	30.000
426.38	30.708
426.73	29.608
427.09	29.422
427.44	28.752
427.79	30.247
428.15	29.940
428.50	29.140
428.85	29.261
429.21	28.548
429.56	28.409
429.92	28.636
430.27	28.401
430.62	28.674
430.98	28.853
431.33	28.454
431.68	28.639
432.04	28.275
432.39	29.240
432.74	27.947
433.10	28.183
433.45	29.271
433.80	27.439
434.16	27.350
434.51	28.000
434.86	27.936
435.22	27.849
435.57	27.356
435.92	27.267
436.28	26.987
436.63	27.815
436.98	27.476
437.34	27.967
437.69	27.071
438.04	27.600
438.39	26.806
438.75	27.658
439.10	26.927
439.45	26.682
439.81	27.069
440.16	26.652
440.51	27.124
440.86	26.983
441.22	25.640
441.57	26.433
441.92	26.254
442.27	26.857
442.63	25.908
442.98	26.479
443.33	26.250
443.68	25.710
444.03	25.134
444.39	25.949
444.74	25.487
445.09	25.175
445.44	25.205
445.79	24.740
446.15	25.887
446.50	24.933
446.85	25.334
447.20	25.140
447.55	26.019
447.91	25.814
448.26	25.097
448.61	25.042
448.96	25.748
449.31	25.928
449.66	25.098
450.02	24.345
450.37	23.753
450.72	23.858
451.07	23.827
451.42	24.681
451.77	25.778
452.12	24.885
452.47	25.373
452.83	23.543
453.18	24.572
453.53	25.788
453.88	24.217
454.23	24.387
454.58	25.136
454.93	24.412
455.28	23.940
455.63	24.150
455.98	26.429
456.34	25.691
456.69	25.172
457.04	24.149
457.39	23.203
457.74	23.622
458.09	23.979
458.44	23.603
458.79	23.265
459.14	23.928
459.49	23.935
459.84	22.548
460.19	23.100
460.54	22.569
460.89	23.423
461.24	24.044
461.59	23.300
461.94	23.243
462.29	23.442
462.64	22.846
462.99	22.511
463.34	23.133
463.69	22.639
464.04	22.899
464.39	22.841
464.74	23.351
465.09	22.919
465.44	22.327
465.79	22.260
466.14	22.222
466.49	22.024
466.84	22.825
467.19	22.933
467.54	23.375
467.89	21.909
468.24	22.513
468.59	22.650
468.94	21.930
469.29	23.393
469.64	23.561
469.99	22.395
470.34	22.457
470.68	22.270
471.03	22.381
471.38	23.211
471.73	22.185
472.08	24.145
472.43	21.608
472.78	22.778
473.13	22.593
473.48	22.472
473.83	22.378
474.17	22.402
474.52	23.139
474.87	22.300
475.22	22.113
475.57	21.171
475.92	20.818
476.27	20.744
476.61	21.070
476.96	21.111
477.31	20.722
477.66	20.624
478.01	20.805
478.36	21.206
478.70	20.613
479.05	20.447
479.40	20.676
479.75	20.946
480.10	19.533
480.45	21.085
480.79	19.876
481.14	20.646
481.49	20.645
481.84	19.707
482.19	19.900
482.53	20.000
482.88	19.823
483.23	20.794
483.58	19.791
483.92	20.150
484.27	18.998
484.62	20.129
484.97	19.551
485.31	19.110
485.66	18.633
486.01	18.091
486.36	17.322
486.70	17.075
487.05	17.636
487.40	18.258
487.75	17.771
488.09	18.653
488.44	17.879
488.79	18.879
489.13	19.557
489.48	18.760
489.83	19.163
490.17	19.509
490.52	19.531
490.87	18.996
491.22	18.918
491.56	18.998
491.91	19.172
492.26	19.017
492.60	19.631
492.95	19.364
493.30	19.252
493.64	18.572
493.99	18.617
494.34	19.334
494.68	19.780
495.03	19.502
495.37	19.032
495.72	19.396
496.07	19.629
496.41	18.673
496.76	19.349
497.11	18.865
497.45	19.050
497.80	19.146
498.14	18.551
498.49	19.463
498.84	19.080
499.18	18.857
499.53	18.471
499.87	18.639
500.22	19.312
500.56	18.786
500.91	18.413
501.26	18.919
501.60	18.889
501.95	18.148
502.29	19.072
502.64	19.088
502.98	18.467
503.33	18.693
503.67	18.515
504.02	18.101
504.36	18.577
504.71	18.319
505.06	19.277
505.40	18.182
505.75	18.322
506.09	18.027
506.44	18.550
506.78	18.948
507.13	18.375
507.47	18.535
507.82	19.301
508.16	19.048
508.51	18.721
508.85	18.520
509.19	18.571
509.54	18.367
509.88	18.959
510.23	18.663
510.57	19.659
510.92	18.591
511.26	18.191
511.61	19.450
511.95	17.537
512.30	17.762
512.64	18.431
512.98	19.078
513.33	18.951
513.67	18.303
514.02	18.236
514.36	19.006
514.70	18.871
515.05	18.740
515.39	19.125
515.74	18.694
516.08	19.005
516.42	18.646
516.77	19.454
517.11	18.757
517.46	18.962
517.80	18.351
518.14	18.877
518.49	19.545
518.83	19.261
519.17	18.014
519.52	18.902
519.86	18.426
520.20	19.364
520.55	19.988
520.89	19.830
521.23	18.637
521.58	19.328
521.92	19.718
522.26	18.975
522.61	18.567
522.95	18.907
523.29	18.990
523.64	19.146
523.98	18.484
524.32	18.878
524.66	18.821
525.01	18.934
525.35	19.827
525.69	18.966
526.04	19.252
526.38	18.792
526.72	19.080
527.06	18.707
527.41	17.327
527.75	19.678
528.09	18.947
528.43	19.885
528.78	19.176
529.12	18.788
529.46	18.861
529.80	18.131
530.15	19.502
530.49	18.769
530.83	18.608
531.17	20.104
531.51	19.715
531.86	18.968
532.20	19.687
532.54	19.475
532.88	19.512
533.22	18.114
533.57	18.889
533.91	18.182
534.25	18.651
534.59	20.073
534.93	18.382
535.27	18.527
535.62	18.864
535.96	19.021
536.30	18.373
536.64	19.060
536.98	18.978
537.32	18.762
537.66	18.600
538.01	19.355
538.35	18.487
538.69	19.528
539.03	18.713
539.37	18.211
539.71	17.822
540.05	18.562
540.39	19.003
540.73	18.241
541.07	19.208
541.42	18.134
541.76	19.226
542.10	18.499
542.44	18.808
542.78	19.038
543.12	18.362
543.46	19.475
543.80	19.128
544.14	18.164
544.48	18.286
544.82	17.640
545.16	17.827
545.50	17.866
545.84	18.280
546.18	19.259
546.52	17.963
546.86	18.076
547.20	18.746
547.54	18.437
547.88	19.643
548.22	18.369
548.56	18.302
548.90	18.118
549.24	18.384
549.58	17.872
549.92	18.475
550.26	19.034
550.60	18.534
550.94	18.521
551.28	17.557
551.62	17.685
551.96	18.246
552.30	18.635
552.64	18.999
552.98	18.508
553.32	17.869
553.66	18.609
554.00	18.943
554.34	18.288
554.68	18.813
555.02	18.054
555.36	17.606
555.69	17.253
556.03	18.237
556.37	18.827
556.71	17.667
557.05	18.347
557.39	18.614
557.73	18.207
558.07	18.419
558.41	18.017
558.75	18.148
559.08	19.463
559.42	18.745
559.76	18.824
560.10	17.773
560.44	18.588
560.78	16.434
561.12	17.414
561.45	18.774
561.79	18.062
562.13	17.773
562.47	18.169
562.81	17.364
563.15	17.793
563.48	17.573
563.82	18.004
564.16	17.397
564.50	16.927
564.84	17.320
565.17	17.310
565.51	17.252
565.85	16.878
566.19	17.220
566.52	17.479
566.86	16.938
567.20	17.394
567.54	17.066
567.88	17.110
568.21	16.825
568.55	16.785
568.89	15.661
569.23	16.087
569.56	16.113
569.90	16.075
570.24	16.039
570.57	15.403
570.91	15.385
571.25	14.917
571.59	14.757
571.92	15.092
572.26	14.905
572.60	15.165
572.93	15.292
573.27	14.848
573.61	14.685
573.95	15.194
574.28	14.623
574.62	14.334
574.96	14.624
575.29	14.525
575.63	14.710
575.97	14.423
576.30	14.631
576.64	14.278
576.98	14.268
577.31	14.372
577.65	14.159
577.98	14.154
578.32	14.039
578.66	14.340
578.99	14.266
579.33	14.137
579.67	14.254
580.00	14.313
580.34	14.665
580.67	14.205
581.01	14.504
581.35	14.134
581.68	14.078
582.02	13.818
582.35	13.816
582.69	13.720
583.02	14.292
583.36	14.273
583.70	13.961
584.03	14.342
584.37	14.387
584.70	14.028
585.04	14.481
585.37	14.189
585.71	14.215
586.04	14.351
586.38	14.368
586.72	15.023
587.05	14.154
587.39	14.011
587.72	14.661
588.06	14.381
588.39	14.595
588.73	14.608
589.06	14.677
589.40	14.646
589.73	14.819
590.07	15.053
590.40	14.761
590.73	15.379
591.07	15.832
591.40	15.310
591.74	15.714
592.07	15.532
592.41	15.502
592.74	14.794
593.08	14.823
593.41	15.027
593.75	14.772
594.08	14.415
594.41	15.094
594.75	15.157
595.08	14.639
595.42	14.886
595.75	14.530
596.09	15.096
596.42	15.206
596.75	15.238
597.09	16.234
597.42	14.966
597.75	15.610
598.09	15.304
598.42	15.034
598.76	14.957
599.09	14.481
599.42	14.993
599.76	14.934
600.09	14.244
600.42	14.792
600.76	14.321
601.09	14.791
601.42	14.688
601.76	14.497
602.09	15.138
602.42	14.968
602.76	15.115
603.09	15.146
603.42	15.111
603.76	14.901
604.09	14.502
604.42	14.880
604.76	15.394
605.09	15.028
605.42	14.835
605.75	15.025
606.09	15.372
606.42	14.630
606.75	15.263
607.09	15.739
607.42	14.634
607.75	14.557
608.08	14.416
608.42	16.181
608.75	15.509
609.08	15.171
609.41	15.469
609.75	16.246
610.08	15.928
610.41	15.689
610.74	15.468
611.07	15.514
611.41	15.505
611.74	16.239
612.07	16.253
612.40	15.792
612.73	16.053
613.07	15.679
613.40	16.114
613.73	14.997
614.06	15.376
614.39	15.417
614.72	15.368
615.06	15.966
615.39	15.021
615.72	15.593
616.05	15.630
616.38	16.064
616.71	15.855
617.05	16.254
617.38	15.815
617.71	15.976
618.04	16.526
618.37	15.021
618.70	16.117
619.03	16.776
619.36	16.158
619.69	16.408
620.03	16.827
620.36	17.246
620.69	16.301
621.02	16.372
621.35	16.288
621.68	17.056
622.01	17.183
622.34	18.079
622.67	16.730
623.00	16.801
623.33	16.369
623.66	17.655
623.99	17.084
624.32	16.690
624.65	16.455
624.99	16.997
625.32	16.510
625.65	17.355
625.98	17.832
626.31	18.274
626.64	17.633
626.97	17.207
627.30	16.625
627.63	17.801
627.96	18.335
628.29	18.110
628.62	18.024
628.95	19.340
629.28	18.248
629.61	18.515
629.94	18.286
630.26	16.873
630.59	18.494
630.92	17.720
631.25	18.361
631.58	18.418
631.91	18.256
632.24	18.671
632.57	19.098
632.90	19.408
633.23	19.799
633.56	20.226
633.89	19.706
634.22	18.161
634.55	20.000
634.88	19.760
635.20	18.280
635.53	20.602
635.86	20.297
636.19	18.471
636.52	19.377
636.85	20.848
637.18	19.585
637.51	21.395
637.83	18.619
638.16	21.228
638.49	19.647
638.82	20.101
639.15	19.750
639.48	20.698
639.81	19.303
640.13	19.531
640.46	19.732
640.79	20.343
641.12	21.320
641.45	18.994
641.77	22.386
642.10	20.175
642.43	19.970
642.76	21.672
643.09	22.853
643.41	19.727
643.74	20.833
644.07	21.951
644.40	23.620
644.73	22.362
645.05	22.345
645.38	21.011
645.71	21.739
646.04	21.429
646.36	23.205
646.69	22.575
647.02	21.769
647.35	22.852
647.67	22.655
648.00	21.951
648.33	20.792
648.66	21.061
648.98	20.240
649.31	20.179
649.64	21.674
649.96	20.417
650.29	21.011
650.62	23.301
650.94	21.880
651.27	23.818
651.60	23.128
651.92	21.086
652.25	20.033
652.58	21.651
652.90	22.749
653.23	20.185
653.56	19.843
653.88	22.821
654.21	19.905
654.54	22.112
654.86	20.249
655.19	19.595
655.52	13.030
655.84	11.257
656.17	14.214
656.49	18.888
656.82	19.318
657.15	14.595
657.47	10.675
657.80	8.321
658.13	8.396
658.45	12.310
658.78	12.168
659.10	12.791
659.43	12.662
659.75	13.176
660.08	14.557
660.41	16.574
660.73	19.695
661.06	20.541
661.38	22.545
661.71	22.500
662.03	23.274
662.36	21.869
662.68	24.297
663.01	24.040
663.33	25.053
663.66	20.588
663.98	25.918
664.31	21.429
664.63	22.470
664.96	20.523
665.28	23.975
665.61	23.782
665.93	21.328
666.26	22.718
666.58	24.059
666.91	26.216
667.23	23.146
667.56	23.326
667.88	25.214
668.21	25.373
668.53	26.464
668.86	22.944
669.18	28.358
669.50	22.174
669.83	26.797
670.15	23.778
670.48	23.312
670.80	23.491
671.13	24.841
671.45	24.255
671.77	25.051
672.10	21.627
672.42	19.611
672.75	21.227
673.07	20.951
673.39	21.700
673.72	22.070
674.04	21.765
674.37	23.107
674.69	21.881
675.01	22.594
675.34	23.614
675.66	25.474
675.98	23.218
676.31	24.370
676.63	24.204
676.95	25.577
677.28	23.832
677.60	23.956
677.92	25.527
678.25	23.409
678.57	23.705
678.89	22.044
679.22	21.415
679.54	21.374
679.86	22.752
680.18	21.646
680.51	21.454
680.83	23.843
681.15	23.774
681.48	23.440
681.80	23.211
682.12	22.414
682.44	19.729
682.77	20.367
683.09	23.820
683.41	23.725
683.73	22.737
684.06	25.000
684.38	21.722
684.70	22.093
685.02	22.514
685.34	23.993
685.67	19.930
685.99	20.962
686.31	21.672
686.63	20.848
686.96	20.179
687.28	19.495
687.60	20.109
687.92	22.486
688.24	21.863
688.56	23.695
688.89	25.311
689.21	25.109
689.53	22.965
689.85	23.725
690.17	21.532
690.49	25.053
690.82	22.664
691.14	22.321
691.46	20.042
691.78	22.088
692.10	23.554
692.42	23.553
692.74	19.917
693.06	24.681
693.39	21.561
693.71	22.926
694.03	25.684
694.35	22.511
694.67	22.654
694.99	25.854
695.31	24.020
695.63	22.967
695.95	23.472
696.27	21.827
696.59	21.503
696.91	25.648
697.23	19.953
697.56	24.520
697.88	21.063
698.20	21.875
698.52	22.366
698.84	21.381
699.16	23.502
699.48	21.853
699.80	22.705
700.12	27.013
700.44	26.260
700.76	22.652
701.08	27.586
701.40	27.374
701.72	26.822
702.04	29.261
702.36	24.079
702.68	24.929
703.00	25.485
703.32	24.202
703.64	23.592
703.96	26.462
704.28	27.907
704.60	26.979
704.91	26.706
705.23	26.393
705.55	28.239
705.87	32.226
706.19	25.795
706.51	28.349
706.83	27.273
707.15	28.291
707.47	22.980
707.79	23.587
708.11	22.831
708.43	24.048
708.74	24.490
709.06	26.753
709.38	23.885
709.70	27.616
710.02	24.926
710.34	29.394
710.66	27.761
710.98	27.273
711.29	26.453
711.61	30.088
711.93	28.205
712.25	32.476
712.57	25.735
712.89	24.221
713.20	26.748
713.52	32.237
713.84	27.215
714.16	25.915
714.48	26.437
714.80	30.091
715.11	27.378
715.43	27.300
715.75	26.377
716.07	26.837
716.39	27.586
716.70	26.246
717.02	31.295
717.34	31.449
717.66	33.955
717.97	35.060
718.29	30.741
718.61	28.467
718.93	27.574
719.24	31.142
719.56	27.797
719.88	27.458
720.20	30.068
720.51	32.753
720.83	28.625
721.15	24.627
721.46	29.078
721.78	32.258
722.10	27.925
722.42	28.571
722.73	28.464
723.05	31.148
723.37	35.223
723.68	28.958
724.00	32.927
724.32	29.839
724.63	32.114
724.95	30.544
725.27	31.174
725.58	33.984
725.90	32.482
726.22	32.453
726.53	29.861
726.85	30.034
727.16	30.961
727.48	27.305
727.80	34.470
728.11	32.971
728.43	25.000
728.74	27.957
729.06	34.307
729.38	29.779
729.69	33.096
730.01	27.645
730.32	26.736
730.64	30.435
730.96	24.752
731.27	32.119
731.59	30.275
731.90	25.948
732.22	25.466
732.53	25.697
732.85	29.487
733.16	28.617
733.48	27.907
733.80	27.273
734.11	27.707
734.43	29.586
734.74	24.286
735.06	24.642
735.37	26.012
735.69	26.752
736.00	26.144
736.32	31.153
736.63	24.920
736.95	28.435
737.26	26.190
737.58	28.065
737.89	26.421
738.21	29.352
738.52	29.643
738.83	28.679
739.15	31.154
739.46	31.022
739.78	32.292
740.09	26.462
740.41	28.065
740.72	29.617
741.04	30.000
741.35	30.417
741.66	34.222
741.98	33.491
742.29	38.278
742.61	31.034
742.92	31.674
743.23	31.624
743.55	35.600
743.86	30.702
744.18	39.381
744.49	32.057
744.80	37.089
745.12	34.091
745.43	35.683
745.74	33.784
746.06	35.321
746.37	31.390
746.68	33.484
747.00	33.796
747.31	38.571
747.62	27.876
747.94	31.278
748.25	31.489
748.56	34.802
748.88	36.139
749.19	40.500
749.50	34.419
749.82	34.146
750.13	30.204
750.44	29.927
750.75	27.719
751.07	28.617
751.38	29.965
751.69	29.242
752.01	26.316
752.32	30.686
752.63	29.787
752.94	31.967
753.26	37.600
753.57	28.455
753.88	33.984
754.19	27.500
754.51	29.861
754.82	29.603
755.13	30.189
755.44	28.947
755.75	30.292
756.07	27.305
756.38	25.547
756.69	26.846
757.00	26.946
757.31	26.706
757.63	24.561
757.94	25.201
758.25	26.225
758.56	24.198
758.87	22.581
759.18	27.273
759.50	24.765
759.81	26.168
760.12	24.375
760.43	26.074
760.74	24.457
761.05	27.401
761.36	24.332
761.67	27.273
761.99	26.708
762.30	24.653
762.61	27.099
762.92	31.250
763.23	31.092
763.54	31.200
763.85	25.000
764.16	35.385
764.47	27.757
764.78	28.622
765.10	21.835
765.41	26.844
765.72	26.347
766.03	26.959
766.34	26.333
766.65	33.191
766.96	37.607
767.27	36.548
767.58	33.854
767.89	40.000
768.20	39.080
768.51	38.579
768.82	33.028
769.13	27.236
769.44	27.935
769.75	32.189
770.06	25.229
770.37	37.557
770.68	36.111
770.99	32.889
771.30	28.689
771.61	30.942
771.92	30.738
772.23	36.555
772.54	31.282
772.85	38.220
773.16	39.894
773.47	44.565
773.78	41.117
774.09	40.476
774.39	40.351
774.70	45.679
775.01	47.101
775.32	52.288
775.63	50.658
775.94	43.165
776.25	48.031
776.56	41.045
776.87	49.180
777.18	52.344
777.48	54.198
777.79	48.485
778.10	51.852
778.41	46.429
778.72	44.526
779.03	45.638
779.34	38.255
779.65	41.216
779.95	36.196
780.26	47.059
780.57	48.966
780.88	47.656
781.19	43.609
781.50	52.703
781.80	39.623
782.11	35.028
782.42	41.139
782.73	35.583
783.04	50.676
783.34	41.549
783.65	56.164
783.96	50.000
784.27	39.860
784.57	39.568
784.88	48.148
785.19	45.238
785.50	53.774
785.81	48.507
786.11	52.459
786.42	53.488
786.73	46.903
787.04	63.208
787.34	53.571
787.65	42.000
787.96	56.757
788.26	44.628
788.57	56.780
788.88	49.587
789.19	50.694
789.49	56.818
789.80	52.672
790.11	76.190
790.41	64.356
790.72	60.241
791.03	60.870
791.33	63.953
791.64	67.010
791.95	71.287
792.25	61.111
792.56	70.130
792.87	87.179
793.17	78.481
793.48	75.862
793.79	62.069
794.09	59.091
794.40	48.739
794.70	54.412
795.01	45.185
795.32	51.079
795.62	51.181
795.93	54.310
796.23	58.407
796.54	65.882
796.85	66.216
797.15	84.507
797.46	63.636
797.76	75.904
798.07	68.354
798.37	73.846
798.68	80.303
798.99	53.521
799.29	83.117
799.60	68.182
799.90	90.411
800.21	94.030
800.51	67.241
800.82	92.982
801.12	116.393
801.43	93.939
801.73	63.514
802.04	87.302
802.34	64.198
802.65	76.563
802.95	98.305
803.26	96.875
803.56	74.286
803.87	81.538
804.17	94.118
804.48	109.259
804.78	77.586
805.09	80.882
805.39	86.538
805.70	87.500
806.00	101.639
806.30	78.788
806.61	70.732
806.91	67.089
807.22	61.842
807.52	70.149
807.83	91.549
808.13	82.813
808.43	90.000
808.74	69.737
809.04	72.464
809.35	79.104
809.65	61.842
809.95	114.516
810.26	100.000
810.56	77.778
810.86	113.636
811.17	114.286
811.47	90.000
811.77	101.852
812.08	101.818
812.38	110.000
812.69	122.222
812.99	140.909
813.29	144.898
813.59	100.000
813.90	128.571
814.20	98.182
814.50	76.923
814.81	102.941
815.11	97.959
815.41	93.443
815.72	126.190
816.02	129.091
816.32	130.952
816.62	125.000
816.93	139.024
817.23	150.000
817.53	115.909
817.84	175.758
818.14	126.087
818.44	106.667
818.74	164.706
819.04	130.000
819.35	111.429
819.65	170.588
819.95	160.714
820.25	240.000
820.56	143.590
820.86	145.455
821.16	106.977
821.46	125.641
821.76	132.000
822.07	117.143
822.37	150.000
822.67	169.697
822.97	109.804
823.27	178.571
823.57	145.946
823.88	130.000
824.18	196.667
824.48	138.095
824.78	168.000
825.08	150.000
825.38	154.054
825.69	129.268
825.99	229.167
826.29	182.759
826.59	136.842
826.89	123.684
827.19	179.412
827.49	180.645
827.79	127.273
828.09	122.727
828.39	112.766
828.70	112.245
829.00	148.148
829.30	170.968
829.60	132.500
829.90	326.667
830.20	200.000
830.50	204.348
830.80	221.739
831.10	200.000
831.40	160.000
831.70	217.391
832.00	203.846
832.30	181.481
832.60	306.250
832.90	220.000
833.20	428.571
833.50	177.419
833.80	182.759
834.10	165.625
834.40	219.231
834.70	294.444
835.00	280.952
835.30	148.571
835.60	269.231
835.90	217.241
836.20	385.714
836.50	200.000
836.80	204.000
837.10	175.000
837.40	252.381
837.70	252.941
838.00	214.815
838.30	219.048
838.60	257.143
838.90	200.000
839.19	255.000
839.49	378.571
839.79	280.000
840.09	200.000
840.39	247.619
840.69	247.826
840.99	272.222
841.29	380.000
841.59	325.000
841.88	293.750
842.18	158.621
842.48	242.857
842.78	196.667
843.08	278.261
843.38	165.625
843.68	783.333
843.97	196.154
844.27	203.448
844.57	247.619
844.87	306.250
845.17	240.741
845.47	1366.667
845.76	388.889
846.06	264.706
846.36	387.500
846.66	364.286
846.96	212.500
847.25	390.909
847.55	363.636
847.85	230.435
848.15	500.000
848.44	335.714
848.74	250.000
849.04	347.059
849.34	550.000
849.63	268.421
849.93	327.273
850.23	880.000
850.53	371.429
850.82	2050.000
851.12	-3400.000
851.42	4100.000
851.71	255.000
852.01	-1366.667
852.31	266.667
852.61	1466.667
852.90	271.429
853.20	232.000
853.50	323.529
853.79	238.095
854.09	233.333
854.39	318.750
854.68	135.135
854.98	187.097
855.28	160.000
855.57	206.897
855.87	200.000
856.17	231.579
856.46	260.000
856.76	288.235
857.05	168.966
857.35	237.500
857.65	306.667
857.94	273.913
858.24	207.692
858.53	265.000
858.83	250.000
859.13	280.000
859.42	0.000
859.72	588.889
860.01	390.909
860.31	218.182
860.60	273.684
860.90	186.957
861.20	611.111
861.49	491.667
861.79	-2700.000
862.08	650.000
862.38	252.381
862.67	361.538
862.97	317.647
863.26	433.333
863.56	261.111
863.85	416.667
864.15	500.000
864.44	313.333
864.74	733.333
865.03	650.000
865.33	321.053
865.62	400.000
865.92	430.769
866.21	383.333
866.51	0.000
866.80	472.727
867.10	1040.000
867.39	407.692
867.69	400.000
867.98	236.842
868.27	472.727
868.57	284.211
868.86	-4200.000
869.16	306.250
869.45	2050.000
869.75	-3200.000
870.04	441.667
870.33	757.143
870.63	825.000
870.92	2150.000
871.22	614.286
871.51	347.059
871.80	242.857
872.10	328.571
>>>>>End Processed Spectral Data<<<<<
