SpectraSuite Data File
++++++++++++++++++++++++++++++++++++
Date: Wed May 13 20:30:51 PDT 2015
User: schluterlab
Dark Spectrum Present: Yes
Reference Spectrum Present: Yes
Number of Sampled Component Spectra: 1
Spectrometers: USB2E3373
Integration Time (usec): 3000 (USB2E3373)
Spectra Averaged: 3 (USB2E3373)
Boxcar Smoothing: 0 (USB2E3373)
Correct for Electrical Dark: No (USB2E3373)
Strobe/Lamp Enabled: No (USB2E3373)
Correct for Detector Non-linearity: No (USB2E3373)
Correct for Stray Light: No (USB2E3373)
Number of Pixels in Processed Spectrum: 2048
>>>>>Begin Processed Spectral Data<<<<<
178.53	0.000
178.91	-950.000
179.29	-1025.000
179.67	-177.778
180.04	-900.000
180.42	2150.000
180.80	840.000
181.18	-975.000
181.56	500.000
181.94	0.000
182.31	-557.143
182.69	1300.000
183.07	-300.000
183.45	-422.222
183.83	363.636
184.20	-330.000
184.58	1750.000
184.96	4700.000
185.34	-600.000
185.72	-487.500
186.09	-1750.000
186.47	1700.000
186.85	2000.000
187.23	3600.000
187.61	-1433.333
187.98	1225.000
188.36	454.545
188.74	509.091
189.12	-560.000
189.49	430.000
189.87	-3300.000
190.25	-1000.000
190.63	300.000
191.00	315.385
191.38	750.000
191.76	-1000.000
192.14	1025.000
192.51	562.500
192.89	666.667
193.27	487.500
193.65	-825.000
194.02	380.000
194.40	580.000
194.78	420.000
195.15	341.667
195.53	470.000
195.91	-1650.000
196.29	268.750
196.66	278.947
197.04	-340.000
197.42	0.000
197.79	420.000
198.17	-3900.000
198.55	442.857
198.92	537.500
199.30	700.000
199.68	0.000
200.05	255.556
200.43	557.143
200.81	3400.000
201.18	1000.000
201.56	-1433.333
201.94	466.667
202.31	433.333
202.69	341.667
203.07	410.000
203.44	0.000
203.82	850.000
204.19	614.286
204.57	407.143
204.95	500.000
205.32	900.000
205.70	409.091
206.08	328.571
206.45	1750.000
206.83	350.000
207.20	750.000
207.58	580.000
207.96	261.111
208.33	637.500
208.71	-650.000
209.08	571.429
209.46	533.333
209.84	372.727
210.21	-1333.333
210.59	950.000
210.96	-362.500
211.34	2000.000
211.71	450.000
212.09	683.333
212.46	0.000
212.84	1500.000
213.22	1125.000
213.59	-3300.000
213.97	650.000
214.34	628.571
214.72	372.727
215.09	740.000
215.47	-1650.000
215.84	-1300.000
216.22	1100.000
216.59	264.286
216.97	1050.000
217.34	309.091
217.72	-433.333
218.09	0.000
218.47	-2900.000
218.84	444.444
219.22	500.000
219.59	1466.667
219.97	-471.429
220.34	940.000
220.72	-1366.667
221.09	364.286
221.47	1175.000
221.84	-616.667
222.22	0.000
222.59	1125.000
222.97	-1650.000
223.34	760.000
223.72	284.615
224.09	1020.000
224.46	1800.000
224.84	-3900.000
225.21	-740.000
225.59	-3300.000
225.96	480.000
226.34	225.000
226.71	2100.000
227.08	437.500
227.46	490.000
227.83	-700.000
228.21	-1700.000
228.58	533.333
228.95	-1700.000
229.33	-1750.000
229.70	1433.333
230.08	714.286
230.45	-680.000
230.82	308.333
231.20	733.333
231.57	528.571
231.95	341.667
232.32	186.364
232.69	272.727
233.07	500.000
233.44	269.231
233.81	-1333.333
234.19	257.895
234.56	358.333
234.93	283.333
235.31	445.455
235.68	123.077
236.05	235.714
236.43	118.182
236.80	194.737
237.17	3300.000
237.55	152.381
237.92	157.143
238.29	200.000
238.67	158.065
239.04	131.034
239.41	116.667
239.79	78.261
240.16	90.476
240.53	88.636
240.91	82.353
241.28	70.000
241.65	72.000
242.02	84.058
242.40	64.516
242.77	58.333
243.14	61.290
243.51	64.045
243.89	47.059
244.26	58.889
244.63	48.387
245.00	39.362
245.38	44.554
245.75	40.187
246.12	33.945
246.49	40.876
246.87	42.400
247.24	31.538
247.61	32.857
247.98	30.719
248.36	25.676
248.73	29.936
249.10	32.484
249.47	31.638
249.84	31.551
250.22	27.807
250.59	28.402
250.96	30.303
251.33	28.910
251.70	29.208
252.08	25.714
252.45	22.422
252.82	22.174
253.19	22.553
253.56	22.745
253.94	22.407
254.31	23.437
254.68	21.923
255.05	21.033
255.42	21.545
255.79	18.750
256.16	24.188
256.54	19.788
256.91	22.064
257.28	18.705
257.65	21.782
258.02	21.739
258.39	19.874
258.76	18.395
259.14	17.560
259.51	17.933
259.88	20.497
260.25	20.242
260.62	18.497
260.99	19.255
261.36	19.219
261.73	16.332
262.10	17.733
262.47	16.338
262.85	17.549
263.22	15.670
263.59	19.373
263.96	16.758
264.33	19.321
264.70	17.368
265.07	18.670
265.44	16.667
265.81	13.869
266.18	16.332
266.55	18.780
266.92	15.971
267.29	15.972
267.66	14.450
268.03	16.136
268.40	14.019
268.77	13.126
269.14	14.414
269.51	16.479
269.88	15.152
270.25	14.898
270.62	16.404
270.99	18.065
271.36	14.807
271.73	13.084
272.10	14.783
272.47	16.344
272.84	16.017
273.21	16.771
273.58	12.664
273.95	13.836
274.32	14.256
274.69	13.704
275.06	13.976
275.43	14.468
275.80	14.830
276.17	12.831
276.54	15.800
276.91	13.241
277.28	13.672
277.65	14.507
278.02	13.665
278.39	14.648
278.76	14.727
279.13	14.717
279.50	13.594
279.87	12.351
280.23	14.371
280.60	12.766
280.97	12.939
281.34	14.867
281.71	15.818
282.08	13.052
282.45	12.000
282.82	12.433
283.19	11.943
283.56	11.754
283.92	14.044
284.29	12.346
284.66	13.067
285.03	11.573
285.40	12.852
285.77	11.953
286.14	12.263
286.51	12.333
286.87	12.479
287.24	11.889
287.61	13.323
287.98	12.500
288.35	11.886
288.72	11.526
289.08	13.302
289.45	12.685
289.82	13.171
290.19	9.576
290.56	12.098
290.93	11.480
291.29	10.890
291.66	11.799
292.03	13.953
292.40	12.482
292.77	10.207
293.13	10.000
293.50	11.808
293.87	10.815
294.24	8.889
294.60	8.443
294.97	10.756
295.34	11.848
295.71	12.216
296.08	11.111
296.44	10.041
296.81	9.643
297.18	11.518
297.55	9.367
297.91	9.631
298.28	11.111
298.65	11.619
299.02	9.618
299.38	10.491
299.75	6.873
300.12	9.195
300.48	9.875
300.85	9.001
301.22	10.318
301.59	9.848
301.95	9.572
302.32	9.628
302.69	9.797
303.05	9.939
303.42	9.506
303.79	9.287
304.15	7.692
304.52	8.922
304.89	10.221
305.25	8.701
305.62	9.966
305.99	9.563
306.35	8.166
306.72	9.305
307.09	9.545
307.45	11.149
307.82	9.152
308.19	10.486
308.55	11.111
308.92	10.204
309.29	9.187
309.65	9.120
310.02	9.831
310.38	9.785
310.75	9.398
311.12	10.542
311.48	9.927
311.85	11.006
312.22	10.718
312.58	10.395
312.95	9.926
313.31	9.320
313.68	10.915
314.05	12.327
314.41	10.754
314.78	10.775
315.14	11.321
315.51	11.329
315.87	11.188
316.24	10.924
316.61	11.988
316.97	11.350
317.34	11.350
317.70	13.671
318.07	12.416
318.43	13.112
318.80	13.871
319.16	14.689
319.53	12.946
319.89	14.571
320.26	14.300
320.62	14.980
320.99	15.253
321.35	15.354
321.72	16.940
322.08	15.597
322.45	18.209
322.81	18.120
323.18	17.630
323.54	17.718
323.91	19.151
324.27	18.642
324.64	17.614
325.00	20.108
325.37	19.108
325.73	20.557
326.10	21.536
326.46	20.341
326.83	21.829
327.19	22.118
327.56	21.080
327.92	23.447
328.29	22.626
328.65	23.573
329.01	23.466
329.38	24.514
329.74	24.469
330.11	24.788
330.47	25.436
330.84	25.735
331.20	25.956
331.56	26.422
331.93	25.833
332.29	25.732
332.66	26.549
333.02	27.422
333.38	28.004
333.75	27.094
334.11	27.402
334.48	27.950
334.84	27.390
335.20	27.818
335.57	28.015
335.93	26.875
336.29	29.304
336.66	29.035
337.02	28.959
337.38	29.167
337.75	28.431
338.11	29.006
338.47	28.913
338.84	29.698
339.20	29.358
339.56	30.748
339.93	29.000
340.29	29.076
340.65	30.036
341.02	29.407
341.38	30.961
341.74	28.070
342.11	29.432
342.47	30.132
342.83	29.195
343.20	30.130
343.56	27.885
343.92	29.474
344.28	30.357
344.65	30.353
345.01	28.367
345.37	29.160
345.73	30.457
346.10	28.645
346.46	29.153
346.82	28.501
347.19	28.739
347.55	28.325
347.91	28.398
348.27	29.992
348.63	29.348
349.00	28.074
349.36	28.900
349.72	27.907
350.08	28.363
350.45	28.885
350.81	27.376
351.17	29.498
351.53	26.536
351.89	27.805
352.26	29.045
352.62	27.666
352.98	27.229
353.34	28.677
353.70	27.332
354.07	27.177
354.43	26.905
354.79	28.158
355.15	25.858
355.51	28.217
355.87	28.980
356.24	28.013
356.60	27.506
356.96	28.158
357.32	26.002
357.68	27.165
358.04	28.029
358.40	28.029
358.77	28.013
359.13	28.019
359.49	27.059
359.85	25.635
360.21	27.671
360.57	26.693
360.93	26.846
361.29	26.606
361.66	25.310
362.02	25.672
362.38	26.920
362.74	26.265
363.10	26.055
363.46	26.632
363.82	27.286
364.18	26.652
364.54	27.043
364.90	26.629
365.26	26.250
365.62	25.931
365.98	25.493
366.35	25.215
366.71	25.958
367.07	25.637
367.43	25.399
367.79	26.124
368.15	26.868
368.51	26.090
368.87	25.482
369.23	26.262
369.59	26.140
369.95	26.103
370.31	24.929
370.67	25.290
371.03	25.843
371.39	27.259
371.75	26.250
372.11	25.178
372.47	25.293
372.83	25.793
373.19	24.205
373.55	25.055
373.91	26.362
374.27	25.086
374.63	24.145
374.99	25.636
375.35	24.703
375.71	24.674
376.07	25.034
376.42	25.653
376.78	25.646
377.14	25.577
377.50	25.497
377.86	24.535
378.22	25.032
378.58	23.246
378.94	24.199
379.30	24.746
379.66	25.190
380.02	25.799
380.38	24.712
380.74	25.450
381.09	24.572
381.45	24.216
381.81	24.263
382.17	25.478
382.53	24.717
382.89	25.185
383.25	24.015
383.61	24.845
383.97	24.828
384.32	24.579
384.68	23.606
385.04	23.479
385.40	23.344
385.76	23.649
386.12	24.611
386.48	24.733
386.83	25.144
387.19	25.603
387.55	24.428
387.91	24.184
388.27	23.360
388.62	23.725
388.98	24.140
389.34	24.593
389.70	23.605
390.06	24.968
390.42	24.384
390.77	23.410
391.13	24.569
391.49	24.556
391.85	24.061
392.20	23.028
392.56	23.990
392.92	23.661
393.28	22.367
393.64	24.640
393.99	25.168
394.35	23.883
394.71	22.836
395.07	23.988
395.42	23.609
395.78	23.346
396.14	23.898
396.50	24.687
396.85	24.603
397.21	23.366
397.57	23.311
397.92	24.038
398.28	23.206
398.64	24.194
399.00	23.111
399.35	22.843
399.71	22.627
400.07	23.063
400.42	23.926
400.78	23.341
401.14	23.415
401.49	23.284
401.85	23.654
402.21	22.934
402.57	22.949
402.92	22.636
403.28	24.047
403.63	22.896
403.99	23.057
404.35	22.970
404.70	22.902
405.06	22.365
405.42	22.895
405.77	22.857
406.13	21.614
406.49	22.708
406.84	23.154
407.20	22.104
407.55	22.719
407.91	23.667
408.27	22.782
408.62	22.998
408.98	22.488
409.34	23.801
409.69	23.484
410.05	22.305
410.40	23.058
410.76	22.581
411.11	22.256
411.47	22.428
411.83	23.335
412.18	21.954
412.54	23.163
412.89	22.651
413.25	22.963
413.60	23.718
413.96	22.951
414.31	23.451
414.67	23.321
415.03	22.914
415.38	23.196
415.74	22.637
416.09	24.102
416.45	23.025
416.80	22.736
417.16	23.324
417.51	22.893
417.87	22.800
418.22	23.028
418.58	23.241
418.93	23.342
419.29	22.533
419.64	23.615
420.00	22.805
420.35	23.594
420.71	23.431
421.06	22.792
421.42	22.632
421.77	22.814
422.12	22.965
422.48	21.587
422.83	23.471
423.19	23.094
423.54	23.389
423.90	23.072
424.25	23.283
424.61	22.619
424.96	22.624
425.31	23.477
425.67	22.472
426.02	23.371
426.38	24.054
426.73	22.820
427.09	23.100
427.44	22.714
427.79	23.692
428.15	24.286
428.50	23.347
428.85	24.553
429.21	24.186
429.56	23.224
429.92	22.949
430.27	22.244
430.62	22.837
430.98	22.989
431.33	23.351
431.68	23.874
432.04	23.802
432.39	23.244
432.74	23.698
433.10	24.731
433.45	23.673
433.80	23.282
434.16	23.504
434.51	23.947
434.86	24.743
435.22	23.958
435.57	24.316
435.92	24.517
436.28	25.386
436.63	24.945
436.98	24.098
437.34	25.164
437.69	25.496
438.04	24.340
438.39	25.254
438.75	24.811
439.10	24.358
439.45	24.970
439.81	24.411
440.16	24.167
440.51	25.483
440.86	25.651
441.22	24.249
441.57	24.841
441.92	25.179
442.27	26.050
442.63	24.487
442.98	26.197
443.33	24.946
443.68	25.761
444.03	25.525
444.39	25.706
444.74	25.703
445.09	25.876
445.44	26.299
445.79	26.225
446.15	26.522
446.50	25.740
446.85	26.721
447.20	26.517
447.55	27.192
447.91	26.531
448.26	26.711
448.61	26.456
448.96	26.633
449.31	27.053
449.66	27.012
450.02	26.407
450.37	27.324
450.72	26.283
451.07	25.655
451.42	26.930
451.77	27.481
452.12	26.732
452.47	28.047
452.83	27.972
453.18	27.200
453.53	29.190
453.88	28.175
454.23	28.033
454.58	28.649
454.93	28.353
455.28	27.681
455.63	28.277
455.98	29.583
456.34	29.146
456.69	28.428
457.04	29.164
457.39	29.106
457.74	27.974
458.09	28.465
458.44	28.335
458.79	28.416
459.14	30.192
459.49	29.364
459.84	28.532
460.19	28.992
460.54	28.588
460.89	28.524
461.24	29.387
461.59	30.157
461.94	29.223
462.29	29.852
462.64	29.675
462.99	29.473
463.34	30.467
463.69	29.331
464.04	30.029
464.39	30.145
464.74	30.184
465.09	29.554
465.44	29.307
465.79	29.418
466.14	29.283
466.49	29.533
466.84	29.539
467.19	30.115
467.54	30.938
467.89	30.552
468.24	30.425
468.59	30.586
468.94	29.811
469.29	30.784
469.64	30.723
469.99	30.311
470.34	29.128
470.68	30.819
471.03	30.612
471.38	31.619
471.73	31.179
472.08	30.987
472.43	31.344
472.78	30.349
473.13	31.836
473.48	31.211
473.83	30.976
474.17	30.741
474.52	30.893
474.87	31.640
475.22	31.283
475.57	30.790
475.92	31.333
476.27	30.722
476.61	31.054
476.96	30.016
477.31	31.659
477.66	31.729
478.01	30.737
478.36	31.412
478.70	31.153
479.05	31.044
479.40	31.423
479.75	31.215
480.10	30.765
480.45	31.652
480.79	30.578
481.14	31.018
481.49	31.609
481.84	31.001
482.19	31.213
482.53	31.284
482.88	31.596
483.23	31.355
483.58	31.620
483.92	31.631
484.27	30.806
484.62	31.724
484.97	30.627
485.31	31.096
485.66	29.449
486.01	29.311
486.36	29.455
486.70	29.941
487.05	29.905
487.40	30.567
487.75	30.531
488.09	30.695
488.44	30.587
488.79	31.284
489.13	31.627
489.48	31.729
489.83	31.679
490.17	31.872
490.52	32.064
490.87	31.434
491.22	31.969
491.56	31.572
491.91	32.713
492.26	31.971
492.60	31.751
492.95	31.431
493.30	32.150
493.64	32.011
493.99	32.451
494.34	32.424
494.68	32.555
495.03	33.177
495.37	32.573
495.72	32.212
496.07	33.039
496.41	32.124
496.76	32.586
497.11	32.508
497.45	32.790
497.80	33.397
498.14	32.512
498.49	33.707
498.84	33.365
499.18	32.762
499.53	32.811
499.87	32.992
500.22	33.537
500.56	33.786
500.91	32.356
501.26	33.144
501.60	33.318
501.95	32.172
502.29	33.365
502.64	33.287
502.98	33.053
503.33	32.907
503.67	33.828
504.02	32.928
504.36	33.318
504.71	33.268
505.06	33.253
505.40	32.815
505.75	32.690
506.09	32.459
506.44	33.596
506.78	33.122
507.13	33.821
507.47	33.384
507.82	34.347
508.16	33.891
508.51	34.652
508.85	33.913
509.19	34.082
509.54	33.878
509.88	33.952
510.23	33.728
510.57	35.088
510.92	35.060
511.26	34.378
511.61	34.025
511.95	32.463
512.30	34.624
512.64	34.659
512.98	33.762
513.33	34.208
513.67	34.045
514.02	33.117
514.36	34.517
514.70	35.418
515.05	33.798
515.39	34.549
515.74	34.572
516.08	34.321
516.42	34.906
516.77	35.452
517.11	34.295
517.46	35.158
517.80	35.308
518.14	34.395
518.49	36.231
518.83	33.977
519.17	35.046
519.52	34.578
519.86	35.311
520.20	35.549
520.55	36.086
520.89	35.645
521.23	37.033
521.58	35.354
521.92	35.334
522.26	34.045
522.61	35.389
522.95	34.868
523.29	36.032
523.64	35.610
523.98	35.736
524.32	35.645
524.66	35.298
525.01	36.029
525.35	35.626
525.69	35.961
526.04	34.953
526.38	35.387
526.72	35.951
527.06	36.158
527.41	34.530
527.75	35.884
528.09	36.416
528.43	35.946
528.78	36.079
529.12	35.030
529.46	36.069
529.80	35.705
530.15	35.950
530.49	34.646
530.83	36.076
531.17	37.337
531.51	36.900
531.86	36.258
532.20	37.093
532.54	35.874
532.88	36.393
533.22	35.728
533.57	36.481
533.91	35.641
534.25	35.905
534.59	35.754
534.93	34.801
535.27	36.693
535.62	36.264
535.96	36.911
536.30	35.791
536.64	35.995
536.98	37.226
537.32	35.945
537.66	36.400
538.01	35.681
538.35	37.233
538.69	36.822
539.03	36.517
539.37	34.633
539.71	35.126
540.05	36.144
540.39	35.947
540.73	35.964
541.07	36.145
541.42	36.725
541.76	37.871
542.10	37.257
542.44	36.623
542.78	37.549
543.12	35.125
543.46	37.180
543.80	37.150
544.14	36.329
544.48	36.571
544.82	36.947
545.16	37.020
545.50	36.632
545.84	36.290
546.18	36.970
546.52	37.646
546.86	36.701
547.20	37.357
547.54	37.609
547.88	36.416
548.22	34.994
548.56	36.164
548.90	36.300
549.24	36.229
549.58	35.334
549.92	35.714
550.26	36.577
550.60	36.238
550.94	36.127
551.28	35.918
551.62	37.743
551.96	35.860
552.30	37.543
552.64	36.511
552.98	36.475
553.32	36.615
553.66	37.900
554.00	36.857
554.34	36.094
554.68	37.196
555.02	37.377
555.36	36.326
555.69	35.318
556.03	36.272
556.37	37.653
556.71	35.471
557.05	36.905
557.39	37.859
557.73	36.697
558.07	37.056
558.41	37.048
558.75	36.223
559.08	37.882
559.42	38.020
559.76	37.206
560.10	35.261
560.44	36.618
560.78	36.194
561.12	37.335
561.45	37.288
561.79	37.442
562.13	37.022
562.47	37.227
562.81	38.006
563.15	36.388
563.48	36.406
563.82	36.595
564.16	36.756
564.50	36.914
564.84	37.168
565.17	35.907
565.51	37.700
565.85	37.056
566.19	36.068
566.52	37.365
566.86	35.744
567.20	37.264
567.54	36.416
567.88	35.850
568.21	35.926
568.55	36.047
568.89	35.895
569.23	35.160
569.56	34.494
569.90	34.679
570.24	35.199
570.57	34.852
570.91	33.775
571.25	34.188
571.59	34.109
571.92	33.612
572.26	34.431
572.60	34.444
572.93	34.453
573.27	33.807
573.61	34.450
573.95	34.109
574.28	34.121
574.62	33.746
574.96	33.835
575.29	34.166
575.63	33.918
575.97	33.819
576.30	33.909
576.64	33.536
576.98	33.447
577.31	33.711
577.65	33.659
577.98	33.756
578.32	33.141
578.66	34.004
578.99	33.942
579.33	34.350
579.67	33.909
580.00	33.901
580.34	33.887
580.67	33.609
581.01	33.911
581.35	33.197
581.68	33.588
582.02	33.567
582.35	34.033
582.69	33.921
583.02	34.170
583.36	34.379
583.70	34.540
584.03	34.300
584.37	34.387
584.70	34.509
585.04	33.929
585.37	34.180
585.71	34.352
586.04	34.574
586.38	34.875
586.72	35.211
587.05	34.366
587.39	33.694
587.72	34.939
588.06	34.552
588.39	34.979
588.73	34.761
589.06	35.743
589.40	34.714
589.73	35.903
590.07	35.872
590.40	35.002
590.73	35.714
591.07	36.793
591.40	35.850
591.74	37.186
592.07	35.995
592.41	36.255
592.74	35.131
593.08	35.676
593.41	34.325
593.75	34.884
594.08	35.568
594.41	35.065
594.75	36.044
595.08	35.755
595.42	36.392
595.75	35.719
596.09	36.500
596.42	35.324
596.75	37.273
597.09	36.926
597.42	35.245
597.75	36.869
598.09	36.478
598.42	36.168
598.76	35.266
599.09	35.500
599.42	35.262
599.76	35.578
600.09	35.264
600.42	35.427
600.76	35.500
601.09	35.701
601.42	35.693
601.76	35.636
602.09	35.692
602.42	36.385
602.76	35.994
603.09	36.192
603.42	36.158
603.76	35.137
604.09	36.526
604.42	36.241
604.76	36.314
605.09	35.387
605.42	35.827
605.75	37.003
606.09	35.990
606.42	36.044
606.75	35.628
607.09	35.663
607.42	36.371
607.75	35.443
608.08	36.257
608.42	36.844
608.75	36.114
609.08	35.430
609.41	36.411
609.75	35.731
610.08	37.276
610.41	37.291
610.74	37.323
611.07	37.796
611.41	37.341
611.74	37.406
612.07	38.768
612.40	37.618
612.73	36.947
613.07	37.716
613.40	37.072
613.73	36.812
614.06	36.828
614.39	36.864
614.72	37.737
615.06	37.132
615.39	36.730
615.72	36.094
616.05	37.321
616.38	37.521
616.71	37.411
617.05	38.810
617.38	36.621
617.71	37.778
618.04	38.101
618.37	38.557
618.70	38.270
619.03	37.697
619.36	38.086
619.69	38.944
620.03	38.187
620.36	38.102
620.69	39.521
621.02	38.201
621.35	39.624
621.68	39.019
622.01	39.164
622.34	39.486
622.67	38.403
623.00	38.078
623.33	38.027
623.66	39.171
623.99	39.691
624.32	39.230
624.65	38.559
624.99	37.323
625.32	37.944
625.65	39.219
625.98	39.816
626.31	40.047
626.64	40.000
626.97	40.565
627.30	38.487
627.63	38.802
627.96	40.538
628.29	40.682
628.62	39.982
628.95	40.755
629.28	41.241
629.61	39.872
629.94	41.048
630.26	39.466
630.59	42.135
630.92	40.900
631.25	39.980
631.58	40.941
631.91	39.655
632.24	41.245
632.57	40.399
632.90	40.789
633.23	42.170
633.56	42.373
633.89	40.997
634.22	40.636
634.55	43.314
634.88	41.677
635.20	41.577
635.53	42.169
635.86	41.584
636.19	42.824
636.52	41.984
636.85	39.977
637.18	41.244
637.51	42.435
637.83	40.197
638.16	43.223
638.49	42.065
638.82	43.110
639.15	42.375
639.48	42.394
639.81	41.957
640.13	42.318
640.46	41.879
640.79	42.404
641.12	42.366
641.45	42.877
641.77	43.299
642.10	43.275
642.43	42.943
642.76	43.653
643.09	45.245
643.41	43.247
643.74	42.438
644.07	44.207
644.40	45.245
644.73	43.465
645.05	44.849
645.38	42.654
645.71	41.868
646.04	45.515
646.36	46.077
646.69	42.475
647.02	42.517
647.35	45.361
647.67	43.363
648.00	43.252
648.33	43.234
648.66	42.273
648.98	43.028
649.31	43.049
649.64	42.601
649.96	43.517
650.29	43.918
650.62	40.129
650.94	44.408
651.27	46.622
651.60	44.426
651.92	43.131
652.25	41.042
652.58	42.835
652.90	44.708
653.23	42.219
653.56	43.622
653.88	43.740
654.21	42.970
654.54	41.914
654.86	42.835
655.19	40.676
655.52	31.441
655.84	29.826
656.17	37.879
656.49	51.345
656.82	52.334
657.15	39.959
657.47	29.752
657.80	22.835
658.13	23.389
658.45	35.049
658.78	35.098
659.10	36.152
659.43	37.509
659.75	36.847
660.08	38.797
660.41	40.223
660.73	43.202
661.06	43.631
661.38	44.909
661.71	45.000
662.03	45.759
662.36	44.533
662.68	43.574
663.01	44.848
663.33	46.921
663.66	46.008
663.98	44.924
664.31	44.328
664.63	42.308
664.96	41.650
665.28	44.057
665.61	44.055
665.93	44.064
666.26	44.828
666.58	46.444
666.91	47.992
667.23	46.966
667.56	44.060
667.88	44.231
668.21	45.629
668.53	45.553
668.86	44.156
669.18	49.467
669.50	44.783
669.83	48.366
670.15	47.556
670.48	44.444
670.80	46.552
671.13	45.011
671.45	43.191
671.77	44.807
672.10	44.547
672.42	41.519
672.75	41.625
673.07	44.014
673.39	41.410
673.72	43.750
674.04	44.902
674.37	41.942
674.69	43.149
675.01	42.678
675.34	44.764
675.66	44.421
675.98	45.418
676.31	46.849
676.63	45.011
676.95	45.912
677.28	46.495
677.60	44.835
677.92	45.781
678.25	46.201
678.57	45.020
678.89	44.088
679.22	40.472
679.54	45.611
679.86	45.505
680.18	41.860
680.51	43.617
680.83	41.459
681.15	43.396
681.48	42.911
681.80	44.294
682.12	39.847
682.44	40.812
682.77	43.381
683.09	45.708
683.41	45.011
683.73	45.475
684.06	44.835
684.38	43.640
684.70	42.829
685.02	44.090
685.34	42.308
685.67	38.986
685.99	39.863
686.31	41.468
686.63	39.223
686.96	41.250
687.28	39.350
687.60	39.493
687.92	43.327
688.24	41.065
688.56	44.980
688.89	44.191
689.21	46.943
689.53	43.424
689.85	44.346
690.17	39.959
690.49	44.798
690.82	45.327
691.14	41.518
691.46	42.616
691.78	43.373
692.10	42.562
692.42	43.912
692.74	39.627
693.06	43.404
693.39	43.737
693.71	44.541
694.03	41.895
694.35	42.424
694.67	43.021
694.99	45.366
695.31	40.196
695.63	43.541
695.95	44.499
696.27	43.401
696.59	47.409
696.91	43.264
697.23	42.254
697.56	43.497
697.88	36.810
698.20	39.375
698.52	41.290
698.84	41.648
699.16	43.318
699.48	42.043
699.80	42.029
700.12	47.273
700.44	47.480
700.76	46.409
701.08	43.103
701.40	41.341
701.72	51.603
702.04	50.568
702.36	43.343
702.68	46.176
703.00	44.044
703.32	42.819
703.64	43.968
703.96	44.011
704.28	45.349
704.60	48.094
704.91	45.697
705.23	45.455
705.55	51.827
705.87	50.831
706.19	47.703
706.51	48.598
706.83	43.939
707.15	46.499
707.47	40.909
707.79	45.455
708.11	42.694
708.43	41.667
708.74	41.837
709.06	43.636
709.38	44.357
709.70	47.965
710.02	46.884
710.34	43.333
710.66	44.478
710.98	46.307
711.29	44.767
711.61	44.838
711.93	45.192
712.25	50.482
712.57	49.265
712.89	45.675
713.20	44.681
713.52	44.079
713.84	45.886
714.16	41.768
714.48	42.816
714.80	52.280
715.11	46.974
715.43	43.917
715.75	42.609
716.07	45.048
716.39	45.768
716.70	49.502
717.02	47.482
717.34	45.583
717.66	50.373
717.97	51.394
718.29	45.185
718.61	50.730
718.93	47.794
719.24	46.021
719.56	47.119
719.88	50.847
720.20	47.973
720.51	51.568
720.83	49.071
721.15	45.149
721.46	46.454
721.78	47.312
722.10	51.321
722.42	46.617
722.73	43.071
723.05	47.951
723.37	47.773
723.68	49.421
724.00	50.000
724.32	52.016
724.63	45.122
724.95	47.280
725.27	53.036
725.58	50.000
725.90	48.905
726.22	45.283
726.53	44.097
726.85	47.782
727.16	44.128
727.48	42.908
727.80	46.970
728.11	48.551
728.43	48.462
728.74	47.670
729.06	47.080
729.38	50.368
729.69	51.957
730.01	43.686
730.32	43.056
730.64	40.803
730.96	42.904
731.27	45.695
731.59	46.789
731.90	44.023
732.22	41.304
732.53	46.130
732.85	47.115
733.16	45.659
733.48	42.857
733.80	44.805
734.11	47.771
734.43	39.349
734.74	38.571
735.06	45.272
735.37	43.931
735.69	42.357
736.00	44.444
736.32	45.171
736.63	43.770
736.95	40.575
737.26	38.435
737.58	41.935
737.89	44.147
738.21	47.440
738.52	44.643
738.83	40.000
739.15	42.692
739.46	52.190
739.78	46.875
740.09	43.077
740.41	44.194
740.72	40.418
741.04	44.815
741.35	49.167
741.66	52.000
741.98	52.358
742.29	50.239
742.61	49.569
742.92	48.869
743.23	47.863
743.55	48.800
743.86	46.930
744.18	43.805
744.49	49.282
744.80	53.052
745.12	53.182
745.43	47.577
745.74	48.649
746.06	44.495
746.37	49.327
746.68	51.584
747.00	56.481
747.31	55.238
747.62	44.248
747.94	51.542
748.25	44.681
748.56	51.982
748.88	49.505
749.19	56.500
749.50	49.302
749.82	45.122
750.13	39.592
750.44	44.891
750.75	47.018
751.07	43.730
751.38	43.554
751.69	45.487
752.01	41.729
752.32	42.960
752.63	43.972
752.94	50.000
753.26	46.800
753.57	41.870
753.88	45.312
754.19	46.071
754.51	45.139
754.82	46.570
755.13	44.906
755.44	45.865
755.75	39.051
756.07	40.426
756.38	41.971
756.69	44.966
757.00	39.222
757.31	37.389
757.63	41.228
757.94	39.142
758.25	36.520
758.56	36.296
758.87	37.097
759.18	42.727
759.50	38.871
759.81	43.302
760.12	40.625
760.43	43.553
760.74	38.587
761.05	40.960
761.36	37.701
761.67	40.909
761.99	39.752
762.30	39.583
762.61	43.511
762.92	44.141
763.23	43.277
763.54	43.200
763.85	43.750
764.16	45.385
764.47	43.726
764.78	39.929
765.10	37.975
765.41	38.643
765.72	41.317
766.03	40.439
766.34	46.333
766.65	43.404
766.96	44.017
767.27	47.716
767.58	47.917
767.89	50.526
768.20	51.149
768.51	50.254
768.82	45.413
769.13	45.528
769.44	39.676
769.75	44.635
770.06	37.615
770.37	45.701
770.68	41.667
770.99	44.889
771.30	40.164
771.61	48.879
771.92	43.033
772.23	47.479
772.54	49.231
772.85	50.785
773.16	50.532
773.47	52.174
773.78	52.792
774.09	52.381
774.39	51.462
774.70	46.914
775.01	60.145
775.32	56.209
775.63	57.237
775.94	57.554
776.25	62.992
776.56	57.463
776.87	53.279
777.18	65.625
777.48	64.885
777.79	54.545
778.10	60.000
778.41	67.857
778.72	61.314
779.03	59.060
779.34	51.678
779.65	54.054
779.95	51.534
780.26	62.745
780.57	57.241
780.88	66.406
781.19	56.391
781.50	55.405
781.80	52.201
782.11	50.282
782.42	46.835
782.73	48.466
783.04	50.676
783.34	52.817
783.65	63.699
783.96	55.224
784.27	53.147
784.57	51.079
784.88	45.370
785.19	57.937
785.50	52.830
785.81	63.433
786.11	68.033
786.42	55.814
786.73	59.292
787.04	63.208
787.34	64.286
787.65	77.000
787.96	56.757
788.26	58.678
788.57	66.949
788.88	68.595
789.19	54.167
789.49	57.576
789.80	56.489
790.11	81.905
790.41	72.277
790.72	78.313
791.03	69.565
791.33	72.093
791.64	58.763
791.95	56.436
792.25	71.111
792.56	76.623
792.87	87.179
793.17	79.747
793.48	71.264
793.79	66.667
794.09	70.455
794.40	69.748
794.70	56.618
795.01	60.000
795.32	59.712
795.62	54.331
795.93	59.483
796.23	54.867
796.54	65.882
796.85	66.216
797.15	87.324
797.46	75.758
797.76	85.542
798.07	72.152
798.37	81.538
798.68	72.727
798.99	71.831
799.29	64.935
799.60	63.636
799.90	75.342
800.21	92.537
800.51	82.759
800.82	92.982
801.12	91.803
801.43	90.909
801.73	77.027
802.04	101.587
802.34	66.667
802.65	93.750
802.95	98.305
803.26	93.750
803.56	77.143
803.87	70.769
804.17	86.765
804.48	112.963
804.78	74.138
805.09	91.176
805.39	88.462
805.70	85.714
806.00	100.000
806.30	62.121
806.61	76.829
806.91	74.684
807.22	71.053
807.52	64.179
807.83	84.507
808.13	90.625
808.43	91.667
808.74	77.632
809.04	82.609
809.35	86.567
809.65	78.947
809.95	109.677
810.26	86.441
810.56	77.778
810.86	122.727
811.17	116.667
811.47	93.333
811.77	109.259
812.08	94.545
812.38	96.000
812.69	141.667
812.99	131.818
813.29	120.408
813.59	97.619
813.90	120.408
814.20	87.273
814.50	83.077
814.81	89.706
815.11	120.408
815.41	83.607
815.72	111.905
816.02	100.000
816.32	123.810
816.62	107.500
816.93	136.585
817.23	123.810
817.53	122.727
817.84	142.424
818.14	108.696
818.44	117.778
818.74	129.412
819.04	125.000
819.35	122.857
819.65	155.882
819.95	150.000
820.25	195.000
820.56	141.026
820.86	95.455
821.16	113.953
821.46	130.769
821.76	124.000
822.07	140.000
822.37	120.000
822.67	106.061
822.97	84.314
823.27	185.714
823.57	162.162
823.88	165.000
824.18	160.000
824.48	142.857
824.78	172.000
825.08	187.500
825.38	132.432
825.69	119.512
825.99	183.333
826.29	141.379
826.59	163.158
826.89	105.263
827.19	138.235
827.49	174.194
827.79	150.000
828.09	115.909
828.39	106.383
828.70	102.041
829.00	137.037
829.30	112.903
829.60	107.500
829.90	166.667
830.20	160.714
830.50	152.174
830.80	200.000
831.10	160.000
831.40	146.667
831.70	152.174
832.00	184.615
832.30	188.889
832.60	237.500
832.90	170.000
833.20	385.714
833.50	164.516
833.80	162.069
834.10	153.125
834.40	203.846
834.70	288.889
835.00	257.143
835.30	154.286
835.60	253.846
835.90	162.069
836.20	342.857
836.50	182.759
836.80	208.000
837.10	138.889
837.40	219.048
837.70	311.765
838.00	192.593
838.30	223.810
838.60	238.095
838.90	169.231
839.19	200.000
839.49	285.714
839.79	265.000
840.09	255.000
840.39	190.476
840.69	226.087
840.99	283.333
841.29	460.000
841.59	266.667
841.88	281.250
842.18	151.724
842.48	233.333
842.78	180.000
843.08	195.652
843.38	156.250
843.68	633.333
843.97	196.154
844.27	141.379
844.57	228.571
844.87	262.500
845.17	151.852
845.47	1333.333
845.76	577.778
846.06	211.765
846.36	475.000
846.66	300.000
846.96	225.000
847.25	290.909
847.55	318.182
847.85	256.522
848.15	380.000
848.44	278.571
848.74	266.667
849.04	211.765
849.34	450.000
849.63	200.000
849.93	336.364
850.23	740.000
850.53	314.286
850.82	2250.000
851.12	-3600.000
851.42	4000.000
851.71	230.000
852.01	-833.333
852.31	183.333
852.61	1366.667
852.90	204.762
853.20	172.000
853.50	223.529
853.79	204.762
854.09	137.500
854.39	268.750
854.68	145.946
854.98	154.839
855.28	156.667
855.57	162.069
855.87	159.259
856.17	231.579
856.46	240.000
856.76	211.765
857.05	179.310
857.35	200.000
857.65	306.667
857.94	213.043
858.24	196.154
858.53	230.000
858.83	195.455
859.13	293.333
859.42	0.000
859.72	411.111
860.01	290.909
860.31	227.273
860.60	194.737
860.90	221.739
861.20	477.778
861.49	475.000
861.79	-4600.000
862.08	437.500
862.38	214.286
862.67	292.308
862.97	241.176
863.26	411.111
863.56	216.667
863.85	308.333
864.15	487.500
864.44	306.667
864.74	850.000
865.03	575.000
865.33	300.000
865.62	427.273
865.92	338.462
866.21	325.000
866.51	0.000
866.80	436.364
867.10	740.000
867.39	369.231
867.69	372.727
867.98	242.105
868.27	381.818
868.57	242.105
868.86	-3400.000
869.16	281.250
869.45	2100.000
869.75	-3200.000
870.04	316.667
870.33	528.571
870.63	750.000
870.92	2200.000
871.22	528.571
871.51	235.294
871.80	157.143
872.10	300.000
>>>>>End Processed Spectral Data<<<<<
