SpectraSuite Data File
++++++++++++++++++++++++++++++++++++
Date: Wed May 13 20:35:35 PDT 2015
User: schluterlab
Dark Spectrum Present: Yes
Reference Spectrum Present: Yes
Number of Sampled Component Spectra: 1
Spectrometers: USB2E3373
Integration Time (usec): 3000 (USB2E3373)
Spectra Averaged: 3 (USB2E3373)
Boxcar Smoothing: 0 (USB2E3373)
Correct for Electrical Dark: No (USB2E3373)
Strobe/Lamp Enabled: No (USB2E3373)
Correct for Detector Non-linearity: No (USB2E3373)
Correct for Stray Light: No (USB2E3373)
Number of Pixels in Processed Spectrum: 2048
>>>>>Begin Processed Spectral Data<<<<<
178.53	0.000
178.91	-975.000
179.29	-875.000
179.67	-88.889
180.04	-1125.000
180.42	1700.000
180.80	820.000
181.18	-875.000
181.56	357.143
181.94	0.000
182.31	-485.714
182.69	1366.667
183.07	-325.000
183.45	-422.222
183.83	454.545
184.20	-270.000
184.58	1550.000
184.96	3700.000
185.34	-680.000
185.72	-400.000
186.09	-1850.000
186.47	1400.000
186.85	1850.000
187.23	4200.000
187.61	-1133.333
187.98	925.000
188.36	490.909
188.74	472.727
189.12	-540.000
189.49	430.000
189.87	-3200.000
190.25	-725.000
190.63	278.571
191.00	276.923
191.38	550.000
191.76	-775.000
192.14	900.000
192.51	550.000
192.89	783.333
193.27	425.000
193.65	-850.000
194.02	370.000
194.40	620.000
194.78	360.000
195.15	366.667
195.53	450.000
195.91	-1650.000
196.29	256.250
196.66	168.421
197.04	-210.000
197.42	0.000
197.79	480.000
198.17	-2400.000
198.55	557.143
198.92	500.000
199.30	700.000
199.68	0.000
200.05	294.444
200.43	542.857
200.81	4100.000
201.18	1433.333
201.56	-700.000
201.94	444.444
202.31	377.778
202.69	283.333
203.07	370.000
203.44	0.000
203.82	1100.000
204.19	600.000
204.57	321.429
204.95	462.500
205.32	1233.333
205.70	345.455
206.08	278.571
206.45	1350.000
206.83	281.250
207.20	750.000
207.58	540.000
207.96	227.778
208.33	525.000
208.71	-566.667
209.08	614.286
209.46	400.000
209.84	290.909
210.21	-933.333
210.59	1200.000
210.96	-300.000
211.34	1800.000
211.71	490.000
212.09	600.000
212.46	0.000
212.84	1533.333
213.22	725.000
213.59	-3300.000
213.97	766.667
214.34	700.000
214.72	354.545
215.09	560.000
215.47	-1550.000
215.84	-1500.000
216.22	800.000
216.59	250.000
216.97	900.000
217.34	345.455
217.72	-483.333
218.09	0.000
218.47	-3200.000
218.84	577.778
219.22	471.429
219.59	1300.000
219.97	-442.857
220.34	580.000
220.72	-1400.000
221.09	257.143
221.47	1075.000
221.84	-700.000
222.22	0.000
222.59	1100.000
222.97	-1600.000
223.34	720.000
223.72	376.923
224.09	760.000
224.46	1300.000
224.84	-2800.000
225.21	-640.000
225.59	-3200.000
225.96	380.000
226.34	205.000
226.71	2150.000
227.08	512.500
227.46	370.000
227.83	-625.000
228.21	-1800.000
228.58	488.889
228.95	-1900.000
229.33	-1550.000
229.70	1133.333
230.08	442.857
230.45	-700.000
230.82	291.667
231.20	650.000
231.57	528.571
231.95	391.667
232.32	190.909
232.69	245.455
233.07	457.143
233.44	246.154
233.81	-966.667
234.19	205.263
234.56	316.667
234.93	258.333
235.31	390.909
235.68	315.385
236.05	228.571
236.43	118.182
236.80	157.895
237.17	4200.000
237.55	133.333
237.92	171.429
238.29	138.095
238.67	122.581
239.04	137.931
239.41	91.667
239.79	82.609
240.16	69.048
240.53	93.182
240.91	68.627
241.28	76.000
241.65	72.000
242.02	63.768
242.40	66.129
242.77	75.000
243.14	48.387
243.51	58.427
243.89	48.235
244.26	46.667
244.63	46.237
245.00	41.489
245.38	45.545
245.75	42.056
246.12	29.358
246.49	47.445
246.87	44.000
247.24	43.077
247.61	37.143
247.98	45.098
248.36	32.432
248.73	33.121
249.10	36.943
249.47	33.898
249.84	39.572
250.22	29.412
250.59	28.994
250.96	33.333
251.33	34.123
251.70	30.693
252.08	32.857
252.45	30.493
252.82	25.652
253.19	28.936
253.56	29.804
253.94	28.216
254.31	30.859
254.68	27.692
255.05	29.520
255.42	30.894
255.79	28.676
256.16	27.076
256.54	24.735
256.91	29.537
257.28	23.741
257.65	25.743
258.02	30.124
258.39	23.975
258.76	24.749
259.14	25.000
259.51	21.277
259.88	23.292
260.25	24.471
260.62	26.301
260.99	22.360
261.36	26.426
261.73	22.636
262.10	20.930
262.47	25.070
262.85	21.448
263.22	18.234
263.59	24.217
263.96	21.703
264.33	21.671
264.70	20.789
265.07	24.297
265.44	20.202
265.81	21.898
266.18	25.126
266.55	21.951
266.92	22.850
267.29	21.296
267.66	24.083
268.03	23.636
268.40	20.093
268.77	21.480
269.14	21.622
269.51	21.896
269.88	18.648
270.25	17.381
270.62	18.427
270.99	21.935
271.36	23.820
271.73	20.561
272.10	19.783
272.47	22.796
272.84	22.078
273.21	22.013
273.58	21.179
273.95	19.916
274.32	20.041
274.69	18.201
275.06	20.276
275.43	21.915
275.80	20.040
276.17	19.959
276.54	20.166
276.91	18.182
277.28	19.141
277.65	19.342
278.02	21.118
278.39	19.727
278.76	19.455
279.13	19.245
279.50	21.601
279.87	18.526
280.23	19.361
280.60	20.696
280.97	19.224
281.34	20.708
281.71	17.636
282.08	19.194
282.45	17.636
282.82	18.828
283.19	16.043
283.56	19.649
283.92	18.951
284.29	17.460
284.66	16.878
285.03	16.637
285.40	19.542
285.77	18.182
286.14	17.098
286.51	17.000
286.87	16.581
287.24	19.381
287.61	16.693
287.98	18.019
288.35	17.274
288.72	17.134
289.08	17.371
289.45	14.992
289.82	17.398
290.19	16.954
290.56	16.386
290.93	16.314
291.29	16.871
291.66	16.224
292.03	17.587
292.40	17.621
292.77	15.089
293.13	17.463
293.50	17.638
293.87	14.815
294.24	15.407
294.60	13.392
294.97	15.698
295.34	16.925
295.71	17.330
296.08	14.245
296.44	13.480
296.81	15.059
297.18	15.312
297.55	12.401
297.91	14.908
298.28	15.930
298.65	14.621
299.02	14.888
299.38	13.147
299.75	12.264
300.12	14.049
300.48	14.125
300.85	14.673
301.22	14.268
301.59	13.131
301.95	14.232
302.32	12.709
302.69	13.859
303.05	14.061
303.42	13.333
303.79	14.043
304.15	12.354
304.52	11.472
304.89	11.847
305.25	12.065
305.62	14.043
305.99	14.994
306.35	13.758
306.72	13.677
307.09	14.317
307.45	13.626
307.82	11.272
308.19	13.797
308.55	13.700
308.92	12.567
309.29	12.988
309.65	12.725
310.02	13.108
310.38	13.871
310.75	12.460
311.12	13.715
311.48	13.689
311.85	14.675
312.22	13.319
312.58	13.306
312.95	14.150
313.31	13.981
313.68	15.904
314.05	15.976
314.41	13.970
314.78	14.300
315.14	14.201
315.51	14.727
315.87	15.149
316.24	15.591
316.61	14.912
316.97	14.775
317.34	14.775
317.70	17.208
318.07	17.036
318.43	18.787
318.80	18.369
319.16	18.927
319.53	19.512
319.89	19.524
320.26	20.000
320.62	20.536
320.99	21.919
321.35	22.121
321.72	22.793
322.08	22.804
322.45	24.677
322.81	25.291
323.18	25.337
323.54	25.510
323.91	27.264
324.27	27.916
324.64	27.307
325.00	27.232
325.37	29.663
325.73	31.149
326.10	30.627
326.46	32.079
326.83	32.442
327.19	32.365
327.56	33.972
327.92	33.771
328.29	35.226
328.65	35.083
329.01	35.650
329.38	36.910
329.74	37.211
330.11	38.737
330.47	39.210
330.84	39.430
331.20	38.251
331.56	40.275
331.93	39.630
332.29	39.042
332.66	41.327
333.02	41.133
333.38	42.367
333.75	41.533
334.11	42.438
334.48	42.325
334.84	42.739
335.20	43.091
335.57	42.974
335.93	43.393
336.29	41.484
336.66	43.553
337.02	42.896
337.38	44.167
337.75	44.118
338.11	43.868
338.47	45.120
338.84	44.180
339.20	44.220
339.56	45.438
339.93	46.364
340.29	44.837
340.65	44.920
341.02	45.375
341.38	44.306
341.74	44.298
342.11	45.764
342.47	46.520
342.83	44.606
343.20	45.714
343.56	44.398
343.92	44.474
344.28	43.707
344.65	45.830
345.01	45.286
345.37	45.883
345.73	44.755
346.10	45.780
346.46	44.831
346.82	45.140
347.19	45.948
347.55	44.335
347.91	45.065
348.27	45.604
348.63	47.324
349.00	44.175
349.36	45.320
349.72	45.870
350.08	43.598
350.45	45.321
350.81	45.167
351.17	44.895
351.53	44.963
351.89	43.482
352.26	45.935
352.62	45.549
352.98	46.353
353.34	45.768
353.70	44.272
354.07	45.968
354.43	44.444
354.79	44.972
355.15	44.693
355.51	44.844
355.87	45.878
356.24	45.847
356.60	44.667
356.96	45.776
357.32	45.953
357.68	44.331
358.04	44.656
358.40	44.260
358.77	44.836
359.13	44.436
359.49	44.627
359.85	43.175
360.21	44.976
360.57	45.447
360.93	45.385
361.29	44.218
361.66	44.814
362.02	44.328
362.38	44.259
362.74	43.973
363.10	44.115
363.46	44.461
363.82	44.369
364.18	44.273
364.54	45.542
364.90	43.980
365.26	45.074
365.62	45.800
365.98	43.608
366.35	43.983
366.71	44.613
367.07	43.773
367.43	44.630
367.79	45.325
368.15	45.115
368.51	44.913
368.87	44.825
369.23	44.623
369.59	44.316
369.95	43.162
370.31	44.373
370.67	43.551
371.03	46.517
371.39	44.388
371.75	43.750
372.11	43.741
372.47	44.941
372.83	45.749
373.19	44.220
373.55	44.346
373.91	45.287
374.27	44.467
374.63	44.364
374.99	44.845
375.35	43.754
375.71	44.825
376.07	45.336
376.42	44.635
376.78	44.003
377.14	44.030
377.50	44.901
377.86	44.282
378.22	43.679
378.58	43.170
378.94	42.426
379.30	44.784
379.66	44.670
380.02	44.349
380.38	43.412
380.74	44.058
381.09	43.704
381.45	44.868
381.81	43.366
382.17	44.331
382.53	42.264
382.89	43.642
383.25	42.964
383.61	43.804
383.97	43.152
384.32	42.982
384.68	43.742
385.04	42.163
385.40	42.291
385.76	42.383
386.12	41.969
386.48	43.235
386.83	43.169
387.19	44.218
387.55	42.548
387.91	42.080
388.27	43.838
388.62	42.778
388.98	42.199
389.34	41.802
389.70	42.367
390.06	42.269
390.42	42.477
390.77	42.430
391.13	43.076
391.49	42.449
391.85	41.884
392.20	42.082
392.56	42.172
392.92	41.613
393.28	40.414
393.64	40.168
393.99	41.051
394.35	42.246
394.71	41.468
395.07	40.935
395.42	40.853
395.78	42.430
396.14	41.217
396.50	42.043
396.85	41.132
397.21	39.766
397.57	40.980
397.92	41.526
398.28	41.536
398.64	40.621
399.00	41.466
399.35	40.327
399.71	41.146
400.07	39.917
400.42	40.491
400.78	40.470
401.14	40.305
401.49	40.955
401.85	39.685
402.21	40.180
402.57	39.667
402.92	40.921
403.28	39.725
403.63	39.542
403.99	40.064
404.35	39.758
404.70	39.269
405.06	39.604
405.42	39.551
405.77	39.486
406.13	39.165
406.49	39.148
406.84	39.634
407.20	38.712
407.55	38.864
407.91	40.067
408.27	39.311
408.62	38.892
408.98	39.951
409.34	39.422
409.69	39.290
410.05	39.219
410.40	38.777
410.76	39.008
411.11	38.058
411.47	37.636
411.83	39.035
412.18	37.724
412.54	38.730
412.89	37.229
413.25	37.780
413.60	38.728
413.96	37.280
414.31	38.214
414.67	39.037
415.03	39.205
415.38	38.080
415.74	38.392
416.09	38.145
416.45	37.416
416.80	36.748
417.16	39.075
417.51	38.354
417.87	37.636
418.22	38.612
418.58	38.218
418.93	37.346
419.29	37.810
419.64	36.965
420.00	37.073
420.35	37.913
420.71	36.641
421.06	36.277
421.42	37.368
421.77	37.444
422.12	36.833
422.48	36.266
422.83	37.216
423.19	36.298
423.54	37.319
423.90	37.101
424.25	36.963
424.61	36.548
424.96	37.551
425.31	36.656
425.67	36.180
426.02	36.171
426.38	37.118
426.73	36.747
427.09	36.170
427.44	36.630
427.79	36.745
428.15	36.905
428.50	37.039
428.85	36.234
429.21	36.002
429.56	36.029
429.92	35.229
430.27	35.601
430.62	35.996
430.98	36.066
431.33	36.134
431.68	36.021
432.04	34.931
432.39	35.922
432.74	36.685
433.10	36.616
433.45	36.152
433.80	36.197
434.16	34.776
434.51	36.000
434.86	35.861
435.22	35.131
435.57	36.049
435.92	34.991
436.28	36.121
436.63	36.038
436.98	36.005
437.34	34.884
437.69	36.289
438.04	34.626
438.39	36.239
438.75	35.851
439.10	34.581
439.45	35.655
439.81	35.710
440.16	34.839
440.51	35.442
440.86	35.611
441.22	34.483
441.57	34.766
441.92	34.903
442.27	34.715
442.63	34.597
442.98	35.155
443.33	34.293
443.68	34.693
444.03	34.553
444.39	34.956
444.74	34.578
445.09	35.094
445.44	34.445
445.79	33.894
446.15	33.774
446.50	34.141
446.85	34.481
447.20	33.554
447.55	34.338
447.91	34.584
448.26	34.224
448.61	33.126
448.96	34.551
449.31	34.364
449.66	34.440
450.02	34.262
450.37	34.240
450.72	34.292
451.07	33.090
451.42	33.191
451.77	33.999
452.12	32.852
452.47	33.831
452.83	32.809
453.18	32.763
453.53	33.024
453.88	32.782
454.23	33.592
454.58	33.737
454.93	34.075
455.28	32.731
455.63	33.495
455.98	34.286
456.34	33.103
456.69	33.250
457.04	33.498
457.39	33.255
457.74	31.979
458.09	33.007
458.44	33.352
458.79	31.941
459.14	33.239
459.49	32.399
459.84	32.188
460.19	33.471
460.54	32.523
460.89	32.364
461.24	32.848
461.59	32.830
461.94	32.491
462.29	33.294
462.64	32.610
462.99	32.466
463.34	32.800
463.69	32.020
464.04	32.754
464.39	32.290
464.74	32.501
465.09	31.242
465.44	30.748
465.79	31.040
466.14	31.199
466.49	31.424
466.84	31.699
467.19	31.503
467.54	32.312
467.89	30.912
468.24	31.123
468.59	32.051
468.94	31.155
469.29	31.748
469.64	32.731
469.99	32.679
470.34	31.242
470.68	31.681
471.03	32.381
471.38	32.036
471.73	32.045
472.08	30.789
472.43	30.653
472.78	31.271
473.13	31.194
473.48	31.648
473.83	30.488
474.17	30.554
474.52	31.328
474.87	30.940
475.22	30.992
475.57	29.500
475.92	30.377
476.27	30.665
476.61	30.723
476.96	29.687
477.31	30.037
477.66	31.182
478.01	29.692
478.36	30.301
478.70	29.387
479.05	29.020
479.40	29.990
479.75	29.588
480.10	29.473
480.45	28.415
480.79	28.858
481.14	29.550
481.49	29.521
481.84	28.395
482.19	29.532
482.53	29.128
482.88	28.664
483.23	29.579
483.58	29.299
483.92	29.007
484.27	27.146
484.62	29.138
484.97	28.498
485.31	27.842
485.66	26.426
486.01	26.271
486.36	25.975
486.70	26.574
487.05	26.071
487.40	26.456
487.75	26.752
488.09	27.389
488.44	27.518
488.79	28.137
489.13	28.075
489.48	27.936
489.83	27.622
490.17	28.146
490.52	27.945
490.87	28.268
491.22	28.377
491.56	28.064
491.91	28.013
492.26	27.791
492.60	27.051
492.95	27.081
493.30	27.477
493.64	28.511
493.99	27.298
494.34	27.382
494.68	27.518
495.03	28.524
495.37	27.548
495.72	27.973
496.07	27.285
496.41	26.770
496.76	27.441
497.11	27.330
497.45	26.875
497.80	27.447
498.14	27.488
498.49	27.415
498.84	28.140
499.18	27.333
499.53	27.303
499.87	26.934
500.22	26.566
500.56	28.301
500.91	27.115
501.26	27.596
501.60	27.527
501.95	26.948
502.29	27.554
502.64	27.747
502.98	26.882
503.33	26.600
503.67	26.636
504.02	26.427
504.36	26.439
504.71	26.673
505.06	26.651
505.40	26.689
505.75	26.519
506.09	26.531
506.44	26.690
506.78	27.375
507.13	26.603
507.47	27.222
507.82	27.406
508.16	27.153
508.51	26.890
508.85	25.919
509.19	26.888
509.54	26.378
509.88	26.378
510.23	27.249
510.57	27.606
510.92	27.084
511.26	27.184
511.61	27.230
511.95	26.983
512.30	26.564
512.64	26.599
512.98	26.849
513.33	26.660
513.67	25.987
514.02	25.433
514.36	26.597
514.70	26.840
515.05	26.046
515.39	25.911
515.74	26.464
516.08	26.942
516.42	26.415
516.77	27.035
517.11	25.971
517.46	27.257
517.80	26.365
518.14	26.346
518.49	26.896
518.83	26.648
519.17	25.462
519.52	26.486
519.86	26.070
520.20	26.416
520.55	27.110
520.89	26.460
521.23	26.960
521.58	25.810
521.92	26.944
522.26	26.174
522.61	25.732
522.95	26.581
523.29	25.746
523.64	25.915
523.98	26.987
524.32	26.297
524.66	26.218
525.01	25.919
525.35	26.456
525.69	24.692
526.04	25.732
526.38	25.991
526.72	26.380
527.06	25.926
527.41	24.196
527.75	25.916
528.09	26.397
528.43	26.068
528.78	25.753
529.12	25.273
529.46	26.638
529.80	26.733
530.15	25.358
530.49	24.985
530.83	25.886
531.17	25.979
531.51	26.005
531.86	25.161
532.20	26.662
532.54	25.368
532.88	25.160
533.22	24.547
533.57	25.494
533.91	25.045
534.25	24.787
534.59	24.710
534.93	24.926
535.27	25.709
535.62	24.786
535.96	25.298
536.30	24.476
536.64	25.177
536.98	25.547
537.32	23.963
537.66	24.333
538.01	25.214
538.35	25.598
538.69	25.973
539.03	24.366
539.37	24.026
539.71	23.850
540.05	26.601
540.39	25.581
540.73	24.256
541.07	25.633
541.42	25.114
541.76	25.677
542.10	26.067
542.44	25.033
542.78	24.967
543.12	24.056
543.46	25.115
543.80	25.049
544.14	24.262
544.48	25.333
544.82	24.439
545.16	25.764
545.50	24.871
545.84	24.664
546.18	24.848
546.52	25.740
546.86	24.880
547.20	24.882
547.54	25.184
547.88	24.809
548.22	24.035
548.56	23.962
548.90	24.008
549.24	24.377
549.58	24.693
549.92	25.000
550.26	24.787
550.60	24.205
550.94	23.944
551.28	24.214
551.62	24.730
551.96	24.070
552.30	24.369
552.64	24.679
552.98	24.881
553.32	23.803
553.66	23.858
554.00	23.679
554.34	23.326
554.68	25.107
555.02	24.189
555.36	23.521
555.69	23.139
556.03	24.226
556.37	22.988
556.71	23.192
557.05	23.319
557.39	24.213
557.73	24.206
558.07	24.801
558.41	23.589
558.75	24.100
559.08	24.832
559.42	23.885
559.76	23.382
560.10	23.840
560.44	23.899
560.78	22.422
561.12	23.747
561.45	22.816
561.79	22.479
562.13	23.944
562.47	23.839
562.81	23.082
563.15	23.545
563.48	24.005
563.82	22.766
564.16	22.498
564.50	22.721
564.84	23.831
565.17	22.651
565.51	23.003
565.85	22.906
566.19	22.167
566.52	21.976
566.86	22.725
567.20	22.700
567.54	22.374
567.88	21.238
568.21	21.958
568.55	21.436
568.89	22.276
569.23	20.588
569.56	21.134
569.90	21.094
570.24	20.524
570.57	20.741
570.91	20.330
571.25	19.920
571.59	20.265
571.92	20.017
572.26	20.133
572.60	20.420
572.93	19.430
573.27	20.083
573.61	19.626
573.95	20.000
574.28	19.347
574.62	19.218
574.96	18.973
575.29	18.841
575.63	19.741
575.97	19.448
576.30	19.570
576.64	19.080
576.98	18.960
577.31	19.177
577.65	19.283
577.98	19.019
578.32	18.646
578.66	18.952
578.99	19.219
579.33	18.857
579.67	18.901
580.00	18.844
580.34	19.269
580.67	19.121
581.01	18.979
581.35	18.572
581.68	18.616
582.02	18.471
582.35	18.318
582.69	18.495
583.02	18.686
583.36	18.930
583.70	18.731
584.03	19.122
584.37	19.420
584.70	18.757
585.04	18.689
585.37	18.663
585.71	19.032
586.04	18.773
586.38	19.436
586.72	19.718
587.05	18.691
587.39	18.496
587.72	18.578
588.06	18.837
588.39	19.204
588.73	19.214
589.06	19.663
589.40	18.990
589.73	19.430
590.07	19.644
590.40	19.109
590.73	19.828
591.07	19.862
591.40	19.359
591.74	20.087
592.07	19.677
592.41	19.140
592.74	19.625
593.08	18.921
593.41	19.076
593.75	18.488
594.08	19.075
594.41	19.229
594.75	19.556
595.08	19.256
595.42	19.194
595.75	19.231
596.09	19.790
596.42	19.961
596.75	19.840
597.09	19.870
597.42	19.182
597.75	19.793
598.09	19.348
598.42	19.502
598.76	18.808
599.09	18.244
599.42	18.705
599.76	18.777
600.09	18.725
600.42	18.627
600.76	18.357
601.09	18.215
601.42	18.569
601.76	18.975
602.09	18.024
602.42	19.467
602.76	19.790
603.09	19.237
603.42	19.016
603.76	18.598
604.09	18.689
604.42	18.753
604.76	19.190
605.09	18.698
605.42	18.811
605.75	18.916
606.09	18.829
606.42	18.594
606.75	18.830
607.09	18.878
607.42	18.956
607.75	18.692
608.08	18.237
608.42	19.184
608.75	18.891
609.08	19.195
609.41	18.182
609.75	18.818
610.08	19.133
610.41	18.762
610.74	19.063
611.07	19.664
611.41	19.333
611.74	20.261
612.07	19.772
612.40	19.307
612.73	19.368
613.07	19.720
613.40	19.642
613.73	19.192
614.06	19.194
614.39	19.245
614.72	19.211
615.06	18.960
615.39	19.374
615.72	19.479
616.05	18.926
616.38	18.844
616.71	19.418
617.05	19.906
617.38	19.723
617.71	18.919
618.04	19.952
618.37	19.574
618.70	19.228
619.03	20.197
619.36	20.434
619.69	19.507
620.03	20.192
620.36	20.722
620.69	19.521
621.02	20.280
621.35	19.812
621.68	19.704
622.01	20.046
622.34	20.272
622.67	20.532
623.00	19.956
623.33	19.585
623.66	19.657
623.99	19.146
624.32	19.971
624.65	19.562
624.99	18.768
625.32	20.203
625.65	20.135
625.98	21.752
626.31	21.462
626.64	21.714
626.97	20.948
627.30	20.366
627.63	20.837
627.96	21.026
628.29	20.735
628.62	20.769
628.95	21.132
629.28	21.624
629.61	21.173
629.94	20.476
630.26	20.782
630.59	20.782
630.92	20.307
631.25	20.829
631.58	21.321
631.91	19.574
632.24	20.992
632.57	21.406
632.90	22.259
633.23	21.253
633.56	21.808
633.89	22.763
634.22	22.361
634.55	21.893
634.88	20.958
635.20	22.461
635.53	23.133
635.86	22.030
636.19	20.235
636.52	22.030
636.85	22.451
637.18	20.392
637.51	23.641
637.83	21.208
638.16	21.611
638.49	21.662
638.82	22.503
639.15	22.625
639.48	22.195
639.81	23.727
640.13	23.438
640.46	22.550
640.79	23.118
641.12	20.358
641.45	22.346
641.77	24.006
642.10	22.076
642.43	22.072
642.76	21.672
643.09	23.926
643.41	21.396
643.74	23.611
644.07	21.646
644.40	24.540
644.73	25.039
645.05	25.515
645.38	23.065
645.71	22.222
646.04	23.588
646.36	23.539
646.69	24.916
647.02	23.299
647.35	23.540
647.67	23.186
648.00	25.854
648.33	22.112
648.66	22.576
648.98	22.639
649.31	21.525
649.64	20.478
649.96	22.355
650.29	22.749
650.62	22.816
650.94	24.635
651.27	25.338
651.60	23.461
651.92	24.121
652.25	21.824
652.58	22.741
652.90	24.171
653.23	21.418
653.56	22.677
653.88	23.296
654.21	24.171
654.54	24.257
654.86	22.430
655.19	21.486
655.52	15.601
655.84	13.772
656.17	17.568
656.49	23.963
656.82	23.629
657.15	17.944
657.47	13.323
657.80	10.111
658.13	10.326
658.45	15.710
658.78	15.748
659.10	16.068
659.43	16.916
659.75	17.106
660.08	18.418
660.41	20.484
660.73	21.474
661.06	22.134
661.38	23.455
661.71	24.423
662.03	24.458
662.36	23.062
662.68	26.104
663.01	24.242
663.33	23.142
663.66	24.580
663.98	24.406
664.31	24.580
664.63	27.530
664.96	22.334
665.28	26.230
665.61	23.002
665.93	23.139
666.26	24.746
666.58	23.640
666.91	24.947
667.23	25.169
667.56	20.302
667.88	25.214
668.21	25.160
668.53	23.210
668.86	22.294
669.18	26.439
669.50	26.739
669.83	25.272
670.15	23.111
670.48	24.183
670.80	20.905
671.13	23.992
671.45	23.404
671.77	24.236
672.10	22.551
672.42	22.792
672.75	24.544
673.07	22.359
673.39	20.976
673.72	23.047
674.04	23.333
674.37	24.078
674.69	20.450
675.01	20.502
675.34	25.257
675.66	25.684
675.98	24.033
676.31	26.261
676.63	25.265
676.95	24.109
677.28	21.262
677.60	23.956
677.92	25.949
678.25	25.051
678.57	23.506
678.89	24.449
679.22	22.593
679.54	23.282
679.86	24.037
680.18	23.971
680.51	20.922
680.83	22.420
681.15	23.019
681.48	23.440
681.80	22.050
682.12	23.563
682.44	21.857
682.77	22.403
683.09	22.318
683.41	25.721
683.73	21.854
684.06	25.000
684.38	23.288
684.70	22.481
685.02	23.827
685.34	23.443
685.67	19.755
685.99	21.993
686.31	20.478
686.63	21.201
686.96	23.036
687.28	22.383
687.60	21.558
687.92	21.024
688.24	23.764
688.56	25.100
688.89	23.444
689.21	26.201
689.53	23.800
689.85	26.164
690.17	20.290
690.49	23.355
690.82	22.196
691.14	22.991
691.46	22.152
691.78	23.896
692.10	26.033
692.42	23.154
692.74	22.199
693.06	24.468
693.39	24.025
693.71	24.454
694.03	25.474
694.35	21.212
694.67	21.968
694.99	24.878
695.31	24.265
695.63	23.923
695.95	20.538
696.27	22.843
696.59	23.057
696.91	25.907
697.23	18.779
697.56	24.733
697.88	20.245
698.20	22.917
698.52	25.376
698.84	25.835
699.16	21.429
699.48	23.990
699.80	23.913
700.12	27.792
700.44	25.995
700.76	25.691
701.08	23.851
701.40	23.184
701.72	27.988
702.04	29.545
702.36	20.113
702.68	26.062
703.00	24.100
703.32	25.532
703.64	23.592
703.96	25.905
704.28	24.419
704.60	25.220
704.91	26.706
705.23	25.513
705.55	26.578
705.87	33.555
706.19	25.795
706.51	27.414
706.83	25.758
707.15	25.210
707.47	23.485
707.79	22.850
708.11	23.288
708.43	22.381
708.74	21.173
709.06	25.455
709.38	25.722
709.70	23.256
710.02	29.674
710.34	23.939
710.66	29.254
710.98	26.136
711.29	25.000
711.61	28.909
711.93	24.038
712.25	24.116
712.57	25.735
712.89	28.374
713.20	30.091
713.52	25.658
713.84	23.734
714.16	27.744
714.48	25.287
714.80	27.052
715.11	26.513
715.43	24.332
715.75	25.797
716.07	26.198
716.39	26.019
716.70	30.233
717.02	27.698
717.34	27.208
717.66	27.612
717.97	30.677
718.29	25.926
718.61	24.818
718.93	26.838
719.24	28.374
719.56	23.390
719.88	29.831
720.20	28.378
720.51	26.829
720.83	32.714
721.15	26.493
721.46	25.532
721.78	31.541
722.10	25.283
722.42	27.444
722.73	30.337
723.05	23.361
723.37	27.126
723.68	29.730
724.00	24.797
724.32	30.242
724.63	26.423
724.95	25.105
725.27	28.745
725.58	31.250
725.90	31.387
726.22	28.302
726.53	26.042
726.85	27.986
727.16	27.402
727.48	29.078
727.80	27.652
728.11	27.174
728.43	24.615
728.74	26.165
729.06	28.102
729.38	32.353
729.69	28.470
730.01	22.867
730.32	28.819
730.64	24.415
730.96	23.102
731.27	29.801
731.59	25.076
731.90	22.157
732.22	21.429
732.53	26.006
732.85	23.718
733.16	26.367
733.48	28.239
733.80	26.299
734.11	29.618
734.43	23.964
734.74	23.429
735.06	22.636
735.37	27.746
735.69	22.930
736.00	30.065
736.32	30.530
736.63	23.642
736.95	27.796
737.26	20.748
737.58	23.226
737.89	26.421
738.21	26.962
738.52	28.929
738.83	22.642
739.15	31.538
739.46	28.102
739.78	28.472
740.09	23.692
740.41	26.129
740.72	29.965
741.04	23.704
741.35	24.583
741.66	32.889
741.98	25.000
742.29	37.321
742.61	33.190
742.92	23.529
743.23	32.051
743.55	26.800
743.86	28.947
744.18	29.646
744.49	27.751
744.80	27.700
745.12	38.636
745.43	30.396
745.74	35.135
746.06	33.028
746.37	33.184
746.68	33.937
747.00	32.870
747.31	30.476
747.62	27.434
747.94	30.396
748.25	28.936
748.56	33.040
748.88	30.198
749.19	35.500
749.50	33.023
749.82	24.390
750.13	28.571
750.44	28.102
750.75	27.018
751.07	29.904
751.38	30.662
751.69	25.271
752.01	27.068
752.32	27.437
752.63	23.050
752.94	25.820
753.26	32.800
753.57	26.423
753.88	33.203
754.19	25.357
754.51	30.903
754.82	23.105
755.13	32.830
755.44	25.564
755.75	27.007
756.07	23.759
756.38	25.547
756.69	26.174
757.00	25.150
757.31	24.926
757.63	23.392
757.94	24.129
758.25	23.775
758.56	23.210
758.87	23.656
759.18	25.152
759.50	19.749
759.81	23.988
760.12	25.312
760.43	26.361
760.74	23.370
761.05	25.424
761.36	24.064
761.67	25.568
761.99	22.671
762.30	27.083
762.61	27.863
762.92	29.297
763.23	27.311
763.54	30.400
763.85	24.609
764.16	31.154
764.47	27.376
764.78	26.502
765.10	22.468
765.41	22.124
765.72	23.054
766.03	26.019
766.34	21.000
766.65	29.362
766.96	28.632
767.27	30.964
767.58	30.729
767.89	35.263
768.20	29.310
768.51	25.888
768.82	30.734
769.13	26.016
769.44	24.696
769.75	30.043
770.06	19.725
770.37	29.412
770.68	31.481
770.99	32.889
771.30	27.049
771.61	30.493
771.92	29.918
772.23	28.992
772.54	24.615
772.85	39.267
773.16	28.723
773.47	33.152
773.78	37.056
774.09	30.952
774.39	32.749
774.70	30.247
775.01	36.232
775.32	39.216
775.63	40.132
775.94	35.252
776.25	47.244
776.56	46.269
776.87	31.967
777.18	35.156
777.48	49.618
777.79	41.667
778.10	37.037
778.41	41.964
778.72	29.197
779.03	39.597
779.34	35.570
779.65	36.486
779.95	39.264
780.26	40.523
780.57	43.448
780.88	48.438
781.19	33.835
781.50	40.541
781.80	33.962
782.11	31.638
782.42	32.911
782.73	30.675
783.04	39.865
783.34	38.732
783.65	39.726
783.96	39.552
784.27	37.762
784.57	39.568
784.88	42.593
785.19	38.889
785.50	45.283
785.81	48.507
786.11	45.902
786.42	36.434
786.73	46.903
787.04	42.453
787.34	35.714
787.65	46.000
787.96	39.640
788.26	33.058
788.57	45.763
788.88	44.628
789.19	44.444
789.49	42.424
789.80	47.328
790.11	51.429
790.41	45.545
790.72	54.217
791.03	55.435
791.33	44.186
791.64	52.577
791.95	52.475
792.25	55.556
792.56	53.247
792.87	73.077
793.17	64.557
793.48	65.517
793.79	47.126
794.09	52.273
794.40	46.218
794.70	50.735
795.01	34.074
795.32	32.374
795.62	35.433
795.93	46.552
796.23	49.558
796.54	40.000
796.85	48.649
797.15	64.789
797.46	54.545
797.76	63.855
798.07	51.899
798.37	60.000
798.68	57.576
798.99	53.521
799.29	50.649
799.60	56.818
799.90	43.836
800.21	86.567
800.51	63.793
800.82	78.947
801.12	62.295
801.43	77.273
801.73	71.622
802.04	79.365
802.34	66.667
802.65	76.563
802.95	86.441
803.26	73.438
803.56	54.286
803.87	61.538
804.17	75.000
804.48	75.926
804.78	74.138
805.09	67.647
805.39	57.692
805.70	71.429
806.00	77.049
806.30	60.606
806.61	59.756
806.91	64.557
807.22	53.947
807.52	46.269
807.83	60.563
808.13	67.188
808.43	66.667
808.74	60.526
809.04	71.014
809.35	70.149
809.65	72.368
809.95	80.645
810.26	76.271
810.56	74.603
810.86	100.000
811.17	83.333
811.47	90.000
811.77	64.815
812.08	87.273
812.38	90.000
812.69	105.556
812.99	109.091
813.29	85.714
813.59	90.476
813.90	124.490
814.20	63.636
814.50	55.385
814.81	83.824
815.11	89.796
815.41	77.049
815.72	100.000
816.02	74.545
816.32	95.238
816.62	77.500
816.93	75.610
817.23	114.286
817.53	93.182
817.84	103.030
818.14	106.522
818.44	82.222
818.74	94.118
819.04	97.500
819.35	102.857
819.65	123.529
819.95	107.143
820.25	145.000
820.56	141.026
820.86	81.818
821.16	95.349
821.46	97.436
821.76	98.000
822.07	117.143
822.37	122.500
822.67	136.364
822.97	88.235
823.27	157.143
823.57	118.919
823.88	122.500
824.18	133.333
824.48	121.429
824.78	132.000
825.08	125.000
825.38	105.405
825.69	100.000
825.99	154.167
826.29	113.793
826.59	107.895
826.89	97.368
827.19	138.235
827.49	103.226
827.79	115.909
828.09	84.091
828.39	82.979
828.70	97.959
829.00	122.222
829.30	141.935
829.60	112.500
829.90	213.333
830.20	128.571
830.50	139.130
830.80	139.130
831.10	163.333
831.40	123.333
831.70	134.783
832.00	134.615
832.30	148.148
832.60	193.750
832.90	160.000
833.20	257.143
833.50	135.484
833.80	131.034
834.10	153.125
834.40	142.308
834.70	227.778
835.00	257.143
835.30	140.000
835.60	192.308
835.90	134.483
836.20	250.000
836.50	127.586
836.80	152.000
837.10	141.667
837.40	223.810
837.70	205.882
838.00	159.259
838.30	195.238
838.60	180.952
838.90	161.538
839.19	195.000
839.49	314.286
839.79	245.000
840.09	190.000
840.39	219.048
840.69	204.348
840.99	205.556
841.29	350.000
841.59	250.000
841.88	237.500
842.18	155.172
842.48	247.619
842.78	130.000
843.08	182.609
843.38	121.875
843.68	583.333
843.97	150.000
844.27	155.172
844.57	190.476
844.87	193.750
845.17	181.481
845.47	1233.333
845.76	322.222
846.06	211.765
846.36	325.000
846.66	264.286
846.96	225.000
847.25	345.455
847.55	290.909
847.85	200.000
848.15	290.000
848.44	328.571
848.74	144.444
849.04	200.000
849.34	350.000
849.63	215.789
849.93	363.636
850.23	660.000
850.53	242.857
850.82	1650.000
851.12	-2500.000
851.42	2400.000
851.71	210.000
852.01	-800.000
852.31	191.667
852.61	1300.000
852.90	223.810
853.20	184.000
853.50	247.059
853.79	219.048
854.09	154.167
854.39	243.750
854.68	135.135
854.98	122.581
855.28	160.000
855.57	148.276
855.87	174.074
856.17	131.579
856.46	180.000
856.76	188.235
857.05	155.172
857.35	141.667
857.65	273.333
857.94	213.043
858.24	184.615
858.53	210.000
858.83	190.909
859.13	246.667
859.42	0.000
859.72	500.000
860.01	290.909
860.31	177.273
860.60	178.947
860.90	186.957
861.20	388.889
861.49	458.333
861.79	-3400.000
862.08	462.500
862.38	238.095
862.67	192.308
862.97	252.941
863.26	266.667
863.56	177.778
863.85	250.000
864.15	287.500
864.44	240.000
864.74	583.333
865.03	437.500
865.33	221.053
865.62	400.000
865.92	346.154
866.21	366.667
866.51	0.000
866.80	263.636
867.10	840.000
867.39	346.154
867.69	336.364
867.98	173.684
868.27	345.455
868.57	215.789
868.86	-2700.000
869.16	268.750
869.45	1050.000
869.75	-3400.000
870.04	366.667
870.33	428.571
870.63	875.000
870.92	1750.000
871.22	457.143
871.51	223.529
871.80	166.667
872.10	278.571
>>>>>End Processed Spectral Data<<<<<
