SpectraSuite Data File
++++++++++++++++++++++++++++++++++++
Date: Wed May 13 20:31:02 PDT 2015
User: schluterlab
Dark Spectrum Present: Yes
Reference Spectrum Present: Yes
Number of Sampled Component Spectra: 1
Spectrometers: USB2E3373
Integration Time (usec): 3000 (USB2E3373)
Spectra Averaged: 3 (USB2E3373)
Boxcar Smoothing: 0 (USB2E3373)
Correct for Electrical Dark: No (USB2E3373)
Strobe/Lamp Enabled: No (USB2E3373)
Correct for Detector Non-linearity: No (USB2E3373)
Correct for Stray Light: No (USB2E3373)
Number of Pixels in Processed Spectrum: 2048
>>>>>Begin Processed Spectral Data<<<<<
178.53	0.000
178.91	-1125.000
179.29	-950.000
179.67	-155.556
180.04	-1125.000
180.42	1750.000
180.80	880.000
181.18	-750.000
181.56	485.714
181.94	0.000
182.31	-414.286
182.69	1400.000
183.07	-400.000
183.45	-388.889
183.83	400.000
184.20	-220.000
184.58	1900.000
184.96	4300.000
185.34	-720.000
185.72	-475.000
186.09	-1600.000
186.47	2200.000
186.85	1800.000
187.23	3700.000
187.61	-1466.667
187.98	1100.000
188.36	418.182
188.74	445.455
189.12	-720.000
189.49	480.000
189.87	-4100.000
190.25	-925.000
190.63	292.857
191.00	384.615
191.38	750.000
191.76	-800.000
192.14	1075.000
192.51	487.500
192.89	666.667
193.27	425.000
193.65	-600.000
194.02	400.000
194.40	680.000
194.78	390.000
195.15	333.333
195.53	500.000
195.91	-1800.000
196.29	318.750
196.66	263.158
197.04	-270.000
197.42	0.000
197.79	540.000
198.17	-3800.000
198.55	542.857
198.92	575.000
199.30	1000.000
199.68	0.000
200.05	244.444
200.43	600.000
200.81	3200.000
201.18	1266.667
201.56	-1033.333
201.94	422.222
202.31	477.778
202.69	316.667
203.07	420.000
203.44	0.000
203.82	1050.000
204.19	671.429
204.57	364.286
204.95	387.500
205.32	1300.000
205.70	318.182
206.08	300.000
206.45	1800.000
206.83	256.250
207.20	783.333
207.58	520.000
207.96	233.333
208.33	575.000
208.71	-650.000
209.08	728.571
209.46	422.222
209.84	436.364
210.21	-1366.667
210.59	1350.000
210.96	-325.000
211.34	2100.000
211.71	420.000
212.09	683.333
212.46	0.000
212.84	1200.000
213.22	1150.000
213.59	-2600.000
213.97	616.667
214.34	428.571
214.72	418.182
215.09	920.000
215.47	-1500.000
215.84	-1650.000
216.22	1233.333
216.59	350.000
216.97	975.000
217.34	336.364
217.72	-566.667
218.09	0.000
218.47	-4500.000
218.84	544.444
219.22	457.143
219.59	1133.333
219.97	-371.429
220.34	820.000
220.72	-1333.333
221.09	285.714
221.47	1425.000
221.84	-683.333
222.22	0.000
222.59	1100.000
222.97	-1900.000
223.34	720.000
223.72	315.385
224.09	780.000
224.46	1550.000
224.84	-4000.000
225.21	-900.000
225.59	-3800.000
225.96	350.000
226.34	240.000
226.71	1900.000
227.08	512.500
227.46	440.000
227.83	-550.000
228.21	-1550.000
228.58	511.111
228.95	-1300.000
229.33	-1550.000
229.70	1200.000
230.08	557.143
230.45	-540.000
230.82	350.000
231.20	633.333
231.57	557.143
231.95	366.667
232.32	200.000
232.69	290.909
233.07	500.000
233.44	300.000
233.81	-1300.000
234.19	273.684
234.56	366.667
234.93	283.333
235.31	354.545
235.68	238.462
236.05	271.429
236.43	142.424
236.80	205.263
237.17	3100.000
237.55	171.429
237.92	167.857
238.29	242.857
238.67	138.710
239.04	124.138
239.41	130.556
239.79	93.478
240.16	119.048
240.53	118.182
240.91	92.157
241.28	98.000
241.65	76.000
242.02	73.913
242.40	80.645
242.77	81.667
243.14	60.215
243.51	67.416
243.89	64.706
244.26	54.444
244.63	51.613
245.00	58.511
245.38	59.406
245.75	44.860
246.12	43.119
246.49	58.394
246.87	60.800
247.24	55.385
247.61	50.714
247.98	49.673
248.36	35.811
248.73	43.312
249.10	49.045
249.47	42.373
249.84	44.385
250.22	41.711
250.59	42.604
250.96	41.414
251.33	36.967
251.70	39.604
252.08	33.333
252.45	39.013
252.82	40.435
253.19	33.617
253.56	35.294
253.94	38.589
254.31	38.672
254.68	38.077
255.05	36.531
255.42	36.992
255.79	35.662
256.16	33.935
256.54	35.689
256.91	37.367
257.28	33.453
257.65	32.013
258.02	31.988
258.39	32.808
258.76	31.104
259.14	29.762
259.51	31.611
259.88	28.882
260.25	31.420
260.62	32.659
260.99	29.814
261.36	32.132
261.73	30.372
262.10	31.395
262.47	31.268
262.85	31.476
263.22	27.350
263.59	30.484
263.96	33.791
264.33	30.548
264.70	29.474
265.07	32.481
265.44	29.545
265.81	27.007
266.18	31.407
266.55	27.805
266.92	30.467
267.29	29.861
267.66	29.817
268.03	31.591
268.40	28.738
268.77	26.730
269.14	32.432
269.51	30.023
269.88	29.604
270.25	28.442
270.62	29.663
270.99	30.538
271.36	28.326
271.73	28.037
272.10	28.478
272.47	29.247
272.84	29.221
273.21	27.463
273.58	25.764
273.95	26.625
274.32	28.099
274.69	29.336
275.06	26.575
275.43	28.723
275.80	26.653
276.17	28.513
276.54	27.443
276.91	29.644
277.28	28.906
277.65	27.660
278.02	27.122
278.39	29.297
278.76	27.273
279.13	26.415
279.50	29.050
279.87	27.490
280.23	26.148
280.60	27.466
280.97	26.063
281.34	28.319
281.71	28.727
282.08	28.215
282.45	27.273
282.82	26.110
283.19	25.668
283.56	24.211
283.92	26.227
284.29	24.868
284.66	26.497
285.03	25.136
285.40	24.824
285.77	24.074
286.14	22.971
286.51	24.833
286.87	27.350
287.24	23.779
287.61	25.201
287.98	24.351
288.35	23.296
288.72	24.455
289.08	23.631
289.45	25.371
289.82	24.065
290.19	23.548
290.56	24.809
290.93	23.414
291.29	23.160
291.66	22.566
292.03	25.436
292.40	23.201
292.77	22.633
293.13	23.582
293.50	23.907
293.87	21.926
294.24	22.519
294.60	21.689
294.97	22.384
295.34	21.721
295.71	22.301
296.08	20.798
296.44	21.733
296.81	21.797
297.18	21.680
297.55	19.261
297.91	20.317
298.28	21.553
298.65	21.018
299.02	21.344
299.38	21.514
299.75	18.868
300.12	20.179
300.48	19.125
300.85	20.222
301.22	19.745
301.59	20.076
301.95	18.640
302.32	18.999
302.69	19.235
303.05	19.152
303.42	19.259
303.79	19.819
304.15	19.580
304.52	18.192
304.89	18.931
305.25	18.097
305.62	18.913
305.99	18.772
306.35	18.121
306.72	19.058
307.09	19.645
307.45	19.032
307.82	16.183
308.19	19.205
308.55	19.094
308.92	19.119
309.29	17.318
309.65	18.346
310.02	18.605
310.38	18.817
310.75	18.479
311.12	18.321
311.48	18.391
311.85	17.715
312.22	17.586
312.58	17.983
312.95	18.902
313.31	18.835
313.68	17.983
314.05	21.400
314.41	20.101
314.78	17.321
315.14	18.371
315.51	19.156
315.87	19.604
316.24	19.960
316.61	20.273
316.97	19.569
317.34	19.276
317.70	20.746
318.07	19.731
318.43	21.918
318.80	21.275
319.16	20.245
319.53	20.450
319.89	22.857
320.26	21.600
320.62	21.825
320.99	23.030
321.35	23.434
321.72	23.511
322.08	23.988
322.45	25.970
322.81	24.031
323.18	26.108
323.54	25.696
323.91	25.000
324.27	26.291
324.64	25.536
325.00	25.789
325.37	27.116
325.73	28.187
326.10	27.096
326.46	28.136
326.83	28.559
327.19	28.693
327.56	29.791
327.92	28.784
328.29	29.547
328.65	29.650
329.01	29.332
329.38	28.955
329.74	29.086
330.11	31.480
330.47	30.670
330.84	31.434
331.20	30.783
331.56	31.651
331.93	30.741
332.29	31.145
332.66	31.062
333.02	30.622
333.38	30.985
333.75	32.620
334.11	31.851
334.48	31.766
334.84	32.353
335.20	31.091
335.57	31.278
335.93	31.518
336.29	32.601
336.66	31.380
337.02	31.131
337.38	32.407
337.75	31.551
338.11	31.155
338.47	32.689
338.84	32.631
339.20	31.468
339.56	33.577
339.93	31.636
340.29	31.884
340.65	33.690
341.02	34.293
341.38	33.541
341.74	31.316
342.11	33.275
342.47	32.687
342.83	31.079
343.20	33.247
343.56	31.676
343.92	32.456
344.28	32.483
344.65	32.158
345.01	32.407
345.37	32.590
345.73	32.403
346.10	32.566
346.46	33.220
346.82	33.361
347.19	33.166
347.55	32.594
347.91	33.495
348.27	33.689
348.63	33.278
349.00	32.443
349.36	32.841
349.72	32.799
350.08	33.063
350.45	32.303
350.81	32.981
351.17	32.658
351.53	32.678
351.89	30.858
352.26	33.781
352.62	32.157
352.98	32.577
353.34	32.786
353.70	33.470
354.07	33.468
354.43	33.254
354.79	33.307
355.15	32.721
355.51	34.053
355.87	33.306
356.24	32.248
356.60	33.039
356.96	33.628
357.32	33.442
357.68	34.488
358.04	32.700
358.40	33.967
358.77	33.177
359.13	32.833
359.49	33.647
359.85	33.651
360.21	33.413
360.57	34.630
360.93	34.769
361.29	33.862
361.66	33.050
362.02	33.134
362.38	34.068
362.74	34.375
363.10	33.235
363.46	34.703
363.82	33.938
364.18	34.141
364.54	35.661
364.90	34.419
365.26	33.750
365.62	36.085
365.98	34.405
366.35	35.100
366.71	35.141
367.07	34.887
367.43	35.486
367.79	34.975
368.15	35.848
368.51	33.576
368.87	36.188
369.23	34.236
369.59	35.916
369.95	35.515
370.31	34.544
370.67	34.565
371.03	36.180
371.39	35.277
371.75	35.441
372.11	35.562
372.47	35.557
372.83	36.599
373.19	34.176
373.55	36.438
373.91	36.303
374.27	34.983
374.63	35.345
374.99	35.169
375.35	34.194
375.71	35.504
376.07	35.528
376.42	35.213
376.78	35.388
377.14	36.635
377.50	36.093
377.86	33.910
378.22	36.283
378.58	34.461
378.94	36.329
379.30	35.751
379.66	36.104
380.02	35.872
380.38	35.458
380.74	36.495
381.09	35.636
381.45	36.693
381.81	36.609
382.17	37.580
382.53	35.723
382.89	36.111
383.25	35.460
383.61	36.927
383.97	35.897
384.32	36.057
384.68	34.696
385.04	35.956
385.40	35.170
385.76	35.442
386.12	35.946
386.48	36.249
386.83	37.267
387.19	36.735
387.55	36.302
387.91	36.215
388.27	35.929
388.62	37.062
388.98	36.057
389.34	35.982
389.70	35.990
390.06	36.375
390.42	35.863
390.77	36.132
391.13	35.099
391.49	36.421
391.85	36.537
392.20	35.079
392.56	36.048
392.92	35.491
393.28	34.793
393.64	35.671
393.99	35.186
394.35	35.794
394.71	35.508
395.07	34.829
395.42	36.279
395.78	36.196
396.14	35.382
396.50	36.028
396.85	36.427
397.21	35.388
397.57	35.896
397.92	35.096
398.28	35.482
398.64	35.424
399.00	34.359
399.35	35.195
399.71	35.590
400.07	35.068
400.42	34.663
400.78	35.404
401.14	36.037
401.49	35.104
401.85	35.209
402.21	34.132
402.57	35.410
402.92	35.183
403.28	34.541
403.63	34.282
403.99	34.268
404.35	34.303
404.70	34.412
405.06	33.489
405.42	34.560
405.77	33.886
406.13	34.029
406.49	33.530
406.84	33.018
407.20	34.397
407.55	34.205
407.91	34.333
408.27	33.631
408.62	32.932
408.98	34.314
409.34	33.764
409.69	34.065
410.05	33.147
410.40	34.128
410.76	32.975
411.11	33.474
411.47	32.971
411.83	33.415
412.18	33.148
412.54	33.624
412.89	33.735
413.25	33.176
413.60	33.539
413.96	32.058
414.31	32.989
414.67	33.650
415.03	32.781
415.38	33.183
415.74	33.441
416.09	33.638
416.45	32.999
416.80	33.510
417.16	34.584
417.51	33.577
417.87	32.691
418.22	32.114
418.58	34.280
418.93	32.678
419.29	32.909
419.64	33.375
420.00	33.232
420.35	32.522
420.71	33.234
421.06	32.279
421.42	31.988
421.77	32.960
422.12	32.173
422.48	30.815
422.83	32.557
423.19	32.320
423.54	32.559
423.90	32.754
424.25	31.714
424.61	31.726
424.96	33.178
425.31	31.506
425.67	31.854
426.02	30.971
426.38	32.662
426.73	32.066
427.09	32.097
427.44	32.202
427.79	31.167
428.15	32.798
428.50	31.831
428.85	31.704
429.21	32.082
429.56	31.208
429.92	30.750
430.27	30.040
430.62	30.620
430.98	31.085
431.33	31.753
431.68	31.990
432.04	30.831
432.39	31.925
432.74	31.299
433.10	31.353
433.45	31.429
433.80	30.765
434.16	31.571
434.51	30.947
434.86	31.471
435.22	31.740
435.57	31.064
435.92	31.129
436.28	31.257
436.63	31.347
436.98	31.254
437.34	31.783
437.69	31.564
438.04	31.310
438.39	30.746
438.75	32.074
439.10	30.894
439.45	31.995
439.81	31.420
440.16	31.112
440.51	31.810
440.86	31.384
441.22	31.535
441.57	31.051
441.92	30.655
442.27	30.893
442.63	31.280
442.98	31.718
443.33	30.598
443.68	30.924
444.03	31.137
444.39	30.234
444.74	30.465
445.09	30.458
445.44	31.055
445.79	30.430
446.15	31.604
446.50	30.695
446.85	30.164
447.20	30.546
447.55	31.435
447.91	29.288
448.26	31.274
448.61	30.413
448.96	30.454
449.31	31.215
449.66	31.007
450.02	31.198
450.37	30.726
450.72	30.006
451.07	31.261
451.42	30.030
451.77	29.888
452.12	29.503
452.47	30.473
452.83	31.235
453.18	29.890
453.53	31.045
453.88	30.419
454.23	29.707
454.58	30.285
454.93	30.579
455.28	29.364
455.63	29.126
455.98	31.131
456.34	30.276
456.69	30.620
457.04	30.155
457.39	30.099
457.74	29.716
458.09	29.327
458.44	30.217
458.79	29.338
459.14	29.571
459.49	29.013
459.84	29.695
460.19	28.816
460.54	28.993
460.89	29.676
461.24	29.508
461.59	30.447
461.94	29.655
462.29	29.852
462.64	29.419
462.99	29.668
463.34	29.867
463.69	28.455
464.04	29.855
464.39	29.159
464.74	28.461
465.09	28.589
465.44	28.975
465.79	28.747
466.14	29.447
466.49	28.476
466.84	28.488
467.19	29.390
467.54	29.187
467.89	29.412
468.24	28.563
468.59	29.915
468.94	28.894
469.29	28.792
469.64	29.317
469.99	29.973
470.34	29.062
470.68	29.454
471.03	28.776
471.38	28.562
471.73	28.381
472.08	28.816
472.43	27.575
472.78	28.769
473.13	28.498
473.48	28.839
473.83	28.110
474.17	28.002
474.52	28.474
474.87	28.138
475.22	28.033
475.57	27.297
475.92	27.669
476.27	27.508
476.61	27.248
476.96	27.982
477.31	27.577
477.66	28.173
478.01	27.235
478.36	28.186
478.70	26.999
479.05	27.742
479.40	28.250
479.75	27.250
480.10	26.988
480.45	26.749
480.79	27.329
481.14	27.250
481.49	27.480
481.84	26.383
482.19	26.443
482.53	27.018
482.88	26.524
483.23	27.056
483.58	26.661
483.92	27.320
484.27	24.967
484.62	25.431
484.97	25.424
485.31	26.062
485.66	24.090
486.01	24.816
486.36	24.557
486.70	24.908
487.05	25.056
487.40	25.485
487.75	25.192
488.09	25.811
488.44	25.817
488.79	25.606
489.13	25.936
489.48	24.715
489.83	25.723
490.17	25.296
490.52	25.199
490.87	24.966
491.22	24.920
491.56	25.148
491.91	25.314
492.26	23.978
492.60	25.253
492.95	24.790
493.30	25.047
493.64	24.638
493.99	24.745
494.34	25.717
494.68	25.092
495.03	25.329
495.37	23.825
495.72	25.390
496.07	25.244
496.41	23.584
496.76	25.154
497.11	24.674
497.45	24.686
497.80	25.096
498.14	24.734
498.49	24.780
498.84	24.545
499.18	24.524
499.53	24.691
499.87	24.185
500.22	24.352
500.56	24.854
500.91	23.894
501.26	24.656
501.60	24.347
501.95	24.015
502.29	25.023
502.64	24.395
502.98	24.778
503.33	23.492
503.67	23.852
504.02	24.088
504.36	24.193
504.71	24.817
505.06	24.434
505.40	23.967
505.75	23.867
506.09	23.761
506.44	23.779
506.78	24.160
507.13	24.079
507.47	24.242
507.82	23.607
508.16	23.506
508.51	24.759
508.85	23.585
509.19	24.694
509.54	23.878
509.88	23.648
510.23	23.650
510.57	24.613
510.92	23.874
511.26	23.587
511.61	24.533
511.95	23.278
512.30	24.072
512.64	23.589
512.98	23.741
513.33	24.036
513.67	23.479
514.02	23.593
514.36	24.850
514.70	24.184
515.05	22.922
515.39	23.724
515.74	23.592
516.08	23.812
516.42	23.696
516.77	24.638
517.11	23.418
517.46	23.476
517.80	23.345
518.14	22.814
518.49	22.929
518.83	23.750
519.17	23.730
519.52	24.052
519.86	24.643
520.20	24.104
520.55	24.895
520.89	24.392
521.23	24.487
521.58	23.950
521.92	23.882
522.26	23.734
522.61	23.925
522.95	23.389
523.29	23.920
523.64	24.268
523.98	24.030
524.32	23.462
524.66	24.293
525.01	24.142
525.35	23.172
525.69	23.214
526.04	24.424
526.38	23.917
526.72	23.620
527.06	23.540
527.41	23.082
527.75	24.051
528.09	23.378
528.43	23.199
528.78	23.233
529.12	23.515
529.46	23.637
529.80	23.082
530.15	23.925
530.49	23.138
530.83	23.924
531.17	23.629
531.51	24.125
531.86	23.032
532.20	24.250
532.54	24.151
532.88	23.299
533.22	22.361
533.57	23.395
533.91	22.396
534.25	22.053
534.59	23.124
534.93	23.617
535.27	22.933
535.62	23.199
535.96	23.666
536.30	23.395
536.64	22.666
536.98	22.827
537.32	23.173
537.66	23.867
538.01	23.634
538.35	23.077
538.69	23.101
539.03	22.157
539.37	22.556
539.71	21.646
540.05	23.137
540.39	22.857
540.73	22.898
541.07	21.739
541.42	22.179
541.76	23.290
542.10	23.351
542.44	22.781
542.78	22.991
543.12	21.881
543.46	23.279
543.80	23.162
544.14	22.080
544.48	21.714
544.82	22.643
545.16	22.251
545.50	21.851
545.84	22.446
546.18	22.559
546.52	22.436
546.86	21.856
547.20	22.994
547.54	22.846
547.88	23.278
548.22	22.354
548.56	21.824
548.90	22.599
549.24	21.818
549.58	21.760
549.92	22.596
550.26	22.159
550.60	21.438
550.94	22.746
551.28	21.507
551.62	22.142
551.96	21.825
552.30	23.345
552.64	22.583
552.98	22.644
553.32	22.320
553.66	22.427
554.00	21.620
554.34	22.291
554.68	21.960
555.02	22.073
555.36	21.712
555.69	20.771
556.03	22.140
556.37	21.828
556.71	21.692
557.05	21.499
557.39	22.113
557.73	22.371
558.07	23.060
558.41	20.188
558.75	21.602
559.08	21.029
559.42	21.013
559.76	22.721
560.10	21.556
560.44	22.013
560.78	20.625
561.12	22.230
561.45	22.034
561.79	21.622
562.13	21.999
562.47	22.404
562.81	21.060
563.15	21.003
563.48	21.286
563.82	21.526
564.16	20.536
564.50	20.768
564.84	20.228
565.17	21.429
565.51	20.895
565.85	21.637
566.19	20.163
566.52	21.216
566.86	21.579
567.20	21.167
567.54	21.233
567.88	21.347
568.21	21.587
568.55	21.183
568.89	20.574
569.23	20.766
569.56	20.040
569.90	20.340
570.24	20.129
570.57	20.231
570.91	19.425
571.25	19.704
571.59	19.971
571.92	19.672
572.26	20.220
572.60	20.210
572.93	19.550
573.27	19.728
573.61	19.877
573.95	20.103
574.28	19.221
574.62	19.436
574.96	19.665
575.29	19.253
575.63	19.563
575.97	19.865
576.30	20.048
576.64	19.636
576.98	19.494
577.31	19.339
577.65	19.131
577.98	19.320
578.32	18.983
578.66	19.455
578.99	19.767
579.33	19.221
579.67	18.901
580.00	19.084
580.34	19.791
580.67	19.192
581.01	19.406
581.35	19.186
581.68	19.230
582.02	18.856
582.35	19.204
582.69	19.083
583.02	19.669
583.36	19.484
583.70	19.156
584.03	18.809
584.37	19.736
584.70	18.783
585.04	19.227
585.37	19.152
585.71	19.290
586.04	19.232
586.38	19.540
586.72	19.635
587.05	19.152
587.39	18.734
587.72	19.016
588.06	19.584
588.39	19.342
588.73	19.273
589.06	19.819
589.40	19.226
589.73	19.465
590.07	19.359
590.40	19.218
590.73	20.023
591.07	19.617
591.40	19.443
591.74	20.909
592.07	20.201
592.41	19.388
592.74	18.502
593.08	19.420
593.41	19.329
593.75	19.113
594.08	19.511
594.41	19.265
594.75	19.482
595.08	19.291
595.42	19.790
595.75	19.053
596.09	19.902
596.42	20.118
596.75	19.291
597.09	20.303
597.42	18.887
597.75	19.319
598.09	19.435
598.42	18.943
598.76	18.403
599.09	18.700
599.42	18.668
599.76	19.143
600.09	19.053
600.42	19.065
600.76	18.643
601.09	18.907
601.42	19.216
601.76	19.317
602.09	18.854
602.42	19.427
602.76	19.266
603.09	19.001
603.42	19.289
603.76	19.169
604.09	18.845
604.42	19.323
604.76	18.853
605.09	19.004
605.42	18.854
605.75	19.536
606.09	19.235
606.42	19.125
606.75	18.955
607.09	19.422
607.42	18.656
607.75	18.270
608.08	18.063
608.42	19.408
608.75	18.620
609.08	18.224
609.41	18.420
609.75	19.295
610.08	18.615
610.41	18.622
610.74	19.158
611.07	19.516
611.41	19.038
611.74	19.910
612.07	18.892
612.40	19.727
612.73	18.632
613.07	19.666
613.40	19.589
613.73	18.773
614.06	18.925
614.39	19.927
614.72	19.158
615.06	19.013
615.39	18.737
615.72	18.609
616.05	19.086
616.38	18.733
616.71	19.299
617.05	19.494
617.38	19.002
617.71	18.919
618.04	19.111
618.37	19.456
618.70	19.975
619.03	20.395
619.36	19.620
619.69	18.944
620.03	19.574
620.36	19.987
620.69	19.795
621.02	19.395
621.35	18.168
621.68	19.003
622.01	19.272
622.34	18.533
622.67	19.924
623.00	19.002
623.33	18.370
623.66	19.014
623.99	18.999
624.32	19.187
624.65	19.492
624.99	19.618
625.32	18.320
625.65	19.083
625.98	19.985
626.31	20.529
626.64	18.531
626.97	19.119
627.30	19.451
627.63	20.180
627.96	20.858
628.29	19.773
628.62	20.403
628.95	21.415
629.28	19.982
629.61	20.348
629.94	19.714
630.26	20.210
630.59	18.494
630.92	20.402
631.25	19.151
631.58	20.921
631.91	20.081
632.24	19.198
632.57	20.252
632.90	19.846
633.23	19.463
633.56	20.452
633.89	19.932
634.22	21.226
634.55	20.947
634.88	19.162
635.20	18.996
635.53	20.843
635.86	22.277
636.19	20.235
636.52	19.954
636.85	20.848
637.18	17.857
637.51	20.567
637.83	18.496
638.16	19.821
638.49	19.521
638.82	20.860
639.15	21.000
639.48	21.571
639.81	22.252
640.13	20.833
640.46	20.537
640.79	20.343
641.12	19.945
641.45	21.508
641.77	18.851
642.10	22.368
642.43	18.468
642.76	21.362
643.09	21.626
643.41	20.941
643.74	19.907
644.07	20.274
644.40	22.086
644.73	22.205
645.05	23.455
645.38	19.115
645.71	21.900
646.04	20.598
646.36	23.873
646.69	22.910
647.02	20.408
647.35	23.711
647.67	20.531
648.00	21.789
648.33	21.617
648.66	19.242
648.98	22.189
649.31	20.777
649.64	20.329
649.96	20.715
650.29	20.853
650.62	21.359
650.94	21.556
651.27	21.453
651.60	21.797
651.92	22.843
652.25	20.358
652.58	22.118
652.90	21.485
653.23	20.955
653.56	20.000
653.88	21.395
654.21	22.275
654.54	19.967
654.86	21.495
655.19	21.486
655.52	16.438
655.84	15.448
656.17	19.521
656.49	26.763
656.82	27.338
657.15	20.751
657.47	15.241
657.80	11.697
658.13	12.212
658.45	17.933
658.78	17.571
659.10	17.997
659.43	18.720
659.75	18.222
660.08	18.924
660.41	19.088
660.73	20.076
661.06	18.471
661.38	22.545
661.71	21.731
662.03	23.669
662.36	19.682
662.68	24.498
663.01	21.616
663.33	22.718
663.66	21.849
663.98	23.326
664.31	21.218
664.63	19.838
664.96	19.920
665.28	23.156
665.61	23.002
665.93	21.730
666.26	24.341
666.58	23.431
666.91	22.410
667.23	23.596
667.56	22.894
667.88	24.786
668.21	22.601
668.53	21.258
668.86	21.212
669.18	23.028
669.50	22.826
669.83	26.362
670.15	22.444
670.48	22.658
670.80	23.060
671.13	22.293
671.45	21.064
671.77	26.477
672.10	21.442
672.42	19.965
672.75	22.720
673.07	21.655
673.39	19.349
673.72	23.047
674.04	23.137
674.37	20.583
674.69	22.290
675.01	21.339
675.34	25.257
675.66	23.158
675.98	22.811
676.31	22.269
676.63	23.779
676.95	23.270
677.28	23.131
677.60	25.055
677.92	23.840
678.25	22.382
678.57	21.713
678.89	23.046
679.22	22.790
679.54	23.664
679.86	23.303
680.18	21.109
680.51	23.404
680.83	22.242
681.15	22.264
681.48	22.873
681.80	22.437
682.12	20.881
682.44	19.536
682.77	23.422
683.09	23.605
683.41	21.729
683.73	22.737
684.06	23.347
684.38	22.114
684.70	21.899
685.02	21.951
685.34	21.978
685.67	20.455
685.99	22.165
686.31	20.478
686.63	20.318
686.96	20.536
687.28	20.758
687.60	21.920
687.92	22.486
688.24	20.722
688.56	21.888
688.89	22.407
689.21	24.454
689.53	22.756
689.85	25.055
690.17	19.669
690.49	23.779
690.82	23.131
691.14	22.098
691.46	21.730
691.78	23.896
692.10	21.901
692.42	22.156
692.74	19.710
693.06	23.617
693.39	22.998
693.71	21.834
694.03	21.474
694.35	21.645
694.67	23.570
694.99	24.390
695.31	25.000
695.63	24.163
695.95	24.205
696.27	20.812
696.59	23.316
696.91	24.093
697.23	22.300
697.56	23.241
697.88	19.836
698.20	21.250
698.52	21.505
698.84	22.049
699.16	22.581
699.48	25.178
699.80	21.739
700.12	28.831
700.44	23.077
700.76	24.309
701.08	23.851
701.40	25.698
701.72	25.073
702.04	27.557
702.36	21.246
702.68	23.796
703.00	23.823
703.32	21.277
703.64	26.273
703.96	25.905
704.28	23.837
704.60	24.927
704.91	26.409
705.23	25.806
705.55	28.571
705.87	29.568
706.19	24.735
706.51	25.545
706.83	25.455
707.15	28.291
707.47	23.232
707.79	24.324
708.11	23.288
708.43	25.952
708.74	21.173
709.06	24.156
709.38	24.934
709.70	25.000
710.02	27.893
710.34	21.818
710.66	23.582
710.98	25.284
711.29	26.453
711.61	30.088
711.93	25.000
712.25	27.653
712.57	25.735
712.89	31.142
713.20	28.267
713.52	24.671
713.84	25.949
714.16	26.829
714.48	25.287
714.80	25.836
715.11	25.072
715.43	27.596
715.75	21.739
716.07	23.642
716.39	25.392
716.70	25.914
717.02	26.978
717.34	28.269
717.66	25.373
717.97	29.084
718.29	25.185
718.61	27.737
718.93	27.574
719.24	29.758
719.56	24.068
719.88	26.102
720.20	28.041
720.51	25.087
720.83	26.394
721.15	26.866
721.46	31.206
721.78	26.882
722.10	27.925
722.42	31.203
722.73	28.464
723.05	25.410
723.37	28.745
723.68	30.888
724.00	27.236
724.32	28.226
724.63	30.894
724.95	24.686
725.27	31.174
725.58	29.687
725.90	29.562
726.22	27.170
726.53	26.736
726.85	26.280
727.16	27.758
727.48	26.596
727.80	25.379
728.11	32.246
728.43	26.154
728.74	29.749
729.06	31.752
729.38	31.250
729.69	30.961
730.01	22.867
730.32	26.736
730.64	27.425
730.96	21.782
731.27	27.483
731.59	27.217
731.90	25.656
732.22	24.224
732.53	23.839
732.85	27.564
733.16	26.045
733.48	24.917
733.80	25.974
734.11	30.255
734.43	25.148
734.74	22.286
735.06	24.928
735.37	26.879
735.69	24.522
736.00	29.085
736.32	30.218
736.63	26.198
736.95	29.712
737.26	23.810
737.58	24.516
737.89	25.753
738.21	28.328
738.52	27.143
738.83	26.415
739.15	26.538
739.46	27.737
739.78	28.125
740.09	27.692
740.41	30.000
740.72	27.178
741.04	30.741
741.35	29.167
741.66	32.000
741.98	27.358
742.29	36.364
742.61	32.328
742.92	31.222
743.23	32.051
743.55	31.600
743.86	25.439
744.18	32.301
744.49	33.971
744.80	33.803
745.12	34.091
745.43	33.040
745.74	30.180
746.06	32.569
746.37	31.390
746.68	36.652
747.00	35.185
747.31	34.762
747.62	23.451
747.94	28.634
748.25	26.809
748.56	33.921
748.88	25.743
749.19	36.500
749.50	28.837
749.82	31.707
750.13	25.714
750.44	28.467
750.75	28.772
751.07	28.939
751.38	28.223
751.69	28.159
752.01	30.451
752.32	25.271
752.63	27.305
752.94	29.508
753.26	33.600
753.57	25.203
753.88	33.203
754.19	25.357
754.51	28.472
754.82	22.744
755.13	28.679
755.44	29.699
755.75	27.007
756.07	25.532
756.38	25.547
756.69	24.832
757.00	29.042
757.31	24.629
757.63	24.854
757.94	27.882
758.25	23.529
758.56	23.457
758.87	25.538
759.18	24.848
759.50	24.138
759.81	26.791
760.12	21.562
760.43	24.928
760.74	23.370
761.05	27.966
761.36	22.460
761.67	23.580
761.99	23.913
762.30	26.389
762.61	25.573
762.92	28.516
763.23	30.672
763.54	33.600
763.85	28.906
764.16	29.615
764.47	30.418
764.78	25.442
765.10	25.000
765.41	26.844
765.72	28.144
766.03	26.646
766.34	25.667
766.65	31.915
766.96	27.350
767.27	35.533
767.58	36.979
767.89	36.316
768.20	32.759
768.51	35.025
768.82	35.321
769.13	30.081
769.44	24.696
769.75	33.476
770.06	24.771
770.37	33.484
770.68	32.870
770.99	28.889
771.30	27.459
771.61	38.117
771.92	32.377
772.23	36.134
772.54	32.308
772.85	29.319
773.16	30.319
773.47	30.435
773.78	36.548
774.09	32.738
774.39	33.918
774.70	36.420
775.01	38.406
775.32	41.830
775.63	42.105
775.94	36.691
776.25	46.457
776.56	44.030
776.87	42.623
777.18	38.281
777.48	48.855
777.79	41.667
778.10	35.556
778.41	49.107
778.72	36.496
779.03	32.886
779.34	32.215
779.65	37.162
779.95	33.742
780.26	46.405
780.57	37.931
780.88	50.000
781.19	43.609
781.50	42.568
781.80	35.220
782.11	35.028
782.42	37.342
782.73	40.491
783.04	37.838
783.34	41.549
783.65	38.356
783.96	46.269
784.27	36.364
784.57	40.288
784.88	42.593
785.19	48.413
785.50	38.679
785.81	47.015
786.11	45.082
786.42	41.085
786.73	43.363
787.04	52.830
787.34	45.536
787.65	46.000
787.96	45.946
788.26	49.587
788.57	50.847
788.88	48.760
789.19	48.611
789.49	47.727
789.80	51.145
790.11	62.857
790.41	56.436
790.72	48.193
791.03	48.913
791.33	48.837
791.64	52.577
791.95	60.396
792.25	62.222
792.56	54.545
792.87	66.667
793.17	63.291
793.48	55.172
793.79	74.713
794.09	54.545
794.40	52.101
794.70	52.206
795.01	37.037
795.32	39.568
795.62	44.882
795.93	49.138
796.23	46.903
796.54	58.824
796.85	48.649
797.15	90.141
797.46	60.606
797.76	61.446
798.07	54.430
798.37	52.308
798.68	60.606
798.99	60.563
799.29	63.636
799.60	56.818
799.90	69.863
800.21	64.179
800.51	74.138
800.82	68.421
801.12	60.656
801.43	63.636
801.73	70.270
802.04	71.429
802.34	58.025
802.65	62.500
802.95	71.186
803.26	85.937
803.56	52.857
803.87	67.692
804.17	75.000
804.48	81.481
804.78	70.690
805.09	52.941
805.39	86.538
805.70	85.714
806.00	88.525
806.30	59.091
806.61	60.976
806.91	56.962
807.22	59.211
807.52	67.164
807.83	69.014
808.13	87.500
808.43	76.667
808.74	57.895
809.04	59.420
809.35	73.134
809.65	63.158
809.95	98.387
810.26	64.407
810.56	66.667
810.86	118.182
811.17	107.143
811.47	80.000
811.77	85.185
812.08	78.182
812.38	80.000
812.69	108.333
812.99	120.455
813.29	110.204
813.59	76.190
813.90	83.673
814.20	76.364
814.50	69.231
814.81	86.765
815.11	102.041
815.41	81.967
815.72	88.095
816.02	90.909
816.32	102.381
816.62	102.500
816.93	92.683
817.23	102.381
817.53	97.727
817.84	130.303
818.14	91.304
818.44	104.444
818.74	126.471
819.04	97.500
819.35	105.714
819.65	132.353
819.95	121.429
820.25	125.000
820.56	105.128
820.86	95.455
821.16	90.698
821.46	82.051
821.76	96.000
822.07	142.857
822.37	117.500
822.67	100.000
822.97	82.353
823.27	153.571
823.57	143.243
823.88	137.500
824.18	156.667
824.48	116.667
824.78	204.000
825.08	166.667
825.38	94.595
825.69	100.000
825.99	179.167
826.29	144.828
826.59	128.947
826.89	134.211
827.19	147.059
827.49	122.581
827.79	109.091
828.09	104.545
828.39	100.000
828.70	112.245
829.00	155.556
829.30	125.806
829.60	117.500
829.90	233.333
830.20	150.000
830.50	160.870
830.80	200.000
831.10	170.000
831.40	143.333
831.70	113.043
832.00	200.000
832.30	185.185
832.60	262.500
832.90	156.667
833.20	264.286
833.50	151.613
833.80	134.483
834.10	137.500
834.40	215.385
834.70	255.556
835.00	257.143
835.30	105.714
835.60	238.462
835.90	168.966
836.20	207.143
836.50	148.276
836.80	140.000
837.10	122.222
837.40	204.762
837.70	229.412
838.00	159.259
838.30	128.571
838.60	233.333
838.90	173.077
839.19	195.000
839.49	321.429
839.79	240.000
840.09	195.000
840.39	204.762
840.69	195.652
840.99	194.444
841.29	280.000
841.59	275.000
841.88	306.250
842.18	124.138
842.48	190.476
842.78	153.333
843.08	173.913
843.38	131.250
843.68	716.667
843.97	203.846
844.27	179.310
844.57	242.857
844.87	275.000
845.17	162.963
845.47	1100.000
845.76	377.778
846.06	223.529
846.36	425.000
846.66	292.857
846.96	206.250
847.25	309.091
847.55	272.727
847.85	208.696
848.15	370.000
848.44	335.714
848.74	216.667
849.04	252.941
849.34	370.000
849.63	231.579
849.93	290.909
850.23	620.000
850.53	300.000
850.82	1100.000
851.12	-2800.000
851.42	2900.000
851.71	195.000
852.01	-733.333
852.31	183.333
852.61	1400.000
852.90	209.524
853.20	160.000
853.50	276.471
853.79	209.524
854.09	179.167
854.39	293.750
854.68	132.432
854.98	129.032
855.28	126.667
855.57	172.414
855.87	162.963
856.17	157.895
856.46	180.000
856.76	200.000
857.05	96.552
857.35	150.000
857.65	266.667
857.94	182.609
858.24	223.077
858.53	220.000
858.83	181.818
859.13	233.333
859.42	0.000
859.72	400.000
860.01	427.273
860.31	195.455
860.60	210.526
860.90	165.217
861.20	300.000
861.49	450.000
861.79	-3300.000
862.08	400.000
862.38	242.857
862.67	276.923
862.97	305.882
863.26	500.000
863.56	250.000
863.85	325.000
864.15	537.500
864.44	346.667
864.74	666.667
865.03	525.000
865.33	189.474
865.62	390.909
865.92	346.154
866.21	308.333
866.51	0.000
866.80	300.000
867.10	740.000
867.39	338.462
867.69	318.182
867.98	215.789
868.27	363.636
868.57	247.368
868.86	-2600.000
869.16	331.250
869.45	1750.000
869.75	-2200.000
870.04	358.333
870.33	557.143
870.63	750.000
870.92	1600.000
871.22	514.286
871.51	217.647
871.80	180.952
872.10	257.143
>>>>>End Processed Spectral Data<<<<<
