SpectraSuite Data File
++++++++++++++++++++++++++++++++++++
Date: Wed May 13 20:35:04 PDT 2015
User: schluterlab
Dark Spectrum Present: Yes
Reference Spectrum Present: Yes
Number of Sampled Component Spectra: 1
Spectrometers: USB2E3373
Integration Time (usec): 3000 (USB2E3373)
Spectra Averaged: 3 (USB2E3373)
Boxcar Smoothing: 0 (USB2E3373)
Correct for Electrical Dark: No (USB2E3373)
Strobe/Lamp Enabled: No (USB2E3373)
Correct for Detector Non-linearity: No (USB2E3373)
Correct for Stray Light: No (USB2E3373)
Number of Pixels in Processed Spectrum: 2048
>>>>>Begin Processed Spectral Data<<<<<
178.53	0.000
178.91	-975.000
179.29	-725.000
179.67	-205.556
180.04	-875.000
180.42	1300.000
180.80	820.000
181.18	-650.000
181.56	400.000
181.94	0.000
182.31	-471.429
182.69	1233.333
183.07	-412.500
183.45	-388.889
183.83	381.818
184.20	-290.000
184.58	1600.000
184.96	4300.000
185.34	-400.000
185.72	-425.000
186.09	-1950.000
186.47	1900.000
186.85	1450.000
187.23	3600.000
187.61	-1433.333
187.98	1150.000
188.36	490.909
188.74	336.364
189.12	-800.000
189.49	400.000
189.87	-4100.000
190.25	-850.000
190.63	292.857
191.00	330.769
191.38	600.000
191.76	-975.000
192.14	1075.000
192.51	537.500
192.89	650.000
193.27	550.000
193.65	-1000.000
194.02	440.000
194.40	580.000
194.78	410.000
195.15	391.667
195.53	470.000
195.91	-1500.000
196.29	262.500
196.66	231.579
197.04	-290.000
197.42	0.000
197.79	530.000
198.17	-2800.000
198.55	528.571
198.92	475.000
199.30	480.000
199.68	0.000
200.05	261.111
200.43	542.857
200.81	3500.000
201.18	1366.667
201.56	-1266.667
201.94	400.000
202.31	411.111
202.69	333.333
203.07	450.000
203.44	0.000
203.82	775.000
204.19	571.429
204.57	357.143
204.95	362.500
205.32	766.667
205.70	363.636
206.08	314.286
206.45	2200.000
206.83	262.500
207.20	550.000
207.58	500.000
207.96	266.667
208.33	475.000
208.71	-550.000
209.08	657.143
209.46	422.222
209.84	263.636
210.21	-933.333
210.59	1150.000
210.96	-237.500
211.34	2000.000
211.71	420.000
212.09	550.000
212.46	0.000
212.84	1066.667
213.22	950.000
213.59	-2900.000
213.97	716.667
214.34	614.286
214.72	400.000
215.09	820.000
215.47	-1300.000
215.84	-1350.000
216.22	1233.333
216.59	285.714
216.97	1000.000
217.34	363.636
217.72	-500.000
218.09	0.000
218.47	-3400.000
218.84	400.000
219.22	485.714
219.59	1366.667
219.97	-571.429
220.34	880.000
220.72	-1333.333
221.09	314.286
221.47	1050.000
221.84	-583.333
222.22	0.000
222.59	900.000
222.97	-1650.000
223.34	800.000
223.72	307.692
224.09	660.000
224.46	1750.000
224.84	-3000.000
225.21	-740.000
225.59	-3900.000
225.96	540.000
226.34	245.000
226.71	1950.000
227.08	462.500
227.46	390.000
227.83	-800.000
228.21	-1450.000
228.58	388.889
228.95	-2100.000
229.33	-1400.000
229.70	1133.333
230.08	642.857
230.45	-580.000
230.82	300.000
231.20	483.333
231.57	500.000
231.95	333.333
232.32	145.455
232.69	245.455
233.07	528.571
233.44	200.000
233.81	-1300.000
234.19	236.842
234.56	266.667
234.93	266.667
235.31	318.182
235.68	230.769
236.05	321.429
236.43	121.212
236.80	252.632
237.17	3400.000
237.55	171.429
237.92	150.000
238.29	142.857
238.67	132.258
239.04	175.862
239.41	119.444
239.79	104.348
240.16	109.524
240.53	106.818
240.91	103.922
241.28	100.000
241.65	90.000
242.02	98.551
242.40	88.710
242.77	96.667
243.14	73.118
243.51	82.022
243.89	76.471
244.26	63.333
244.63	77.419
245.00	60.638
245.38	65.347
245.75	64.486
246.12	57.798
246.49	62.774
246.87	57.600
247.24	66.154
247.61	59.286
247.98	56.209
248.36	51.351
248.73	55.414
249.10	58.599
249.47	59.322
249.84	56.150
250.22	58.824
250.59	56.213
250.96	57.071
251.33	52.607
251.70	54.950
252.08	47.143
252.45	47.982
252.82	52.609
253.19	46.809
253.56	47.059
253.94	51.452
254.31	46.094
254.68	50.000
255.05	50.554
255.42	50.000
255.79	50.735
256.16	45.126
256.54	46.290
256.91	45.907
257.28	43.525
257.65	46.865
258.02	44.099
258.39	47.003
258.76	46.154
259.14	46.131
259.51	44.073
259.88	43.789
260.25	43.505
260.62	42.775
260.99	48.447
261.36	43.844
261.73	44.126
262.10	42.442
262.47	40.845
262.85	44.568
263.22	41.026
263.59	43.020
263.96	44.505
264.33	44.125
264.70	41.053
265.07	43.223
265.44	38.636
265.81	40.389
266.18	42.211
266.55	41.707
266.92	42.998
267.29	43.287
267.66	41.284
268.03	40.227
268.40	40.888
268.77	42.005
269.14	40.315
269.51	41.309
269.88	44.522
270.25	41.761
270.62	40.225
270.99	42.796
271.36	40.129
271.73	41.355
272.10	38.043
272.47	40.860
272.84	40.693
273.21	40.881
273.58	39.738
273.95	37.317
274.32	38.843
274.69	43.041
275.06	38.189
275.43	42.766
275.80	40.882
276.17	38.697
276.54	38.877
276.91	39.921
277.28	36.914
277.65	41.586
278.02	40.166
278.39	39.844
278.76	39.818
279.13	36.415
279.50	38.920
279.87	36.653
280.23	39.321
280.60	38.104
280.97	39.187
281.34	38.053
281.71	38.000
282.08	38.004
282.45	37.455
282.82	37.655
283.19	38.503
283.56	35.789
283.92	37.225
284.29	36.508
284.66	38.294
285.03	36.166
285.40	35.211
285.77	37.542
286.14	37.997
286.51	36.500
286.87	37.436
287.24	36.971
287.61	36.276
287.98	35.552
288.35	34.707
288.72	34.112
289.08	35.368
289.45	36.244
289.82	34.797
290.19	33.752
290.56	32.772
290.93	32.628
291.29	35.123
291.66	33.481
292.03	34.012
292.40	33.333
292.77	31.953
293.13	32.090
293.50	31.778
293.87	32.148
294.24	30.963
294.60	32.023
294.97	32.267
295.34	31.030
295.71	30.824
296.08	30.627
296.44	32.737
296.81	29.855
297.18	29.675
297.55	27.836
297.91	29.815
298.28	28.782
298.65	29.243
299.02	28.327
299.38	29.349
299.75	27.898
300.12	27.458
300.48	28.250
300.85	26.757
301.22	27.898
301.59	26.389
301.95	27.204
302.32	26.444
302.69	27.838
303.05	27.394
303.42	26.420
303.79	27.067
304.15	25.291
304.52	26.651
304.89	26.945
305.25	25.522
305.62	26.840
305.99	26.919
306.35	26.957
306.72	26.121
307.09	26.526
307.45	26.351
307.82	25.335
308.19	27.042
308.55	26.537
308.92	25.242
309.29	24.710
309.65	25.769
310.02	26.638
310.38	25.376
310.75	26.082
311.12	26.305
311.48	25.914
311.85	26.520
312.22	25.911
312.58	25.364
312.95	26.399
313.31	24.272
313.68	27.443
314.05	26.430
314.41	25.427
314.78	25.076
315.14	25.422
315.51	25.232
315.87	26.139
316.24	27.309
316.61	23.782
316.97	24.168
317.34	24.168
317.70	25.717
318.07	23.869
318.43	26.223
318.80	25.773
319.16	24.765
319.53	24.484
319.89	23.619
320.26	24.300
320.62	24.802
320.99	25.354
321.35	25.253
321.72	25.051
322.08	25.271
322.45	24.577
322.81	26.163
323.18	24.855
323.54	25.603
323.91	25.189
324.27	24.283
324.64	24.697
325.00	23.264
325.37	24.659
325.73	25.135
326.10	24.184
326.46	23.297
326.83	23.986
327.19	24.338
327.56	23.606
327.92	24.497
328.29	24.135
328.65	24.862
329.01	24.368
329.38	23.867
329.74	24.377
330.11	23.280
330.47	23.600
330.84	25.827
331.20	23.588
331.56	23.945
331.93	24.167
332.29	24.046
332.66	24.956
333.02	24.223
333.38	24.842
333.75	24.153
334.11	24.466
334.48	23.336
334.84	24.816
335.20	25.091
335.57	23.028
335.93	23.125
336.29	23.810
336.66	24.256
337.02	23.439
337.38	23.704
337.75	23.529
338.11	24.978
338.47	23.297
338.84	23.923
339.20	23.761
339.56	25.000
339.93	22.909
340.29	22.736
340.65	22.906
341.02	23.298
341.38	23.310
341.74	22.895
342.11	24.803
342.47	23.260
342.83	23.716
343.20	23.463
343.56	22.578
343.92	22.895
344.28	22.194
344.65	22.786
345.01	22.811
345.37	22.384
345.73	22.589
346.10	23.615
346.46	21.949
346.82	22.982
347.19	22.139
347.55	22.332
347.91	22.977
348.27	23.829
348.63	22.993
349.00	22.573
349.36	23.235
349.72	22.053
350.08	20.746
350.45	22.457
350.81	22.827
351.17	22.528
351.53	22.031
351.89	20.792
352.26	21.389
352.62	22.855
352.98	21.475
353.34	22.432
353.70	21.604
354.07	21.935
354.43	22.540
354.79	21.158
355.15	21.309
355.51	22.382
355.87	22.286
356.24	22.394
356.60	20.289
356.96	21.561
357.32	21.504
357.68	21.260
358.04	21.615
358.40	21.378
358.77	20.970
359.13	20.916
359.49	21.255
359.85	20.238
360.21	21.691
360.57	22.724
360.93	21.538
361.29	21.542
361.66	20.124
362.02	22.537
362.38	21.217
362.74	21.503
363.10	20.133
363.46	20.176
363.82	21.693
364.18	20.778
364.54	21.322
364.90	22.450
365.26	20.368
365.62	20.526
365.98	20.380
366.35	20.129
366.71	20.680
367.07	20.757
367.43	21.118
367.79	21.842
368.15	22.055
368.51	20.422
368.87	20.271
369.23	20.263
369.59	21.796
369.95	21.029
370.31	19.943
370.67	20.217
371.03	21.648
371.39	21.137
371.75	20.000
372.11	20.341
372.47	20.674
372.83	21.326
373.19	20.448
373.55	20.695
373.91	21.208
374.27	19.725
374.63	20.509
374.99	20.339
375.35	20.098
375.71	20.082
376.07	19.890
376.42	19.670
376.78	20.278
377.14	19.946
377.50	20.331
377.86	19.082
378.22	20.291
378.58	19.361
378.94	19.485
379.30	19.656
379.66	19.987
380.02	19.963
380.38	19.854
380.74	19.808
381.09	20.416
381.45	20.774
381.81	19.902
382.17	19.745
382.53	19.245
382.89	20.556
383.25	19.575
383.61	19.703
383.97	20.388
384.32	20.150
384.68	19.641
385.04	19.545
385.40	20.000
385.76	19.902
386.12	19.430
386.48	19.383
386.83	20.141
387.19	20.099
387.55	19.109
387.91	19.347
388.27	18.823
388.62	19.791
388.98	18.796
389.34	19.399
389.70	19.804
390.06	19.455
390.42	18.418
390.77	18.893
391.13	18.890
391.49	20.114
391.85	19.223
392.20	18.801
392.56	18.434
392.92	19.894
393.28	18.462
393.64	19.305
393.99	19.181
394.35	19.541
394.71	18.758
395.07	18.754
395.42	19.283
395.78	19.020
396.14	20.050
396.50	19.298
396.85	20.025
397.21	18.804
397.57	19.467
397.92	18.990
398.28	18.161
398.64	19.534
399.00	19.418
399.35	18.556
399.71	18.576
400.07	19.219
400.42	19.080
400.78	19.361
401.14	19.573
401.49	18.866
401.85	18.512
402.21	19.341
402.57	18.692
402.92	18.789
403.28	18.926
403.63	18.812
403.99	18.025
404.35	19.636
404.70	18.825
405.06	18.346
405.42	19.401
405.77	19.086
406.13	18.962
406.49	18.746
406.84	19.138
407.20	17.730
407.55	19.209
407.91	19.933
408.27	18.634
408.62	18.844
408.98	18.689
409.34	19.496
409.69	19.484
410.05	19.393
410.40	19.878
410.76	19.654
411.11	18.938
411.47	18.978
411.83	19.487
412.18	18.738
412.54	19.240
412.89	19.337
413.25	19.303
413.60	19.518
413.96	18.822
414.31	19.016
414.67	19.455
415.03	18.278
415.38	19.716
415.74	19.100
416.09	19.464
416.45	18.742
416.80	18.837
417.16	19.973
417.51	19.907
417.87	19.268
418.22	19.811
418.58	20.529
418.93	19.963
419.29	19.096
419.64	19.521
420.00	19.329
420.35	19.594
420.71	19.366
421.06	18.377
421.42	18.713
421.77	19.899
422.12	18.360
422.48	18.564
422.83	18.870
423.19	18.729
423.54	18.456
423.90	19.014
424.25	19.430
424.61	19.226
424.96	19.242
425.31	18.660
425.67	19.045
426.02	18.229
426.38	19.841
426.73	18.900
427.09	18.663
427.44	19.494
427.79	19.436
428.15	19.167
428.50	19.310
428.85	19.309
429.21	19.105
429.56	18.974
429.92	19.074
430.27	18.520
430.62	18.484
430.98	19.668
431.33	18.608
431.68	19.215
432.04	18.903
432.39	18.561
432.74	18.552
433.10	18.393
433.45	19.650
433.80	18.902
434.16	19.231
434.51	19.316
434.86	19.555
435.22	19.511
435.57	19.088
435.92	19.602
436.28	19.098
436.63	19.592
436.98	19.118
437.34	19.797
437.69	19.428
438.04	19.168
438.39	19.224
438.75	20.105
439.10	18.939
439.45	19.303
439.81	18.610
440.16	18.803
440.51	18.571
440.86	18.992
441.22	18.910
441.57	19.055
441.92	19.038
442.27	20.022
442.63	18.694
442.98	19.831
443.33	19.348
443.68	19.411
444.03	18.985
444.39	18.257
444.74	19.102
445.09	19.137
445.44	18.917
445.79	19.149
446.15	19.217
446.50	19.278
446.85	19.168
447.20	19.072
447.55	18.370
447.91	19.084
448.26	19.421
448.61	19.446
448.96	18.383
449.31	18.673
449.66	20.146
450.02	18.607
450.37	19.444
450.72	20.079
451.07	19.013
451.42	19.392
451.77	19.319
452.12	19.457
452.47	18.843
452.83	19.056
453.18	20.232
453.53	19.604
453.88	18.960
454.23	19.486
454.58	20.957
454.93	20.598
455.28	19.514
455.63	19.782
455.98	21.012
456.34	19.598
456.69	19.537
457.04	19.814
457.39	19.404
457.74	19.327
458.09	19.321
458.44	19.384
458.79	18.709
459.14	19.413
459.49	19.498
459.84	19.723
460.19	19.093
460.54	19.329
460.89	19.199
461.24	19.126
461.59	19.988
461.94	19.482
462.29	20.000
462.64	20.166
462.99	20.039
463.34	20.733
463.69	19.387
464.04	19.420
464.39	19.768
464.74	19.548
465.09	19.602
465.44	18.560
465.79	19.519
466.14	19.759
466.49	20.078
466.84	20.374
467.19	19.493
467.54	20.312
467.89	19.208
468.24	20.884
468.59	20.696
468.94	19.426
469.29	19.344
469.64	20.415
469.99	20.095
470.34	19.749
470.68	20.043
471.03	20.000
471.38	20.153
471.73	20.320
472.08	21.579
472.43	19.724
472.78	20.013
473.13	19.255
473.48	19.788
473.83	19.817
474.17	20.037
474.52	20.347
474.87	20.198
475.22	20.081
475.57	20.097
475.92	19.225
476.27	19.222
476.61	19.967
476.96	19.351
477.31	19.152
477.66	19.584
478.01	19.080
478.36	19.778
478.70	19.574
479.05	19.755
479.40	19.857
479.75	19.065
480.10	19.682
480.45	19.277
480.79	19.685
481.14	19.325
481.49	19.886
481.84	19.433
482.19	19.718
482.53	19.495
482.88	19.730
483.23	19.813
483.58	19.563
483.92	19.541
484.27	19.172
484.62	19.353
484.97	18.802
485.31	18.664
485.66	18.559
486.01	18.294
486.36	17.564
486.70	17.679
487.05	18.020
487.40	18.386
487.75	17.881
488.09	17.652
488.44	17.712
488.79	18.626
489.13	18.564
489.48	18.801
489.83	18.990
490.17	19.071
490.52	19.265
490.87	20.036
491.22	19.554
491.56	18.724
491.91	19.358
492.26	18.925
492.60	19.724
492.95	18.803
493.30	19.393
493.64	19.085
493.99	19.313
494.34	20.028
494.68	19.551
495.03	20.019
495.37	19.777
495.72	20.370
496.07	20.093
496.41	18.938
496.76	19.129
497.11	19.901
497.45	20.587
497.80	19.482
498.14	19.275
498.49	19.951
498.84	19.942
499.18	19.190
499.53	20.038
499.87	19.991
500.22	19.878
500.56	20.340
500.91	19.615
501.26	19.298
501.60	20.835
501.95	19.478
502.29	20.244
502.64	20.298
502.98	19.402
503.33	18.921
503.67	19.165
504.02	19.878
504.36	19.560
504.71	19.932
505.06	20.048
505.40	19.883
505.75	19.624
506.09	19.485
506.44	19.832
506.78	19.532
507.13	20.141
507.47	20.606
507.82	20.719
508.16	20.314
508.51	20.142
508.85	20.159
509.19	20.255
509.54	20.408
509.88	19.938
510.23	19.743
510.57	20.846
510.92	20.093
511.26	20.863
511.61	20.591
511.95	19.102
512.30	19.989
512.64	20.742
512.98	20.900
513.33	20.985
513.67	20.438
514.02	19.481
514.36	20.863
514.70	21.029
515.05	20.803
515.39	20.527
515.74	20.946
516.08	21.185
516.42	20.810
516.77	21.405
517.11	20.311
517.46	21.050
517.80	21.312
518.14	21.251
518.49	20.828
518.83	21.648
519.17	20.497
519.52	20.713
519.86	21.449
520.20	21.272
520.55	21.604
520.89	21.655
521.23	21.713
521.58	21.309
521.92	21.249
522.26	20.561
522.61	21.558
522.95	21.179
523.29	20.694
523.64	22.500
523.98	22.366
524.32	21.894
524.66	22.069
525.01	20.895
525.35	20.818
525.69	21.244
526.04	21.931
526.38	20.683
526.72	21.779
527.06	20.841
527.41	20.173
527.75	21.029
528.09	22.158
528.43	21.606
528.78	22.004
529.12	21.515
529.46	22.290
529.80	21.349
530.15	21.994
530.49	21.477
530.83	21.835
531.17	22.128
531.51	23.346
531.86	21.871
532.20	22.360
532.54	22.101
532.88	22.144
533.22	21.174
533.57	21.852
533.91	21.373
534.25	21.324
534.59	21.721
534.93	20.999
535.27	20.157
535.62	21.856
535.96	22.850
536.30	21.360
536.64	21.442
536.98	21.964
537.32	21.791
537.66	21.533
538.01	21.922
538.35	22.107
538.69	22.527
539.03	21.118
539.37	21.278
539.71	20.544
540.05	21.503
540.39	21.595
540.73	22.510
541.07	22.064
541.42	22.896
541.76	22.194
542.10	21.475
542.44	21.258
542.78	21.739
543.12	20.985
543.46	21.967
543.80	21.991
544.14	20.154
544.48	21.206
544.82	21.873
545.16	21.601
545.50	21.080
545.84	22.984
546.18	22.290
546.52	21.679
546.86	21.375
547.20	21.915
547.54	21.910
547.88	22.130
548.22	21.420
548.56	21.384
548.90	21.063
549.24	20.943
549.58	22.306
549.92	21.841
550.26	21.662
550.60	21.093
550.94	21.690
551.28	20.922
551.62	22.070
551.96	22.175
552.30	22.389
552.64	21.704
552.98	21.763
553.32	22.050
553.66	22.427
554.00	22.237
554.34	22.360
554.68	22.961
555.02	22.567
555.36	23.243
555.69	21.989
556.03	22.140
556.37	21.623
556.71	22.033
557.05	22.269
557.39	21.763
557.73	21.665
558.07	22.625
558.41	21.997
558.75	21.822
559.08	23.266
559.42	22.751
559.76	21.618
560.10	21.842
560.44	21.174
560.78	21.690
561.12	21.372
561.45	22.621
561.79	22.083
562.13	21.663
562.47	21.721
562.81	21.757
563.15	21.472
563.48	21.950
563.82	21.331
564.16	21.714
564.50	21.029
564.84	21.176
565.17	21.815
565.51	22.236
565.85	22.081
566.19	21.290
566.52	21.849
566.86	21.579
567.20	20.696
567.54	21.233
567.88	21.184
568.21	20.423
568.55	20.475
568.89	20.963
569.23	19.875
569.56	20.283
569.90	20.113
570.24	19.806
570.57	19.075
570.91	18.811
571.25	19.148
571.59	19.028
571.92	18.865
572.26	19.122
572.60	19.189
572.93	18.771
573.27	19.314
573.61	19.068
573.95	18.708
574.28	19.020
574.62	18.489
574.96	18.734
575.29	18.817
575.63	18.293
575.97	18.615
576.30	18.826
576.64	18.019
576.98	18.206
577.31	18.068
577.65	18.458
577.98	18.335
578.32	17.951
578.66	18.344
578.99	18.124
579.33	18.301
579.67	17.952
580.00	18.533
580.34	17.964
580.67	18.435
581.01	18.529
581.35	18.429
581.68	18.114
582.02	17.737
582.35	18.318
582.69	18.420
583.02	18.163
583.36	18.285
583.70	18.606
584.03	17.921
584.37	18.235
584.70	18.521
585.04	18.151
585.37	18.383
585.71	18.539
586.04	18.434
586.38	19.148
586.72	19.276
587.05	18.256
587.39	18.654
587.72	19.119
588.06	18.463
588.39	18.738
588.73	18.715
589.06	19.103
589.40	18.855
589.73	19.676
590.07	19.431
590.40	18.780
590.73	19.321
591.07	19.495
591.40	19.485
591.74	19.697
592.07	19.546
592.41	19.305
592.74	19.101
593.08	19.520
593.41	19.519
593.75	18.301
594.08	19.175
594.41	18.982
594.75	19.593
595.08	19.184
595.42	19.440
595.75	19.551
596.09	19.339
596.42	19.332
596.75	20.008
597.09	20.303
597.42	18.971
597.75	19.750
598.09	20.174
598.42	19.759
598.76	19.173
599.09	18.966
599.42	19.250
599.76	18.887
600.09	18.798
600.42	19.028
600.76	18.393
601.09	18.689
601.42	19.178
601.76	18.558
602.09	18.498
602.42	19.666
602.76	19.629
603.09	18.961
603.42	19.446
603.76	19.665
604.09	19.310
604.42	19.405
604.76	19.865
605.09	19.572
605.42	19.025
605.75	19.454
606.09	19.032
606.42	19.452
606.75	18.830
607.09	19.590
607.42	18.956
607.75	19.114
608.08	19.323
608.42	19.588
608.75	20.108
609.08	19.380
609.41	19.419
609.75	19.533
610.08	19.651
610.41	18.948
610.74	19.536
611.07	20.702
611.41	19.774
611.74	20.161
612.07	19.720
612.40	20.042
612.73	19.842
613.07	20.420
613.40	20.590
613.73	19.350
614.06	20.753
614.39	20.189
614.72	19.211
615.06	20.641
615.39	19.692
615.72	19.785
616.05	20.096
616.38	20.233
616.71	20.131
617.05	21.437
617.38	19.904
617.71	20.300
618.04	21.875
618.37	20.225
618.70	21.033
619.03	20.921
619.36	20.774
619.69	20.563
620.03	21.909
620.36	21.190
620.69	20.274
621.02	20.723
621.35	21.300
621.68	21.495
622.01	21.053
622.34	22.163
622.67	20.684
623.00	21.570
623.33	21.229
623.66	20.801
623.99	20.913
624.32	20.899
624.65	20.904
624.99	21.176
625.32	20.203
625.65	21.713
625.98	22.521
626.31	22.317
626.64	22.286
626.97	22.195
627.30	21.862
627.63	21.903
627.96	22.372
628.29	21.872
628.62	23.056
628.95	23.208
629.28	23.358
629.61	23.006
629.94	22.952
630.26	21.926
630.59	21.735
630.92	22.126
631.25	21.915
631.58	22.723
631.91	22.515
632.24	24.156
632.57	23.820
632.90	23.026
633.23	23.937
633.56	24.294
633.89	23.216
634.22	23.496
634.55	24.497
634.88	22.994
635.20	24.851
635.53	24.337
635.86	24.505
636.19	23.765
636.52	23.875
636.85	23.826
637.18	23.272
637.51	23.995
637.83	21.948
638.16	25.064
638.49	25.945
638.82	25.537
639.15	24.500
639.48	26.060
639.81	24.263
640.13	26.563
640.46	25.101
640.79	26.024
641.12	23.109
641.45	22.067
641.77	26.951
642.10	26.316
642.43	23.423
642.76	26.161
643.09	23.926
643.41	25.645
643.74	26.235
644.07	25.915
644.40	28.221
644.73	25.827
645.05	26.941
645.38	23.539
645.71	25.604
646.04	26.744
646.36	27.379
646.69	27.425
647.02	24.660
647.35	26.289
647.67	27.080
648.00	27.805
648.33	25.248
648.66	25.152
648.98	27.286
649.31	24.215
649.64	26.457
649.96	25.037
650.29	24.329
650.62	24.110
650.94	26.904
651.27	28.041
651.60	25.790
651.92	23.163
652.25	25.407
652.58	25.389
652.90	27.014
653.23	23.883
653.56	26.142
653.88	25.990
654.21	25.592
654.54	24.422
654.86	27.414
655.19	23.514
655.52	18.470
655.84	16.931
656.17	21.618
656.49	28.485
656.82	28.187
657.15	20.488
657.47	14.902
657.80	11.222
658.13	11.252
658.45	15.938
658.78	16.429
659.10	16.543
659.43	16.916
659.75	17.061
660.08	18.608
660.41	21.601
660.73	23.761
661.06	24.522
661.38	27.091
661.71	26.154
662.03	27.811
662.36	24.652
662.68	29.317
663.01	27.677
663.33	27.176
663.66	28.571
663.98	28.078
664.31	27.311
664.63	26.518
664.96	24.346
665.28	28.279
665.61	25.146
665.93	27.565
666.26	26.978
666.58	28.033
666.91	28.753
667.23	29.663
667.56	26.998
667.88	29.060
668.21	27.505
668.53	26.464
668.86	27.489
669.18	30.490
669.50	29.130
669.83	26.797
670.15	29.556
670.48	27.887
670.80	27.586
671.13	28.025
671.45	25.319
671.77	28.106
672.10	27.172
672.42	26.855
672.75	26.700
673.07	25.352
673.39	24.051
673.72	24.414
674.04	27.843
674.37	25.049
674.69	26.585
675.01	26.360
675.34	28.747
675.66	29.474
675.98	28.513
676.31	28.992
676.63	28.450
676.95	28.512
677.28	28.505
677.60	29.670
677.92	29.747
678.25	26.694
678.57	27.092
678.89	28.056
679.22	25.540
679.54	28.053
679.86	27.890
680.18	23.256
680.51	26.241
680.83	26.868
681.15	25.660
681.48	27.221
681.80	24.371
682.12	28.161
682.44	25.725
682.77	26.273
683.09	29.828
683.41	27.051
683.73	30.464
684.06	26.860
684.38	27.593
684.70	26.163
685.02	27.767
685.34	26.374
685.67	24.126
685.99	23.883
686.31	25.085
686.63	23.852
686.96	23.571
687.28	27.076
687.60	22.464
687.92	26.508
688.24	25.095
688.56	26.104
688.89	28.631
689.21	31.441
689.53	27.349
689.85	27.494
690.17	26.501
690.49	27.389
690.82	26.636
691.14	26.562
691.46	23.418
691.78	27.711
692.10	27.686
692.42	25.749
692.74	22.407
693.06	28.723
693.39	27.721
693.71	24.672
694.03	27.368
694.35	28.571
694.67	25.400
694.99	30.244
695.31	27.451
695.63	28.230
695.95	28.606
696.27	27.919
696.59	27.202
696.91	28.238
697.23	25.352
697.56	27.292
697.88	23.517
698.20	26.042
698.52	25.591
698.84	27.840
699.16	25.576
699.48	27.078
699.80	31.401
700.12	31.688
700.44	28.647
700.76	25.967
701.08	31.609
701.40	27.933
701.72	34.694
702.04	30.114
702.36	29.462
702.68	29.745
703.00	25.485
703.32	28.191
703.64	27.882
703.96	29.526
704.28	29.651
704.60	29.912
704.91	29.080
705.23	28.446
705.55	30.897
705.87	37.209
706.19	29.329
706.51	30.218
706.83	30.303
707.15	31.653
707.47	29.545
707.79	27.518
708.11	27.397
708.43	24.048
708.74	24.745
709.06	29.351
709.38	26.509
709.70	29.360
710.02	32.047
710.34	29.091
710.66	31.940
710.98	28.977
711.29	27.907
711.61	31.268
711.93	32.051
712.25	31.190
712.57	32.721
712.89	29.758
713.20	31.611
713.52	29.276
713.84	32.278
714.16	30.488
714.48	28.736
714.80	34.650
715.11	28.530
715.43	28.487
715.75	30.435
716.07	28.754
716.39	28.213
716.70	32.558
717.02	32.374
717.34	29.682
717.66	34.328
717.97	31.076
718.29	31.481
718.61	31.752
718.93	35.294
719.24	30.796
719.56	29.153
719.88	29.492
720.20	34.797
720.51	33.798
720.83	36.803
721.15	30.970
721.46	31.560
721.78	30.824
722.10	31.698
722.42	35.338
722.73	30.337
723.05	34.836
723.37	32.389
723.68	34.363
724.00	30.488
724.32	33.871
724.63	30.894
724.95	35.565
725.27	36.437
725.58	32.422
725.90	38.321
726.22	35.472
726.53	32.639
726.85	36.860
727.16	32.028
727.48	32.270
727.80	32.955
728.11	32.246
728.43	28.462
728.74	32.258
729.06	30.657
729.38	34.559
729.69	30.605
730.01	28.669
730.32	30.903
730.64	31.438
730.96	29.043
731.27	32.450
731.59	31.804
731.90	30.612
732.22	29.193
732.53	26.935
732.85	28.846
733.16	30.868
733.48	31.561
733.80	32.468
734.11	29.618
734.43	31.361
734.74	29.714
735.06	28.653
735.37	32.659
735.69	28.662
736.00	31.373
736.32	30.530
736.63	31.310
736.95	28.435
737.26	22.789
737.58	28.065
737.89	33.110
738.21	30.375
738.52	34.286
738.83	31.698
739.15	35.000
739.46	34.672
739.78	31.944
740.09	28.923
740.41	30.000
740.72	33.101
741.04	29.630
741.35	32.917
741.66	37.333
741.98	33.491
742.29	35.407
742.61	38.793
742.92	29.864
743.23	35.470
743.55	32.800
743.86	29.825
744.18	40.265
744.49	40.191
744.80	37.089
745.12	40.000
745.43	32.599
745.74	38.288
746.06	37.615
746.37	32.735
746.68	37.557
747.00	37.500
747.31	35.238
747.62	32.301
747.94	31.278
748.25	33.191
748.56	38.767
748.88	33.168
749.19	40.000
749.50	34.884
749.82	34.959
750.13	29.388
750.44	33.577
750.75	34.386
751.07	35.370
751.38	31.707
751.69	26.354
752.01	32.707
752.32	33.574
752.63	31.560
752.94	32.787
753.26	33.600
753.57	32.927
753.88	36.328
754.19	30.357
754.51	33.333
754.82	29.242
755.13	36.226
755.44	33.083
755.75	26.277
756.07	31.560
756.38	27.372
756.69	33.557
757.00	29.341
757.31	30.564
757.63	29.825
757.94	26.273
758.25	30.147
758.56	25.926
758.87	25.806
759.18	29.091
759.50	30.408
759.81	28.037
760.12	26.250
760.43	29.513
760.74	28.261
761.05	29.379
761.36	27.273
761.67	30.114
761.99	30.124
762.30	29.861
762.61	32.443
762.92	30.859
763.23	31.933
763.54	32.400
763.85	29.687
764.16	35.000
764.47	36.122
764.78	28.975
765.10	25.633
765.41	30.678
765.72	30.838
766.03	31.034
766.34	30.333
766.65	36.170
766.96	29.915
767.27	39.086
767.58	36.458
767.89	37.895
768.20	47.126
768.51	34.010
768.82	36.239
769.13	36.179
769.44	29.150
769.75	38.197
770.06	33.486
770.37	38.009
770.68	38.426
770.99	29.778
771.30	32.787
771.61	37.220
771.92	30.738
772.23	34.874
772.54	32.308
772.85	39.267
773.16	41.489
773.47	39.674
773.78	39.594
774.09	37.500
774.39	36.842
774.70	46.296
775.01	42.029
775.32	42.484
775.63	44.737
775.94	38.129
776.25	48.819
776.56	45.522
776.87	42.623
777.18	42.969
777.48	48.092
777.79	45.455
778.10	40.741
778.41	50.000
778.72	32.847
779.03	44.966
779.34	41.611
779.65	52.027
779.95	45.399
780.26	45.098
780.57	47.586
780.88	52.344
781.19	41.353
781.50	47.973
781.80	44.025
782.11	36.723
782.42	40.506
782.73	39.264
783.04	48.649
783.34	41.549
783.65	50.685
783.96	53.731
784.27	41.259
784.57	41.007
784.88	34.259
785.19	47.619
785.50	51.887
785.81	48.507
786.11	64.754
786.42	44.961
786.73	46.903
787.04	55.660
787.34	57.143
787.65	59.000
787.96	51.351
788.26	48.760
788.57	57.627
788.88	54.545
789.19	50.694
789.49	45.455
789.80	44.275
790.11	57.143
790.41	56.436
790.72	65.060
791.03	48.913
791.33	55.814
791.64	50.515
791.95	59.406
792.25	57.778
792.56	59.740
792.87	76.923
793.17	73.418
793.48	52.874
793.79	57.471
794.09	57.955
794.40	49.580
794.70	50.735
795.01	42.222
795.32	44.604
795.62	48.031
795.93	55.172
796.23	51.327
796.54	44.706
796.85	56.757
797.15	90.141
797.46	65.152
797.76	68.675
798.07	62.025
798.37	67.692
798.68	57.576
798.99	59.155
799.29	58.442
799.60	52.273
799.90	73.973
800.21	71.642
800.51	82.759
800.82	87.719
801.12	78.689
801.43	71.212
801.73	77.027
802.04	74.603
802.34	69.136
802.65	71.875
802.95	91.525
803.26	96.875
803.56	67.143
803.87	73.846
804.17	63.235
804.48	83.333
804.78	75.862
805.09	85.294
805.39	53.846
805.70	76.786
806.00	72.131
806.30	65.152
806.61	65.854
806.91	72.152
807.22	71.053
807.52	55.224
807.83	71.831
808.13	82.813
808.43	71.667
808.74	56.579
809.04	60.870
809.35	76.119
809.65	71.053
809.95	96.774
810.26	66.102
810.56	74.603
810.86	111.364
811.17	116.667
811.47	95.000
811.77	70.370
812.08	92.727
812.38	122.000
812.69	125.000
812.99	122.727
813.29	102.041
813.59	97.619
813.90	97.959
814.20	85.455
814.50	50.769
814.81	82.353
815.11	87.755
815.41	67.213
815.72	104.762
816.02	89.091
816.32	100.000
816.62	117.500
816.93	82.927
817.23	92.857
817.53	97.727
817.84	130.303
818.14	128.261
818.44	80.000
818.74	108.824
819.04	97.500
819.35	114.286
819.65	141.176
819.95	114.286
820.25	160.000
820.56	130.769
820.86	95.455
821.16	109.302
821.46	97.436
821.76	104.000
822.07	134.286
822.37	127.500
822.67	109.091
822.97	86.275
823.27	139.286
823.57	121.622
823.88	120.000
824.18	156.667
824.48	109.524
824.78	196.000
825.08	158.333
825.38	129.730
825.69	97.561
825.99	158.333
826.29	103.448
826.59	126.316
826.89	94.737
827.19	138.235
827.49	164.516
827.79	106.818
828.09	104.545
828.39	100.000
828.70	102.041
829.00	111.111
829.30	135.484
829.60	127.500
829.90	173.333
830.20	135.714
830.50	130.435
830.80	152.174
831.10	136.667
831.40	146.667
831.70	169.565
832.00	184.615
832.30	159.259
832.60	162.500
832.90	136.667
833.20	264.286
833.50	158.065
833.80	137.931
834.10	159.375
834.40	161.538
834.70	166.667
835.00	238.095
835.30	117.143
835.60	207.692
835.90	172.414
836.20	235.714
836.50	158.621
836.80	124.000
837.10	133.333
837.40	180.952
837.70	247.059
838.00	159.259
838.30	180.952
838.60	223.810
838.90	173.077
839.19	185.000
839.49	300.000
839.79	210.000
840.09	205.000
840.39	171.429
840.69	169.565
840.99	183.333
841.29	320.000
841.59	250.000
841.88	212.500
842.18	113.793
842.48	242.857
842.78	176.667
843.08	178.261
843.38	156.250
843.68	683.333
843.97	165.385
844.27	113.793
844.57	295.238
844.87	281.250
845.17	185.185
845.47	1133.333
845.76	266.667
846.06	252.941
846.36	537.500
846.66	314.286
846.96	206.250
847.25	209.091
847.55	209.091
847.85	204.348
848.15	360.000
848.44	271.429
848.74	166.667
849.04	205.882
849.34	370.000
849.63	163.158
849.93	381.818
850.23	780.000
850.53	350.000
850.82	1900.000
851.12	-2600.000
851.42	2300.000
851.71	185.000
852.01	-600.000
852.31	162.500
852.61	1133.333
852.90	223.810
853.20	196.000
853.50	252.941
853.79	204.762
854.09	154.167
854.39	206.250
854.68	110.811
854.98	141.935
855.28	133.333
855.57	151.724
855.87	170.370
856.17	173.684
856.46	193.333
856.76	247.059
857.05	162.069
857.35	145.833
857.65	240.000
857.94	191.304
858.24	196.154
858.53	220.000
858.83	200.000
859.13	246.667
859.42	0.000
859.72	322.222
860.01	309.091
860.31	200.000
860.60	152.632
860.90	169.565
861.20	355.556
861.49	333.333
861.79	-3700.000
862.08	537.500
862.38	252.381
862.67	223.077
862.97	229.412
863.26	455.556
863.56	211.111
863.85	283.333
864.15	387.500
864.44	240.000
864.74	600.000
865.03	512.500
865.33	210.526
865.62	354.545
865.92	346.154
866.21	325.000
866.51	0.000
866.80	418.182
867.10	780.000
867.39	346.154
867.69	336.364
867.98	221.053
868.27	336.364
868.57	273.684
868.86	-2400.000
869.16	275.000
869.45	1800.000
869.75	-3400.000
870.04	300.000
870.33	414.286
870.63	825.000
870.92	1500.000
871.22	642.857
871.51	229.412
871.80	195.238
872.10	285.714
>>>>>End Processed Spectral Data<<<<<
