SpectraSuite Data File
++++++++++++++++++++++++++++++++++++
Date: Wed May 13 20:36:35 PDT 2015
User: schluterlab
Dark Spectrum Present: Yes
Reference Spectrum Present: Yes
Number of Sampled Component Spectra: 1
Spectrometers: USB2E3373
Integration Time (usec): 3000 (USB2E3373)
Spectra Averaged: 3 (USB2E3373)
Boxcar Smoothing: 0 (USB2E3373)
Correct for Electrical Dark: No (USB2E3373)
Strobe/Lamp Enabled: No (USB2E3373)
Correct for Detector Non-linearity: No (USB2E3373)
Correct for Stray Light: No (USB2E3373)
Number of Pixels in Processed Spectrum: 2048
>>>>>Begin Processed Spectral Data<<<<<
178.53	0.000
178.91	-1000.000
179.29	-975.000
179.67	-177.778
180.04	-1100.000
180.42	1750.000
180.80	720.000
181.18	-675.000
181.56	485.714
181.94	0.000
182.31	-428.571
182.69	1300.000
183.07	-362.500
183.45	-411.111
183.83	418.182
184.20	-250.000
184.58	2450.000
184.96	4000.000
185.34	-520.000
185.72	-387.500
186.09	-1550.000
186.47	2200.000
186.85	1450.000
187.23	3300.000
187.61	-1133.333
187.98	775.000
188.36	472.727
188.74	390.909
189.12	-520.000
189.49	380.000
189.87	-3500.000
190.25	-525.000
190.63	292.857
191.00	284.615
191.38	566.667
191.76	-775.000
192.14	1000.000
192.51	387.500
192.89	716.667
193.27	437.500
193.65	-725.000
194.02	380.000
194.40	460.000
194.78	500.000
195.15	425.000
195.53	470.000
195.91	-1800.000
196.29	293.750
196.66	252.632
197.04	-190.000
197.42	0.000
197.79	500.000
198.17	-3000.000
198.55	371.429
198.92	462.500
199.30	700.000
199.68	0.000
200.05	227.778
200.43	471.429
200.81	3000.000
201.18	1266.667
201.56	-1200.000
201.94	344.444
202.31	466.667
202.69	400.000
203.07	380.000
203.44	0.000
203.82	850.000
204.19	657.143
204.57	342.857
204.95	400.000
205.32	1200.000
205.70	381.818
206.08	292.857
206.45	1400.000
206.83	243.750
207.20	733.333
207.58	560.000
207.96	244.444
208.33	612.500
208.71	-533.333
209.08	542.857
209.46	400.000
209.84	345.455
210.21	-1066.667
210.59	1025.000
210.96	-350.000
211.34	1750.000
211.71	430.000
212.09	366.667
212.46	0.000
212.84	1333.333
213.22	925.000
213.59	-2600.000
213.97	650.000
214.34	657.143
214.72	427.273
215.09	680.000
215.47	-1400.000
215.84	-1650.000
216.22	1100.000
216.59	278.571
216.97	1000.000
217.34	300.000
217.72	-583.333
218.09	0.000
218.47	-3900.000
218.84	488.889
219.22	542.857
219.59	1166.667
219.97	-328.571
220.34	620.000
220.72	-1233.333
221.09	328.571
221.47	1050.000
221.84	-700.000
222.22	0.000
222.59	775.000
222.97	-2000.000
223.34	940.000
223.72	292.308
224.09	740.000
224.46	1550.000
224.84	-3000.000
225.21	-680.000
225.59	-2800.000
225.96	460.000
226.34	235.000
226.71	2050.000
227.08	462.500
227.46	350.000
227.83	-650.000
228.21	-1500.000
228.58	533.333
228.95	-1650.000
229.33	-1550.000
229.70	1366.667
230.08	600.000
230.45	-440.000
230.82	241.667
231.20	566.667
231.57	485.714
231.95	325.000
232.32	145.455
232.69	245.455
233.07	400.000
233.44	261.538
233.81	-1200.000
234.19	189.474
234.56	266.667
234.93	266.667
235.31	300.000
235.68	269.231
236.05	221.429
236.43	118.182
236.80	142.105
237.17	1400.000
237.55	166.667
237.92	128.571
238.29	128.571
238.67	109.677
239.04	162.069
239.41	100.000
239.79	65.217
240.16	88.095
240.53	86.364
240.91	56.863
241.28	50.000
241.65	66.000
242.02	62.319
242.40	50.000
242.77	48.333
243.14	41.935
243.51	39.326
243.89	35.294
244.26	27.778
244.63	21.505
245.00	32.979
245.38	35.644
245.75	24.299
246.12	23.853
246.49	36.496
246.87	41.600
247.24	33.846
247.61	25.000
247.98	29.412
248.36	14.189
248.73	22.930
249.10	29.936
249.47	22.034
249.84	19.786
250.22	18.182
250.59	18.343
250.96	17.172
251.33	20.853
251.70	20.297
252.08	19.524
252.45	14.798
252.82	16.957
253.19	13.191
253.56	13.725
253.94	14.108
254.31	16.406
254.68	13.846
255.05	18.819
255.42	13.008
255.79	13.235
256.16	16.606
256.54	9.894
256.91	14.947
257.28	11.871
257.65	10.891
258.02	14.907
258.39	11.672
258.76	11.037
259.14	12.798
259.51	10.334
259.88	7.143
260.25	12.387
260.62	11.561
260.99	10.559
261.36	10.210
261.73	9.169
262.10	8.430
262.47	10.141
262.85	6.964
263.22	5.413
263.59	11.396
263.96	7.967
264.33	9.922
264.70	10.000
265.07	12.788
265.44	10.606
265.81	8.273
266.18	8.291
266.55	9.024
266.92	7.125
267.29	8.565
267.66	8.945
268.03	8.182
268.40	8.879
268.77	6.683
269.14	7.658
269.51	11.287
269.88	10.490
270.25	9.255
270.62	7.191
270.99	13.118
271.36	11.373
271.73	7.009
272.10	7.609
272.47	9.462
272.84	9.957
273.21	9.015
273.58	7.424
273.95	6.080
274.32	6.405
274.69	6.638
275.06	7.283
275.43	6.809
275.80	6.413
276.17	8.147
276.54	6.029
276.91	6.719
277.28	7.031
277.65	8.704
278.02	5.383
278.39	8.008
278.76	9.455
279.13	7.736
279.50	8.007
279.87	7.171
280.23	3.992
280.60	6.576
280.97	6.839
281.34	6.372
281.71	9.091
282.08	7.294
282.45	4.909
282.82	6.750
283.19	6.061
283.56	7.018
283.92	8.122
284.29	6.878
284.66	5.989
285.03	6.510
285.40	6.690
285.77	5.387
286.14	4.491
286.51	6.833
286.87	7.521
287.24	6.352
287.61	5.457
287.98	5.519
288.35	5.547
288.72	6.075
289.08	6.886
289.45	5.766
289.82	7.154
290.19	5.338
290.56	6.126
290.93	4.230
291.29	5.215
291.66	6.490
292.03	6.831
292.40	7.489
292.77	5.473
293.13	6.567
293.50	5.977
293.87	5.185
294.24	3.556
294.60	5.095
294.97	6.541
295.34	6.206
295.71	4.972
296.08	6.553
296.44	5.089
296.81	3.435
297.18	6.504
297.55	2.770
297.91	3.958
298.28	6.158
298.65	6.005
299.02	5.270
299.38	5.179
299.75	1.887
300.12	4.087
300.48	4.750
300.85	4.439
301.22	4.586
301.59	4.419
301.95	4.660
302.32	4.750
302.69	4.421
303.05	4.485
303.42	4.321
303.79	4.870
304.15	3.497
304.52	3.360
304.89	3.600
305.25	4.524
305.62	4.983
305.99	4.368
306.35	4.586
306.72	3.924
307.09	5.438
307.45	3.941
307.82	2.790
308.19	4.415
308.55	4.639
308.92	4.296
309.29	3.379
309.65	3.924
310.02	4.968
310.38	3.978
310.75	3.168
311.12	4.708
311.48	4.911
311.85	5.031
312.22	4.475
312.58	3.742
312.95	4.435
313.31	4.660
313.68	3.222
314.05	5.621
314.41	4.623
314.78	3.927
315.14	4.171
315.51	4.840
315.87	3.861
316.24	4.568
316.61	3.704
316.97	3.327
317.34	2.740
317.70	3.442
318.07	4.812
318.43	4.305
318.80	4.592
319.16	4.143
319.53	2.908
319.89	5.333
320.26	4.800
320.62	4.067
320.99	4.646
321.35	3.636
321.72	4.312
322.08	4.047
322.45	4.378
322.81	4.554
323.18	4.817
323.54	5.195
323.91	5.283
324.27	3.824
324.64	3.728
325.00	4.238
325.37	4.277
325.73	5.566
326.10	3.795
326.46	4.122
326.83	4.832
327.19	4.868
327.56	3.484
327.92	4.812
328.29	4.437
328.65	4.604
329.01	4.061
329.38	5.180
329.74	4.894
330.11	4.336
330.47	5.326
330.84	6.250
331.20	4.372
331.56	4.679
331.93	4.259
332.29	4.791
332.66	5.310
333.02	5.119
333.38	5.330
333.75	4.813
334.11	5.872
334.48	4.525
334.84	5.331
335.20	4.364
335.57	4.986
335.93	3.125
336.29	3.846
336.66	4.418
337.02	3.891
337.38	4.722
337.75	4.011
338.11	4.924
338.47	4.420
338.84	5.041
339.20	3.394
339.56	5.383
339.93	4.455
340.29	4.257
340.65	4.189
341.02	4.974
341.38	4.270
341.74	4.123
342.11	5.153
342.47	4.053
342.83	5.479
343.20	5.281
343.56	4.381
343.92	3.421
344.28	4.507
344.65	5.245
345.01	4.040
345.37	3.859
345.73	4.484
346.10	3.751
346.46	4.153
346.82	4.530
347.19	4.344
347.55	4.433
347.91	4.773
348.27	5.012
348.63	4.348
349.00	3.883
349.36	3.612
349.72	4.491
350.08	3.728
350.45	4.557
350.81	4.224
351.17	4.295
351.53	4.013
351.89	4.455
352.26	5.209
352.62	4.651
352.98	4.214
353.34	4.191
353.70	3.682
354.07	3.952
354.43	4.444
354.79	3.942
355.15	4.150
355.51	4.636
355.87	3.755
356.24	4.316
356.60	3.689
356.96	3.942
357.32	3.761
357.68	3.386
358.04	3.959
358.40	3.959
358.77	3.678
359.13	3.552
359.49	4.157
359.85	2.381
360.21	3.030
360.57	4.358
360.93	4.615
361.29	3.628
361.66	3.793
362.02	4.030
362.38	4.106
362.74	3.571
363.10	3.849
363.46	3.522
363.82	3.099
364.18	4.112
364.54	4.235
364.90	3.895
365.26	4.044
365.62	4.164
365.98	3.579
366.35	2.436
366.71	3.832
367.07	3.569
367.43	3.774
367.79	3.283
368.15	4.382
368.51	3.343
368.87	3.640
369.23	2.341
369.59	3.621
369.95	3.088
370.31	3.917
370.67	4.203
371.03	4.120
371.39	3.571
371.75	4.118
372.11	4.267
372.47	4.399
372.83	4.467
373.19	3.613
373.55	3.843
373.91	3.387
374.27	3.574
374.63	2.764
374.99	3.743
375.35	3.210
375.71	3.290
376.07	4.664
376.42	4.264
376.78	4.109
377.14	3.256
377.50	3.642
377.86	3.590
378.22	3.793
378.58	2.569
378.94	2.514
379.30	2.672
379.66	3.617
380.02	3.563
380.38	2.611
380.74	3.001
381.09	4.034
381.45	3.688
381.81	4.300
382.17	2.994
382.53	3.145
382.89	3.333
383.25	3.002
383.61	3.098
383.97	3.565
384.32	3.681
384.68	2.850
385.04	3.012
385.40	2.601
385.76	3.071
386.12	3.044
386.48	3.335
386.83	3.015
387.19	3.958
387.55	3.340
387.91	3.265
388.27	3.127
388.62	3.626
388.98	3.378
389.34	3.880
389.70	3.740
390.06	4.183
390.42	3.243
390.77	3.435
391.13	3.191
391.49	3.807
391.85	2.737
392.20	2.271
392.56	3.093
392.92	3.531
393.28	2.426
393.64	3.417
393.99	4.337
394.35	3.412
394.71	3.450
395.07	2.866
395.42	2.719
395.78	2.799
396.14	3.662
396.50	3.759
396.85	3.433
397.21	2.959
397.57	3.038
397.92	3.065
398.28	2.186
398.64	3.286
399.00	3.078
399.35	2.482
399.71	3.125
400.07	2.898
400.42	3.865
400.78	3.679
401.14	2.134
401.49	2.866
401.85	2.541
402.21	2.874
402.57	2.961
402.92	3.153
403.28	3.061
403.63	2.785
403.99	2.611
404.35	3.273
404.70	3.058
405.06	3.029
405.42	2.994
405.77	2.229
406.13	2.483
406.49	3.430
406.84	3.603
407.20	3.073
407.55	3.127
407.91	3.333
408.27	3.063
408.62	3.191
408.98	3.125
409.34	2.583
409.69	3.097
410.05	2.788
410.40	2.813
410.76	2.867
411.11	3.498
411.47	3.323
411.83	3.299
412.18	2.659
412.54	2.864
412.89	3.735
413.25	3.247
413.60	2.656
413.96	3.157
414.31	3.341
414.67	3.042
415.03	3.046
415.38	3.608
415.74	2.958
416.09	3.201
416.45	2.811
416.80	3.371
417.16	2.748
417.51	3.052
417.87	2.954
418.22	3.722
418.58	3.486
418.93	3.624
419.29	3.183
419.64	3.338
420.00	3.171
420.35	3.478
420.71	3.347
421.06	3.341
421.42	3.450
421.77	3.643
422.12	2.695
422.48	2.105
422.83	2.970
423.19	2.873
423.54	3.250
423.90	4.232
424.25	3.071
424.61	2.381
424.96	2.974
425.31	3.322
425.67	2.640
426.02	3.086
426.38	3.053
426.73	2.984
427.09	2.796
427.44	2.645
427.79	2.300
428.15	3.452
428.50	2.926
428.85	3.397
429.21	2.982
429.56	2.592
429.92	2.869
430.27	2.830
430.62	2.099
430.98	2.595
431.33	3.299
431.68	3.298
432.04	3.248
432.39	3.427
432.74	2.932
433.10	3.056
433.45	2.857
433.80	2.661
434.16	3.526
434.51	2.789
434.86	3.421
435.22	2.835
435.57	3.100
435.92	2.282
436.28	3.025
436.63	3.698
436.98	2.748
437.34	3.518
437.69	3.559
438.04	2.642
438.39	3.463
438.75	3.544
439.10	2.793
439.45	3.424
439.81	2.598
440.16	3.219
440.51	3.222
440.86	3.011
441.22	2.614
441.57	2.389
441.92	3.582
442.27	3.445
442.63	2.475
442.98	3.549
443.33	3.424
443.68	2.788
444.03	2.684
444.39	2.872
444.74	3.084
445.09	2.857
445.44	2.952
445.79	2.820
446.15	3.970
446.50	3.285
446.85	3.289
447.20	3.111
447.55	3.127
447.91	2.978
448.26	2.894
448.61	3.279
448.96	3.544
449.31	2.981
449.66	2.926
450.02	2.730
450.37	3.345
450.72	3.158
451.07	2.559
451.42	2.614
451.77	3.699
452.12	3.464
452.47	3.234
452.83	2.681
453.18	3.056
453.53	3.834
453.88	3.012
454.23	3.347
454.58	3.998
454.93	3.942
455.28	2.993
455.63	2.852
455.98	3.571
456.34	3.204
456.69	3.444
457.04	2.786
457.39	2.747
457.74	3.018
458.09	3.623
458.44	3.079
458.79	2.657
459.14	2.878
459.49	3.736
459.84	2.936
460.19	2.887
460.54	3.646
460.89	3.127
461.24	3.279
461.59	4.590
461.94	3.083
462.29	4.036
462.64	3.127
462.99	3.188
463.34	5.000
463.69	3.189
464.04	3.304
464.39	3.652
464.74	3.565
465.09	2.774
465.44	3.158
465.79	2.852
466.14	3.448
466.49	3.504
466.84	3.327
467.19	3.742
467.54	4.063
467.89	3.301
468.24	3.956
468.59	3.175
468.94	3.115
469.29	3.342
469.64	4.083
469.99	3.518
470.34	3.104
470.68	3.233
471.03	3.401
471.38	3.961
471.73	3.398
472.08	3.553
472.43	3.392
472.78	2.567
473.13	3.851
473.48	3.496
473.83	4.085
474.17	3.485
474.52	3.908
474.87	3.911
475.22	3.134
475.57	3.063
475.92	3.240
476.27	3.495
476.61	3.971
476.96	2.859
477.31	2.564
477.66	3.063
478.01	3.136
478.36	3.384
478.70	3.323
479.05	3.461
479.40	3.378
479.75	3.203
480.10	2.982
480.45	3.284
480.79	2.532
481.14	3.082
481.49	3.560
481.84	2.926
482.19	3.408
482.53	3.028
482.88	3.257
483.23	3.178
483.58	3.776
483.92	2.905
484.27	2.266
484.62	2.716
484.97	2.483
485.31	2.295
485.66	2.188
486.01	1.676
486.36	1.837
486.70	1.702
487.05	1.827
487.40	2.247
487.75	1.972
488.09	2.548
488.44	2.335
488.79	2.206
489.13	2.215
489.48	2.243
489.83	1.985
490.17	3.025
490.52	3.012
490.87	2.895
491.22	2.956
491.56	2.187
491.91	2.792
492.26	2.802
492.60	2.995
492.95	2.292
493.30	3.037
493.64	2.753
493.99	2.739
494.34	3.423
494.68	3.434
495.03	3.195
495.37	3.304
495.72	2.632
496.07	3.248
496.41	2.699
496.76	3.078
497.11	3.152
497.45	3.121
497.80	3.119
498.14	2.657
498.49	2.634
498.84	3.691
499.18	2.810
499.53	2.659
499.87	3.402
500.22	3.062
500.56	3.495
500.91	2.740
501.26	2.466
501.60	3.370
501.95	2.933
502.29	2.530
502.64	3.259
502.98	2.899
503.33	2.697
503.67	3.016
504.02	2.760
504.36	3.744
504.71	2.980
505.06	3.614
505.40	3.257
505.75	2.748
506.09	2.818
506.44	3.059
506.78	3.751
507.13	2.978
507.47	3.283
507.82	3.445
508.16	2.938
508.51	2.993
508.85	2.929
509.19	3.112
509.54	3.418
509.88	3.143
510.23	2.931
510.57	3.509
510.92	3.832
511.26	3.340
511.61	3.216
511.95	3.079
512.30	2.545
512.64	2.902
512.98	3.537
513.33	3.908
513.67	3.095
514.02	3.030
514.36	3.932
514.70	3.376
515.05	3.179
515.39	3.421
515.74	2.309
516.08	3.801
516.42	3.052
516.77	3.958
517.11	2.941
517.46	3.442
517.80	3.252
518.14	2.953
518.49	3.676
518.83	4.148
519.17	3.637
519.52	3.169
519.86	3.708
520.20	4.046
520.55	4.309
520.89	3.285
521.23	3.559
521.58	3.782
521.92	3.429
522.26	3.051
522.61	4.486
522.95	3.622
523.29	3.226
523.64	3.659
523.98	3.266
524.32	3.619
524.66	3.187
525.01	3.493
525.35	3.779
525.69	3.818
526.04	3.801
526.38	3.112
526.72	3.804
527.06	3.892
527.41	3.032
527.75	3.601
528.09	3.725
528.43	3.378
528.78	4.179
529.12	3.939
529.46	3.613
529.80	3.589
530.15	4.174
530.49	3.508
530.83	4.304
531.17	3.721
531.51	4.475
531.86	3.806
532.20	4.628
532.54	4.676
532.88	3.787
533.22	4.060
533.57	3.951
533.91	3.371
534.25	3.402
534.59	2.990
534.93	3.272
535.27	3.500
535.62	3.663
535.96	3.202
536.30	3.814
536.64	4.250
536.98	3.981
537.32	3.489
537.66	3.067
538.01	4.213
538.35	4.525
538.69	4.914
539.03	3.639
539.37	3.323
539.71	2.268
540.05	4.118
540.39	3.189
540.73	3.299
541.07	4.478
541.42	3.783
541.76	3.935
542.10	4.204
542.44	2.649
542.78	3.689
543.12	3.519
543.46	4.197
543.80	3.774
544.14	2.824
544.48	4.063
544.82	3.528
545.16	3.448
545.50	3.470
545.84	3.293
546.18	3.973
546.52	3.579
546.86	3.368
547.20	4.046
547.54	3.607
547.88	4.209
548.22	3.923
548.56	3.585
548.90	3.841
549.24	2.896
549.58	4.025
549.92	3.846
550.26	4.332
550.60	3.527
550.94	3.732
551.28	3.072
551.62	3.954
551.96	4.000
552.30	4.164
552.64	4.124
552.98	4.339
553.32	3.574
553.66	4.226
554.00	4.598
554.34	3.796
554.68	3.934
555.02	3.738
555.36	3.758
555.69	3.992
556.03	3.769
556.37	3.547
556.71	3.547
557.05	3.641
557.39	4.059
557.73	3.811
558.07	3.481
558.41	4.269
558.75	4.041
559.08	4.847
559.42	3.855
559.76	4.191
560.10	3.712
560.44	3.704
560.78	3.925
561.12	3.628
561.45	4.694
561.79	3.889
562.13	4.427
562.47	4.030
562.81	3.975
563.15	3.478
563.48	3.846
563.82	3.979
564.16	3.074
564.50	2.148
564.84	3.603
565.17	3.282
565.51	3.706
565.85	4.188
566.19	3.193
566.52	3.610
566.86	3.737
567.20	3.479
567.54	3.139
567.88	2.879
568.21	3.651
568.55	3.236
568.89	3.307
569.23	2.852
569.56	2.591
569.90	2.642
570.24	2.440
570.57	2.652
570.91	2.101
571.25	2.502
571.59	2.533
571.92	2.218
572.26	2.166
572.60	2.583
572.93	2.489
573.27	2.632
573.61	2.345
573.95	2.429
574.28	1.960
574.62	2.138
574.96	2.127
575.29	2.231
575.63	2.312
575.97	2.213
576.30	2.629
576.64	2.325
576.98	2.188
577.31	2.033
577.65	1.911
577.98	1.930
578.32	1.906
578.66	2.034
578.99	2.123
579.33	2.009
579.67	1.873
580.00	1.942
580.34	2.136
580.67	2.127
581.01	2.429
581.35	1.718
581.68	2.009
582.02	1.714
582.35	1.863
582.69	1.952
583.02	1.841
583.36	2.144
583.70	2.073
584.03	2.351
584.37	2.661
584.70	1.829
585.04	2.226
585.37	2.027
585.71	2.232
586.04	2.247
586.38	2.116
586.72	2.375
587.05	1.874
587.39	2.137
587.72	2.242
588.06	2.348
588.39	2.387
588.73	2.405
589.06	2.337
589.40	2.559
589.73	2.182
590.07	2.705
590.40	2.375
590.73	2.459
591.07	2.646
591.40	2.910
591.74	3.160
592.07	2.880
592.41	2.894
592.74	2.772
593.08	2.765
593.41	2.784
593.75	2.467
594.08	2.380
594.41	2.863
594.75	2.773
595.08	2.827
595.42	2.732
595.75	3.205
596.09	2.967
596.42	3.261
596.75	2.702
597.09	3.377
597.42	2.656
597.75	3.105
598.09	3.391
598.42	2.792
598.76	2.919
599.09	2.661
599.42	2.293
599.76	2.818
600.09	2.587
600.42	2.958
600.76	2.929
601.09	2.623
601.42	2.435
601.76	2.657
602.09	2.372
602.42	3.065
602.76	3.345
603.09	2.360
603.42	2.655
603.76	3.011
604.09	2.869
604.42	2.609
604.76	3.374
605.09	2.796
605.42	2.822
605.75	3.187
606.09	2.237
606.42	2.738
606.75	3.028
607.09	3.391
607.42	2.610
607.75	2.700
608.08	2.866
608.42	3.048
608.75	3.111
609.08	3.006
609.41	2.951
609.75	2.716
610.08	3.299
610.41	2.980
610.74	2.744
611.07	3.409
611.41	3.091
611.74	3.419
612.07	3.468
612.40	2.886
612.73	3.316
613.07	3.610
613.40	3.528
613.73	2.727
614.06	3.011
614.39	3.671
614.72	3.789
615.06	3.676
615.39	2.972
615.72	3.528
616.05	3.296
616.38	3.613
616.71	2.969
617.05	3.946
617.38	3.247
617.71	3.183
618.04	4.026
618.37	3.489
618.70	3.796
619.03	4.276
619.36	4.073
619.69	3.873
620.03	3.709
620.36	4.412
620.69	4.589
621.02	4.130
621.35	3.915
621.68	4.361
622.01	4.489
622.34	4.085
622.67	4.411
623.00	3.668
623.33	3.145
623.66	4.718
623.99	3.608
624.32	4.066
624.65	3.743
624.99	3.329
625.32	3.838
625.65	4.433
625.98	4.304
626.31	4.432
626.64	4.327
626.97	3.658
627.30	3.741
627.63	4.348
627.96	4.794
628.29	3.937
628.62	4.666
628.95	6.321
629.28	5.018
629.61	5.316
629.94	4.571
630.26	3.813
630.59	4.480
630.92	4.023
631.25	4.541
631.58	5.305
631.91	3.651
632.24	5.274
632.57	5.561
632.90	5.373
633.23	5.928
633.56	5.650
633.89	5.096
634.22	5.108
634.55	4.734
634.88	5.629
635.20	6.452
635.53	6.386
635.86	5.198
636.19	4.941
636.52	6.574
636.85	5.956
637.18	4.378
637.51	5.792
637.83	4.192
638.16	5.243
638.49	6.675
638.82	6.068
639.15	5.375
639.48	6.359
639.81	6.836
640.13	6.771
640.46	6.711
640.79	7.133
641.12	4.814
641.45	6.006
641.77	3.829
642.10	4.825
642.43	4.805
642.76	5.418
643.09	6.288
643.41	6.525
643.74	7.407
644.07	6.402
644.40	7.515
644.73	7.244
645.05	8.399
645.38	4.107
645.71	7.729
646.04	5.648
646.36	6.511
646.69	8.194
647.02	6.463
647.35	7.388
647.67	7.080
648.00	8.943
648.33	7.756
648.66	7.576
648.98	7.796
649.31	6.428
649.64	5.830
649.96	6.259
650.29	6.161
650.62	6.472
650.94	7.455
651.27	8.108
651.60	7.488
651.92	8.147
652.25	6.678
652.58	6.854
652.90	6.951
653.23	6.163
653.56	5.984
653.88	8.082
654.21	8.689
654.54	6.436
654.86	7.632
655.19	6.081
655.52	3.168
655.84	1.547
656.17	1.707
656.49	2.198
656.82	2.258
657.15	1.857
657.47	1.443
657.80	1.188
658.13	1.218
658.45	1.919
658.78	1.911
659.10	2.378
659.43	2.349
659.75	2.814
660.08	3.038
660.41	4.749
660.73	7.243
661.06	5.573
661.38	6.364
661.71	8.462
662.03	9.467
662.36	7.753
662.68	8.434
663.01	8.283
663.33	8.280
663.66	8.403
663.98	7.127
664.31	6.723
664.63	7.085
664.96	6.036
665.28	11.066
665.61	10.331
665.93	7.646
666.26	7.911
666.58	8.787
666.91	9.725
667.23	8.539
667.56	7.343
667.88	9.402
668.21	8.529
668.53	7.592
668.86	7.359
669.18	11.727
669.50	10.870
669.83	10.675
670.15	9.333
670.48	8.061
670.80	8.190
671.13	10.828
671.45	9.362
671.77	9.776
672.10	9.797
672.42	9.364
672.75	6.468
673.07	7.394
673.39	5.063
673.72	6.250
674.04	8.235
674.37	8.155
674.69	7.771
675.01	7.531
675.34	10.678
675.66	9.895
675.98	10.794
676.31	9.034
676.63	9.766
676.95	6.709
677.28	6.542
677.60	9.451
677.92	10.338
678.25	9.856
678.57	9.562
678.89	8.216
679.22	6.483
679.54	7.824
679.86	7.339
680.18	9.123
680.51	8.865
680.83	8.363
681.15	8.113
681.48	9.074
681.80	6.963
682.12	5.939
682.44	6.576
682.77	9.165
683.09	11.588
683.41	9.091
683.73	8.389
684.06	9.504
684.38	10.176
684.70	9.109
685.02	7.880
685.34	8.242
685.67	4.196
685.99	6.357
686.31	6.485
686.63	6.714
686.96	7.321
687.28	7.942
687.60	8.514
687.92	8.044
688.24	9.506
688.56	9.036
688.89	10.166
689.21	11.572
689.53	10.021
689.85	8.426
690.17	6.832
690.49	11.253
690.82	8.411
691.14	8.929
691.46	8.439
691.78	10.843
692.10	7.025
692.42	9.581
692.74	6.846
693.06	7.447
693.39	11.294
693.71	7.642
694.03	9.474
694.35	9.091
694.67	7.780
694.99	10.976
695.31	8.824
695.63	8.373
695.95	8.802
696.27	5.584
696.59	10.104
696.91	12.176
697.23	7.746
697.56	10.874
697.88	7.157
698.20	5.417
698.52	11.398
698.84	9.800
699.16	8.065
699.48	9.026
699.80	8.937
700.12	10.909
700.44	14.324
700.76	9.392
701.08	12.356
701.40	11.732
701.72	12.536
702.04	15.625
702.36	7.932
702.68	10.198
703.00	6.925
703.32	10.372
703.64	9.920
703.96	10.864
704.28	9.884
704.60	9.091
704.91	13.947
705.23	12.317
705.55	13.953
705.87	16.279
706.19	10.954
706.51	12.461
706.83	12.424
707.15	12.325
707.47	8.838
707.79	10.074
708.11	11.644
708.43	10.476
708.74	10.969
709.06	11.948
709.38	12.073
709.70	13.081
710.02	12.166
710.34	10.606
710.66	11.940
710.98	14.773
711.29	11.047
711.61	15.044
711.93	10.256
712.25	13.826
712.57	12.132
712.89	14.533
713.20	15.502
713.52	12.171
713.84	11.076
714.16	11.890
714.48	10.057
714.80	12.766
715.11	11.239
715.43	11.573
715.75	13.043
716.07	10.863
716.39	15.047
716.70	15.282
717.02	17.626
717.34	11.307
717.66	12.687
717.97	12.749
718.29	14.074
718.61	15.693
718.93	14.706
719.24	16.263
719.56	11.186
719.88	13.220
720.20	15.878
720.51	16.028
720.83	17.100
721.15	11.194
721.46	10.993
721.78	16.487
722.10	15.472
722.42	19.549
722.73	14.232
723.05	16.803
723.37	13.360
723.68	17.761
724.00	14.228
724.32	20.565
724.63	15.854
724.95	15.063
725.27	15.789
725.58	10.547
725.90	16.423
726.22	16.226
726.53	15.278
726.85	16.382
727.16	15.302
727.48	13.830
727.80	14.773
728.11	15.217
728.43	12.692
728.74	15.771
729.06	18.613
729.38	18.382
729.69	16.726
730.01	11.604
730.32	10.069
730.64	18.395
730.96	10.561
731.27	12.252
731.59	14.679
731.90	12.828
732.22	9.006
732.53	11.455
732.85	14.423
733.16	8.682
733.48	12.292
733.80	10.390
734.11	14.331
734.43	13.018
734.74	11.714
735.06	9.456
735.37	14.162
735.69	10.510
736.00	11.765
736.32	14.953
736.63	10.224
736.95	11.182
737.26	7.823
737.58	10.645
737.89	13.378
738.21	17.065
738.52	15.357
738.83	12.075
739.15	14.231
739.46	15.693
739.78	15.625
740.09	15.692
740.41	11.613
740.72	12.544
741.04	15.556
741.35	13.750
741.66	22.222
741.98	12.736
742.29	16.746
742.61	22.414
742.92	13.122
743.23	17.094
743.55	17.600
743.86	16.667
744.18	19.469
744.49	17.225
744.80	18.779
745.12	20.000
745.43	13.216
745.74	23.874
746.06	18.349
746.37	16.143
746.68	18.100
747.00	18.056
747.31	18.095
747.62	13.717
747.94	14.097
748.25	13.191
748.56	14.978
748.88	14.851
749.19	22.500
749.50	15.814
749.82	13.415
750.13	14.694
750.44	14.599
750.75	14.035
751.07	17.685
751.38	14.983
751.69	17.329
752.01	15.789
752.32	14.440
752.63	14.894
752.94	16.393
753.26	20.000
753.57	13.415
753.88	17.187
754.19	14.643
754.51	18.056
754.82	13.357
755.13	13.585
755.44	15.789
755.75	14.964
756.07	13.475
756.38	10.949
756.69	14.765
757.00	13.772
757.31	10.682
757.63	13.158
757.94	11.528
758.25	11.520
758.56	7.407
758.87	11.022
759.18	13.030
759.50	10.972
759.81	12.150
760.12	9.688
760.43	13.181
760.74	9.783
761.05	12.994
761.36	9.358
761.67	10.511
761.99	9.006
762.30	12.847
762.61	13.359
762.92	17.969
763.23	11.765
763.54	18.400
763.85	10.156
764.16	13.846
764.47	17.110
764.78	10.954
765.10	9.494
765.41	12.094
765.72	14.072
766.03	12.853
766.34	11.667
766.65	17.021
766.96	18.376
767.27	18.274
767.58	20.312
767.89	24.737
768.20	25.862
768.51	15.736
768.82	20.642
769.13	15.854
769.44	17.004
769.75	17.167
770.06	15.596
770.37	20.362
770.68	16.204
770.99	11.111
771.30	15.574
771.61	17.040
771.92	15.984
772.23	24.790
772.54	16.923
772.85	21.990
773.16	15.426
773.47	25.543
773.78	24.873
774.09	22.024
774.39	18.713
774.70	21.605
775.01	20.290
775.32	30.065
775.63	25.000
775.94	17.266
776.25	25.197
776.56	29.104
776.87	30.328
777.18	29.687
777.48	29.771
777.79	26.515
778.10	32.593
778.41	29.464
778.72	27.737
779.03	30.872
779.34	26.174
779.65	16.216
779.95	27.607
780.26	26.797
780.57	20.000
780.88	35.938
781.19	25.564
781.50	22.297
781.80	24.528
782.11	15.254
782.42	20.253
782.73	16.564
783.04	23.649
783.34	20.423
783.65	36.986
783.96	31.343
784.27	19.580
784.57	21.583
784.88	20.370
785.19	26.190
785.50	39.623
785.81	32.090
786.11	36.885
786.42	33.333
786.73	24.779
787.04	31.132
787.34	35.714
787.65	29.000
787.96	25.225
788.26	29.752
788.57	22.881
788.88	39.669
789.19	25.694
789.49	30.303
789.80	32.824
790.11	39.048
790.41	34.653
790.72	34.940
791.03	42.391
791.33	37.209
791.64	39.175
791.95	49.505
792.25	40.000
792.56	42.857
792.87	66.667
793.17	54.430
793.48	41.379
793.79	41.379
794.09	45.455
794.40	33.613
794.70	37.500
795.01	25.926
795.32	31.655
795.62	29.921
795.93	35.345
796.23	33.628
796.54	34.118
796.85	39.189
797.15	78.873
797.46	34.848
797.76	48.193
798.07	40.506
798.37	47.692
798.68	56.061
798.99	38.028
799.29	49.351
799.60	42.045
799.90	42.466
800.21	53.731
800.51	50.000
800.82	70.175
801.12	65.574
801.43	65.152
801.73	45.946
802.04	50.794
802.34	64.198
802.65	67.188
802.95	66.102
803.26	89.063
803.56	51.429
803.87	53.846
804.17	57.353
804.48	74.074
804.78	51.724
805.09	57.353
805.39	57.692
805.70	53.571
806.00	81.967
806.30	48.485
806.61	51.220
806.91	40.506
807.22	59.211
807.52	26.866
807.83	61.972
808.13	56.250
808.43	65.000
808.74	40.789
809.04	66.667
809.35	65.672
809.65	59.211
809.95	82.258
810.26	62.712
810.56	68.254
810.86	81.818
811.17	100.000
811.47	91.667
811.77	62.963
812.08	65.455
812.38	72.000
812.69	80.556
812.99	93.182
813.29	83.673
813.59	52.381
813.90	69.388
814.20	60.000
814.50	53.846
814.81	72.059
815.11	65.306
815.41	68.852
815.72	71.429
816.02	78.182
816.32	102.381
816.62	72.500
816.93	82.927
817.23	97.619
817.53	81.818
817.84	93.939
818.14	119.565
818.44	73.333
818.74	91.176
819.04	72.500
819.35	65.714
819.65	111.765
819.95	125.000
820.25	130.000
820.56	125.641
820.86	81.818
821.16	106.977
821.46	112.821
821.76	86.000
822.07	88.571
822.37	95.000
822.67	84.848
822.97	84.314
823.27	142.857
823.57	100.000
823.88	117.500
824.18	120.000
824.48	104.762
824.78	120.000
825.08	133.333
825.38	94.595
825.69	85.366
825.99	141.667
826.29	103.448
826.59	105.263
826.89	73.684
827.19	97.059
827.49	87.097
827.79	102.273
828.09	88.636
828.39	80.851
828.70	81.633
829.00	137.037
829.30	90.323
829.60	80.000
829.90	140.000
830.20	142.857
830.50	108.696
830.80	147.826
831.10	133.333
831.40	116.667
831.70	100.000
832.00	142.308
832.30	118.519
832.60	168.750
832.90	160.000
833.20	264.286
833.50	141.935
833.80	117.241
834.10	146.875
834.40	134.615
834.70	200.000
835.00	200.000
835.30	117.143
835.60	223.077
835.90	131.034
836.20	207.143
836.50	127.586
836.80	92.000
837.10	119.444
837.40	166.667
837.70	158.824
838.00	144.444
838.30	190.476
838.60	180.952
838.90	146.154
839.19	195.000
839.49	192.857
839.79	220.000
840.09	165.000
840.39	185.714
840.69	178.261
840.99	205.556
841.29	350.000
841.59	200.000
841.88	225.000
842.18	100.000
842.48	180.952
842.78	110.000
843.08	182.609
843.38	121.875
843.68	433.333
843.97	157.692
844.27	141.379
844.57	204.762
844.87	268.750
845.17	151.852
845.47	1066.667
845.76	300.000
846.06	223.529
846.36	237.500
846.66	292.857
846.96	200.000
847.25	272.727
847.55	290.909
847.85	160.870
848.15	420.000
848.44	221.429
848.74	222.222
849.04	217.647
849.34	330.000
849.63	178.947
849.93	300.000
850.23	680.000
850.53	242.857
850.82	1350.000
851.12	-3200.000
851.42	3000.000
851.71	175.000
852.01	-900.000
852.31	204.167
852.61	1300.000
852.90	152.381
853.20	176.000
853.50	241.176
853.79	166.667
854.09	175.000
854.39	212.500
854.68	116.216
854.98	116.129
855.28	103.333
855.57	151.724
855.87	155.556
856.17	126.316
856.46	180.000
856.76	205.882
857.05	113.793
857.35	150.000
857.65	260.000
857.94	191.304
858.24	184.615
858.53	190.000
858.83	163.636
859.13	206.667
859.42	0.000
859.72	411.111
860.01	327.273
860.31	195.455
860.60	173.684
860.90	156.522
861.20	488.889
861.49	308.333
861.79	-3100.000
862.08	400.000
862.38	219.048
862.67	238.462
862.97	288.235
863.26	422.222
863.56	150.000
863.85	350.000
864.15	400.000
864.44	280.000
864.74	466.667
865.03	500.000
865.33	189.474
865.62	227.273
865.92	276.923
866.21	225.000
866.51	0.000
866.80	290.909
867.10	720.000
867.39	307.692
867.69	218.182
867.98	178.947
868.27	409.091
868.57	247.368
868.86	-3200.000
869.16	212.500
869.45	1450.000
869.75	-2200.000
870.04	308.333
870.33	414.286
870.63	675.000
870.92	1300.000
871.22	457.143
871.51	200.000
871.80	133.333
872.10	264.286
>>>>>End Processed Spectral Data<<<<<
