SpectraSuite Data File
++++++++++++++++++++++++++++++++++++
Date: Wed May 13 20:33:59 PDT 2015
User: schluterlab
Dark Spectrum Present: Yes
Reference Spectrum Present: Yes
Number of Sampled Component Spectra: 1
Spectrometers: USB2E3373
Integration Time (usec): 3000 (USB2E3373)
Spectra Averaged: 3 (USB2E3373)
Boxcar Smoothing: 0 (USB2E3373)
Correct for Electrical Dark: No (USB2E3373)
Strobe/Lamp Enabled: No (USB2E3373)
Correct for Detector Non-linearity: No (USB2E3373)
Correct for Stray Light: No (USB2E3373)
Number of Pixels in Processed Spectrum: 2048
>>>>>Begin Processed Spectral Data<<<<<
178.53	0.000
178.91	-1050.000
179.29	-1075.000
179.67	-161.111
180.04	-975.000
180.42	1400.000
180.80	800.000
181.18	-525.000
181.56	428.571
181.94	0.000
182.31	-542.857
182.69	1566.667
183.07	-400.000
183.45	-322.222
183.83	372.727
184.20	-320.000
184.58	1700.000
184.96	3800.000
185.34	-660.000
185.72	-462.500
186.09	-1300.000
186.47	2150.000
186.85	1850.000
187.23	2600.000
187.61	-1133.333
187.98	900.000
188.36	427.273
188.74	354.545
189.12	-460.000
189.49	540.000
189.87	-2600.000
190.25	-650.000
190.63	314.286
191.00	292.308
191.38	616.667
191.76	-825.000
192.14	1125.000
192.51	412.500
192.89	783.333
193.27	387.500
193.65	-850.000
194.02	400.000
194.40	740.000
194.78	430.000
195.15	425.000
195.53	540.000
195.91	-1250.000
196.29	281.250
196.66	215.789
197.04	-270.000
197.42	0.000
197.79	440.000
198.17	-3100.000
198.55	542.857
198.92	525.000
199.30	660.000
199.68	0.000
200.05	272.222
200.43	642.857
200.81	2900.000
201.18	1233.333
201.56	-933.333
201.94	388.889
202.31	333.333
202.69	308.333
203.07	340.000
203.44	0.000
203.82	700.000
204.19	628.571
204.57	335.714
204.95	475.000
205.32	1233.333
205.70	390.909
206.08	278.571
206.45	2450.000
206.83	250.000
207.20	500.000
207.58	620.000
207.96	238.889
208.33	550.000
208.71	-500.000
209.08	557.143
209.46	466.667
209.84	336.364
210.21	-1066.667
210.59	1100.000
210.96	-312.500
211.34	1650.000
211.71	470.000
212.09	633.333
212.46	0.000
212.84	1366.667
213.22	1000.000
213.59	-3700.000
213.97	600.000
214.34	542.857
214.72	500.000
215.09	820.000
215.47	-1300.000
215.84	-2050.000
216.22	1366.667
216.59	321.429
216.97	775.000
217.34	336.364
217.72	-500.000
218.09	0.000
218.47	-3300.000
218.84	477.778
219.22	628.571
219.59	1300.000
219.97	-485.714
220.34	740.000
220.72	-1033.333
221.09	300.000
221.47	900.000
221.84	-600.000
222.22	0.000
222.59	875.000
222.97	-1850.000
223.34	620.000
223.72	261.538
224.09	820.000
224.46	1200.000
224.84	-3200.000
225.21	-880.000
225.59	-2400.000
225.96	380.000
226.34	220.000
226.71	1600.000
227.08	412.500
227.46	340.000
227.83	-650.000
228.21	-1800.000
228.58	422.222
228.95	-1200.000
229.33	-1850.000
229.70	1233.333
230.08	600.000
230.45	-660.000
230.82	283.333
231.20	750.000
231.57	457.143
231.95	366.667
232.32	190.909
232.69	209.091
233.07	285.714
233.44	300.000
233.81	-1266.667
234.19	247.368
234.56	283.333
234.93	308.333
235.31	309.091
235.68	253.846
236.05	300.000
236.43	136.364
236.80	189.474
237.17	2600.000
237.55	166.667
237.92	157.143
238.29	223.810
238.67	109.677
239.04	151.724
239.41	100.000
239.79	63.043
240.16	121.429
240.53	90.909
240.91	62.745
241.28	72.000
241.65	74.000
242.02	78.261
242.40	61.290
242.77	53.333
243.14	49.462
243.51	69.663
243.89	49.412
244.26	43.333
244.63	51.613
245.00	46.809
245.38	48.515
245.75	42.056
246.12	36.697
246.49	51.825
246.87	42.400
247.24	45.385
247.61	35.714
247.98	37.255
248.36	30.405
248.73	28.662
249.10	36.306
249.47	31.073
249.84	34.225
250.22	28.342
250.59	33.136
250.96	32.323
251.33	24.171
251.70	31.683
252.08	23.810
252.45	30.493
252.82	26.957
253.19	25.532
253.56	27.843
253.94	25.726
254.31	29.688
254.68	29.231
255.05	25.092
255.42	25.203
255.79	27.206
256.16	25.993
256.54	19.435
256.91	24.555
257.28	20.144
257.65	24.092
258.02	24.845
258.39	25.868
258.76	25.084
259.14	25.298
259.51	21.884
259.88	21.118
260.25	21.752
260.62	19.364
260.99	21.739
261.36	21.622
261.73	20.057
262.10	18.605
262.47	21.127
262.85	19.499
263.22	17.949
263.59	21.937
263.96	21.703
264.33	21.410
264.70	22.105
265.07	20.972
265.44	21.465
265.81	19.465
266.18	21.106
266.55	20.244
266.92	20.147
267.29	20.833
267.66	17.661
268.03	20.455
268.40	18.925
268.77	18.854
269.14	19.820
269.51	22.573
269.88	18.881
270.25	21.219
270.62	19.101
270.99	23.656
271.36	18.670
271.73	17.523
272.10	16.739
272.47	18.065
272.84	19.264
273.21	18.449
273.58	17.031
273.95	17.191
274.32	17.355
274.69	20.557
275.06	19.291
275.43	19.362
275.80	19.238
276.17	18.737
276.54	19.751
276.91	19.565
277.28	16.992
277.65	19.729
278.02	19.255
278.39	19.922
278.76	17.636
279.13	18.113
279.50	18.622
279.87	17.928
280.23	18.563
280.60	15.861
280.97	16.451
281.34	18.584
281.71	18.364
282.08	18.618
282.45	16.000
282.82	16.696
283.19	16.043
283.56	16.667
283.92	15.567
284.29	17.460
284.66	15.608
285.03	16.094
285.40	16.901
285.77	15.488
286.14	16.062
286.51	18.667
286.87	16.923
287.24	17.590
287.61	16.372
287.98	17.532
288.35	16.165
288.72	15.888
289.08	16.275
289.45	14.992
289.82	15.772
290.19	15.385
290.56	14.701
290.93	13.897
291.29	15.184
291.66	17.109
292.03	16.424
292.40	15.859
292.77	13.314
293.13	15.373
293.50	14.869
293.87	14.370
294.24	13.481
294.60	13.683
294.97	13.663
295.34	16.643
295.71	13.352
296.08	13.248
296.44	14.443
296.81	13.078
297.18	14.905
297.55	11.873
297.91	13.061
298.28	14.056
298.65	13.708
299.02	13.702
299.38	13.679
299.75	11.051
300.12	13.538
300.48	13.500
300.85	12.700
301.22	11.465
301.59	11.490
301.95	13.980
302.32	12.067
302.69	11.111
303.05	12.364
303.42	12.099
303.79	13.024
304.15	11.655
304.52	12.514
304.89	10.569
305.25	13.225
305.62	13.137
305.99	12.633
306.35	11.521
306.72	13.004
307.09	11.099
307.45	11.824
307.82	11.272
308.19	11.700
308.55	12.082
308.92	11.493
309.29	11.616
309.65	11.771
310.02	11.839
310.38	11.183
310.75	10.982
311.12	12.180
311.48	12.644
311.85	12.159
312.22	11.967
312.58	10.707
312.95	12.355
313.31	10.777
313.68	10.707
314.05	13.905
314.41	11.558
314.78	12.689
315.14	12.115
315.51	11.020
315.87	13.366
316.24	11.817
316.61	11.014
316.97	11.155
317.34	11.155
317.70	12.428
318.07	12.705
318.43	13.112
318.80	13.402
319.16	12.618
319.53	12.195
319.89	13.048
320.26	13.200
320.62	12.302
320.99	12.525
321.35	13.636
321.72	13.142
322.08	12.340
322.45	14.925
322.81	13.953
323.18	13.680
323.54	12.987
323.91	14.434
324.27	13.576
324.64	12.861
325.00	12.894
325.37	13.831
325.73	15.978
326.10	14.828
326.46	14.158
326.83	16.480
327.19	14.176
327.56	14.373
327.92	14.523
328.29	14.729
328.65	16.483
329.01	15.072
329.38	14.524
329.74	14.589
330.11	16.023
330.47	15.519
330.84	16.820
331.20	15.301
331.56	15.963
331.93	15.648
332.29	16.327
332.66	16.814
333.02	15.356
333.38	16.983
333.75	16.132
334.11	15.925
334.48	16.327
334.84	15.165
335.20	16.091
335.57	15.050
335.93	15.268
336.29	15.018
336.66	16.231
337.02	15.656
337.38	16.944
337.75	14.617
338.11	14.861
338.47	14.917
338.84	14.665
339.20	14.220
339.56	15.420
339.93	14.636
340.29	15.399
340.65	15.152
341.02	15.445
341.38	15.658
341.74	14.386
342.11	16.070
342.47	15.771
342.83	12.928
343.20	15.584
343.56	13.732
343.92	15.175
344.28	14.796
344.65	15.735
345.01	14.226
345.37	13.979
345.73	14.721
346.10	14.578
346.46	15.508
346.82	14.415
347.19	13.952
347.55	13.875
347.91	15.534
348.27	14.955
348.63	14.381
349.00	14.401
349.36	14.696
349.72	14.675
350.08	13.938
350.45	13.751
350.81	13.485
351.17	13.695
351.53	14.824
351.89	14.521
352.26	14.759
352.62	13.633
352.98	13.209
353.34	14.215
353.70	12.848
354.07	14.194
354.43	14.683
354.79	13.998
355.15	14.126
355.51	14.388
355.87	13.878
356.24	14.169
356.60	13.873
356.96	13.918
357.32	13.982
357.68	13.150
358.04	14.410
358.40	13.777
358.77	13.772
359.13	12.944
359.49	12.627
359.85	12.698
360.21	12.281
360.57	14.086
360.93	14.077
361.29	13.379
361.66	12.384
362.02	13.358
362.38	13.232
362.74	14.732
363.10	12.065
363.46	12.766
363.82	13.076
364.18	12.775
364.54	13.744
364.90	13.952
365.26	12.426
365.62	13.367
365.98	12.491
366.35	11.963
366.71	12.726
367.07	12.746
367.43	13.135
367.79	13.776
368.15	14.152
368.51	12.573
368.87	12.562
369.23	13.168
369.59	13.251
369.95	12.647
370.31	12.821
370.67	12.536
371.03	13.483
371.39	12.391
371.75	12.941
372.11	13.158
372.47	12.683
372.83	13.833
373.19	13.584
373.55	12.934
373.91	13.623
374.27	12.509
374.63	12.800
374.99	12.429
375.35	12.491
375.71	12.474
376.07	13.169
376.42	11.829
376.78	13.188
377.14	12.415
377.50	12.517
377.86	12.367
378.22	12.579
378.58	11.905
378.94	11.314
379.30	12.150
379.66	12.881
380.02	12.346
380.38	11.840
380.74	12.725
381.09	12.103
381.45	12.600
381.81	12.715
382.17	12.420
382.53	11.572
382.89	12.099
383.25	12.195
383.61	12.515
383.97	12.695
384.32	12.040
384.68	12.144
385.04	10.879
385.40	11.641
385.76	12.654
386.12	12.306
386.48	11.957
386.83	12.508
387.19	12.307
387.55	12.183
387.91	12.092
388.27	11.956
388.62	12.784
388.98	11.671
389.34	13.642
389.70	12.446
390.06	12.167
390.42	12.581
390.77	13.041
391.13	12.253
391.49	12.881
391.85	12.349
392.20	11.924
392.56	11.679
392.92	12.419
393.28	10.651
393.64	11.930
393.99	12.034
394.35	12.965
394.71	11.669
395.07	11.464
395.42	12.485
395.78	12.087
396.14	12.291
396.50	12.907
396.85	11.888
397.21	11.899
397.57	12.213
397.92	12.500
398.28	11.043
398.64	12.545
399.00	12.199
399.35	11.788
399.71	11.458
400.07	12.951
400.42	12.025
400.78	12.786
401.14	11.951
401.49	12.358
401.85	12.099
402.21	11.557
402.57	12.030
402.92	12.232
403.28	11.743
403.63	11.943
403.99	11.847
404.35	12.364
404.70	11.631
405.06	12.289
405.42	12.102
405.77	12.343
406.13	12.133
406.49	11.946
406.84	12.286
407.20	11.939
407.55	13.019
407.91	12.667
408.27	12.572
408.62	12.101
408.98	11.887
409.34	12.423
409.69	12.194
410.05	11.648
410.40	12.171
410.76	11.888
411.11	12.364
411.47	11.885
411.83	12.645
412.18	11.688
412.54	11.893
412.89	12.169
413.25	12.397
413.60	12.662
413.96	12.447
414.31	13.001
414.67	12.548
415.03	12.119
415.38	13.338
415.74	12.347
416.09	12.933
416.45	11.513
416.80	12.227
417.16	13.338
417.51	12.011
417.87	12.588
418.22	12.997
418.58	13.557
418.93	12.899
419.29	12.540
419.64	12.469
420.00	12.500
420.35	12.522
420.71	12.433
421.06	12.112
421.42	12.281
421.77	12.612
422.12	12.016
422.48	11.387
422.83	12.464
423.19	11.713
423.54	12.188
423.90	12.638
424.25	12.451
424.61	12.024
424.96	12.303
425.31	11.905
425.67	12.022
426.02	11.657
426.38	12.027
426.73	12.522
427.09	11.733
427.44	11.501
427.79	11.731
428.15	12.857
428.50	11.703
428.85	12.694
429.21	10.878
429.56	12.131
429.92	11.575
430.27	11.172
430.62	11.214
430.98	11.676
431.33	11.701
431.68	11.885
432.04	12.460
432.39	11.536
432.74	11.849
433.10	12.054
433.45	12.070
433.80	11.475
434.16	11.966
434.51	11.737
434.86	11.745
435.22	11.951
435.57	11.976
435.92	11.176
436.28	11.981
436.63	12.693
436.98	11.677
437.34	11.628
437.69	12.310
438.04	12.479
438.39	12.060
438.75	12.551
439.10	11.397
439.45	11.747
439.81	12.508
440.16	11.688
440.51	11.482
440.86	12.565
441.22	12.180
441.57	11.783
441.92	11.208
442.27	11.787
442.63	11.743
442.98	12.394
443.33	11.413
443.68	11.719
444.03	11.908
444.39	10.857
444.74	11.688
445.09	11.968
445.44	11.263
445.79	11.925
446.15	11.805
446.50	11.416
446.85	11.202
447.20	11.474
447.55	11.781
447.91	11.197
448.26	12.076
448.61	11.419
448.96	13.012
449.31	11.586
449.66	12.268
450.02	11.253
450.37	11.961
450.72	11.337
451.07	10.969
451.42	11.003
451.77	12.625
452.12	12.182
452.47	11.878
452.83	11.422
453.18	11.369
453.53	11.936
453.88	11.045
454.23	11.715
454.58	12.538
454.93	12.460
455.28	11.658
455.63	11.226
455.98	12.024
456.34	11.872
456.69	11.835
457.04	11.950
457.39	11.806
457.74	11.492
458.09	12.018
458.44	12.429
458.79	11.226
459.14	11.512
459.49	11.734
459.84	11.579
460.19	10.902
460.54	11.863
460.89	11.903
461.24	11.961
461.59	12.260
461.94	12.330
462.29	11.929
462.64	11.678
462.99	11.386
463.34	12.333
463.69	11.382
464.04	12.116
464.39	11.884
464.74	12.121
465.09	12.063
465.44	10.970
465.79	11.074
466.14	10.892
466.49	10.957
466.84	12.609
467.19	11.527
467.54	11.812
467.89	11.765
468.24	11.402
468.59	12.882
468.94	11.790
469.29	11.440
469.64	12.784
469.99	11.908
470.34	11.162
470.68	12.213
471.03	10.884
471.38	11.744
471.73	12.592
472.08	12.763
472.43	11.872
472.78	11.850
473.13	11.810
473.48	12.235
473.83	12.439
474.17	11.263
474.52	11.973
474.87	11.675
475.22	11.724
475.57	11.499
475.92	11.683
476.27	11.894
476.61	11.638
476.96	11.545
477.31	11.251
477.66	11.379
478.01	11.762
478.36	12.057
478.70	11.059
479.05	11.981
479.40	12.078
479.75	12.252
480.10	10.984
480.45	11.423
480.79	11.801
481.14	11.644
481.49	11.628
481.84	11.477
482.19	11.177
482.53	12.064
482.88	11.726
483.23	10.935
483.58	12.011
483.92	10.825
484.27	10.632
484.62	10.560
484.97	10.761
485.31	11.096
485.66	9.907
486.01	9.562
486.36	9.620
486.70	9.828
487.05	10.104
487.40	10.393
487.75	10.433
488.09	10.555
488.44	10.474
488.79	10.778
489.13	11.612
489.48	10.726
489.83	10.574
490.17	11.530
490.52	11.205
490.87	11.171
491.22	11.505
491.56	10.569
491.91	11.215
492.26	11.116
492.60	11.613
492.95	10.711
493.30	11.402
493.64	11.479
493.99	10.631
494.34	11.101
494.68	11.996
495.03	11.184
495.37	10.982
495.72	11.306
496.07	11.044
496.41	10.664
496.76	11.478
497.11	11.571
497.45	11.644
497.80	11.276
498.14	10.725
498.49	11.659
498.84	11.985
499.18	11.286
499.53	11.016
499.87	11.743
500.22	11.305
500.56	11.942
500.91	11.250
501.26	11.854
501.60	11.865
501.95	11.641
502.29	12.699
502.64	11.266
502.98	10.986
503.33	11.197
503.67	11.647
504.02	11.646
504.36	11.699
504.71	11.480
505.06	11.470
505.40	11.813
505.75	11.524
506.09	11.759
506.44	12.087
506.78	11.739
507.13	11.762
507.47	11.667
507.82	11.753
508.16	12.107
508.51	12.075
508.85	11.569
509.19	12.194
509.54	11.276
509.88	11.334
510.23	11.620
510.57	12.797
510.92	11.704
511.26	11.922
511.61	11.359
511.95	11.900
512.30	11.824
512.64	12.305
512.98	12.379
513.33	12.580
513.67	11.793
514.02	11.634
514.36	13.053
514.70	12.341
515.05	10.987
515.39	11.946
515.74	12.950
516.08	12.409
516.42	11.931
516.77	12.709
517.11	13.097
517.46	13.036
517.80	12.485
518.14	12.449
518.49	12.135
518.83	13.068
519.17	12.413
519.52	12.450
519.86	12.550
520.20	13.121
520.55	13.585
520.89	13.260
521.23	12.666
521.58	12.905
521.92	13.227
522.26	12.203
522.61	12.835
522.95	12.032
523.29	12.295
523.64	12.622
523.98	12.816
524.32	13.269
524.66	13.049
525.01	12.990
525.35	12.144
525.69	13.177
526.04	12.399
526.38	12.691
526.72	12.883
527.06	12.994
527.41	12.252
527.75	12.605
528.09	12.653
528.43	14.149
528.78	14.075
529.12	13.273
529.46	13.350
529.80	12.624
530.15	13.458
530.49	12.369
530.83	13.671
531.17	13.577
531.51	13.165
531.86	12.839
532.20	14.276
532.54	13.645
532.88	12.901
533.22	13.242
533.57	12.346
533.91	12.101
534.25	13.001
534.59	12.813
534.93	12.612
535.27	13.639
535.62	12.393
535.96	13.245
536.30	12.206
536.64	12.878
536.98	13.072
537.32	12.377
537.66	12.200
538.01	13.101
538.35	12.864
538.69	13.210
539.03	12.671
539.37	12.716
539.71	12.443
540.05	13.791
540.39	13.223
540.73	12.872
541.07	14.147
541.42	13.699
541.76	13.806
542.10	13.583
542.44	13.113
542.78	14.032
543.12	12.604
543.46	13.967
543.80	13.598
544.14	13.350
544.48	13.905
544.82	13.406
545.16	12.687
545.50	12.725
545.84	12.433
546.18	13.401
546.52	13.558
546.86	12.852
547.20	13.891
547.54	13.293
547.88	13.138
548.22	13.574
548.56	13.585
548.90	11.972
549.24	12.525
549.58	13.779
549.92	13.874
550.26	13.352
550.60	12.656
550.94	13.662
551.28	11.997
551.62	13.659
551.96	12.140
552.30	13.447
552.64	13.928
552.98	14.102
553.32	13.284
553.66	14.519
554.00	13.040
554.34	13.320
554.68	13.090
555.02	12.976
555.36	13.083
555.69	12.788
556.03	13.257
556.37	13.165
556.71	12.347
557.05	13.165
557.39	13.856
557.73	14.044
558.07	14.286
558.41	13.386
558.75	13.666
559.08	13.423
559.42	13.832
559.76	13.015
560.10	13.490
560.44	13.277
560.78	12.575
561.12	13.061
561.45	13.690
561.79	13.052
562.13	13.615
562.47	13.661
562.81	13.250
563.15	12.709
563.48	12.931
563.82	12.981
564.16	12.426
564.50	11.654
564.84	13.021
565.17	12.999
565.51	12.780
565.85	12.817
566.19	12.586
566.52	13.616
566.86	12.477
567.20	12.500
567.54	11.929
567.88	11.896
568.21	12.328
568.55	12.892
568.89	11.722
569.23	11.408
569.56	12.065
569.90	11.094
570.24	11.410
570.57	11.255
570.91	10.892
571.25	11.087
571.59	11.370
571.92	10.974
572.26	10.659
572.60	11.351
572.93	10.735
573.27	10.914
573.61	11.111
573.95	10.672
574.28	10.678
574.62	10.423
574.96	10.514
575.29	10.621
575.63	10.442
575.97	10.909
576.30	10.993
576.64	10.564
576.98	10.331
577.31	10.490
577.65	10.445
577.98	10.535
578.32	10.584
578.66	10.629
578.99	10.568
579.33	10.579
579.67	10.192
580.00	10.117
580.34	10.726
580.67	10.659
581.01	10.839
581.35	10.186
581.68	10.545
582.02	10.285
582.35	10.253
582.69	10.612
583.02	10.483
583.36	10.860
583.70	10.864
584.03	10.815
584.37	10.804
584.70	10.423
585.04	10.494
585.37	10.438
585.71	10.761
586.04	10.848
586.38	10.867
586.72	10.991
587.05	10.731
587.39	10.422
587.72	10.616
588.06	10.779
588.39	10.837
588.73	10.824
589.06	10.938
589.40	11.010
589.73	11.123
590.07	11.352
590.40	11.107
590.73	11.358
591.07	11.966
591.40	12.020
591.74	11.861
592.07	11.431
592.41	11.740
592.74	10.599
593.08	11.193
593.41	10.693
593.75	10.400
594.08	11.096
594.41	11.524
594.75	10.832
595.08	11.203
595.42	11.243
595.75	11.182
596.09	11.115
596.42	11.984
596.75	10.848
597.09	11.429
597.42	11.298
597.75	11.341
598.09	11.391
598.42	11.082
598.76	10.580
599.09	11.022
599.42	11.135
599.76	10.944
600.09	10.820
600.42	10.884
600.76	10.393
601.09	10.783
601.42	11.073
601.76	10.778
602.09	10.949
602.42	10.908
602.76	11.487
603.09	11.172
603.42	11.675
603.76	10.861
604.09	10.741
604.42	11.088
604.76	12.020
605.09	11.446
605.42	11.501
605.75	11.175
606.09	10.858
606.42	10.544
606.75	11.074
607.09	11.679
607.42	11.040
607.75	10.844
608.08	11.073
608.42	11.788
608.75	11.136
609.08	11.656
609.41	11.471
609.75	11.386
610.08	11.216
610.41	10.894
610.74	10.785
611.07	11.364
611.41	10.746
611.74	11.714
612.07	11.232
612.40	11.385
612.73	11.368
613.07	12.015
613.40	12.217
613.73	10.383
614.06	11.290
614.39	11.956
614.72	11.947
615.06	12.185
615.39	11.040
615.72	11.145
616.05	11.377
616.38	11.729
616.71	11.876
617.05	12.250
617.38	11.245
617.71	11.291
618.04	12.139
618.37	11.886
618.70	11.388
619.03	13.750
619.36	12.016
619.69	11.901
620.03	12.225
620.36	13.235
620.69	12.055
621.02	13.274
621.35	12.060
621.68	12.617
622.01	12.152
622.34	12.254
622.67	12.091
623.00	12.619
623.33	12.294
623.66	12.509
623.99	12.077
624.32	12.482
624.65	12.147
624.99	10.623
625.32	11.948
625.65	12.322
625.98	12.452
626.31	12.908
626.64	12.490
626.97	13.217
627.30	12.801
627.63	13.700
627.96	13.961
628.29	13.386
628.62	13.907
628.95	14.811
629.28	14.051
629.61	12.924
629.94	13.714
630.26	13.441
630.59	12.965
630.92	13.123
631.25	11.945
631.58	12.713
631.91	13.590
632.24	13.819
632.57	13.641
632.90	13.925
633.23	14.541
633.56	13.898
633.89	15.062
634.22	15.437
634.55	14.675
634.88	11.976
635.20	14.934
635.53	14.940
635.86	13.614
636.19	14.118
636.52	14.302
636.85	15.120
637.18	13.940
637.51	15.721
637.83	12.084
638.16	15.857
638.49	14.987
638.82	14.665
639.15	15.875
639.48	14.090
639.81	15.818
640.13	16.406
640.46	14.362
640.79	14.795
641.12	13.205
641.45	13.128
641.77	15.317
642.10	14.620
642.43	14.865
642.76	14.706
643.09	15.337
643.41	16.692
643.74	16.512
644.07	15.701
644.40	16.564
644.73	16.220
645.05	16.640
645.38	15.798
645.71	15.620
646.04	15.781
646.36	18.030
646.69	16.722
647.02	15.476
647.35	16.151
647.67	16.637
648.00	14.472
648.33	14.191
648.66	15.152
648.98	14.693
649.31	13.901
649.64	13.453
649.96	14.903
650.29	14.534
650.62	15.858
650.94	17.180
651.27	18.919
651.60	15.973
651.92	16.613
652.25	14.495
652.58	15.732
652.90	17.220
653.23	14.176
653.56	14.646
653.88	15.848
654.21	16.272
654.54	16.007
654.86	14.798
655.19	13.649
655.52	9.922
655.84	7.569
656.17	9.476
656.49	12.991
656.82	13.274
657.15	10.354
657.47	7.994
657.80	6.286
658.13	6.197
658.45	9.612
658.78	9.664
659.10	10.254
659.43	10.347
659.75	11.166
660.08	10.759
660.41	12.942
660.73	13.850
661.06	14.172
661.38	15.818
661.71	17.885
662.03	17.751
662.36	15.507
662.68	18.474
663.01	16.970
663.33	15.074
663.66	16.387
663.98	15.983
664.31	17.017
664.63	17.004
664.96	14.889
665.28	19.262
665.61	16.764
665.93	18.310
666.26	16.024
666.58	17.573
666.91	17.125
667.23	17.528
667.56	15.335
667.88	18.376
668.21	17.697
668.53	18.655
668.86	17.532
669.18	16.631
669.50	18.043
669.83	18.736
670.15	17.333
670.48	16.558
670.80	18.534
671.13	19.108
671.45	14.043
671.77	18.534
672.10	17.006
672.42	14.488
672.75	16.252
673.07	15.493
673.39	13.562
673.72	15.234
674.04	18.431
674.37	16.893
674.69	17.382
675.01	17.155
675.34	20.534
675.66	17.895
675.98	16.293
676.31	17.227
676.63	18.047
676.95	17.400
677.28	17.991
677.60	17.802
677.92	18.565
678.25	17.864
678.57	14.343
678.89	17.435
679.22	14.145
679.54	15.458
679.86	17.431
680.18	16.279
680.51	14.894
680.83	16.192
681.15	16.415
681.48	17.769
681.80	16.248
682.12	14.751
682.44	14.894
682.77	16.497
683.09	19.099
683.41	15.965
683.73	17.881
684.06	15.909
684.38	16.634
684.70	16.667
685.02	17.824
685.34	16.300
685.67	15.035
685.99	15.808
686.31	15.017
686.63	13.958
686.96	15.357
687.28	16.968
687.60	15.036
687.92	18.099
688.24	15.779
688.56	16.667
688.89	16.183
689.21	19.651
689.53	17.328
689.85	17.738
690.17	15.114
690.49	16.773
690.82	16.355
691.14	17.857
691.46	15.190
691.78	15.060
692.10	18.182
692.42	16.766
692.74	16.390
693.06	17.234
693.39	16.838
693.71	15.284
694.03	16.842
694.35	17.100
694.67	16.705
694.99	17.805
695.31	14.706
695.63	16.986
695.95	16.870
696.27	15.482
696.59	17.098
696.91	21.762
697.23	17.840
697.56	16.205
697.88	15.542
698.20	17.292
698.52	17.419
698.84	18.040
699.16	15.207
699.48	15.677
699.80	15.459
700.12	16.883
700.44	17.241
700.76	17.956
701.08	18.103
701.40	19.274
701.72	19.825
702.04	20.739
702.36	17.564
702.68	17.847
703.00	18.560
703.32	16.489
703.64	19.571
703.96	18.106
704.28	15.988
704.60	18.768
704.91	18.398
705.23	19.941
705.55	24.917
705.87	23.920
706.19	19.435
706.51	23.364
706.83	21.212
707.15	22.689
707.47	16.919
707.79	19.165
708.11	19.178
708.43	15.000
708.74	16.327
709.06	20.260
709.38	20.210
709.70	20.058
710.02	20.772
710.34	16.970
710.66	18.806
710.98	22.443
711.29	19.477
711.61	20.944
711.93	16.667
712.25	22.830
712.57	22.426
712.89	21.799
713.20	19.453
713.52	22.697
713.84	18.671
714.16	18.293
714.48	17.241
714.80	22.796
715.11	20.173
715.43	17.804
715.75	19.710
716.07	22.364
716.39	15.987
716.70	24.252
717.02	21.583
717.34	24.028
717.66	24.627
717.97	22.709
718.29	20.741
718.61	20.073
718.93	20.956
719.24	21.453
719.56	17.627
719.88	18.644
720.20	20.946
720.51	20.209
720.83	22.305
721.15	16.045
721.46	20.567
721.78	20.072
722.10	21.509
722.42	21.053
722.73	22.846
723.05	22.541
723.37	24.291
723.68	23.938
724.00	20.732
724.32	24.597
724.63	23.984
724.95	23.849
725.27	23.077
725.58	21.484
725.90	24.453
726.22	18.491
726.53	22.222
726.85	23.208
727.16	19.217
727.48	19.504
727.80	21.970
728.11	22.464
728.43	19.615
728.74	24.373
729.06	26.642
729.38	26.838
729.69	18.505
730.01	20.819
730.32	20.833
730.64	20.736
730.96	19.472
731.27	23.179
731.59	21.101
731.90	18.367
732.22	21.118
732.53	17.337
732.85	19.231
733.16	19.293
733.48	20.598
733.80	20.779
734.11	21.975
734.43	21.893
734.74	18.857
735.06	17.192
735.37	20.809
735.69	18.153
736.00	22.876
736.32	20.249
736.63	18.211
736.95	19.489
737.26	17.007
737.58	15.484
737.89	20.067
738.21	23.208
738.52	20.714
738.83	15.094
739.15	21.538
739.46	22.993
739.78	20.833
740.09	21.231
740.41	20.645
740.72	18.815
741.04	22.593
741.35	20.000
741.66	30.667
741.98	22.642
742.29	26.794
742.61	32.328
742.92	18.552
743.23	24.359
743.55	25.600
743.86	22.368
744.18	29.646
744.49	24.402
744.80	27.700
745.12	26.364
745.43	25.991
745.74	31.081
746.06	26.606
746.37	23.318
746.68	30.317
747.00	28.241
747.31	24.762
747.62	20.354
747.94	17.181
748.25	22.553
748.56	29.075
748.88	21.782
749.19	31.000
749.50	27.442
749.82	23.171
750.13	18.776
750.44	24.818
750.75	23.509
751.07	23.151
751.38	20.557
751.69	24.188
752.01	19.549
752.32	23.105
752.63	21.986
752.94	19.672
753.26	24.000
753.57	23.984
753.88	23.437
754.19	18.571
754.51	22.222
754.82	18.412
755.13	23.774
755.44	19.925
755.75	20.438
756.07	20.213
756.38	17.883
756.69	17.450
757.00	19.162
757.31	20.475
757.63	16.959
757.94	18.499
758.25	17.892
758.56	16.790
758.87	16.667
759.18	19.394
759.50	16.614
759.81	17.757
760.12	16.250
760.43	18.338
760.74	17.120
761.05	20.621
761.36	18.984
761.67	21.591
761.99	17.391
762.30	19.444
762.61	24.809
762.92	21.875
763.23	23.950
763.54	22.800
763.85	21.484
764.16	24.231
764.47	23.954
764.78	21.555
765.10	18.038
765.41	17.994
765.72	17.964
766.03	21.630
766.34	19.667
766.65	27.234
766.96	18.803
767.27	27.919
767.58	24.479
767.89	32.632
768.20	26.437
768.51	23.858
768.82	27.982
769.13	22.764
769.44	19.838
769.75	24.034
770.06	20.183
770.37	23.982
770.68	24.537
770.99	27.556
771.30	17.623
771.61	18.834
771.92	25.000
772.23	26.891
772.54	28.205
772.85	26.702
773.16	28.723
773.47	29.348
773.78	27.411
774.09	24.405
774.39	28.655
774.70	27.778
775.01	35.507
775.32	40.523
775.63	33.553
775.94	30.935
776.25	33.071
776.56	39.552
776.87	40.984
777.18	40.625
777.48	40.458
777.79	40.909
778.10	37.778
778.41	30.357
778.72	36.496
779.03	33.557
779.34	34.228
779.65	25.676
779.95	36.810
780.26	32.026
780.57	31.724
780.88	40.625
781.19	30.075
781.50	31.757
781.80	28.302
782.11	28.249
782.42	25.949
782.73	25.767
783.04	42.568
783.34	29.577
783.65	37.671
783.96	33.582
784.27	35.664
784.57	32.374
784.88	23.148
785.19	30.159
785.50	40.566
785.81	38.060
786.11	34.426
786.42	36.434
786.73	35.398
787.04	45.283
787.34	37.500
787.65	49.000
787.96	40.541
788.26	26.446
788.57	48.305
788.88	43.802
789.19	38.194
789.49	39.394
789.80	35.878
790.11	44.762
790.41	38.614
790.72	44.578
791.03	47.826
791.33	40.698
791.64	54.639
791.95	42.574
792.25	51.111
792.56	53.247
792.87	64.103
793.17	64.557
793.48	55.172
793.79	54.023
794.09	47.727
794.40	43.697
794.70	40.441
795.01	37.778
795.32	35.252
795.62	34.646
795.93	37.069
796.23	40.708
796.54	52.941
796.85	40.541
797.15	59.155
797.46	60.606
797.76	59.036
798.07	51.899
798.37	46.154
798.68	53.030
798.99	49.296
799.29	50.649
799.60	45.455
799.90	56.164
800.21	68.657
800.51	51.724
800.82	70.175
801.12	63.934
801.43	65.152
801.73	63.514
802.04	82.540
802.34	62.963
802.65	64.063
802.95	66.102
803.26	82.813
803.56	52.857
803.87	52.308
804.17	58.824
804.48	72.222
804.78	56.897
805.09	70.588
805.39	53.846
805.70	78.571
806.00	83.607
806.30	59.091
806.61	54.878
806.91	32.911
807.22	50.000
807.52	50.746
807.83	56.338
808.13	59.375
808.43	56.667
808.74	35.526
809.04	63.768
809.35	58.209
809.65	57.895
809.95	58.065
810.26	62.712
810.56	60.317
810.86	84.091
811.17	78.571
811.47	70.000
811.77	64.815
812.08	83.636
812.38	74.000
812.69	100.000
812.99	131.818
813.29	95.918
813.59	52.381
813.90	87.755
814.20	67.273
814.50	50.769
814.81	72.059
815.11	77.551
815.41	72.131
815.72	92.857
816.02	76.364
816.32	100.000
816.62	87.500
816.93	107.317
817.23	76.190
817.53	100.000
817.84	124.242
818.14	82.609
818.44	80.000
818.74	120.588
819.04	92.500
819.35	108.571
819.65	126.471
819.95	103.571
820.25	165.000
820.56	100.000
820.86	81.818
821.16	88.372
821.46	102.564
821.76	98.000
822.07	105.714
822.37	110.000
822.67	124.242
822.97	82.353
823.27	142.857
823.57	97.297
823.88	122.500
824.18	113.333
824.48	114.286
824.78	140.000
825.08	133.333
825.38	129.730
825.69	104.878
825.99	133.333
826.29	89.655
826.59	118.421
826.89	84.211
827.19	123.529
827.49	138.710
827.79	93.182
828.09	90.909
828.39	76.596
828.70	91.837
829.00	111.111
829.30	70.968
829.60	97.500
829.90	160.000
830.20	110.714
830.50	143.478
830.80	121.739
831.10	156.667
831.40	113.333
831.70	117.391
832.00	153.846
832.30	137.037
832.60	193.750
832.90	153.333
833.20	314.286
833.50	112.903
833.80	117.241
834.10	137.500
834.40	134.615
834.70	150.000
835.00	228.571
835.30	111.429
835.60	215.385
835.90	158.621
836.20	221.429
836.50	165.517
836.80	124.000
837.10	130.556
837.40	176.190
837.70	247.059
838.00	151.852
838.30	190.476
838.60	214.286
838.90	142.308
839.19	170.000
839.49	235.714
839.79	225.000
840.09	215.000
840.39	180.952
840.69	156.522
840.99	177.778
841.29	360.000
841.59	216.667
841.88	262.500
842.18	141.379
842.48	180.952
842.78	156.667
843.08	165.217
843.38	115.625
843.68	716.667
843.97	169.231
844.27	117.241
844.57	166.667
844.87	268.750
845.17	133.333
845.47	966.667
845.76	377.778
846.06	211.765
846.36	187.500
846.66	271.429
846.96	225.000
847.25	300.000
847.55	272.727
847.85	143.478
848.15	320.000
848.44	300.000
848.74	172.222
849.04	205.882
849.34	400.000
849.63	157.895
849.93	209.091
850.23	580.000
850.53	257.143
850.82	1450.000
851.12	-2800.000
851.42	2900.000
851.71	195.000
852.01	-600.000
852.31	133.333
852.61	900.000
852.90	138.095
853.20	156.000
853.50	276.471
853.79	204.762
854.09	141.667
854.39	225.000
854.68	124.324
854.98	106.452
855.28	130.000
855.57	158.621
855.87	185.185
856.17	173.684
856.46	166.667
856.76	200.000
857.05	134.483
857.35	145.833
857.65	220.000
857.94	152.174
858.24	142.308
858.53	220.000
858.83	209.091
859.13	206.667
859.42	0.000
859.72	400.000
860.01	263.636
860.31	163.636
860.60	210.526
860.90	182.609
861.20	366.667
861.49	358.333
861.79	-2600.000
862.08	400.000
862.38	209.524
862.67	215.385
862.97	264.706
863.26	377.778
863.56	161.111
863.85	308.333
864.15	512.500
864.44	213.333
864.74	583.333
865.03	487.500
865.33	178.947
865.62	245.455
865.92	246.154
866.21	225.000
866.51	0.000
866.80	345.455
867.10	760.000
867.39	338.462
867.69	309.091
867.98	200.000
868.27	227.273
868.57	210.526
868.86	-3600.000
869.16	268.750
869.45	1050.000
869.75	-2300.000
870.04	300.000
870.33	500.000
870.63	750.000
870.92	2050.000
871.22	528.571
871.51	235.294
871.80	152.381
872.10	300.000
>>>>>End Processed Spectral Data<<<<<
