SpectraSuite Data File
++++++++++++++++++++++++++++++++++++
Date: Wed May 13 20:26:44 PDT 2015
User: schluterlab
Dark Spectrum Present: Yes
Reference Spectrum Present: Yes
Number of Sampled Component Spectra: 1
Spectrometers: USB2E3373
Integration Time (usec): 3000 (USB2E3373)
Spectra Averaged: 3 (USB2E3373)
Boxcar Smoothing: 0 (USB2E3373)
Correct for Electrical Dark: No (USB2E3373)
Strobe/Lamp Enabled: No (USB2E3373)
Correct for Detector Non-linearity: No (USB2E3373)
Correct for Stray Light: No (USB2E3373)
Number of Pixels in Processed Spectrum: 2048
>>>>>Begin Processed Spectral Data<<<<<
178.53	0.000
178.91	-1250.000
179.29	-1150.000
179.67	-161.111
180.04	-1075.000
180.42	2700.000
180.80	900.000
181.18	-875.000
181.56	685.714
181.94	0.000
182.31	-557.143
182.69	1733.333
183.07	-525.000
183.45	-511.111
183.83	509.091
184.20	-320.000
184.58	2300.000
184.96	4600.000
185.34	-720.000
185.72	-500.000
186.09	-2000.000
186.47	2300.000
186.85	2350.000
187.23	5200.000
187.61	-1400.000
187.98	1325.000
188.36	527.273
188.74	500.000
189.12	-1040.000
189.49	580.000
189.87	-3700.000
190.25	-1100.000
190.63	385.714
191.00	376.923
191.38	766.667
191.76	-950.000
192.14	1300.000
192.51	575.000
192.89	833.333
193.27	462.500
193.65	-1025.000
194.02	490.000
194.40	880.000
194.78	490.000
195.15	425.000
195.53	590.000
195.91	-1750.000
196.29	318.750
196.66	294.737
197.04	-350.000
197.42	0.000
197.79	660.000
198.17	-3800.000
198.55	585.714
198.92	662.500
199.30	900.000
199.68	0.000
200.05	300.000
200.43	642.857
200.81	3300.000
201.18	1500.000
201.56	-1433.333
201.94	488.889
202.31	466.667
202.69	375.000
203.07	510.000
203.44	0.000
203.82	1150.000
204.19	728.571
204.57	385.714
204.95	687.500
205.32	1266.667
205.70	381.818
206.08	314.286
206.45	2300.000
206.83	306.250
207.20	833.333
207.58	660.000
207.96	327.778
208.33	587.500
208.71	-850.000
209.08	628.571
209.46	388.889
209.84	436.364
210.21	-1233.333
210.59	1225.000
210.96	-325.000
211.34	2100.000
211.71	390.000
212.09	700.000
212.46	0.000
212.84	1600.000
213.22	1225.000
213.59	-3300.000
213.97	666.667
214.34	714.286
214.72	554.545
215.09	940.000
215.47	-2250.000
215.84	-2400.000
216.22	1400.000
216.59	392.857
216.97	1125.000
217.34	463.636
217.72	-633.333
218.09	0.000
218.47	-4400.000
218.84	566.667
219.22	657.143
219.59	1333.333
219.97	-685.714
220.34	760.000
220.72	-1666.667
221.09	342.857
221.47	1400.000
221.84	-866.667
222.22	0.000
222.59	1250.000
222.97	-2500.000
223.34	1020.000
223.72	376.923
224.09	1140.000
224.46	2150.000
224.84	-4200.000
225.21	-740.000
225.59	-5100.000
225.96	500.000
226.34	260.000
226.71	2400.000
227.08	637.500
227.46	460.000
227.83	-950.000
228.21	-2500.000
228.58	500.000
228.95	-2000.000
229.33	-2150.000
229.70	1833.333
230.08	671.429
230.45	-680.000
230.82	391.667
231.20	816.667
231.57	514.286
231.95	375.000
232.32	200.000
232.69	363.636
233.07	500.000
233.44	323.077
233.81	-1300.000
234.19	294.737
234.56	341.667
234.93	308.333
235.31	390.909
235.68	207.692
236.05	278.571
236.43	148.485
236.80	242.105
237.17	3000.000
237.55	185.714
237.92	164.286
238.29	176.190
238.67	96.774
239.04	155.172
239.41	125.000
239.79	95.652
240.16	116.667
240.53	84.091
240.91	90.196
241.28	72.000
241.65	76.000
242.02	63.768
242.40	58.065
242.77	48.333
243.14	55.914
243.51	62.921
243.89	45.882
244.26	47.778
244.63	41.935
245.00	45.745
245.38	45.545
245.75	38.318
246.12	35.780
246.49	40.146
246.87	39.200
247.24	45.385
247.61	30.714
247.98	37.255
248.36	25.676
248.73	25.478
249.10	27.389
249.47	22.034
249.84	29.412
250.22	24.064
250.59	18.343
250.96	24.747
251.33	21.801
251.70	26.733
252.08	22.381
252.45	19.283
252.82	17.826
253.19	24.255
253.56	14.902
253.94	20.332
254.31	21.875
254.68	18.846
255.05	19.557
255.42	21.951
255.79	17.279
256.16	17.690
256.54	14.488
256.91	17.438
257.28	13.309
257.65	13.531
258.02	15.839
258.39	14.511
258.76	14.047
259.14	13.393
259.51	13.678
259.88	12.112
260.25	14.804
260.62	13.873
260.99	13.975
261.36	12.913
261.73	13.467
262.10	11.337
262.47	16.056
262.85	13.092
263.22	9.687
263.59	15.670
263.96	10.165
264.33	11.227
264.70	13.158
265.07	14.066
265.44	12.374
265.81	9.732
266.18	11.809
266.55	10.732
266.92	9.828
267.29	12.500
267.66	10.321
268.03	11.591
268.40	10.047
268.77	9.547
269.14	8.784
269.51	11.512
269.88	9.790
270.25	10.384
270.62	10.112
270.99	15.484
271.36	10.300
271.73	9.346
272.10	10.870
272.47	13.333
272.84	11.688
273.21	13.627
273.58	7.205
273.95	11.950
274.32	9.091
274.69	9.422
275.06	9.843
275.43	10.213
275.80	7.816
276.17	8.147
276.54	10.811
276.91	8.893
277.28	8.203
277.65	10.832
278.02	8.075
278.39	10.547
278.76	8.909
279.13	8.491
279.50	9.870
279.87	10.956
280.23	8.982
280.60	8.704
280.97	9.057
281.34	9.735
281.71	10.545
282.08	10.557
282.45	9.091
282.82	9.947
283.19	6.952
283.56	9.825
283.92	9.645
284.29	9.171
284.66	7.985
285.03	7.052
285.40	8.275
285.77	9.259
286.14	7.945
286.51	8.167
286.87	9.231
287.24	9.609
287.61	9.149
287.98	8.604
288.35	8.241
288.72	8.879
289.08	9.390
289.45	9.061
289.82	8.780
290.19	7.064
290.56	6.891
290.93	6.042
291.29	6.902
291.66	6.785
292.03	9.448
292.40	9.985
292.77	7.249
293.13	10.000
293.50	6.851
293.87	6.519
294.24	7.259
294.60	6.841
294.97	6.395
295.34	8.745
295.71	7.386
296.08	5.413
296.44	7.703
296.81	6.077
297.18	7.453
297.55	4.354
297.91	6.069
298.28	6.693
298.65	8.486
299.02	6.719
299.38	5.578
299.75	5.391
300.12	4.981
300.48	7.250
300.85	7.645
301.22	6.752
301.59	5.556
301.95	7.431
302.32	6.547
302.69	6.093
303.05	6.182
303.42	5.926
303.79	6.569
304.15	6.760
304.52	5.562
304.89	6.736
305.25	5.104
305.62	6.795
305.99	6.021
306.35	6.376
306.72	5.269
307.09	6.770
307.45	7.883
307.82	5.469
308.19	7.174
308.55	6.688
308.92	6.982
309.29	5.280
309.65	5.620
310.02	6.660
310.38	6.022
310.75	5.913
311.12	6.244
311.48	7.628
311.85	8.595
312.22	7.076
312.58	6.237
312.95	6.969
313.31	6.699
313.68	8.004
314.05	9.270
314.41	7.739
314.78	8.359
315.14	7.646
315.51	9.063
315.87	8.911
316.24	7.448
316.61	9.942
316.97	7.828
317.34	7.828
317.70	10.229
318.07	8.662
318.43	9.295
318.80	10.403
319.16	10.169
319.53	9.850
319.89	11.333
320.26	11.400
320.62	11.111
320.99	12.121
321.35	11.414
321.72	12.834
322.08	12.636
322.45	13.731
322.81	13.372
323.18	13.776
323.54	13.729
323.91	15.189
324.27	13.671
324.64	14.073
325.00	12.894
325.37	14.832
325.73	15.889
326.10	14.916
326.46	15.054
326.83	15.789
327.19	15.457
327.56	15.854
327.92	17.760
328.29	17.303
328.65	16.390
329.01	16.426
329.38	17.021
329.74	17.636
330.11	17.248
330.47	18.365
330.84	19.301
331.20	18.306
331.56	18.440
331.93	17.593
332.29	19.166
332.66	19.469
333.02	18.282
333.38	19.241
333.75	19.162
334.11	20.196
334.48	19.432
334.84	19.210
335.20	19.727
335.57	19.039
335.93	19.375
336.29	19.231
336.66	20.739
337.02	19.548
337.38	20.926
337.75	19.964
338.11	20.143
338.47	20.258
338.84	21.173
339.20	19.541
339.56	20.803
339.93	20.455
340.29	19.656
340.65	19.875
341.02	21.379
341.38	20.196
341.74	20.702
342.11	20.524
342.47	20.969
342.83	20.120
343.20	21.126
343.56	20.977
343.92	19.825
344.28	21.003
344.65	21.066
345.01	21.212
345.37	20.326
345.73	20.981
346.10	20.546
346.46	20.678
346.82	21.746
347.19	20.718
347.55	20.854
347.91	21.197
348.27	21.364
348.63	22.157
349.00	20.146
349.36	20.854
349.72	21.652
350.08	20.989
350.45	21.644
350.81	20.959
351.17	20.746
351.53	21.458
351.89	21.205
352.26	20.679
352.62	21.973
352.98	22.447
353.34	21.282
353.70	21.522
354.07	21.532
354.43	21.984
354.79	20.676
355.15	21.389
355.51	22.302
355.87	21.388
356.24	21.417
356.60	21.652
356.96	21.158
357.32	21.014
357.68	21.024
358.04	21.615
358.40	20.982
358.77	21.596
359.13	20.205
359.49	21.490
359.85	20.238
360.21	20.734
360.57	22.802
360.93	21.923
361.29	21.542
361.66	21.130
362.02	21.343
362.38	21.521
362.74	21.280
363.10	21.540
363.46	20.983
363.82	20.786
364.18	20.852
364.54	22.140
364.90	22.025
365.26	21.985
365.62	21.622
365.98	20.599
366.35	20.344
366.71	22.487
367.07	21.923
367.43	21.698
367.79	20.985
368.15	22.414
368.51	21.003
368.87	21.199
369.23	21.873
369.59	21.144
369.95	22.206
370.31	21.652
370.67	21.522
371.03	21.573
371.39	21.210
371.75	20.809
372.11	19.986
372.47	21.628
372.83	22.046
373.19	21.532
373.55	21.951
373.91	22.165
374.27	20.687
374.63	20.727
374.99	21.681
375.35	20.516
375.71	21.590
376.07	22.565
376.42	20.702
376.78	21.803
377.14	20.488
377.50	20.132
377.86	20.213
378.22	20.986
378.58	19.486
378.94	20.742
379.30	19.275
379.66	19.860
380.02	20.209
380.38	19.794
380.74	21.248
381.09	20.477
381.45	20.897
381.81	20.025
382.17	20.892
382.53	20.377
382.89	20.864
383.25	19.637
383.61	19.641
383.97	20.200
384.32	19.775
384.68	19.331
385.04	19.176
385.40	18.638
385.76	19.287
386.12	19.948
386.48	20.264
386.83	19.756
387.19	20.037
387.55	19.852
387.91	19.952
388.27	19.191
388.62	19.607
388.98	19.410
389.34	20.025
389.70	19.559
390.06	19.708
390.42	19.715
390.77	18.702
391.13	19.464
391.49	18.909
391.85	19.160
392.20	18.170
392.56	18.434
392.92	18.717
393.28	17.101
393.64	19.005
393.99	18.876
394.35	18.052
394.71	18.130
395.07	17.695
395.42	18.850
395.78	18.384
396.14	17.505
396.50	18.609
396.85	18.818
397.21	17.139
397.57	17.917
397.92	18.089
398.28	16.592
398.64	18.041
399.00	17.236
399.35	17.259
399.71	17.535
400.07	18.273
400.42	17.669
400.78	17.431
401.14	17.195
401.49	16.896
401.85	16.818
402.21	16.228
402.57	16.965
402.92	17.339
403.28	16.864
403.63	17.141
403.99	16.943
404.35	16.182
404.70	16.427
405.06	16.249
405.42	16.532
405.77	15.600
406.13	16.253
406.49	16.440
406.84	16.007
407.20	15.248
407.55	16.337
407.91	15.933
408.27	15.826
408.62	15.894
408.98	15.931
409.34	15.191
409.69	15.613
410.05	15.118
410.40	15.657
410.76	15.890
411.11	15.561
411.47	15.399
411.83	15.577
412.18	14.286
412.54	15.255
412.89	15.783
413.25	14.935
413.60	16.121
413.96	15.118
414.31	15.310
414.67	15.653
415.03	15.099
415.38	14.755
415.74	15.691
416.09	15.937
416.45	15.328
416.80	14.871
417.16	16.287
417.51	15.528
417.87	14.322
418.22	15.836
418.58	15.817
418.93	14.681
419.29	15.404
419.64	15.176
420.00	14.573
420.35	14.609
420.71	14.883
421.06	14.141
421.42	14.503
421.77	14.854
422.12	13.869
422.48	14.517
422.83	14.735
423.19	14.088
423.54	14.684
423.90	15.188
424.25	14.908
424.61	14.405
424.96	14.052
425.31	14.009
425.67	13.933
426.02	14.114
426.38	14.591
426.73	14.570
427.09	14.286
427.44	13.916
427.79	14.549
428.15	13.869
428.50	14.745
428.85	15.197
429.21	13.528
429.56	14.204
429.92	13.639
430.27	13.108
430.62	13.364
430.98	14.323
431.33	13.763
431.68	14.398
432.04	13.738
432.39	13.307
432.74	14.303
433.10	14.375
433.45	14.227
433.80	13.193
434.16	14.049
434.51	13.526
434.86	14.310
435.22	13.285
435.57	14.225
435.92	13.751
436.28	14.176
436.63	14.680
436.98	13.452
437.34	13.834
437.69	14.644
438.04	13.940
438.39	13.493
438.75	14.701
439.10	13.575
439.45	14.050
439.81	13.716
440.16	13.326
440.51	13.943
440.86	13.955
441.22	13.459
441.57	13.429
441.92	13.664
442.27	13.671
442.63	12.691
442.98	14.197
443.33	13.859
443.68	14.094
444.03	14.300
444.39	12.804
444.74	12.933
445.09	13.585
445.44	12.685
445.79	13.261
446.15	13.923
446.50	13.840
446.85	13.412
447.20	12.953
447.55	13.735
447.91	13.293
448.26	13.689
448.61	13.341
448.96	13.677
449.31	13.780
449.66	13.618
450.02	12.535
450.37	13.265
450.72	12.690
451.07	12.797
451.42	13.374
451.77	13.271
452.12	13.857
452.47	13.868
452.83	13.287
453.18	13.081
453.53	13.667
453.88	12.640
454.23	12.851
454.58	13.689
454.93	13.414
455.28	11.845
455.63	12.561
455.98	13.631
456.34	12.688
456.69	12.899
457.04	13.189
457.39	12.566
457.74	13.059
458.09	13.514
458.44	12.828
458.79	12.256
459.14	12.472
459.49	12.960
459.84	12.244
460.19	12.552
460.54	12.442
460.89	12.068
461.24	12.750
461.59	13.306
461.94	12.454
462.29	13.769
462.64	12.317
462.99	12.687
463.34	13.267
463.69	12.570
464.04	13.159
464.39	12.116
464.74	12.359
465.09	12.183
465.44	12.078
465.79	11.298
466.14	12.534
466.49	11.846
466.84	12.201
467.19	12.613
467.54	12.688
467.89	11.885
468.24	12.449
468.59	12.210
468.94	11.057
469.29	11.632
469.64	12.450
469.99	11.570
470.34	11.823
470.68	11.997
471.03	12.517
471.38	12.926
471.73	12.059
472.08	12.566
472.43	11.935
472.78	11.916
473.13	11.746
473.48	11.985
473.83	11.951
474.17	11.637
474.52	12.221
474.87	11.617
475.22	11.608
475.57	10.801
475.92	10.940
476.27	10.541
476.61	10.811
476.96	10.170
477.31	10.832
477.66	10.230
478.01	9.984
478.36	11.211
478.70	10.436
479.05	10.809
479.40	11.003
479.75	10.371
480.10	10.487
480.45	10.281
480.79	10.463
481.14	10.274
481.49	10.441
481.84	10.151
482.19	10.313
482.53	10.046
482.88	10.470
483.23	10.280
483.58	10.237
483.92	9.513
484.27	9.150
484.62	9.612
484.97	9.736
485.31	9.452
485.66	8.235
486.01	8.088
486.36	7.847
486.70	7.998
487.05	8.254
487.40	8.682
487.75	8.571
488.09	8.948
488.44	8.672
488.79	9.114
489.13	9.282
489.48	9.176
489.83	8.718
490.17	9.294
490.52	9.079
490.87	9.724
491.22	9.777
491.56	9.157
491.91	9.121
492.26	9.187
492.60	9.217
492.95	8.419
493.30	9.112
493.64	9.193
493.99	8.728
494.34	9.066
494.68	9.203
495.03	9.164
495.37	8.655
495.72	9.064
496.07	9.466
496.41	9.159
496.76	8.531
497.11	8.915
497.45	9.269
497.80	9.069
498.14	8.599
498.49	8.390
498.84	9.827
499.18	8.762
499.53	8.737
499.87	8.947
500.22	9.279
500.56	9.223
500.91	8.173
501.26	8.725
501.60	9.397
501.95	8.799
502.29	9.231
502.64	8.380
502.98	8.462
503.33	8.775
503.67	8.353
504.02	9.027
504.36	8.751
504.71	8.256
505.06	9.349
505.40	8.167
505.75	9.016
506.09	8.260
506.44	8.535
506.78	8.719
507.13	9.238
507.47	8.737
507.82	9.321
508.16	8.663
508.51	8.422
508.85	8.739
509.19	8.214
509.54	9.235
509.88	8.604
510.23	8.432
510.57	9.133
510.92	8.182
511.26	8.325
511.61	8.091
511.95	7.724
512.30	8.484
512.64	8.812
512.98	8.735
513.33	9.101
513.67	8.058
514.02	7.846
514.36	9.011
514.70	8.578
515.05	7.920
515.39	8.749
515.74	8.333
516.08	8.944
516.42	8.380
516.77	9.030
517.11	7.880
517.46	8.465
517.80	8.711
518.14	7.817
518.49	8.868
518.83	8.864
519.17	7.679
519.52	8.319
519.86	8.899
520.20	8.613
520.55	8.498
520.89	8.942
521.23	8.685
521.58	8.944
521.92	8.818
522.26	8.115
522.61	8.224
522.95	7.858
523.29	8.886
523.64	8.720
523.98	8.688
524.32	8.203
524.66	9.020
525.01	8.946
525.35	8.302
525.69	7.820
526.04	8.349
526.38	8.481
526.72	8.896
527.06	8.788
527.41	7.921
527.75	8.939
528.09	8.478
528.43	8.604
528.78	9.158
529.12	8.545
529.46	9.002
529.80	8.230
530.15	8.411
530.49	8.185
530.83	8.418
531.17	8.681
531.51	8.625
531.86	8.581
532.20	8.801
532.54	8.969
532.88	9.371
533.22	7.058
533.57	8.580
533.91	7.586
534.25	8.566
534.59	8.603
534.93	7.912
535.27	7.423
535.62	7.814
535.96	8.098
536.30	7.692
536.64	7.791
536.98	8.958
537.32	7.900
537.66	8.333
538.01	8.427
538.35	8.468
538.69	8.807
539.03	7.537
539.37	7.029
539.71	7.064
540.05	7.255
540.39	7.708
540.73	7.568
541.07	8.436
541.42	7.893
541.76	9.290
542.10	7.762
542.44	8.079
542.78	8.959
543.12	6.846
543.46	8.721
543.80	8.458
544.14	7.189
544.48	8.571
544.82	7.312
545.16	7.742
545.50	7.519
545.84	7.661
546.18	8.350
546.52	6.882
546.86	7.010
547.20	8.159
547.54	8.083
547.88	8.482
548.22	8.406
548.56	7.610
548.90	7.362
549.24	7.475
549.58	7.640
549.92	7.898
550.26	8.310
550.60	7.884
550.94	7.535
551.28	6.511
551.62	8.483
551.96	7.368
552.30	7.986
552.64	7.911
552.98	8.068
553.32	7.957
553.66	8.521
554.00	7.412
554.34	7.522
554.68	8.655
555.02	8.533
555.36	8.212
555.69	7.240
556.03	7.604
556.37	7.367
556.71	7.776
557.05	7.983
557.39	7.908
557.73	8.116
558.07	7.614
558.41	7.525
558.75	7.935
559.08	8.576
559.42	7.407
559.76	8.162
560.10	7.780
560.44	7.198
560.78	7.319
561.12	7.586
561.45	7.627
561.79	6.460
562.13	7.243
562.47	7.719
562.81	7.601
563.15	7.224
563.48	7.029
563.82	7.241
564.16	7.063
564.50	7.487
564.84	7.522
565.17	7.143
565.51	6.965
565.85	7.868
566.19	6.888
566.52	6.523
566.86	6.811
567.20	7.547
567.54	6.678
567.88	6.953
568.21	7.672
568.55	6.522
568.89	5.885
569.23	6.328
569.56	6.154
569.90	5.811
570.24	6.315
570.57	5.542
570.91	5.656
571.25	5.096
571.59	5.272
571.92	5.242
572.26	5.575
572.60	5.225
572.93	5.607
573.27	5.294
573.61	5.695
573.95	5.323
574.28	5.151
574.62	4.956
574.96	4.922
575.29	4.971
575.63	4.726
575.97	4.947
576.30	5.204
576.64	5.181
576.98	4.716
577.31	4.713
577.65	4.951
577.98	4.745
578.32	4.527
578.66	4.801
578.99	4.953
579.33	4.745
579.67	4.816
580.00	4.795
580.34	4.556
580.67	4.987
581.01	5.105
581.35	4.848
581.68	4.798
582.02	4.548
582.35	4.593
582.69	4.586
583.02	4.855
583.36	4.888
583.70	5.145
584.03	4.990
584.37	5.718
584.70	4.754
585.04	5.039
585.37	4.939
585.71	5.075
586.04	5.098
586.38	5.120
586.72	5.330
587.05	5.107
587.39	4.644
587.72	5.024
588.06	4.723
588.39	5.267
588.73	5.192
589.06	5.485
589.40	5.724
589.73	5.385
590.07	5.730
590.40	5.334
590.73	5.464
591.07	5.576
591.40	5.736
591.74	5.931
592.07	5.803
592.41	6.573
592.74	5.768
593.08	5.796
593.41	5.473
593.75	5.372
594.08	5.598
594.41	5.832
594.75	4.954
595.08	6.013
595.42	5.744
595.75	5.556
596.09	5.933
596.42	6.051
596.75	6.247
597.09	6.104
597.42	5.734
597.75	5.865
598.09	5.739
598.42	5.842
598.76	5.715
599.09	5.473
599.42	5.677
599.76	5.600
600.09	5.719
600.42	4.931
600.76	5.107
601.09	5.792
601.42	5.479
601.76	5.655
602.09	5.455
602.42	6.131
602.76	6.006
603.09	6.098
603.42	6.130
603.76	5.983
604.09	5.428
604.42	5.911
604.76	6.495
605.09	6.378
605.42	5.643
605.75	6.043
606.09	5.856
606.42	5.680
606.75	6.014
607.09	6.656
607.42	5.049
607.75	5.781
608.08	5.211
608.42	6.589
608.75	5.996
609.08	6.244
609.41	5.950
609.75	5.860
610.08	6.173
610.41	5.633
610.74	6.149
611.07	5.978
611.41	6.330
611.74	6.737
612.07	6.573
612.40	6.348
612.73	6.421
613.07	7.328
613.40	6.688
613.73	5.978
614.06	5.430
614.39	6.240
614.72	7.053
615.06	6.723
615.39	5.839
615.72	6.391
616.05	6.167
616.38	6.726
616.71	6.295
617.05	6.890
617.38	6.554
617.71	6.547
618.04	6.731
618.37	6.446
618.70	6.907
619.03	7.566
619.36	7.400
619.69	7.324
620.03	7.418
620.36	7.086
620.69	7.603
621.02	6.416
621.35	6.500
621.68	7.866
622.01	7.043
622.34	8.018
622.67	7.072
623.00	6.823
623.33	6.862
623.66	7.791
623.99	7.143
624.32	6.990
624.65	7.203
624.99	6.091
625.32	7.241
625.65	7.513
625.98	7.533
626.31	8.320
626.64	8.245
626.97	8.146
627.30	7.814
627.63	9.270
627.96	8.242
628.29	7.612
628.62	8.051
628.95	9.528
629.28	7.573
629.61	9.441
629.94	8.190
630.26	8.484
630.59	9.724
630.92	8.429
631.25	7.601
631.58	8.308
631.91	8.012
632.24	7.489
632.57	9.444
632.90	9.211
633.23	9.284
633.56	10.508
633.89	9.287
634.22	9.421
634.55	8.166
634.88	9.461
635.20	8.722
635.53	8.916
635.86	9.035
636.19	7.647
636.52	9.227
636.85	9.622
637.18	9.101
637.51	10.757
637.83	7.768
638.16	11.125
638.49	8.564
638.82	10.114
639.15	10.375
639.48	10.224
639.81	9.115
640.13	10.938
640.46	9.396
640.79	10.040
641.12	9.904
641.45	9.358
641.77	10.751
642.10	10.088
642.43	9.910
642.76	9.598
643.09	12.117
643.41	9.105
643.74	13.272
644.07	10.366
644.40	12.270
644.73	11.181
645.05	13.154
645.38	9.637
645.71	11.916
646.04	11.794
646.36	12.855
646.69	12.709
647.02	11.224
647.35	13.230
647.67	12.920
648.00	14.634
648.33	10.726
648.66	11.515
648.98	12.894
649.31	9.417
649.64	10.015
649.96	11.624
650.29	8.847
650.62	9.385
650.94	12.318
651.27	13.345
651.60	11.314
651.92	11.342
652.25	10.261
652.58	11.215
652.90	9.795
653.23	10.940
653.56	10.394
653.88	12.044
654.21	12.006
654.54	11.056
654.86	11.838
655.19	10.135
655.52	5.678
655.84	3.701
656.17	4.161
656.49	5.473
656.82	5.602
657.15	4.512
657.47	3.403
657.80	2.647
658.13	2.878
658.45	4.426
658.78	4.546
659.10	4.836
659.43	5.140
659.75	5.449
660.08	6.329
660.41	9.125
660.73	9.784
661.06	8.599
661.38	14.000
661.71	12.885
662.03	11.243
662.36	11.332
662.68	13.052
663.01	12.929
663.33	12.951
663.66	13.235
663.98	13.607
664.31	10.714
664.63	13.563
664.96	14.286
665.28	13.730
665.61	12.476
665.93	13.078
666.26	11.156
666.58	11.506
666.91	15.222
667.23	11.910
667.56	12.095
667.88	13.675
668.21	12.793
668.53	12.148
668.86	13.203
669.18	15.139
669.50	14.565
669.83	16.776
670.15	11.556
670.48	10.458
670.80	13.362
671.13	13.588
671.45	11.915
671.77	12.831
672.10	13.309
672.42	11.484
672.75	10.614
673.07	12.324
673.39	9.946
673.72	10.352
674.04	12.941
674.37	12.816
674.69	9.611
675.01	10.251
675.34	15.400
675.66	15.579
675.98	14.460
676.31	15.126
676.63	14.013
676.95	13.836
677.28	13.084
677.60	10.330
677.92	14.346
678.25	12.936
678.57	13.546
678.89	12.224
679.22	13.360
679.54	12.023
679.86	11.927
680.18	11.807
680.51	12.943
680.83	15.125
681.15	13.208
681.48	14.367
681.80	9.284
682.12	10.728
682.44	9.671
682.77	13.238
683.09	16.524
683.41	13.747
683.73	15.232
684.06	15.289
684.38	13.699
684.70	12.791
685.02	12.570
685.34	10.440
685.67	8.392
685.99	9.450
686.31	10.410
686.63	8.304
686.96	11.786
687.28	11.733
687.60	9.239
687.92	10.420
688.24	12.738
688.56	13.052
688.89	13.071
689.21	17.031
689.53	13.570
689.85	13.525
690.17	12.008
690.49	15.499
690.82	11.449
691.14	12.277
691.46	10.970
691.78	12.048
692.10	14.669
692.42	15.170
692.74	11.411
693.06	11.915
693.39	15.400
693.71	11.790
694.03	15.158
694.35	13.853
694.67	11.899
694.99	12.439
695.31	12.255
695.63	12.919
695.95	12.469
696.27	11.168
696.59	16.321
696.91	14.508
697.23	14.554
697.56	15.139
697.88	11.247
698.20	13.750
698.52	13.333
698.84	11.804
699.16	14.747
699.48	12.352
699.80	14.251
700.12	16.623
700.44	14.324
700.76	15.746
701.08	13.218
701.40	12.849
701.72	15.160
702.04	19.602
702.36	14.731
702.68	15.014
703.00	16.066
703.32	14.894
703.64	16.086
703.96	16.992
704.28	16.570
704.60	16.716
704.91	15.134
705.23	14.076
705.55	17.940
705.87	20.930
706.19	16.254
706.51	20.561
706.83	17.879
707.15	17.087
707.47	16.414
707.79	13.268
708.11	15.753
708.43	15.714
708.74	12.245
709.06	17.403
709.38	16.798
709.70	17.442
710.02	17.804
710.34	13.939
710.66	17.313
710.98	19.034
711.29	18.023
711.61	19.469
711.93	16.987
712.25	20.900
712.57	15.809
712.89	20.069
713.20	18.845
713.52	16.447
713.84	15.190
714.16	15.244
714.48	13.793
714.80	21.277
715.11	13.833
715.43	15.430
715.75	12.754
716.07	18.530
716.39	18.182
716.70	20.266
717.02	17.266
717.34	20.848
717.66	22.761
717.97	27.490
718.29	20.000
718.61	22.263
718.93	18.750
719.24	19.723
719.56	14.576
719.88	18.305
720.20	21.622
720.51	19.164
720.83	19.331
721.15	18.284
721.46	18.794
721.78	20.789
722.10	18.113
722.42	19.173
722.73	22.846
723.05	15.574
723.37	17.004
723.68	22.008
724.00	22.764
724.32	20.968
724.63	24.390
724.95	17.573
725.27	23.077
725.58	22.266
725.90	22.263
726.22	20.755
726.53	18.750
726.85	20.137
727.16	18.861
727.48	21.631
727.80	17.045
728.11	14.493
728.43	19.231
728.74	19.713
729.06	23.723
729.38	20.588
729.69	21.352
730.01	18.089
730.32	15.972
730.64	19.064
730.96	15.182
731.27	19.205
731.59	18.960
731.90	18.076
732.22	17.702
732.53	15.480
732.85	17.628
733.16	17.363
733.48	19.269
733.80	19.805
734.11	18.153
734.43	15.385
734.74	17.429
735.06	14.327
735.37	18.786
735.69	15.924
736.00	22.222
736.32	17.445
736.63	15.335
736.95	20.128
737.26	10.884
737.58	13.548
737.89	16.054
738.21	21.502
738.52	20.000
738.83	15.849
739.15	20.000
739.46	21.533
739.78	16.319
740.09	15.077
740.41	17.419
740.72	17.422
741.04	21.481
741.35	17.083
741.66	21.778
741.98	16.509
742.29	24.402
742.61	25.431
742.92	21.267
743.23	18.376
743.55	22.800
743.86	21.930
744.18	27.876
744.49	26.794
744.80	30.986
745.12	29.091
745.43	22.467
745.74	28.378
746.06	21.560
746.37	23.318
746.68	23.529
747.00	20.833
747.31	22.381
747.62	21.239
747.94	17.181
748.25	23.830
748.56	25.110
748.88	16.832
749.19	22.500
749.50	24.186
749.82	21.138
750.13	16.327
750.44	18.248
750.75	14.386
751.07	22.508
751.38	19.164
751.69	19.495
752.01	20.301
752.32	18.773
752.63	20.567
752.94	20.082
753.26	22.800
753.57	19.919
753.88	21.484
754.19	18.214
754.51	24.653
754.82	15.523
755.13	23.774
755.44	18.797
755.75	16.058
756.07	16.312
756.38	14.599
756.69	17.450
757.00	17.964
757.31	17.211
757.63	15.789
757.94	15.818
758.25	13.725
758.56	12.593
758.87	13.978
759.18	20.000
759.50	15.361
759.81	19.003
760.12	14.375
760.43	18.625
760.74	15.489
761.05	17.232
761.36	13.102
761.67	16.477
761.99	20.497
762.30	19.097
762.61	19.847
762.92	23.828
763.23	21.429
763.54	22.000
763.85	18.359
764.16	26.154
764.47	21.293
764.78	15.901
765.10	12.975
765.41	17.109
765.72	18.263
766.03	17.868
766.34	15.000
766.65	21.702
766.96	20.085
767.27	20.305
767.58	30.208
767.89	34.737
768.20	31.034
768.51	28.426
768.82	24.771
769.13	19.512
769.44	18.219
769.75	23.176
770.06	13.761
770.37	21.719
770.68	22.685
770.99	19.556
771.30	18.033
771.61	25.112
771.92	22.131
772.23	25.630
772.54	24.103
772.85	28.796
773.16	27.660
773.47	30.435
773.78	30.964
774.09	29.167
774.39	32.749
774.70	30.864
775.01	28.261
775.32	39.869
775.63	30.263
775.94	29.496
776.25	37.795
776.56	37.313
776.87	41.803
777.18	29.687
777.48	38.931
777.79	39.394
778.10	37.037
778.41	34.821
778.72	37.956
779.03	28.859
779.34	29.530
779.65	25.000
779.95	26.994
780.26	33.333
780.57	37.241
780.88	41.406
781.19	37.594
781.50	37.838
781.80	33.333
782.11	24.294
782.42	25.316
782.73	34.356
783.04	36.486
783.34	36.620
783.65	39.726
783.96	39.552
784.27	34.965
784.57	27.338
784.88	34.259
785.19	42.063
785.50	36.792
785.81	43.284
786.11	35.246
786.42	41.085
786.73	34.513
787.04	42.453
787.34	40.179
787.65	42.000
787.96	37.838
788.26	35.537
788.57	37.288
788.88	45.455
789.19	43.056
789.49	45.455
789.80	38.168
790.11	53.333
790.41	58.416
790.72	50.602
791.03	47.826
791.33	63.953
791.64	55.670
791.95	49.505
792.25	65.556
792.56	44.156
792.87	65.385
793.17	63.291
793.48	58.621
793.79	58.621
794.09	59.091
794.40	46.218
794.70	39.706
795.01	35.556
795.32	36.691
795.62	36.220
795.93	38.793
796.23	45.133
796.54	52.941
796.85	50.000
797.15	74.648
797.46	81.818
797.76	67.470
798.07	70.886
798.37	49.231
798.68	63.636
798.99	56.338
799.29	59.740
799.60	54.545
799.90	67.123
800.21	82.090
800.51	72.414
800.82	66.667
801.12	81.967
801.43	78.788
801.73	54.054
802.04	77.778
802.34	66.667
802.65	76.563
802.95	94.915
803.26	93.750
803.56	67.143
803.87	58.462
804.17	76.471
804.48	77.778
804.78	75.862
805.09	76.471
805.39	84.615
805.70	92.857
806.00	93.443
806.30	75.758
806.61	65.854
806.91	54.430
807.22	65.789
807.52	47.761
807.83	69.014
808.13	81.250
808.43	83.333
808.74	64.474
809.04	73.913
809.35	70.149
809.65	57.895
809.95	91.935
810.26	74.576
810.56	85.714
810.86	106.818
811.17	119.048
811.47	90.000
811.77	83.333
812.08	98.182
812.38	92.000
812.69	122.222
812.99	109.091
813.29	85.714
813.59	76.190
813.90	106.122
814.20	94.545
814.50	83.077
814.81	61.765
815.11	95.918
815.41	75.410
815.72	107.143
816.02	92.727
816.32	97.619
816.62	102.500
816.93	114.634
817.23	114.286
817.53	100.000
817.84	154.545
818.14	130.435
818.44	97.778
818.74	129.412
819.04	105.000
819.35	94.286
819.65	167.647
819.95	142.857
820.25	180.000
820.56	151.282
820.86	131.818
821.16	104.651
821.46	94.872
821.76	138.000
822.07	120.000
822.37	112.500
822.67	106.061
822.97	100.000
823.27	164.286
823.57	129.730
823.88	147.500
824.18	143.333
824.48	147.619
824.78	184.000
825.08	145.833
825.38	151.351
825.69	109.756
825.99	191.667
826.29	134.483
826.59	115.789
826.89	115.789
827.19	144.118
827.49	151.613
827.79	111.364
828.09	93.182
828.39	91.489
828.70	110.204
829.00	148.148
829.30	122.581
829.60	102.500
829.90	213.333
830.20	160.714
830.50	169.565
830.80	173.913
831.10	180.000
831.40	146.667
831.70	152.174
832.00	196.154
832.30	188.889
832.60	231.250
832.90	160.000
833.20	364.286
833.50	154.839
833.80	186.207
834.10	168.750
834.40	215.385
834.70	261.111
835.00	209.524
835.30	131.429
835.60	238.462
835.90	162.069
836.20	321.429
836.50	175.862
836.80	200.000
837.10	152.778
837.40	171.429
837.70	323.529
838.00	155.556
838.30	209.524
838.60	252.381
838.90	215.385
839.19	225.000
839.49	371.429
839.79	300.000
840.09	175.000
840.39	252.381
840.69	269.565
840.99	222.222
841.29	430.000
841.59	308.333
841.88	250.000
842.18	162.069
842.48	238.095
842.78	146.667
843.08	195.652
843.38	134.375
843.68	666.667
843.97	169.231
844.27	168.966
844.57	252.381
844.87	312.500
845.17	188.889
845.47	1033.333
845.76	300.000
846.06	223.529
846.36	512.500
846.66	314.286
846.96	268.750
847.25	272.727
847.55	345.455
847.85	273.913
848.15	450.000
848.44	364.286
848.74	222.222
849.04	229.412
849.34	490.000
849.63	226.316
849.93	372.727
850.23	740.000
850.53	428.571
850.82	1600.000
851.12	-3700.000
851.42	4200.000
851.71	275.000
852.01	-1233.333
852.31	212.500
852.61	1300.000
852.90	209.524
853.20	232.000
853.50	276.471
853.79	261.905
854.09	170.833
854.39	243.750
854.68	148.649
854.98	167.742
855.28	140.000
855.57	172.414
855.87	218.519
856.17	215.789
856.46	153.333
856.76	229.412
857.05	186.207
857.35	154.167
857.65	260.000
857.94	208.696
858.24	223.077
858.53	275.000
858.83	231.818
859.13	273.333
859.42	0.000
859.72	488.889
860.01	381.818
860.31	222.727
860.60	263.158
860.90	230.435
861.20	500.000
861.49	433.333
861.79	-5400.000
862.08	500.000
862.38	214.286
862.67	284.615
862.97	300.000
863.26	422.222
863.56	222.222
863.85	333.333
864.15	487.500
864.44	313.333
864.74	716.667
865.03	537.500
865.33	268.421
865.62	336.364
865.92	384.615
866.21	325.000
866.51	0.000
866.80	445.455
867.10	880.000
867.39	400.000
867.69	427.273
867.98	268.421
868.27	400.000
868.57	231.579
868.86	-3300.000
869.16	300.000
869.45	1450.000
869.75	-3900.000
870.04	366.667
870.33	471.429
870.63	1125.000
870.92	1900.000
871.22	700.000
871.51	270.588
871.80	219.048
872.10	400.000
>>>>>End Processed Spectral Data<<<<<
