SpectraSuite Data File
++++++++++++++++++++++++++++++++++++
Date: Wed May 13 20:37:07 PDT 2015
User: schluterlab
Dark Spectrum Present: Yes
Reference Spectrum Present: Yes
Number of Sampled Component Spectra: 1
Spectrometers: USB2E3373
Integration Time (usec): 3000 (USB2E3373)
Spectra Averaged: 3 (USB2E3373)
Boxcar Smoothing: 0 (USB2E3373)
Correct for Electrical Dark: No (USB2E3373)
Strobe/Lamp Enabled: No (USB2E3373)
Correct for Detector Non-linearity: No (USB2E3373)
Correct for Stray Light: No (USB2E3373)
Number of Pixels in Processed Spectrum: 2048
>>>>>Begin Processed Spectral Data<<<<<
178.53	0.000
178.91	-1100.000
179.29	-900.000
179.67	-144.444
180.04	-1075.000
180.42	1950.000
180.80	820.000
181.18	-875.000
181.56	614.286
181.94	0.000
182.31	-400.000
182.69	933.333
183.07	-325.000
183.45	-344.444
183.83	463.636
184.20	-390.000
184.58	1900.000
184.96	3900.000
185.34	-520.000
185.72	-437.500
186.09	-1850.000
186.47	1950.000
186.85	1750.000
187.23	4000.000
187.61	-1333.333
187.98	825.000
188.36	354.545
188.74	336.364
189.12	-640.000
189.49	410.000
189.87	-3600.000
190.25	-950.000
190.63	307.143
191.00	330.769
191.38	483.333
191.76	-700.000
192.14	975.000
192.51	375.000
192.89	700.000
193.27	537.500
193.65	-875.000
194.02	450.000
194.40	720.000
194.78	400.000
195.15	375.000
195.53	480.000
195.91	-1750.000
196.29	287.500
196.66	252.632
197.04	-230.000
197.42	0.000
197.79	400.000
198.17	-3600.000
198.55	485.714
198.92	400.000
199.30	580.000
199.68	0.000
200.05	266.667
200.43	500.000
200.81	4200.000
201.18	1133.333
201.56	-1300.000
201.94	322.222
202.31	377.778
202.69	316.667
203.07	400.000
203.44	0.000
203.82	825.000
204.19	614.286
204.57	357.143
204.95	425.000
205.32	1133.333
205.70	345.455
206.08	321.429
206.45	1900.000
206.83	312.500
207.20	816.667
207.58	580.000
207.96	244.444
208.33	575.000
208.71	-516.667
209.08	585.714
209.46	455.556
209.84	363.636
210.21	-1333.333
210.59	1325.000
210.96	-312.500
211.34	1850.000
211.71	450.000
212.09	566.667
212.46	0.000
212.84	1200.000
213.22	750.000
213.59	-3400.000
213.97	516.667
214.34	514.286
214.72	454.545
215.09	780.000
215.47	-1900.000
215.84	-1700.000
216.22	1233.333
216.59	257.143
216.97	750.000
217.34	345.455
217.72	-583.333
218.09	0.000
218.47	-3700.000
218.84	522.222
219.22	528.571
219.59	1166.667
219.97	-328.571
220.34	560.000
220.72	-1366.667
221.09	321.429
221.47	1000.000
221.84	-616.667
222.22	0.000
222.59	1050.000
222.97	-1550.000
223.34	900.000
223.72	238.462
224.09	660.000
224.46	1850.000
224.84	-3500.000
225.21	-540.000
225.59	-3400.000
225.96	440.000
226.34	265.000
226.71	1800.000
227.08	462.500
227.46	370.000
227.83	-750.000
228.21	-1650.000
228.58	366.667
228.95	-1750.000
229.33	-2000.000
229.70	1200.000
230.08	642.857
230.45	-620.000
230.82	350.000
231.20	533.333
231.57	528.571
231.95	383.333
232.32	159.091
232.69	254.545
233.07	485.714
233.44	246.154
233.81	-1333.333
234.19	236.842
234.56	308.333
234.93	325.000
235.31	336.364
235.68	253.846
236.05	235.714
236.43	121.212
236.80	200.000
237.17	2700.000
237.55	166.667
237.92	182.143
238.29	209.524
238.67	138.710
239.04	175.862
239.41	111.111
239.79	84.783
240.16	102.381
240.53	93.182
240.91	94.118
241.28	88.000
241.65	104.000
242.02	75.362
242.40	69.355
242.77	75.000
243.14	65.591
243.51	64.045
243.89	65.882
244.26	53.333
244.63	60.215
245.00	55.319
245.38	68.317
245.75	48.598
246.12	49.541
246.49	55.474
246.87	54.400
247.24	54.615
247.61	45.000
247.98	50.327
248.36	41.892
248.73	52.229
249.10	45.860
249.47	36.723
249.84	43.316
250.22	39.572
250.59	41.420
250.96	40.404
251.33	44.550
251.70	45.050
252.08	42.857
252.45	35.874
252.82	37.391
253.19	40.426
253.56	38.039
253.94	39.834
254.31	39.453
254.68	38.077
255.05	36.900
255.42	37.805
255.79	38.235
256.16	35.740
256.54	33.569
256.91	37.722
257.28	31.655
257.65	35.974
258.02	32.609
258.39	31.861
258.76	31.773
259.14	32.738
259.51	35.258
259.88	31.366
260.25	33.837
260.62	32.659
260.99	35.714
261.36	34.234
261.73	32.378
262.10	31.395
262.47	31.268
262.85	32.591
263.22	28.490
263.59	34.473
263.96	32.143
264.33	31.593
264.70	33.421
265.07	31.458
265.44	33.333
265.81	31.630
266.18	31.910
266.55	30.244
266.92	31.695
267.29	30.556
267.66	31.881
268.03	31.364
268.40	31.075
268.77	26.969
269.14	29.505
269.51	30.926
269.88	30.303
270.25	29.571
270.62	28.090
270.99	33.333
271.36	30.043
271.73	29.206
272.10	30.652
272.47	31.183
272.84	30.087
273.21	29.350
273.58	28.166
273.95	27.254
274.32	28.306
274.69	30.193
275.06	25.394
275.43	30.426
275.80	26.052
276.17	28.106
276.54	30.146
276.91	29.644
277.28	29.688
277.65	28.820
278.02	25.673
278.39	29.492
278.76	29.636
279.13	27.547
279.50	27.374
279.87	27.888
280.23	29.541
280.60	26.112
280.97	27.726
281.34	24.779
281.71	28.545
282.08	27.639
282.45	28.000
282.82	29.307
283.19	25.668
283.56	26.667
283.92	28.088
284.29	27.513
284.66	25.771
285.03	26.040
285.40	25.528
285.77	26.936
286.14	25.216
286.51	27.667
286.87	26.667
287.24	27.850
287.61	24.719
287.98	25.162
288.35	25.515
288.72	23.832
289.08	25.822
289.45	25.371
289.82	26.016
290.19	23.077
290.56	23.124
290.93	22.356
291.29	22.853
291.66	22.124
292.03	25.581
292.40	25.991
292.77	23.077
293.13	22.090
293.50	24.636
293.87	23.852
294.24	22.963
294.60	21.689
294.97	22.965
295.34	24.260
295.71	22.727
296.08	21.795
296.44	21.596
296.81	21.400
297.18	22.087
297.55	19.657
297.91	20.712
298.28	20.348
298.65	23.499
299.02	22.398
299.38	20.983
299.75	19.407
300.12	21.839
300.48	20.750
300.85	20.222
301.22	20.127
301.59	21.465
301.95	20.907
302.32	20.924
302.69	18.996
303.05	19.636
303.42	18.889
303.79	18.347
304.15	19.114
304.52	19.467
304.89	19.744
305.25	20.186
305.62	19.592
305.99	19.362
306.35	18.345
306.72	19.507
307.09	18.535
307.45	20.495
307.82	18.304
308.19	18.433
308.55	20.065
308.92	19.012
309.29	18.057
309.65	18.982
310.02	19.345
310.38	19.570
310.75	19.324
311.12	18.219
311.48	19.749
311.85	19.287
312.22	19.979
312.58	19.751
312.95	19.430
313.31	17.282
313.68	19.439
314.05	20.907
314.41	20.704
314.78	19.940
315.14	19.762
315.51	21.009
315.87	21.485
316.24	19.662
316.61	19.103
316.97	19.863
317.34	20.744
317.70	21.319
318.07	20.500
318.43	21.331
318.80	21.743
319.16	20.998
319.53	21.107
319.89	22.476
320.26	23.100
320.62	22.421
320.99	22.525
321.35	22.525
321.72	24.435
322.08	24.877
322.45	26.468
322.81	24.612
323.18	25.241
323.54	25.139
323.91	26.887
324.27	24.952
324.64	23.952
325.00	24.436
325.37	27.116
325.73	27.020
326.10	27.802
326.46	26.792
326.83	28.300
327.19	27.327
327.56	28.397
327.92	29.396
328.29	28.128
328.65	29.558
329.01	29.603
329.38	28.862
329.74	29.455
330.11	31.103
330.47	30.211
330.84	30.331
331.20	30.601
331.56	29.908
331.93	31.204
332.29	31.411
332.66	32.124
333.02	31.261
333.38	31.436
333.75	32.977
334.11	32.295
334.48	31.588
334.84	32.537
335.20	32.273
335.57	31.278
335.93	31.071
336.29	31.868
336.66	33.273
337.02	31.855
337.38	33.056
337.75	32.620
338.11	33.035
338.47	33.057
338.84	33.547
339.20	32.202
339.56	34.124
339.93	33.182
340.29	33.786
340.65	34.225
341.02	33.944
341.38	33.452
341.74	32.982
342.11	33.275
342.47	34.449
342.83	33.647
343.20	35.065
343.56	33.024
343.92	32.632
344.28	34.439
344.65	33.792
345.01	33.754
345.37	33.791
345.73	33.080
346.10	33.674
346.46	33.475
346.82	33.443
347.19	33.751
347.55	32.677
347.91	33.414
348.27	33.443
348.63	33.445
349.00	33.981
349.36	33.662
349.72	34.162
350.08	33.549
350.45	34.418
350.81	33.469
351.17	33.874
351.53	33.088
351.89	34.323
352.26	35.201
352.62	33.039
352.98	34.603
353.34	34.758
353.70	34.370
354.07	34.355
354.43	33.254
354.79	34.031
355.15	34.796
355.51	35.012
355.87	34.449
356.24	34.691
356.60	33.761
356.96	34.352
357.32	34.996
357.68	34.882
358.04	35.550
358.40	34.759
358.77	36.072
359.13	34.807
359.49	35.137
359.85	33.889
360.21	34.689
360.57	36.265
360.93	35.462
361.29	33.787
361.66	34.520
362.02	34.552
362.38	35.741
362.74	34.673
363.10	34.937
363.46	35.363
363.82	35.072
364.18	34.361
364.54	36.776
364.90	35.340
365.26	34.118
365.62	36.158
365.98	35.354
366.35	35.029
366.71	35.213
367.07	35.688
367.43	36.938
367.79	35.974
368.15	37.356
368.51	35.828
368.87	35.689
369.23	35.625
369.59	37.509
369.95	36.985
370.31	36.040
370.67	35.072
371.03	36.854
371.39	35.714
371.75	35.221
372.11	34.993
372.47	36.437
372.83	37.320
373.19	35.477
373.55	36.511
373.91	37.113
374.27	35.258
374.63	36.582
374.99	36.723
375.35	36.148
375.71	36.326
376.07	36.077
376.42	36.933
376.78	36.647
377.14	35.821
377.50	36.887
377.86	34.907
378.22	36.157
378.58	35.213
378.94	36.455
379.30	35.814
379.66	36.865
380.02	35.811
380.38	35.216
380.74	36.975
381.09	36.369
381.45	36.202
381.81	36.486
382.17	36.242
382.53	35.786
382.89	37.222
383.25	35.960
383.61	35.812
383.97	36.210
384.32	36.556
384.68	35.440
385.04	36.632
385.40	35.913
385.76	36.425
386.12	35.557
386.48	36.753
386.83	36.818
387.19	37.168
387.55	36.549
387.91	35.913
388.27	35.377
388.62	36.140
388.98	35.319
389.34	35.169
389.70	36.542
390.06	37.262
390.42	37.224
390.77	35.814
391.13	36.758
391.49	36.358
391.85	35.073
392.20	35.142
392.56	35.290
392.92	36.433
393.28	34.201
393.64	34.472
393.99	34.820
394.35	35.546
394.71	35.069
395.07	33.832
395.42	36.279
395.78	35.687
396.14	34.823
396.50	35.401
396.85	35.219
397.21	34.032
397.57	34.780
397.92	34.315
398.28	34.193
398.64	33.990
399.00	34.695
399.35	33.954
399.71	34.086
400.07	34.004
400.42	33.558
400.78	34.198
401.14	33.963
401.49	34.030
401.85	33.878
402.21	33.234
402.57	33.745
402.92	34.552
403.28	34.416
403.63	32.859
403.99	32.739
404.35	32.606
404.70	33.753
405.06	32.615
405.42	32.689
405.77	32.743
406.13	31.546
406.49	33.116
406.84	32.605
407.20	30.615
407.55	32.993
407.91	31.867
408.27	31.589
408.62	31.427
408.98	30.760
409.34	31.550
409.69	31.935
410.05	31.041
410.40	31.437
410.76	30.585
411.11	31.363
411.47	30.799
411.83	31.093
412.18	30.489
412.54	31.569
412.89	31.566
413.25	30.401
413.60	30.698
413.96	29.751
414.31	29.891
414.67	31.305
415.03	30.596
415.38	30.735
415.74	30.804
416.09	31.091
416.45	30.857
416.80	30.007
417.16	31.032
417.51	30.657
417.87	29.544
418.22	30.158
418.58	29.567
418.93	30.344
419.29	29.726
419.64	30.542
420.00	29.695
420.35	29.159
420.71	30.185
421.06	29.296
421.42	30.058
421.77	29.484
422.12	28.186
422.48	28.494
422.83	28.946
423.19	30.276
423.54	29.832
423.90	29.043
424.25	29.257
424.61	28.988
424.96	29.621
425.31	29.236
425.67	28.371
426.02	29.143
426.38	28.999
426.73	29.023
427.09	28.693
427.44	28.925
427.79	28.925
428.15	28.690
428.50	28.204
428.85	29.023
429.21	28.382
429.56	28.460
429.92	28.485
430.27	27.855
430.62	27.701
430.98	28.801
431.33	27.938
431.68	27.592
432.04	27.796
432.39	27.927
432.74	27.528
433.10	27.674
433.45	28.921
433.80	26.663
434.16	27.671
434.51	28.105
434.86	29.076
435.22	28.238
435.57	28.511
435.92	26.975
436.28	28.233
436.63	28.422
436.98	28.449
437.34	28.145
437.69	28.121
438.04	27.712
438.39	27.881
438.75	26.961
439.10	27.598
439.45	27.804
439.81	27.432
440.16	27.216
440.51	27.475
440.86	27.736
441.22	27.086
441.57	26.964
441.92	27.482
442.27	27.449
442.63	27.014
442.98	28.169
443.33	27.174
443.68	26.691
444.03	26.842
444.39	26.680
444.74	27.814
445.09	26.469
445.44	26.955
445.79	26.868
446.15	26.734
446.50	26.387
446.85	25.797
447.20	26.976
447.55	26.745
447.91	26.475
448.26	26.544
448.61	26.456
448.96	27.353
449.31	26.547
449.66	25.999
450.02	26.240
450.37	26.417
450.72	26.340
451.07	25.472
451.42	25.350
451.77	25.661
452.12	26.559
452.47	26.182
452.83	26.399
453.18	25.917
453.53	26.964
453.88	25.989
454.23	26.061
454.58	26.045
454.93	26.001
455.28	24.875
455.63	25.485
455.98	25.893
456.34	25.565
456.69	25.798
457.04	26.068
457.39	25.482
457.74	25.827
458.09	24.957
458.44	24.743
458.79	24.620
459.14	25.564
459.49	26.095
459.84	24.432
460.19	24.750
460.54	24.826
460.89	24.301
461.24	25.622
461.59	25.567
461.94	25.216
462.29	24.451
462.64	24.888
462.99	23.943
463.34	25.733
463.69	24.203
464.04	23.884
464.39	24.986
464.74	23.529
465.09	23.703
465.44	23.380
465.79	23.937
466.14	24.028
466.49	23.860
466.84	24.402
467.19	23.537
467.54	25.062
467.89	23.709
468.24	23.793
468.59	24.054
468.94	24.191
469.29	23.779
469.64	24.029
469.99	24.154
470.34	23.052
470.68	23.851
471.03	22.517
471.38	23.350
471.73	24.450
472.08	23.882
472.43	23.116
472.78	22.712
473.13	23.235
473.48	23.408
473.83	22.866
474.17	22.340
474.52	23.201
474.87	22.475
475.22	23.331
475.57	22.031
475.92	22.570
476.27	22.661
476.61	22.284
476.96	22.045
477.31	21.769
477.66	22.648
478.01	21.328
478.36	21.576
478.70	21.755
479.05	22.524
479.40	22.876
479.75	21.962
480.10	21.322
480.45	21.276
480.79	21.261
481.14	21.673
481.49	21.927
481.84	20.668
482.19	22.126
482.53	20.688
482.88	22.057
483.23	21.589
483.58	21.884
483.92	21.743
484.27	20.218
484.62	20.948
484.97	20.260
485.31	20.479
485.66	19.371
486.01	19.270
486.36	19.288
486.70	19.107
487.05	20.072
487.40	20.531
487.75	20.455
488.09	20.564
488.44	20.047
488.79	21.157
489.13	20.779
489.48	20.595
489.83	20.242
490.17	19.728
490.52	20.106
490.87	20.036
491.22	20.009
491.56	19.362
491.91	20.289
492.26	19.201
492.60	20.092
492.95	19.457
493.30	19.953
493.64	20.719
493.99	18.988
494.34	19.658
494.68	19.643
495.03	20.207
495.37	19.544
495.72	19.786
496.07	19.768
496.41	19.027
496.76	19.393
497.11	19.676
497.45	20.307
497.80	19.770
498.14	19.758
498.49	19.610
498.84	19.990
499.18	19.190
499.53	19.706
499.87	19.199
500.22	19.077
500.56	20.728
500.91	18.606
501.26	19.298
501.60	19.317
501.95	19.478
502.29	20.619
502.64	19.507
502.98	19.635
503.33	18.784
503.67	19.258
504.02	19.457
504.36	19.888
504.71	19.345
505.06	19.181
505.40	18.960
505.75	18.708
506.09	19.485
506.44	19.191
506.78	19.338
507.13	19.283
507.47	19.495
507.82	19.250
508.16	19.554
508.51	18.874
508.85	19.464
509.19	19.082
509.54	18.673
509.88	18.908
510.23	18.869
510.57	19.659
510.92	18.799
511.26	18.191
511.61	19.813
511.95	18.946
512.30	18.823
512.64	19.183
512.98	19.239
513.33	18.683
513.67	18.463
514.02	17.803
514.36	18.897
514.70	18.594
515.05	19.130
515.39	19.237
515.74	18.919
516.08	19.620
516.42	18.979
516.77	19.565
517.11	18.979
517.46	19.131
517.80	19.396
518.14	18.240
518.49	19.428
518.83	19.148
519.17	18.245
519.52	18.902
519.86	19.281
520.20	19.306
520.55	19.808
520.89	18.917
521.23	19.059
521.58	18.247
521.92	19.228
522.26	18.609
522.61	18.380
522.95	18.723
523.29	18.564
523.64	18.476
523.98	19.039
524.32	19.180
524.66	18.220
525.01	18.505
525.35	18.897
525.69	18.165
526.04	18.754
526.38	18.853
526.72	18.221
527.06	18.581
527.41	17.389
527.75	19.486
528.09	18.947
528.43	18.228
528.78	18.746
529.12	18.242
529.46	18.004
529.80	19.183
530.15	19.252
530.49	17.846
530.83	17.658
531.17	19.321
531.51	19.585
531.86	18.452
532.20	18.514
532.54	18.450
532.88	18.357
533.22	17.552
533.57	18.148
533.91	17.640
534.25	19.077
534.59	18.182
534.93	17.906
535.27	18.588
535.62	18.071
535.96	18.456
536.30	18.118
536.64	19.189
536.98	18.514
537.32	18.302
537.66	19.067
538.01	18.697
538.35	18.035
538.69	18.698
539.03	17.739
539.37	17.444
539.71	18.017
540.05	17.582
540.39	18.140
540.73	17.400
541.07	18.365
541.42	18.982
541.76	18.645
542.10	17.723
542.44	17.020
542.78	17.852
543.12	17.530
543.46	18.689
543.80	17.762
544.14	17.522
544.48	17.778
544.82	18.024
545.16	18.478
545.50	18.188
545.84	18.280
546.18	17.643
546.52	17.688
546.86	17.801
547.20	18.746
547.54	17.902
547.88	18.495
548.22	17.621
548.56	17.673
548.90	17.670
549.24	17.710
549.58	18.008
549.92	18.132
550.26	18.324
550.60	17.427
550.94	18.099
551.28	17.776
551.62	17.829
551.96	17.614
552.30	17.747
552.64	17.647
552.98	17.966
553.32	18.678
553.66	19.087
554.00	18.051
554.34	18.357
554.68	17.811
555.02	17.913
555.36	16.771
555.69	16.373
556.03	17.497
556.37	17.462
556.71	16.917
557.05	17.717
557.39	17.425
557.73	17.219
558.07	18.637
558.41	17.149
558.75	17.781
559.08	18.792
559.42	17.763
559.76	17.206
560.10	17.702
560.44	17.331
560.78	17.831
561.12	16.557
561.45	18.057
561.79	18.128
562.13	18.310
562.47	17.760
562.81	16.806
563.15	16.856
563.48	17.706
563.82	16.438
564.16	17.528
564.50	17.122
564.84	17.067
565.17	16.860
565.51	16.805
565.85	16.942
566.19	17.095
566.52	18.176
566.86	16.757
567.20	17.158
567.54	17.352
567.88	16.947
568.21	17.778
568.55	17.594
568.89	17.218
569.23	16.399
569.56	17.126
569.90	16.340
570.24	16.003
570.57	16.287
570.91	16.290
571.25	15.781
571.59	16.112
571.92	16.273
572.26	16.291
572.60	16.156
572.93	16.042
573.27	16.681
573.61	15.773
573.95	16.072
574.28	16.156
574.62	15.743
574.96	15.699
575.29	15.883
575.63	16.184
575.97	15.803
576.30	16.038
576.64	15.618
576.98	15.727
577.31	15.481
577.65	15.592
577.98	15.340
578.32	15.310
578.66	15.535
578.99	15.795
579.33	15.517
579.67	15.641
580.00	15.943
580.34	15.923
580.67	16.025
581.01	15.673
581.35	15.341
581.68	15.418
582.02	15.113
582.35	15.533
582.69	15.785
583.02	15.736
583.36	16.186
583.70	16.384
584.03	15.648
584.37	16.601
584.70	16.275
585.04	15.925
585.37	15.564
585.71	16.283
586.04	16.139
586.38	16.196
586.72	16.625
587.05	15.621
587.39	15.673
587.72	16.001
588.06	15.662
588.39	15.967
588.73	16.163
589.06	16.765
589.40	16.599
589.73	16.755
590.07	16.548
590.40	15.857
590.73	16.198
591.07	17.257
591.40	16.364
591.74	16.926
592.07	16.710
592.41	16.536
592.74	15.431
593.08	15.856
593.41	15.944
593.75	15.428
594.08	16.125
594.41	15.977
594.75	15.860
595.08	15.676
595.42	16.357
595.75	16.026
596.09	16.448
596.42	16.817
596.75	16.885
597.09	16.797
597.42	15.219
597.75	16.516
598.09	16.696
598.42	16.194
598.76	15.809
599.09	15.621
599.42	15.830
599.76	15.849
600.09	15.592
600.42	16.034
600.76	15.571
601.09	15.701
601.42	15.715
601.76	16.091
602.09	15.810
602.42	16.879
602.76	17.090
603.09	16.286
603.42	16.673
603.76	15.320
604.09	16.014
604.42	16.714
604.76	16.744
605.09	16.077
605.42	15.306
605.75	16.060
606.09	15.413
606.42	16.020
606.75	16.093
607.09	16.157
607.42	15.576
607.75	15.738
608.08	15.588
608.42	16.450
608.75	16.411
609.08	16.004
609.41	15.897
609.75	16.008
610.08	16.352
610.41	15.084
610.74	16.083
611.07	15.761
611.41	15.800
611.74	16.742
612.07	16.822
612.40	16.946
612.73	16.421
613.07	16.110
613.40	17.009
613.73	15.522
614.06	16.667
614.39	16.728
614.72	15.632
615.06	16.387
615.39	16.136
615.72	16.309
616.05	15.843
616.38	16.176
616.71	16.033
617.05	16.549
617.38	16.296
617.71	16.757
618.04	16.767
618.37	16.440
618.70	17.113
619.03	17.303
619.36	17.244
619.69	16.056
620.03	17.582
620.36	17.313
620.69	16.644
621.02	17.773
621.35	16.210
621.68	16.121
622.01	16.486
622.34	17.700
622.67	16.198
623.00	15.774
623.33	16.154
623.66	16.297
623.99	16.348
624.32	16.405
624.65	16.525
624.99	15.864
625.32	16.727
625.65	17.581
625.98	16.987
626.31	16.874
626.64	16.653
626.97	17.207
627.30	18.204
627.63	17.637
627.96	16.905
628.29	16.448
628.62	16.377
628.95	18.868
629.28	17.336
629.61	18.515
629.94	16.667
630.26	16.015
630.59	17.445
630.92	16.379
631.25	17.374
631.58	17.618
631.91	17.850
632.24	17.089
632.57	17.314
632.90	17.215
633.23	17.785
633.56	18.192
633.89	16.874
634.22	18.842
634.55	17.870
634.88	15.449
635.20	17.563
635.53	18.675
635.86	16.460
636.19	17.059
636.52	18.224
636.85	17.297
637.18	17.512
637.51	18.440
637.83	15.660
638.16	16.752
638.49	18.388
638.82	19.090
639.15	18.750
639.48	16.459
639.81	19.973
640.13	18.359
640.46	17.584
640.79	18.098
641.12	17.607
641.45	17.737
641.77	18.115
642.10	19.591
642.43	16.967
642.76	16.718
643.09	19.172
643.41	16.995
643.74	18.364
644.07	17.378
644.40	20.552
644.73	20.157
645.05	20.285
645.38	17.694
645.71	19.002
646.04	20.100
646.36	22.037
646.69	21.405
647.02	18.367
647.35	19.244
647.67	19.292
648.00	19.024
648.33	17.162
648.66	17.576
648.98	19.190
649.31	17.339
649.64	18.685
649.96	18.480
650.29	18.325
650.62	18.608
650.94	18.152
651.27	20.439
651.60	18.968
651.92	20.447
652.25	17.590
652.58	20.561
652.90	18.957
653.23	17.720
653.56	18.268
653.88	19.176
654.21	20.537
654.54	17.492
654.86	19.938
655.19	16.757
655.52	13.150
655.84	12.444
656.17	15.734
656.49	21.689
656.82	22.993
657.15	17.927
657.47	13.323
657.80	10.315
658.13	10.832
658.45	16.356
658.78	16.561
659.10	17.415
659.43	17.699
659.75	18.178
660.08	18.544
660.41	19.646
660.73	18.933
661.06	19.904
661.38	19.091
661.71	18.846
662.03	18.935
662.36	18.489
662.68	19.076
663.01	21.616
663.33	18.896
663.66	18.908
663.98	20.086
664.31	19.118
664.63	19.231
664.96	17.103
665.28	19.057
665.61	17.154
665.93	18.712
666.26	20.081
666.58	19.247
666.91	21.142
667.23	19.101
667.56	18.790
667.88	19.658
668.21	21.535
668.53	18.872
668.86	20.563
669.18	20.682
669.50	18.696
669.83	21.786
670.15	20.444
670.48	20.479
670.80	17.672
671.13	19.533
671.45	19.787
671.77	20.774
672.10	19.593
672.42	16.431
672.75	19.569
673.07	19.542
673.39	20.253
673.72	18.750
674.04	20.000
674.37	19.417
674.69	16.973
675.01	19.456
675.34	21.355
675.66	22.737
675.98	19.756
676.31	21.218
676.63	19.745
676.95	19.916
677.28	18.224
677.60	19.560
677.92	21.308
678.25	20.945
678.57	19.920
678.89	20.441
679.22	18.861
679.54	18.893
679.86	21.468
680.18	18.962
680.51	21.277
680.83	19.039
681.15	21.321
681.48	21.739
681.80	20.890
682.12	18.008
682.44	16.441
682.77	17.923
683.09	22.961
683.41	19.734
683.73	21.192
684.06	20.248
684.38	19.178
684.70	21.124
685.02	17.636
685.34	21.062
685.67	18.357
685.99	19.588
686.31	18.771
686.63	16.254
686.96	18.393
687.28	18.231
687.60	19.565
687.92	22.486
688.24	17.871
688.56	21.084
688.89	20.124
689.21	21.616
689.53	18.372
689.85	22.616
690.17	19.255
690.49	20.807
690.82	24.299
691.14	18.080
691.46	20.464
691.78	18.273
692.10	18.595
692.42	19.960
692.74	18.672
693.06	19.574
693.39	20.739
693.71	18.777
694.03	19.579
694.35	19.481
694.67	21.281
694.99	19.024
695.31	19.118
695.63	18.660
695.95	18.826
696.27	15.736
696.59	18.653
696.91	23.575
697.23	17.371
697.56	20.256
697.88	17.587
698.20	18.958
698.52	23.011
698.84	20.045
699.16	18.433
699.48	21.378
699.80	22.947
700.12	25.714
700.44	26.790
700.76	20.994
701.08	22.701
701.40	23.743
701.72	25.073
702.04	23.864
702.36	20.397
702.68	22.663
703.00	19.945
703.32	19.947
703.64	21.448
703.96	19.499
704.28	22.965
704.60	22.287
704.91	24.036
705.23	22.581
705.55	25.249
705.87	25.249
706.19	22.261
706.51	23.988
706.83	23.939
707.15	21.849
707.47	19.949
707.79	22.359
708.11	21.005
708.43	19.524
708.74	18.622
709.06	20.000
709.38	22.835
709.70	24.709
710.02	24.629
710.34	23.939
710.66	21.493
710.98	22.727
711.29	20.930
711.61	24.484
711.93	24.038
712.25	27.653
712.57	25.735
712.89	22.837
713.20	25.836
713.52	23.026
713.84	22.152
714.16	22.866
714.48	24.138
714.80	24.620
715.11	21.037
715.43	25.223
715.75	21.159
716.07	25.559
716.39	24.138
716.70	26.578
717.02	23.022
717.34	22.261
717.66	24.627
717.97	23.506
718.29	24.444
718.61	29.197
718.93	23.529
719.24	24.221
719.56	20.000
719.88	25.424
720.20	28.378
720.51	23.693
720.83	24.164
721.15	25.000
721.46	21.986
721.78	26.882
722.10	25.660
722.42	25.940
722.73	23.596
723.05	25.410
723.37	22.672
723.68	26.641
724.00	27.236
724.32	22.984
724.63	26.829
724.95	24.268
725.27	29.150
725.58	26.172
725.90	27.007
726.22	25.283
726.53	20.833
726.85	25.597
727.16	26.690
727.48	22.340
727.80	23.485
728.11	24.638
728.43	23.846
728.74	26.165
729.06	26.277
729.38	31.618
729.69	20.996
730.01	23.549
730.32	23.264
730.64	25.084
730.96	22.112
731.27	23.510
731.59	21.101
731.90	23.324
732.22	23.292
732.53	17.957
732.85	23.077
733.16	21.222
733.48	25.581
733.80	23.701
734.11	24.841
734.43	23.373
734.74	20.571
735.06	22.350
735.37	25.145
735.69	21.975
736.00	25.490
736.32	23.988
736.63	24.281
736.95	25.879
737.26	20.408
737.58	21.290
737.89	23.411
738.21	23.208
738.52	22.143
738.83	26.415
739.15	21.923
739.46	25.912
739.78	21.875
740.09	23.077
740.41	24.839
740.72	24.739
741.04	27.407
741.35	27.500
741.66	26.667
741.98	25.000
742.29	30.144
742.61	30.603
742.92	28.054
743.23	25.641
743.55	29.600
743.86	25.439
744.18	34.071
744.49	30.144
744.80	34.742
745.12	30.455
745.43	25.551
745.74	31.532
746.06	28.899
746.37	29.148
746.68	27.149
747.00	27.778
747.31	28.095
747.62	23.894
747.94	28.194
748.25	22.979
748.56	28.194
748.88	27.228
749.19	31.000
749.50	26.512
749.82	23.171
750.13	24.490
750.44	26.277
750.75	23.860
751.07	25.402
751.38	24.042
751.69	25.632
752.01	24.436
752.32	20.939
752.63	27.305
752.94	26.230
753.26	29.200
753.57	23.577
753.88	27.734
754.19	25.714
754.51	27.431
754.82	18.773
755.13	24.906
755.44	24.436
755.75	22.628
756.07	23.404
756.38	22.263
756.69	24.161
757.00	22.455
757.31	21.068
757.63	20.175
757.94	21.984
758.25	21.569
758.56	20.247
758.87	22.581
759.18	22.424
759.50	21.630
759.81	23.988
760.12	16.875
760.43	24.355
760.74	19.837
761.05	24.011
761.36	21.925
761.67	22.159
761.99	20.497
762.30	26.736
762.61	20.611
762.92	23.438
763.23	24.370
763.54	25.600
763.85	25.391
764.16	27.308
764.47	26.236
764.78	21.555
765.10	23.734
765.41	20.649
765.72	20.958
766.03	21.317
766.34	22.000
766.65	30.213
766.96	24.786
767.27	35.025
767.58	31.250
767.89	30.000
768.20	30.460
768.51	24.873
768.82	30.275
769.13	24.797
769.44	27.530
769.75	24.893
770.06	27.982
770.37	32.579
770.68	26.389
770.99	24.889
771.30	22.541
771.61	34.529
771.92	28.279
772.23	33.613
772.54	30.769
772.85	29.843
773.16	26.064
773.47	36.413
773.78	36.548
774.09	30.952
774.39	23.392
774.70	38.272
775.01	31.159
775.32	41.176
775.63	34.211
775.94	30.935
776.25	38.583
776.56	43.284
776.87	45.902
777.18	39.062
777.48	47.328
777.79	40.152
778.10	36.296
778.41	38.393
778.72	29.927
779.03	38.926
779.34	31.544
779.65	31.757
779.95	38.650
780.26	33.333
780.57	34.483
780.88	47.656
781.19	33.835
781.50	39.189
781.80	33.333
782.11	25.989
782.42	30.380
782.73	31.288
783.04	39.865
783.34	37.324
783.65	46.575
783.96	42.537
784.27	34.965
784.57	30.935
784.88	35.185
785.19	50.000
785.50	47.170
785.81	41.045
786.11	39.344
786.42	39.535
786.73	46.018
787.04	40.566
787.34	46.429
787.65	41.000
787.96	45.946
788.26	50.413
788.57	53.390
788.88	42.975
789.19	42.361
789.49	50.000
789.80	38.931
790.11	48.571
790.41	67.327
790.72	49.398
791.03	53.261
791.33	45.349
791.64	49.485
791.95	59.406
792.25	57.778
792.56	54.545
792.87	67.949
793.17	54.430
793.48	55.172
793.79	52.874
794.09	35.227
794.40	36.134
794.70	47.059
795.01	32.593
795.32	34.532
795.62	39.370
795.93	47.414
796.23	37.168
796.54	40.000
796.85	45.946
797.15	64.789
797.46	66.667
797.76	51.807
798.07	43.038
798.37	58.462
798.68	65.152
798.99	46.479
799.29	51.948
799.60	40.909
799.90	56.164
800.21	73.134
800.51	63.793
800.82	77.193
801.12	45.902
801.43	54.545
801.73	48.649
802.04	77.778
802.34	67.901
802.65	56.250
802.95	74.576
803.26	68.750
803.56	55.714
803.87	61.538
804.17	64.706
804.48	88.889
804.78	70.690
805.09	73.529
805.39	71.154
805.70	58.929
806.00	72.131
806.30	53.030
806.61	63.415
806.91	45.570
807.22	67.105
807.52	68.657
807.83	66.197
808.13	62.500
808.43	66.667
808.74	55.263
809.04	59.420
809.35	79.104
809.65	69.737
809.95	95.161
810.26	55.932
810.56	61.905
810.86	93.182
811.17	85.714
811.47	71.667
811.77	79.630
812.08	83.636
812.38	92.000
812.69	113.889
812.99	88.636
813.29	81.633
813.59	50.000
813.90	97.959
814.20	56.364
814.50	53.846
814.81	69.118
815.11	93.878
815.41	68.852
815.72	111.905
816.02	101.818
816.32	88.095
816.62	97.500
816.93	104.878
817.23	107.143
817.53	93.182
817.84	136.364
818.14	97.826
818.44	77.778
818.74	105.882
819.04	100.000
819.35	91.429
819.65	117.647
819.95	132.143
820.25	145.000
820.56	133.333
820.86	111.364
821.16	100.000
821.46	94.872
821.76	100.000
822.07	131.429
822.37	132.500
822.67	115.152
822.97	90.196
823.27	171.429
823.57	102.703
823.88	110.000
824.18	106.667
824.48	121.429
824.78	144.000
825.08	133.333
825.38	116.216
825.69	68.293
825.99	141.667
826.29	117.241
826.59	107.895
826.89	118.421
827.19	126.471
827.49	132.258
827.79	100.000
828.09	109.091
828.39	89.362
828.70	81.633
829.00	144.444
829.30	125.806
829.60	127.500
829.90	140.000
830.20	160.714
830.50	152.174
830.80	134.783
831.10	133.333
831.40	103.333
831.70	117.391
832.00	153.846
832.30	140.741
832.60	256.250
832.90	126.667
833.20	271.429
833.50	122.581
833.80	113.793
834.10	153.125
834.40	161.538
834.70	216.667
835.00	219.048
835.30	85.714
835.60	169.231
835.90	162.069
836.20	221.429
836.50	155.172
836.80	156.000
837.10	133.333
837.40	209.524
837.70	182.353
838.00	174.074
838.30	204.762
838.60	204.762
838.90	161.538
839.19	195.000
839.49	264.286
839.79	240.000
840.09	220.000
840.39	180.952
840.69	169.565
840.99	205.556
841.29	280.000
841.59	225.000
841.88	225.000
842.18	151.724
842.48	195.238
842.78	130.000
843.08	165.217
843.38	115.625
843.68	683.333
843.97	196.154
844.27	141.379
844.57	204.762
844.87	218.750
845.17	137.037
845.47	900.000
845.76	288.889
846.06	188.235
846.36	237.500
846.66	228.571
846.96	200.000
847.25	263.636
847.55	272.727
847.85	182.609
848.15	350.000
848.44	250.000
848.74	161.111
849.04	223.529
849.34	340.000
849.63	178.947
849.93	263.636
850.23	560.000
850.53	300.000
850.82	1800.000
851.12	-3400.000
851.42	2600.000
851.71	205.000
852.01	-1000.000
852.31	183.333
852.61	1133.333
852.90	200.000
853.20	148.000
853.50	229.412
853.79	180.952
854.09	129.167
854.39	181.250
854.68	127.027
854.98	135.484
855.28	103.333
855.57	151.724
855.87	151.852
856.17	173.684
856.46	213.333
856.76	194.118
857.05	131.034
857.35	158.333
857.65	240.000
857.94	126.087
858.24	161.538
858.53	180.000
858.83	172.727
859.13	326.667
859.42	0.000
859.72	377.778
860.01	345.455
860.31	163.636
860.60	189.474
860.90	195.652
861.20	400.000
861.49	383.333
861.79	-3100.000
862.08	450.000
862.38	180.952
862.67	215.385
862.97	188.235
863.26	355.556
863.56	205.556
863.85	241.667
864.15	537.500
864.44	293.333
864.74	650.000
865.03	450.000
865.33	226.316
865.62	336.364
865.92	300.000
866.21	266.667
866.51	0.000
866.80	200.000
867.10	920.000
867.39	346.154
867.69	327.273
867.98	236.842
868.27	390.909
868.57	221.053
868.86	-2500.000
869.16	256.250
869.45	1750.000
869.75	-3200.000
870.04	266.667
870.33	385.714
870.63	575.000
870.92	1400.000
871.22	442.857
871.51	229.412
871.80	185.714
872.10	221.429
>>>>>End Processed Spectral Data<<<<<
