SpectraSuite Data File
++++++++++++++++++++++++++++++++++++
Date: Wed May 13 20:31:26 PDT 2015
User: schluterlab
Dark Spectrum Present: Yes
Reference Spectrum Present: Yes
Number of Sampled Component Spectra: 1
Spectrometers: USB2E3373
Integration Time (usec): 3000 (USB2E3373)
Spectra Averaged: 3 (USB2E3373)
Boxcar Smoothing: 0 (USB2E3373)
Correct for Electrical Dark: No (USB2E3373)
Strobe/Lamp Enabled: No (USB2E3373)
Correct for Detector Non-linearity: No (USB2E3373)
Correct for Stray Light: No (USB2E3373)
Number of Pixels in Processed Spectrum: 2048
>>>>>Begin Processed Spectral Data<<<<<
178.53	0.000
178.91	-1175.000
179.29	-1075.000
179.67	-177.778
180.04	-950.000
180.42	1650.000
180.80	820.000
181.18	-725.000
181.56	585.714
181.94	0.000
182.31	-500.000
182.69	1233.333
183.07	-400.000
183.45	-444.444
183.83	400.000
184.20	-300.000
184.58	1850.000
184.96	4100.000
185.34	-620.000
185.72	-500.000
186.09	-1800.000
186.47	2050.000
186.85	1800.000
187.23	4300.000
187.61	-1366.667
187.98	1150.000
188.36	427.273
188.74	336.364
189.12	-620.000
189.49	360.000
189.87	-3600.000
190.25	-675.000
190.63	292.857
191.00	384.615
191.38	650.000
191.76	-850.000
192.14	1100.000
192.51	387.500
192.89	933.333
193.27	475.000
193.65	-750.000
194.02	370.000
194.40	780.000
194.78	430.000
195.15	400.000
195.53	490.000
195.91	-1700.000
196.29	275.000
196.66	257.895
197.04	-190.000
197.42	0.000
197.79	480.000
198.17	-4500.000
198.55	542.857
198.92	512.500
199.30	560.000
199.68	0.000
200.05	272.222
200.43	514.286
200.81	3700.000
201.18	1233.333
201.56	-1300.000
201.94	444.444
202.31	444.444
202.69	358.333
203.07	500.000
203.44	0.000
203.82	1025.000
204.19	657.143
204.57	364.286
204.95	537.500
205.32	966.667
205.70	418.182
206.08	278.571
206.45	2300.000
206.83	256.250
207.20	733.333
207.58	500.000
207.96	283.333
208.33	525.000
208.71	-650.000
209.08	600.000
209.46	488.889
209.84	372.727
210.21	-1133.333
210.59	1000.000
210.96	-412.500
211.34	1900.000
211.71	500.000
212.09	650.000
212.46	0.000
212.84	1333.333
213.22	975.000
213.59	-3700.000
213.97	650.000
214.34	585.714
214.72	490.909
215.09	640.000
215.47	-1600.000
215.84	-1700.000
216.22	1033.333
216.59	314.286
216.97	1050.000
217.34	363.636
217.72	-466.667
218.09	0.000
218.47	-4300.000
218.84	500.000
219.22	657.143
219.59	1033.333
219.97	-385.714
220.34	740.000
220.72	-966.667
221.09	314.286
221.47	1025.000
221.84	-783.333
222.22	0.000
222.59	975.000
222.97	-1950.000
223.34	900.000
223.72	330.769
224.09	980.000
224.46	1800.000
224.84	-2900.000
225.21	-860.000
225.59	-3300.000
225.96	450.000
226.34	285.000
226.71	1900.000
227.08	487.500
227.46	470.000
227.83	-775.000
228.21	-1550.000
228.58	433.333
228.95	-1950.000
229.33	-1500.000
229.70	1200.000
230.08	571.429
230.45	-720.000
230.82	291.667
231.20	500.000
231.57	642.857
231.95	391.667
232.32	181.818
232.69	345.455
233.07	514.286
233.44	300.000
233.81	-1200.000
234.19	268.421
234.56	375.000
234.93	258.333
235.31	309.091
235.68	269.231
236.05	292.857
236.43	121.212
236.80	178.947
237.17	3000.000
237.55	152.381
237.92	167.857
238.29	204.762
238.67	135.484
239.04	175.862
239.41	136.111
239.79	108.696
240.16	121.429
240.53	93.182
240.91	80.392
241.28	88.000
241.65	86.000
242.02	81.159
242.40	75.806
242.77	83.333
243.14	72.043
243.51	66.292
243.89	61.176
244.26	56.667
244.63	59.140
245.00	58.511
245.38	56.436
245.75	56.075
246.12	44.037
246.49	57.664
246.87	55.200
247.24	53.846
247.61	52.143
247.98	48.366
248.36	35.135
248.73	44.586
249.10	49.682
249.47	41.243
249.84	45.455
250.22	42.246
250.59	39.053
250.96	43.434
251.33	43.128
251.70	44.059
252.08	40.476
252.45	37.220
252.82	33.478
253.19	40.851
253.56	33.725
253.94	37.344
254.31	34.375
254.68	35.000
255.05	35.793
255.42	34.959
255.79	37.500
256.16	35.018
256.54	33.922
256.91	36.655
257.28	35.612
257.65	33.333
258.02	32.298
258.39	35.016
258.76	30.769
259.14	34.821
259.51	32.219
259.88	29.503
260.25	34.743
260.62	29.480
260.99	29.193
261.36	33.634
261.73	31.805
262.10	26.744
262.47	34.085
262.85	30.919
263.22	28.205
263.59	35.613
263.96	26.374
264.33	27.676
264.70	31.053
265.07	33.248
265.44	29.545
265.81	28.710
266.18	29.397
266.55	30.000
266.92	27.027
267.29	29.167
267.66	29.587
268.03	28.636
268.40	31.308
268.77	26.730
269.14	27.928
269.51	27.540
269.88	31.002
270.25	27.088
270.62	26.966
270.99	31.613
271.36	27.682
271.73	30.841
272.10	28.478
272.47	29.247
272.84	29.654
273.21	31.237
273.58	26.201
273.95	24.109
274.32	25.413
274.69	27.837
275.06	24.606
275.43	27.872
275.80	28.056
276.17	25.866
276.54	28.274
276.91	27.273
277.28	29.297
277.65	26.112
278.02	27.122
278.39	27.930
278.76	24.545
279.13	26.604
279.50	27.933
279.87	28.486
280.23	25.349
280.60	25.145
280.97	25.693
281.34	24.425
281.71	28.727
282.08	26.679
282.45	26.909
282.82	26.998
283.19	26.025
283.56	25.789
283.92	26.058
284.29	23.104
284.66	25.590
285.03	25.859
285.40	23.592
285.77	24.411
286.14	24.525
286.51	26.000
286.87	26.154
287.24	27.199
287.61	23.917
287.98	24.351
288.35	24.406
288.72	24.143
289.08	25.039
289.45	23.394
289.82	23.089
290.19	20.408
290.56	22.818
290.93	22.356
291.29	23.313
291.66	23.009
292.03	25.145
292.40	24.229
292.77	23.077
293.13	22.388
293.50	22.157
293.87	20.593
294.24	21.333
294.60	19.942
294.97	22.674
295.34	23.695
295.71	21.733
296.08	20.228
296.44	22.008
296.81	19.947
297.18	20.867
297.55	18.997
297.91	19.393
298.28	22.490
298.65	20.888
299.02	22.134
299.38	20.584
299.75	19.137
300.12	20.562
300.48	20.375
300.85	20.099
301.22	19.236
301.59	17.677
301.95	20.151
302.32	20.154
302.69	19.713
303.05	19.273
303.42	19.259
303.79	20.385
304.15	17.483
304.52	18.076
304.89	18.235
305.25	18.794
305.62	19.932
305.99	19.362
306.35	18.904
306.72	19.170
307.09	20.089
307.45	18.919
307.82	18.192
308.19	19.647
308.55	19.094
308.92	18.690
309.29	19.007
309.65	18.346
310.02	18.816
310.38	18.925
310.75	18.691
311.12	19.038
311.48	19.122
311.85	19.602
312.22	19.563
312.58	20.270
312.95	21.119
313.31	19.903
313.68	20.478
314.05	22.387
314.41	19.598
314.78	20.745
315.14	20.655
315.51	20.803
315.87	20.891
316.24	21.351
316.61	21.248
316.97	20.939
317.34	22.114
317.70	21.893
318.07	22.329
318.43	23.190
318.80	22.399
319.16	23.635
319.53	23.358
319.89	23.905
320.26	24.100
320.62	24.008
320.99	24.646
321.35	23.737
321.72	24.230
322.08	25.568
322.45	28.856
322.81	27.616
323.18	28.227
323.54	25.603
323.91	27.453
324.27	26.864
324.64	27.027
325.00	26.871
325.37	28.207
325.73	28.995
326.10	28.685
326.46	28.584
326.83	30.112
327.19	29.633
327.56	29.530
327.92	31.234
328.29	30.080
328.65	30.110
329.01	31.318
329.38	31.822
329.74	31.210
330.11	31.574
330.47	31.497
330.84	31.526
331.20	31.512
331.56	32.844
331.93	31.667
332.29	32.032
332.66	31.593
333.02	31.170
333.38	32.159
333.75	31.462
334.11	32.295
334.48	31.766
334.84	31.801
335.20	32.727
335.57	33.182
335.93	31.607
336.29	32.326
336.66	33.454
337.02	30.407
337.38	32.593
337.75	31.462
338.11	32.229
338.47	33.149
338.84	32.997
339.20	30.917
339.56	34.489
339.93	31.909
340.29	32.428
340.65	33.066
341.02	31.937
341.38	33.185
341.74	33.070
342.11	33.974
342.47	33.040
342.83	33.390
343.20	32.468
343.56	33.193
343.92	32.281
344.28	33.078
344.65	33.706
345.01	32.576
345.37	32.333
345.73	34.349
346.10	33.248
346.46	32.966
346.82	32.290
347.19	32.749
347.55	33.169
347.91	33.010
348.27	34.511
348.63	34.114
349.00	32.362
349.36	31.609
349.72	32.157
350.08	32.577
350.45	33.360
350.81	32.088
351.17	33.468
351.53	32.105
351.89	32.591
352.26	32.202
352.62	32.799
352.98	32.982
353.34	32.703
353.70	31.669
354.07	34.032
354.43	32.619
354.79	32.743
355.15	33.599
355.51	33.893
355.87	34.286
356.24	32.899
356.60	33.440
356.96	33.548
357.32	33.197
357.68	33.543
358.04	33.096
358.40	33.333
358.77	33.099
359.13	33.465
359.49	34.824
359.85	31.587
360.21	33.413
360.57	33.541
360.93	34.462
361.29	33.711
361.66	34.830
362.02	33.955
362.38	34.525
362.74	34.673
363.10	32.568
363.46	33.089
363.82	34.769
364.18	33.554
364.54	35.438
364.90	33.215
365.26	34.926
365.62	34.770
365.98	34.112
366.35	34.384
366.71	34.201
367.07	34.232
367.43	34.470
367.79	35.546
368.15	35.991
368.51	34.593
368.87	35.403
369.23	34.967
369.59	35.844
369.95	35.221
370.31	34.402
370.67	34.855
371.03	35.805
371.39	36.735
371.75	36.103
372.11	35.135
372.47	35.630
372.83	35.231
373.19	36.199
373.55	35.477
373.91	37.040
374.27	36.495
374.63	34.909
374.99	36.864
375.35	35.450
375.71	35.093
376.07	36.145
376.42	37.070
376.78	36.183
377.14	36.228
377.50	36.623
377.86	36.104
378.22	36.346
378.58	35.213
378.94	36.392
379.30	36.832
379.66	36.485
380.02	36.671
380.38	35.823
380.74	36.675
381.09	37.531
381.45	37.308
381.81	37.776
382.17	35.987
382.53	37.736
382.89	37.593
383.25	36.836
383.61	37.051
383.97	37.461
384.32	36.182
384.68	36.927
385.04	36.878
385.40	37.523
385.76	37.039
386.12	37.694
386.48	37.571
386.83	38.358
387.19	37.477
387.55	37.724
387.91	36.941
388.27	36.971
388.62	38.353
388.98	36.671
389.34	37.985
389.70	37.830
390.06	38.657
390.42	37.678
390.77	38.295
391.13	39.566
391.49	38.008
391.85	38.001
392.20	37.792
392.56	38.005
392.92	37.964
393.28	37.692
393.64	37.710
393.99	37.141
394.35	38.089
394.71	37.829
395.07	37.508
395.42	38.319
395.78	37.786
396.14	37.368
396.50	38.534
396.85	39.224
397.21	38.348
397.57	38.376
397.92	37.740
398.28	37.388
398.64	37.097
399.00	37.717
399.35	37.056
399.71	37.326
400.07	37.788
400.42	38.037
400.78	38.299
401.14	37.866
401.49	37.970
401.85	37.750
402.21	37.485
402.57	38.742
402.92	38.651
403.28	38.976
403.63	38.181
403.99	37.707
404.35	37.333
404.70	38.249
405.06	38.847
405.42	38.553
405.77	36.971
406.13	37.698
406.49	37.907
406.84	37.685
407.20	37.825
407.55	38.098
407.91	38.467
408.27	38.609
408.62	37.929
408.98	38.603
409.34	37.700
409.69	37.484
410.05	36.245
410.40	37.615
410.76	38.232
411.11	37.515
411.47	38.083
411.83	37.813
412.18	37.972
412.54	37.796
412.89	37.651
413.25	37.662
413.60	37.863
413.96	36.916
414.31	37.971
414.67	36.375
415.03	38.079
415.38	37.758
415.74	37.685
416.09	39.386
416.45	37.684
416.80	37.409
417.16	39.678
417.51	38.686
417.87	37.893
418.22	37.981
418.58	38.218
418.93	38.022
419.29	36.792
419.64	38.098
420.00	38.841
420.35	37.797
420.71	37.956
421.06	37.947
421.42	37.836
421.77	38.341
422.12	37.395
422.48	37.345
422.83	37.682
423.19	38.287
423.54	37.899
423.90	37.507
424.25	38.693
424.61	37.560
424.96	38.367
425.31	37.486
425.67	36.742
426.02	36.629
426.38	38.523
426.73	37.039
427.09	37.325
427.44	37.320
427.79	37.033
428.15	36.786
428.50	37.273
428.85	37.485
429.21	38.045
429.56	36.703
429.92	37.242
430.27	36.792
430.62	37.122
430.98	37.935
431.33	37.474
431.68	38.063
432.04	37.433
432.39	38.321
432.74	37.283
433.10	37.521
433.45	37.843
433.80	37.472
434.16	37.767
434.51	37.947
434.86	38.540
435.22	37.076
435.57	37.386
435.92	37.858
436.28	37.841
436.63	37.748
436.98	38.122
437.34	39.237
437.69	38.798
438.04	37.662
438.39	37.552
438.75	37.130
439.10	37.207
439.45	38.253
439.81	37.583
440.16	37.549
440.51	37.376
440.86	37.753
441.22	36.986
441.57	37.102
441.92	38.792
442.27	37.567
442.63	37.757
442.98	38.592
443.33	36.739
443.68	37.894
444.03	37.482
444.39	36.076
444.74	37.500
445.09	37.412
445.44	38.436
445.79	37.704
446.15	37.692
446.50	37.588
446.85	36.948
447.20	37.022
447.55	38.470
447.91	37.783
448.26	37.229
448.61	37.592
448.96	37.597
449.31	37.514
449.66	36.410
450.02	36.992
450.37	36.508
450.72	36.266
451.07	37.416
451.42	35.866
451.77	37.346
452.12	36.952
452.47	36.878
452.83	38.054
453.18	37.103
453.53	37.662
453.88	37.448
454.23	36.760
454.58	37.008
454.93	37.508
455.28	38.279
455.63	38.350
455.98	38.512
456.34	38.003
456.69	37.758
457.04	37.585
457.39	37.463
457.74	37.667
458.09	36.975
458.44	37.286
458.79	35.900
459.14	36.964
459.49	37.186
459.84	36.565
460.19	36.771
460.54	35.475
460.89	37.191
461.24	37.523
461.59	37.653
461.94	37.423
462.29	38.457
462.64	37.013
462.99	36.630
463.34	36.400
463.69	36.585
464.04	37.159
464.39	36.696
464.74	36.364
465.09	36.610
465.44	36.288
465.79	35.626
466.14	36.672
466.49	34.872
466.84	36.544
467.19	35.486
467.54	37.062
467.89	36.555
468.24	36.126
468.59	36.874
468.94	35.247
469.29	36.440
469.64	37.483
469.99	37.145
470.34	36.262
470.68	36.638
471.03	36.599
471.38	36.831
471.73	36.909
472.08	36.711
472.43	35.930
472.78	37.656
473.13	36.008
473.48	35.518
473.83	36.280
474.17	36.092
474.52	36.290
474.87	36.194
475.22	35.287
475.57	34.551
475.92	35.157
476.27	35.569
476.61	35.135
476.96	35.569
477.31	35.583
477.66	35.120
478.01	34.553
478.36	35.325
478.70	36.345
479.05	35.676
479.40	34.340
479.75	35.435
480.10	34.294
480.45	34.079
480.79	34.257
481.14	34.589
481.49	34.884
481.84	34.294
482.19	34.212
482.53	35.229
482.88	34.853
483.23	34.019
483.58	34.668
483.92	34.396
484.27	33.028
484.62	33.190
484.97	33.544
485.31	32.842
485.66	30.973
486.01	30.103
486.36	30.712
486.70	31.314
487.05	32.431
487.40	32.712
487.75	32.585
488.09	34.122
488.44	33.622
488.79	34.322
489.13	34.186
489.48	33.320
489.83	33.060
490.17	33.406
490.52	33.658
490.87	33.062
491.22	32.924
491.56	31.617
491.91	33.411
492.26	32.889
492.60	32.673
492.95	32.928
493.30	32.850
493.64	32.571
493.99	31.848
494.34	33.256
494.68	33.013
495.03	32.002
495.37	33.039
495.72	33.382
496.07	33.364
496.41	31.327
496.76	32.058
497.11	31.878
497.45	31.719
497.80	32.342
498.14	32.367
498.49	32.927
498.84	32.502
499.18	32.333
499.53	32.289
499.87	31.780
500.22	32.077
500.56	33.252
500.91	31.779
501.26	31.437
501.60	32.368
501.95	31.714
502.29	32.193
502.64	32.309
502.98	30.715
503.33	31.764
503.67	31.137
504.02	31.478
504.36	31.025
504.71	32.145
505.06	32.771
505.40	31.794
505.75	31.485
506.09	30.758
506.44	31.179
506.78	32.002
507.13	31.146
507.47	32.273
507.82	32.067
508.16	31.510
508.51	31.811
508.85	30.636
509.19	31.173
509.54	30.918
509.88	30.191
510.23	31.620
510.57	32.301
510.92	31.072
511.26	31.244
511.61	31.328
511.95	29.958
512.30	30.541
512.64	31.381
512.98	30.975
513.33	31.049
513.67	31.430
514.02	31.061
514.36	31.458
514.70	30.935
515.05	30.898
515.39	31.632
515.74	31.700
516.08	31.470
516.42	31.188
516.77	31.438
517.11	30.300
517.46	30.418
517.80	31.707
518.14	30.805
518.49	30.805
518.83	30.227
519.17	31.178
519.52	30.334
519.86	30.633
520.20	31.908
520.55	31.358
520.89	32.056
521.23	32.027
521.58	30.852
521.92	31.660
522.26	29.713
522.61	30.280
522.95	30.448
523.29	31.102
523.64	30.732
523.98	30.561
524.32	30.700
524.66	30.667
525.01	30.821
525.35	29.430
525.69	30.911
526.04	31.526
526.38	30.750
526.72	30.245
527.06	30.320
527.41	28.837
527.75	29.968
528.09	31.214
528.43	30.274
528.78	29.871
529.12	29.879
529.46	30.618
529.80	29.889
530.15	31.153
530.49	30.462
530.83	31.076
531.17	30.483
531.51	31.128
531.86	30.452
532.20	30.313
532.54	31.518
532.88	29.718
533.22	29.919
533.57	30.000
533.91	29.320
534.25	28.858
534.59	29.225
534.93	28.852
535.27	29.209
535.62	29.609
535.96	29.755
536.30	29.371
536.64	29.749
536.98	29.728
537.32	28.637
537.66	29.867
538.01	30.151
538.35	30.317
538.69	29.738
539.03	28.850
539.37	28.818
539.71	28.516
540.05	28.889
540.39	29.900
540.73	29.237
541.07	29.851
541.42	29.289
541.76	30.323
542.10	28.590
542.44	29.007
542.78	29.842
543.12	27.767
543.46	29.180
543.80	28.757
544.14	27.407
544.48	28.889
544.82	28.287
545.16	28.692
545.50	28.021
545.84	28.427
546.18	28.620
546.52	28.975
546.86	28.454
547.20	28.591
547.54	28.858
547.88	28.827
548.22	27.273
548.56	27.673
548.90	27.465
549.24	28.283
549.58	28.786
549.92	28.503
550.26	28.764
550.60	28.008
550.94	27.535
551.28	28.164
551.62	28.253
551.96	27.018
552.30	28.259
552.64	28.803
552.98	28.136
553.32	27.579
553.66	27.062
554.00	27.797
554.34	27.674
554.68	28.684
555.02	27.645
555.36	27.209
555.69	26.522
556.03	27.254
556.37	27.217
556.71	26.603
557.05	27.171
557.39	26.872
557.73	27.594
558.07	27.556
558.41	27.496
558.75	27.847
559.08	28.039
559.42	27.816
559.76	28.015
560.10	26.695
560.44	27.184
560.78	25.948
561.12	27.243
561.45	27.119
561.79	26.236
562.13	26.358
562.47	27.527
562.81	27.197
563.15	26.355
563.48	27.188
563.82	27.006
564.16	27.011
564.50	26.042
564.84	25.980
565.17	25.547
565.51	26.581
565.85	25.888
566.19	26.425
566.52	25.776
566.86	25.136
567.20	26.474
567.54	26.084
567.88	24.823
568.21	26.085
568.55	25.581
568.89	25.243
569.23	24.421
569.56	24.291
569.90	24.113
570.24	23.825
570.57	23.801
570.91	23.626
571.25	23.286
571.59	23.417
571.92	23.185
572.26	23.628
572.60	24.084
572.93	23.838
573.27	23.602
573.61	23.702
573.95	23.798
574.28	23.141
574.62	22.983
574.96	22.318
575.29	22.333
575.63	23.044
575.97	23.353
576.30	23.420
576.64	22.795
576.98	22.363
577.31	23.128
577.65	22.714
577.98	22.598
578.32	22.260
578.66	22.767
578.99	22.826
579.33	22.876
579.67	22.720
580.00	22.632
580.34	23.161
580.67	22.264
581.01	22.712
581.35	21.763
581.68	21.592
582.02	21.497
582.35	22.224
582.69	22.608
583.02	22.348
583.36	23.127
583.70	23.726
584.03	22.701
584.37	23.241
584.70	23.145
585.04	22.334
585.37	22.204
585.71	22.039
586.04	22.566
586.38	22.727
586.72	23.308
587.05	22.141
587.39	22.401
587.72	22.443
588.06	22.759
588.39	22.963
588.73	22.558
589.06	23.247
589.40	23.199
589.73	22.809
590.07	22.847
590.40	22.981
590.73	23.653
591.07	23.362
591.40	23.366
591.74	23.723
592.07	22.949
592.41	22.985
592.74	22.022
593.08	21.652
593.41	21.702
593.75	21.424
594.08	22.159
594.41	22.552
594.75	22.329
595.08	22.620
595.42	22.067
595.75	22.222
596.09	23.395
596.42	23.340
596.75	22.794
597.09	23.983
597.42	22.091
597.75	22.467
598.09	22.826
598.42	22.036
598.76	21.727
599.09	21.171
599.42	21.798
599.76	21.523
600.09	21.311
600.42	21.622
600.76	21.679
601.09	21.530
601.42	22.146
601.76	22.087
602.09	22.451
602.42	22.970
602.76	22.249
603.09	22.069
603.42	22.023
603.76	21.723
604.09	22.218
604.42	21.973
604.76	22.817
605.09	22.237
605.42	22.189
605.75	22.558
606.09	21.675
606.42	21.414
606.75	21.734
607.09	22.269
607.42	21.737
607.75	22.025
608.08	21.363
608.42	22.277
608.75	21.686
609.08	22.340
609.41	22.561
609.75	22.010
610.08	22.102
610.41	21.322
610.74	21.949
611.07	22.036
611.41	22.031
611.74	22.122
612.07	22.774
612.40	23.033
612.73	22.105
613.07	22.629
613.40	22.380
613.73	21.238
614.06	21.882
614.39	21.919
614.72	22.421
615.06	22.374
615.39	21.868
615.72	21.830
616.05	21.744
616.38	21.957
616.71	22.625
617.05	22.792
617.38	22.309
617.71	22.462
618.04	22.716
618.37	21.762
618.70	23.086
619.03	24.013
619.36	23.082
619.69	22.817
620.03	23.420
620.36	23.596
620.69	23.014
621.02	23.525
621.35	23.414
621.68	22.508
622.01	22.291
622.34	23.752
622.67	21.977
623.00	22.964
623.33	22.016
623.66	22.302
623.99	23.049
624.32	22.468
624.65	22.105
624.99	22.380
625.32	21.072
625.65	22.690
625.98	23.213
626.31	23.484
626.64	23.837
626.97	22.943
627.30	23.940
627.63	23.462
627.96	23.465
628.29	22.747
628.62	23.513
628.95	24.057
629.28	23.540
629.61	24.656
629.94	24.286
630.26	23.737
630.59	23.642
630.92	23.084
631.25	24.284
631.58	24.424
631.91	23.732
632.24	22.890
632.57	24.869
632.90	23.684
633.23	25.168
633.56	24.407
633.89	24.349
634.22	24.858
634.55	25.207
634.88	24.311
635.20	24.612
635.53	25.181
635.86	25.248
636.19	23.294
636.52	22.491
636.85	23.253
637.18	23.272
637.51	25.177
637.83	23.058
638.16	25.320
638.49	23.678
638.82	24.905
639.15	24.625
639.48	26.309
639.81	25.469
640.13	25.651
640.46	25.101
640.79	23.778
641.12	22.146
641.45	24.441
641.77	25.331
642.10	25.439
642.43	24.925
642.76	24.613
643.09	26.227
643.41	25.190
643.74	26.389
644.07	25.610
644.40	26.687
644.73	26.457
645.05	28.368
645.38	25.908
645.71	24.316
646.04	27.741
646.36	26.711
646.69	26.087
647.02	25.680
647.35	26.117
647.67	26.726
648.00	26.829
648.33	25.908
648.66	24.545
648.98	26.087
649.31	23.169
649.64	24.066
649.96	24.590
650.29	25.750
650.62	26.052
650.94	27.229
651.27	26.858
651.60	26.123
651.92	26.358
652.25	24.267
652.58	23.053
652.90	25.118
653.23	22.958
653.56	24.882
653.88	25.515
654.21	26.066
654.54	23.597
654.86	24.299
655.19	23.108
655.52	16.617
655.84	14.404
656.17	18.222
656.49	25.261
656.82	26.939
657.15	21.650
657.47	16.735
657.80	13.021
658.13	13.699
658.45	20.973
658.78	21.810
659.10	22.727
659.43	23.758
659.75	24.386
660.08	24.937
660.41	24.302
660.73	26.684
661.06	25.955
661.38	25.455
661.71	26.154
662.03	29.783
662.36	24.254
662.68	25.904
663.01	27.475
663.33	25.053
663.66	24.370
663.98	28.510
664.31	25.000
664.63	24.089
664.96	22.334
665.28	26.434
665.61	26.121
665.93	24.950
666.26	26.572
666.58	26.360
666.91	27.696
667.23	26.517
667.56	26.566
667.88	29.487
668.21	28.145
668.53	26.464
668.86	25.758
669.18	30.277
669.50	25.652
669.83	27.887
670.15	25.556
670.48	27.887
670.80	25.216
671.13	26.964
671.45	22.553
671.77	28.513
672.10	23.290
672.42	25.442
672.75	26.534
673.07	22.183
673.39	24.593
673.72	25.781
674.04	25.882
674.37	23.883
674.69	27.198
675.01	24.059
675.34	28.747
675.66	29.684
675.98	25.662
676.31	28.361
676.63	25.053
676.95	24.319
677.28	26.636
677.60	28.352
677.92	27.637
678.25	26.694
678.57	25.697
678.89	26.052
679.22	25.147
679.54	26.908
679.86	25.872
680.18	23.792
680.51	24.291
680.83	25.267
681.15	24.528
681.48	28.922
681.80	25.725
682.12	23.946
682.44	25.145
682.77	27.088
683.09	27.682
683.41	26.829
683.73	24.062
684.06	28.926
684.38	24.462
684.70	25.775
685.02	25.891
685.34	24.725
685.67	23.776
685.99	24.914
686.31	25.085
686.63	22.615
686.96	24.286
687.28	25.090
687.60	22.464
687.92	26.325
688.24	23.384
688.56	25.904
688.89	25.934
689.21	27.074
689.53	25.887
689.85	28.381
690.17	25.052
690.49	26.327
690.82	24.766
691.14	22.321
691.46	25.316
691.78	25.703
692.10	26.860
692.42	24.152
692.74	24.066
693.06	25.106
693.39	25.257
693.71	24.891
694.03	26.105
694.35	23.593
694.67	23.112
694.99	27.073
695.31	25.735
695.63	24.880
695.95	27.628
696.27	24.873
696.59	26.425
696.91	30.311
697.23	25.587
697.56	24.733
697.88	25.358
698.20	23.958
698.52	25.591
698.84	25.390
699.16	24.654
699.48	26.603
699.80	28.502
700.12	31.429
700.44	28.117
700.76	29.282
701.08	26.149
701.40	28.771
701.72	31.487
702.04	29.830
702.36	23.796
702.68	26.912
703.00	27.701
703.32	24.734
703.64	26.542
703.96	27.298
704.28	27.907
704.60	28.446
704.91	26.113
705.23	30.205
705.55	28.239
705.87	32.890
706.19	29.682
706.51	26.791
706.83	30.303
707.15	27.731
707.47	24.495
707.79	27.027
708.11	27.397
708.43	26.905
708.74	24.235
709.06	29.351
709.38	27.559
709.70	29.360
710.02	33.234
710.34	27.273
710.66	25.970
710.98	30.398
711.29	28.779
711.61	27.434
711.93	29.167
712.25	32.797
712.57	27.206
712.89	31.488
713.20	28.267
713.52	32.237
713.84	26.582
714.16	28.354
714.48	26.437
714.80	31.003
715.11	29.971
715.43	30.267
715.75	26.087
716.07	29.073
716.39	30.094
716.70	23.588
717.02	29.856
717.34	24.382
717.66	33.955
717.97	31.076
718.29	29.630
718.61	27.007
718.93	31.985
719.24	30.450
719.56	30.847
719.88	27.458
720.20	31.419
720.51	31.359
720.83	33.829
721.15	29.104
721.46	29.787
721.78	34.409
722.10	29.057
722.42	30.451
722.73	31.461
723.05	28.689
723.37	31.174
723.68	33.977
724.00	29.675
724.32	33.065
724.63	32.520
724.95	28.870
725.27	33.198
725.58	30.859
725.90	33.942
726.22	26.415
726.53	28.125
726.85	27.304
727.16	27.402
727.48	32.270
727.80	29.545
728.11	27.536
728.43	26.538
728.74	27.240
729.06	30.657
729.38	35.294
729.69	32.740
730.01	25.939
730.32	29.167
730.64	28.428
730.96	24.422
731.27	30.132
731.59	27.829
731.90	28.571
732.22	23.292
732.53	27.245
732.85	27.885
733.16	27.653
733.48	29.236
733.80	29.545
734.11	31.210
734.43	26.923
734.74	23.143
735.06	25.788
735.37	29.191
735.69	27.389
736.00	28.758
736.32	27.414
736.63	22.684
736.95	27.157
737.26	25.850
737.58	26.774
737.89	29.431
738.21	28.669
738.52	33.214
738.83	25.660
739.15	30.000
739.46	29.562
739.78	30.208
740.09	26.769
740.41	30.323
740.72	27.526
741.04	27.778
741.35	31.667
741.66	38.222
741.98	31.132
742.29	35.407
742.61	31.466
742.92	37.104
743.23	30.769
743.55	34.400
743.86	28.509
744.18	37.168
744.49	36.364
744.80	38.967
745.12	32.727
745.43	34.361
745.74	36.036
746.06	33.945
746.37	35.874
746.68	34.389
747.00	37.963
747.31	31.905
747.62	26.991
747.94	35.683
748.25	28.085
748.56	32.159
748.88	34.158
749.19	35.000
749.50	36.744
749.82	26.829
750.13	26.122
750.44	27.007
750.75	31.930
751.07	35.048
751.38	27.875
751.69	31.047
752.01	30.075
752.32	24.549
752.63	23.404
752.94	31.967
753.26	30.400
753.57	26.016
753.88	32.031
754.19	28.214
754.51	30.903
754.82	27.798
755.13	32.075
755.44	25.564
755.75	25.912
756.07	31.206
756.38	29.562
756.69	28.188
757.00	25.749
757.31	29.674
757.63	25.146
757.94	24.933
758.25	23.284
758.56	22.963
758.87	23.387
759.18	27.273
759.50	24.765
759.81	24.922
760.12	28.125
760.43	23.782
760.74	26.087
761.05	24.859
761.36	24.332
761.67	27.273
761.99	22.671
762.30	28.472
762.61	27.481
762.92	30.859
763.23	31.933
763.54	30.400
763.85	26.562
764.16	37.308
764.47	28.897
764.78	28.269
765.10	23.418
765.41	28.319
765.72	27.246
766.03	26.332
766.34	30.333
766.65	33.191
766.96	35.897
767.27	26.396
767.58	36.458
767.89	38.947
768.20	37.931
768.51	31.980
768.82	30.275
769.13	26.829
769.44	28.745
769.75	32.618
770.06	26.147
770.37	34.842
770.68	34.259
770.99	31.556
771.30	29.918
771.61	32.287
771.92	29.918
772.23	40.336
772.54	32.821
772.85	33.508
773.16	31.915
773.47	38.587
773.78	41.117
774.09	39.286
774.39	37.427
774.70	39.506
775.01	44.928
775.32	38.562
775.63	40.132
775.94	41.007
776.25	42.520
776.56	47.761
776.87	48.361
777.18	42.969
777.48	41.221
777.79	50.758
778.10	36.296
778.41	45.536
778.72	33.577
779.03	34.899
779.34	44.295
779.65	33.784
779.95	36.810
780.26	37.255
780.57	43.448
780.88	40.625
781.19	41.353
781.50	47.973
781.80	37.736
782.11	37.288
782.42	32.278
782.73	40.491
783.04	47.973
783.34	38.028
783.65	50.000
783.96	47.015
784.27	32.168
784.57	37.410
784.88	46.296
785.19	50.794
785.50	41.509
785.81	47.761
786.11	54.098
786.42	48.837
786.73	52.212
787.04	43.396
787.34	52.679
787.65	50.000
787.96	37.838
788.26	47.107
788.57	52.542
788.88	50.413
789.19	45.139
789.49	44.697
789.80	35.878
790.11	50.476
790.41	56.436
790.72	45.783
791.03	45.652
791.33	58.140
791.64	61.856
791.95	56.436
792.25	57.778
792.56	50.649
792.87	60.256
793.17	63.291
793.48	60.920
793.79	64.368
794.09	54.545
794.40	53.782
794.70	44.853
795.01	44.444
795.32	41.727
795.62	35.433
795.93	46.552
796.23	52.212
796.54	58.824
796.85	48.649
797.15	85.915
797.46	57.576
797.76	71.084
798.07	58.228
798.37	58.462
798.68	78.788
798.99	52.113
799.29	66.234
799.60	67.045
799.90	67.123
800.21	61.194
800.51	86.207
800.82	84.211
801.12	70.492
801.43	75.758
801.73	64.865
802.04	92.063
802.34	62.963
802.65	60.937
802.95	93.220
803.26	76.562
803.56	54.286
803.87	53.846
804.17	70.588
804.48	81.481
804.78	77.586
805.09	70.588
805.39	69.231
805.70	87.500
806.00	85.246
806.30	71.212
806.61	63.415
806.91	62.025
807.22	61.842
807.52	53.731
807.83	80.282
808.13	79.687
808.43	88.333
808.74	51.316
809.04	63.768
809.35	64.179
809.65	63.158
809.95	82.258
810.26	72.881
810.56	73.016
810.86	109.091
811.17	95.238
811.47	80.000
811.77	75.926
812.08	96.364
812.38	100.000
812.69	130.556
812.99	109.091
813.29	93.878
813.59	90.476
813.90	108.163
814.20	85.455
814.50	76.923
814.81	86.765
815.11	89.796
815.41	73.770
815.72	111.905
816.02	80.000
816.32	123.810
816.62	107.500
816.93	107.317
817.23	111.905
817.53	134.091
817.84	121.212
818.14	93.478
818.44	108.889
818.74	97.059
819.04	92.500
819.35	102.857
819.65	141.176
819.95	107.143
820.25	185.000
820.56	107.692
820.86	95.455
821.16	104.651
821.46	105.128
821.76	114.000
822.07	120.000
822.37	110.000
822.67	139.394
822.97	86.275
823.27	146.429
823.57	116.216
823.88	130.000
824.18	143.333
824.48	128.571
824.78	176.000
825.08	175.000
825.38	110.811
825.69	121.951
825.99	133.333
826.29	124.138
826.59	121.053
826.89	110.526
827.19	117.647
827.49	106.452
827.79	122.727
828.09	95.455
828.39	106.383
828.70	106.122
829.00	137.037
829.30	129.032
829.60	122.500
829.90	180.000
830.20	153.571
830.50	173.913
830.80	173.913
831.10	146.667
831.40	156.667
831.70	104.348
832.00	157.692
832.30	170.370
832.60	212.500
832.90	156.667
833.20	257.143
833.50	154.839
833.80	155.172
834.10	156.250
834.40	211.538
834.70	183.333
835.00	247.619
835.30	114.286
835.60	230.769
835.90	151.724
836.20	242.857
836.50	165.517
836.80	140.000
837.10	136.111
837.40	200.000
837.70	235.294
838.00	185.185
838.30	157.143
838.60	223.810
838.90	161.538
839.19	195.000
839.49	314.286
839.79	280.000
840.09	215.000
840.39	209.524
840.69	186.957
840.99	244.444
841.29	450.000
841.59	241.667
841.88	218.750
842.18	144.828
842.48	228.571
842.78	173.333
843.08	152.174
843.38	156.250
843.68	700.000
843.97	211.538
844.27	131.034
844.57	238.095
844.87	262.500
845.17	155.556
845.47	966.667
845.76	300.000
846.06	282.353
846.36	412.500
846.66	264.286
846.96	262.500
847.25	345.455
847.55	245.455
847.85	182.609
848.15	440.000
848.44	328.571
848.74	138.889
849.04	229.412
849.34	360.000
849.63	178.947
849.93	309.091
850.23	800.000
850.53	328.571
850.82	1500.000
851.12	-2700.000
851.42	3200.000
851.71	190.000
852.01	-833.333
852.31	187.500
852.61	1266.667
852.90	180.952
853.20	152.000
853.50	288.235
853.79	242.857
854.09	158.333
854.39	256.250
854.68	127.027
854.98	129.032
855.28	133.333
855.57	193.103
855.87	159.259
856.17	173.684
856.46	180.000
856.76	194.118
857.05	137.931
857.35	191.667
857.65	320.000
857.94	204.348
858.24	203.846
858.53	235.000
858.83	195.455
859.13	233.333
859.42	0.000
859.72	511.111
860.01	409.091
860.31	177.273
860.60	205.263
860.90	165.217
861.20	433.333
861.49	416.667
861.79	-3500.000
862.08	562.500
862.38	257.143
862.67	253.846
862.97	282.353
863.26	355.556
863.56	150.000
863.85	341.667
864.15	362.500
864.44	353.333
864.74	816.667
865.03	625.000
865.33	242.105
865.62	318.182
865.92	338.462
866.21	200.000
866.51	0.000
866.80	354.545
867.10	940.000
867.39	284.615
867.69	363.636
867.98	210.526
868.27	345.455
868.57	268.421
868.86	-2400.000
869.16	262.500
869.45	1600.000
869.75	-3000.000
870.04	291.667
870.33	557.143
870.63	900.000
870.92	1950.000
871.22	614.286
871.51	270.588
871.80	166.667
872.10	307.143
>>>>>End Processed Spectral Data<<<<<
