SpectraSuite Data File
++++++++++++++++++++++++++++++++++++
Date: Wed May 13 20:46:23 PDT 2015
User: schluterlab
Dark Spectrum Present: Yes
Reference Spectrum Present: Yes
Number of Sampled Component Spectra: 1
Spectrometers: USB2E3373
Integration Time (usec): 3000 (USB2E3373)
Spectra Averaged: 3 (USB2E3373)
Boxcar Smoothing: 0 (USB2E3373)
Correct for Electrical Dark: No (USB2E3373)
Strobe/Lamp Enabled: No (USB2E3373)
Correct for Detector Non-linearity: No (USB2E3373)
Correct for Stray Light: No (USB2E3373)
Number of Pixels in Processed Spectrum: 2048
>>>>>Begin Processed Spectral Data<<<<<
178.53	0.000
178.91	-775.000
179.29	-800.000
179.67	-105.556
180.04	-650.000
180.42	1550.000
180.80	620.000
181.18	-600.000
181.56	385.714
181.94	0.000
182.31	-371.429
182.69	1133.333
183.07	-275.000
183.45	-288.889
183.83	281.818
184.20	-220.000
184.58	1200.000
184.96	3600.000
185.34	-460.000
185.72	-412.500
186.09	-1200.000
186.47	2050.000
186.85	1350.000
187.23	2700.000
187.61	-1000.000
187.98	900.000
188.36	418.182
188.74	327.273
189.12	-480.000
189.49	320.000
189.87	-2800.000
190.25	-675.000
190.63	314.286
191.00	269.231
191.38	500.000
191.76	-625.000
192.14	925.000
192.51	337.500
192.89	566.667
193.27	287.500
193.65	-600.000
194.02	300.000
194.40	560.000
194.78	360.000
195.15	283.333
195.53	410.000
195.91	-1400.000
196.29	206.250
196.66	210.526
197.04	-100.000
197.42	0.000
197.79	470.000
198.17	-3000.000
198.55	400.000
198.92	475.000
199.30	620.000
199.68	0.000
200.05	200.000
200.43	357.143
200.81	1200.000
201.18	1033.333
201.56	-900.000
201.94	422.222
202.31	311.111
202.69	266.667
203.07	330.000
203.44	0.000
203.82	850.000
204.19	542.857
204.57	228.571
204.95	325.000
205.32	566.667
205.70	318.182
206.08	242.857
206.45	1450.000
206.83	218.750
207.20	600.000
207.58	420.000
207.96	194.444
208.33	362.500
208.71	-600.000
209.08	457.143
209.46	400.000
209.84	254.545
210.21	-833.333
210.59	900.000
210.96	-262.500
211.34	1500.000
211.71	330.000
212.09	433.333
212.46	0.000
212.84	966.667
213.22	875.000
213.59	-3100.000
213.97	433.333
214.34	628.571
214.72	354.545
215.09	720.000
215.47	-1150.000
215.84	-1700.000
216.22	866.667
216.59	278.571
216.97	900.000
217.34	272.727
217.72	-383.333
218.09	0.000
218.47	-2500.000
218.84	411.111
219.22	442.857
219.59	1100.000
219.97	-400.000
220.34	580.000
220.72	-1033.333
221.09	235.714
221.47	825.000
221.84	-550.000
222.22	0.000
222.59	775.000
222.97	-1500.000
223.34	640.000
223.72	292.308
224.09	420.000
224.46	750.000
224.84	-3200.000
225.21	-420.000
225.59	-2500.000
225.96	340.000
226.34	205.000
226.71	1650.000
227.08	387.500
227.46	330.000
227.83	-450.000
228.21	-1050.000
228.58	300.000
228.95	-1300.000
229.33	-1600.000
229.70	1233.333
230.08	557.143
230.45	-520.000
230.82	291.667
231.20	433.333
231.57	271.429
231.95	308.333
232.32	186.364
232.69	154.545
233.07	300.000
233.44	176.923
233.81	-700.000
234.19	173.684
234.56	258.333
234.93	158.333
235.31	263.636
235.68	192.308
236.05	150.000
236.43	100.000
236.80	131.579
237.17	2700.000
237.55	76.190
237.92	125.000
238.29	119.048
238.67	80.645
239.04	131.034
239.41	47.222
239.79	65.217
240.16	42.857
240.53	45.455
240.91	41.176
241.28	46.000
241.65	38.000
242.02	37.681
242.40	43.548
242.77	36.667
243.14	39.785
243.51	34.831
243.89	25.882
244.26	28.889
244.63	26.882
245.00	25.532
245.38	30.693
245.75	16.822
246.12	14.679
246.49	30.657
246.87	32.000
247.24	28.462
247.61	30.000
247.98	22.222
248.36	17.568
248.73	17.197
249.10	23.567
249.47	11.864
249.84	15.508
250.22	16.043
250.59	14.201
250.96	16.667
251.33	18.483
251.70	14.356
252.08	17.143
252.45	9.865
252.82	10.870
253.19	14.043
253.56	14.118
253.94	14.108
254.31	12.891
254.68	17.692
255.05	12.546
255.42	8.130
255.79	11.029
256.16	14.801
256.54	9.894
256.91	10.320
257.28	7.554
257.65	11.221
258.02	9.938
258.39	12.303
258.76	8.361
259.14	8.333
259.51	10.942
259.88	8.075
260.25	8.459
260.62	7.225
260.99	5.590
261.36	9.309
261.73	7.450
262.10	6.686
262.47	9.577
262.85	8.357
263.22	5.413
263.59	11.966
263.96	7.967
264.33	9.138
264.70	6.053
265.07	8.184
265.44	8.333
265.81	6.326
266.18	8.040
266.55	5.122
266.92	7.371
267.29	12.269
267.66	6.651
268.03	7.273
268.40	6.776
268.77	3.819
269.14	7.207
269.51	7.449
269.88	6.061
270.25	6.321
270.62	6.292
270.99	12.043
271.36	8.584
271.73	4.907
272.10	7.391
272.47	6.452
272.84	5.411
273.21	8.176
273.58	5.022
273.95	6.918
274.32	5.372
274.69	6.638
275.06	7.480
275.43	7.660
275.80	6.613
276.17	6.314
276.54	6.029
276.91	5.731
277.28	6.055
277.65	5.029
278.02	6.832
278.39	7.617
278.76	6.727
279.13	7.170
279.50	6.518
279.87	5.378
280.23	5.589
280.60	4.642
280.97	4.806
281.34	7.434
281.71	6.727
282.08	5.374
282.45	5.091
282.82	6.039
283.19	4.278
283.56	5.965
283.92	5.584
284.29	5.115
284.66	5.445
285.03	4.702
285.40	5.810
285.77	4.040
286.14	2.763
286.51	5.500
286.87	6.325
287.24	6.352
287.61	5.618
287.98	5.357
288.35	6.973
288.72	5.452
289.08	4.851
289.45	4.942
289.82	4.228
290.19	5.651
290.56	6.126
290.93	3.323
291.29	5.215
291.66	4.867
292.03	6.686
292.40	6.021
292.77	3.698
293.13	4.179
293.50	4.227
293.87	5.630
294.24	3.556
294.60	4.803
294.97	3.343
295.34	5.219
295.71	3.977
296.08	3.419
296.44	4.539
296.81	3.699
297.18	5.827
297.55	2.639
297.91	3.166
298.28	3.614
298.65	6.266
299.02	5.402
299.38	3.054
299.75	0.674
300.12	3.321
300.48	3.500
300.85	3.329
301.22	2.930
301.59	2.525
301.95	3.023
302.32	4.621
302.69	3.345
303.05	2.788
303.42	4.198
303.79	4.077
304.15	3.263
304.52	3.708
304.89	2.787
305.25	3.712
305.62	4.530
305.99	3.306
306.35	2.685
306.72	3.700
307.09	3.441
307.45	4.392
307.82	3.683
308.19	3.091
308.55	3.776
308.92	2.685
309.29	2.429
309.65	3.075
310.02	3.488
310.38	4.516
310.75	3.062
311.12	3.787
311.48	3.657
311.85	3.459
312.22	3.642
312.58	3.119
312.95	2.957
313.31	2.816
313.68	3.534
314.05	5.325
314.41	3.417
314.78	2.216
315.14	3.674
315.51	2.781
315.87	3.564
316.24	2.979
316.61	2.437
316.97	2.055
317.34	1.957
317.70	2.868
318.07	2.791
318.43	3.816
318.80	3.936
319.16	3.578
319.53	3.471
319.89	4.000
320.26	3.400
320.62	3.571
320.99	3.535
321.35	3.232
321.72	3.183
322.08	3.258
322.45	3.085
322.81	3.779
323.18	4.239
323.54	3.061
323.91	3.585
324.27	2.868
324.64	2.237
325.00	3.066
325.37	3.276
325.73	3.501
326.10	3.442
326.46	2.778
326.83	3.796
327.19	2.818
327.56	1.742
327.92	3.062
328.29	3.283
328.65	3.315
329.01	3.339
329.38	2.220
329.74	2.862
330.11	3.110
330.47	3.214
330.84	4.504
331.20	2.823
331.56	3.211
331.93	2.685
332.29	3.194
332.66	3.717
333.02	2.468
333.38	3.342
333.75	3.476
334.11	3.737
334.48	2.662
334.84	3.217
335.20	2.818
335.57	3.083
335.93	2.500
336.29	2.381
336.66	2.435
337.02	2.534
337.38	3.241
337.75	2.763
338.11	3.044
338.47	3.039
338.84	3.483
339.20	2.385
339.56	3.285
339.93	2.273
340.29	2.083
340.65	3.387
341.02	3.229
341.38	2.936
341.74	2.807
342.11	3.843
342.47	2.467
342.83	2.997
343.20	3.290
343.56	3.623
343.92	2.895
344.28	3.827
344.65	2.150
345.01	3.199
345.37	2.144
345.73	3.130
346.10	2.984
346.46	3.136
346.82	2.965
347.19	2.423
347.55	2.874
347.91	3.560
348.27	3.369
348.63	2.759
349.00	2.913
349.36	2.545
349.72	3.368
350.08	2.836
350.45	4.963
350.81	2.437
351.17	3.566
351.53	2.457
351.89	2.228
352.26	4.657
352.62	3.609
352.98	2.998
353.34	2.876
353.70	2.619
354.07	2.742
354.43	3.254
354.79	3.057
355.15	2.953
355.51	4.077
355.87	4.082
356.24	2.769
356.60	2.566
356.96	2.414
357.32	2.862
357.68	3.228
358.04	3.800
358.40	3.484
358.77	3.286
359.13	2.447
359.49	3.216
359.85	1.032
360.21	2.233
360.57	2.646
360.93	3.000
361.29	3.401
361.66	2.786
362.02	2.836
362.38	3.498
362.74	3.125
363.10	2.739
363.46	2.201
363.82	2.872
364.18	3.524
364.54	3.046
364.90	3.541
365.26	3.015
365.62	2.484
365.98	2.703
366.35	2.292
366.71	2.458
367.07	2.986
367.43	2.685
367.79	3.212
368.15	4.526
368.51	2.398
368.87	2.998
369.23	2.414
369.59	2.679
369.95	2.647
370.31	3.490
370.67	3.116
371.03	3.670
371.39	3.280
371.75	2.647
372.11	2.418
372.47	3.592
372.83	3.530
373.19	2.384
373.55	3.252
373.91	3.387
374.27	3.230
374.63	2.255
374.99	3.460
375.35	2.163
375.71	2.879
376.07	3.429
376.42	2.751
376.78	3.181
377.14	2.849
377.50	2.914
377.86	2.394
378.22	3.097
378.58	2.318
378.94	2.074
379.30	1.654
379.66	2.665
380.02	2.887
380.38	2.247
380.74	2.341
381.09	2.567
381.45	2.643
381.81	3.194
382.17	3.185
382.53	2.075
382.89	2.593
383.25	1.876
383.61	2.664
383.97	2.189
384.32	2.308
384.68	2.107
385.04	1.967
385.40	2.415
385.76	2.580
386.12	2.332
386.48	2.769
386.83	2.502
387.19	3.278
387.55	3.340
387.91	2.116
388.27	2.698
388.62	3.135
388.98	1.904
389.34	3.129
389.70	3.066
390.06	3.169
390.42	2.529
390.77	2.863
391.13	2.361
391.49	3.109
391.85	2.801
392.20	1.577
392.56	2.462
392.92	2.590
393.28	2.249
393.64	2.098
393.99	3.115
394.35	2.667
394.71	2.698
395.07	2.368
395.42	1.483
395.78	2.290
396.14	2.359
396.50	3.070
396.85	2.352
397.21	2.836
397.57	2.046
397.92	2.284
398.28	1.794
398.64	2.867
399.00	2.406
399.35	1.748
399.71	2.141
400.07	2.898
400.42	3.129
400.78	2.593
401.14	2.012
401.49	2.149
401.85	1.936
402.21	2.335
402.57	2.036
402.92	2.207
403.28	2.748
403.63	2.413
403.99	2.293
404.35	3.212
404.70	2.638
405.06	1.747
405.42	2.620
405.77	2.514
406.13	2.201
406.49	1.892
406.84	2.599
407.20	1.891
407.55	2.425
407.91	2.667
408.27	1.851
408.62	2.529
408.98	1.961
409.34	2.522
409.69	2.581
410.05	1.921
410.40	2.569
410.76	2.210
411.11	2.955
411.47	3.067
411.83	2.199
412.18	2.288
412.54	2.553
412.89	2.892
413.25	2.066
413.60	2.162
413.96	2.489
414.31	2.552
414.67	2.471
415.03	2.517
415.38	2.964
415.74	2.508
416.09	1.829
416.45	2.209
416.80	2.776
417.16	2.681
417.51	2.389
417.87	2.248
418.22	3.091
418.58	3.292
418.93	2.703
419.29	2.482
419.64	2.645
420.00	2.561
420.35	3.130
420.71	2.690
421.06	2.446
421.42	2.690
421.77	3.307
422.12	1.853
422.48	1.943
422.83	2.679
423.19	2.597
423.54	1.973
423.90	2.261
424.25	2.736
424.61	1.905
424.96	2.391
425.31	2.602
425.67	1.966
426.02	2.114
426.38	2.625
426.73	2.282
427.09	2.249
427.44	2.415
427.79	2.358
428.15	2.619
428.50	2.750
428.85	3.159
429.21	2.043
429.56	1.918
429.92	1.963
430.27	2.234
430.62	1.792
430.98	2.750
431.33	2.526
431.68	2.565
432.04	2.503
432.39	1.770
432.74	2.334
433.10	2.434
433.45	2.332
433.80	2.273
434.16	2.404
434.51	2.474
434.86	2.223
435.22	2.390
435.57	2.736
435.92	1.989
436.28	2.728
436.63	2.870
436.98	2.118
437.34	2.326
437.69	1.984
438.04	1.855
438.39	2.388
438.75	2.905
439.10	2.458
439.45	2.656
439.81	1.994
440.16	1.863
440.51	2.050
440.86	2.258
441.22	2.169
441.57	2.654
441.92	2.252
442.27	2.583
442.63	2.212
442.98	3.324
443.33	2.772
443.68	2.426
444.03	1.903
444.39	1.461
444.74	2.219
445.09	2.857
445.44	2.515
445.79	2.276
446.15	3.070
446.50	2.423
446.85	2.672
447.20	2.397
447.55	1.843
447.91	2.317
448.26	2.560
448.61	2.092
448.96	2.658
449.31	2.587
449.66	2.307
450.02	1.616
450.37	1.757
450.72	1.918
451.07	2.316
451.42	2.371
451.77	2.995
452.12	3.002
452.47	2.612
452.83	1.865
453.18	3.423
453.53	3.216
453.88	2.008
454.23	2.869
454.58	3.331
454.93	2.479
455.28	2.431
455.63	2.124
455.98	2.738
456.34	2.010
456.69	2.129
457.04	2.539
457.39	2.104
457.74	2.031
458.09	2.530
458.44	2.851
458.79	2.115
459.14	2.483
459.49	2.335
459.84	2.992
460.19	2.121
460.54	2.488
460.89	2.414
461.24	3.279
461.59	3.370
461.94	2.404
462.29	2.789
462.64	2.999
462.99	2.537
463.34	3.133
463.69	2.689
464.04	2.493
464.39	3.362
464.74	2.911
465.09	2.714
465.44	2.105
465.79	2.405
466.14	3.065
466.49	2.336
466.84	2.218
467.19	2.716
467.54	2.563
467.89	3.001
468.24	2.676
468.59	3.114
468.94	2.749
469.29	2.442
469.64	2.945
469.99	2.639
470.34	1.717
470.68	2.730
471.03	3.061
471.38	2.780
471.73	2.931
472.08	2.961
472.43	2.324
472.78	2.172
473.13	2.760
473.48	2.310
473.83	2.134
474.17	2.302
474.52	3.350
474.87	2.744
475.22	2.496
475.57	2.526
475.92	2.443
476.27	2.875
476.61	2.648
476.96	2.254
477.31	2.302
477.66	2.298
478.01	2.300
478.36	2.538
478.70	1.713
479.05	2.609
479.40	2.456
479.75	2.593
480.10	1.839
480.45	2.189
480.79	1.959
481.14	2.250
481.49	2.231
481.84	1.966
482.19	2.181
482.53	2.156
482.88	2.047
483.23	2.196
483.58	2.775
483.92	3.140
484.27	1.743
484.62	2.155
484.97	1.971
485.31	2.192
485.66	1.524
486.01	1.455
486.36	1.418
486.70	1.281
487.05	1.353
487.40	1.430
487.75	1.643
488.09	1.638
488.44	1.601
488.79	2.098
489.13	1.948
489.48	2.121
489.83	1.856
490.17	1.841
490.52	2.347
490.87	2.126
491.22	2.228
491.56	1.822
491.91	1.908
492.26	2.159
492.60	2.396
492.95	1.824
493.30	2.243
493.64	1.913
493.99	1.857
494.34	2.405
494.68	2.381
495.03	2.350
495.37	1.908
495.72	2.339
496.07	1.949
496.41	2.124
496.76	2.067
497.11	2.611
497.45	2.189
497.80	2.063
498.14	1.787
498.49	1.610
498.84	2.013
499.18	1.952
499.53	1.947
499.87	2.283
500.22	2.261
500.56	2.524
500.91	1.587
501.26	1.944
501.60	2.326
501.95	2.246
502.29	2.577
502.64	2.188
502.98	2.244
503.33	2.102
503.67	2.274
504.02	2.339
504.36	2.714
504.71	2.052
505.06	2.940
505.40	2.333
505.75	1.929
506.09	1.944
506.44	2.023
506.78	2.338
507.13	2.272
507.47	2.273
507.82	2.432
508.16	2.837
508.51	2.435
508.85	1.639
509.19	1.837
509.54	2.398
509.88	1.803
510.23	1.851
510.57	3.044
510.92	2.434
511.26	2.775
511.61	2.853
511.95	2.140
512.30	2.227
512.64	2.579
512.98	2.304
513.33	3.051
513.67	2.348
514.02	1.732
514.36	2.567
514.70	2.490
515.05	2.342
515.39	2.692
515.74	2.365
516.08	3.130
516.42	3.052
516.77	2.620
517.11	2.053
517.46	2.878
517.80	2.962
518.14	1.853
518.49	2.275
518.83	2.330
519.17	2.309
519.52	2.660
519.86	3.252
520.20	3.353
520.55	3.052
520.89	2.798
521.23	2.774
521.58	2.341
521.92	3.001
522.26	2.379
522.61	2.430
522.95	2.517
523.29	2.861
523.64	2.927
523.98	2.095
524.32	2.473
524.66	2.526
525.01	2.757
525.35	2.602
525.69	2.586
526.04	2.804
526.38	2.990
526.72	3.374
527.06	2.699
527.41	2.351
527.75	2.830
528.09	2.890
528.43	2.868
528.78	2.704
529.12	2.303
529.46	2.817
529.80	3.403
530.15	3.115
530.49	3.262
530.83	3.354
531.17	3.003
531.51	3.632
531.86	2.194
532.20	3.716
532.54	3.331
532.88	2.503
533.22	2.873
533.57	3.025
533.91	2.529
534.25	3.463
534.59	2.929
534.93	3.748
535.27	2.293
535.62	3.663
535.96	3.202
536.30	2.606
536.64	2.769
536.98	2.920
537.32	2.567
537.66	2.800
538.01	2.699
538.35	3.167
538.69	3.446
539.03	2.339
539.37	2.492
539.71	1.620
540.05	3.333
540.39	3.389
540.73	3.299
541.07	2.790
541.42	3.131
541.76	4.065
542.10	3.169
542.44	2.517
542.78	4.150
543.12	3.007
543.46	3.016
543.80	3.123
544.14	2.567
544.48	3.111
544.82	2.437
545.16	2.928
545.50	2.635
545.84	2.688
546.18	3.300
546.52	3.097
546.86	2.474
547.20	3.641
547.54	2.538
547.88	3.508
548.22	2.864
548.56	2.642
548.90	2.561
549.24	2.828
549.58	3.001
549.92	2.953
550.26	2.841
550.60	3.250
550.94	2.042
551.28	2.195
551.62	3.019
551.96	2.807
552.30	2.730
552.64	3.245
552.98	3.254
553.32	3.439
553.66	3.681
554.00	3.089
554.34	3.106
554.68	2.790
555.02	2.750
555.36	3.619
555.69	2.639
556.03	3.365
556.37	2.933
556.71	3.001
557.05	2.801
557.39	3.219
557.73	3.670
558.07	2.973
558.41	2.460
558.75	3.306
559.08	3.803
559.42	3.175
559.76	2.574
560.10	2.712
560.44	3.424
560.78	2.794
561.12	3.100
561.45	3.259
561.79	3.296
562.13	2.549
562.47	2.801
562.81	2.720
563.15	3.144
563.48	3.316
563.82	2.348
564.16	2.093
564.50	2.669
564.84	3.729
565.17	2.638
565.51	2.684
565.85	2.728
566.19	1.941
566.52	2.597
566.86	2.471
567.20	2.653
567.54	2.740
567.88	2.064
568.21	2.857
568.55	2.427
568.89	1.702
569.23	1.827
569.56	2.429
569.90	2.189
570.24	2.153
570.57	1.768
570.91	2.230
571.25	1.977
571.59	2.003
571.92	1.671
572.26	1.878
572.60	2.072
572.93	1.979
573.27	2.041
573.61	2.066
573.95	1.964
574.28	1.558
574.62	1.603
574.96	1.697
575.29	1.625
575.63	1.778
575.97	1.718
576.30	1.885
576.64	1.592
576.98	1.726
577.31	1.433
577.65	1.238
577.98	1.287
578.32	1.529
578.66	1.572
578.99	1.438
579.33	1.477
579.67	1.387
580.00	1.702
580.34	1.661
580.67	1.560
581.01	1.979
581.35	1.289
581.68	1.562
582.02	1.522
582.35	1.465
582.69	1.687
583.02	1.297
583.36	1.822
583.70	1.523
584.03	1.620
584.37	1.765
584.70	1.515
585.04	1.761
585.37	1.724
585.71	1.927
586.04	1.885
586.38	1.907
586.72	1.878
587.05	1.467
587.39	1.451
587.72	1.855
588.06	1.708
588.39	1.591
588.73	1.584
589.06	1.839
589.40	1.380
589.73	1.830
590.07	1.744
590.40	2.119
590.73	2.069
591.07	2.239
591.40	2.278
591.74	2.857
592.07	2.443
592.41	2.067
592.74	2.360
593.08	1.932
593.41	1.772
593.75	1.843
594.08	1.978
594.41	2.086
594.75	1.516
595.08	2.112
595.42	1.996
595.75	2.066
596.09	2.291
596.42	2.083
596.75	1.900
597.09	2.727
597.42	1.728
597.75	2.242
598.09	2.435
598.42	2.019
598.76	2.351
599.09	1.672
599.42	1.929
599.76	1.977
600.09	1.931
600.42	2.301
600.76	2.179
601.09	2.186
601.42	1.826
601.76	2.391
602.09	2.134
602.42	2.508
602.76	2.297
603.09	1.928
603.42	2.343
603.76	2.477
604.09	1.667
604.42	2.038
604.76	2.657
605.09	2.228
605.42	1.881
605.75	2.359
606.09	1.586
606.42	1.635
606.75	2.820
607.09	2.553
607.42	1.754
607.75	1.519
608.08	1.954
608.42	2.420
608.75	2.119
609.08	2.128
609.41	2.285
609.75	2.334
610.08	2.498
610.41	1.816
610.74	1.656
611.07	2.421
611.41	2.404
611.74	2.564
612.07	2.484
612.40	2.518
612.73	2.263
613.07	2.963
613.40	2.475
613.73	1.888
614.06	2.581
614.39	2.937
614.72	2.368
615.06	2.679
615.39	2.070
615.72	2.301
616.05	2.127
616.38	2.724
616.71	2.494
617.05	2.827
617.38	2.345
617.71	2.462
618.04	2.584
618.37	2.779
618.70	2.738
619.03	3.684
619.36	2.240
619.69	2.113
620.03	2.473
620.36	3.409
620.69	3.288
621.02	3.171
621.35	3.132
621.68	2.570
622.01	2.709
622.34	3.631
622.67	2.662
623.00	2.568
623.33	2.931
623.66	3.145
623.99	3.166
624.32	2.568
624.65	3.814
624.99	2.337
625.32	2.896
625.65	2.780
625.98	2.767
626.31	3.888
626.64	4.245
626.97	3.325
627.30	2.494
627.63	3.199
627.96	3.028
628.29	3.150
628.62	4.666
628.95	5.472
629.28	3.376
629.61	3.850
629.94	2.762
630.26	3.146
630.59	3.718
630.92	3.831
631.25	3.554
631.58	4.705
631.91	3.854
632.24	2.215
632.57	3.253
632.90	2.961
633.23	4.251
633.56	3.729
633.89	4.530
634.22	3.859
634.55	4.615
634.88	4.311
635.20	3.106
635.53	5.060
635.86	2.970
636.19	4.118
636.52	4.383
636.85	3.207
637.18	4.954
637.51	5.319
637.83	2.589
638.16	4.731
638.49	5.542
638.82	5.689
639.15	5.000
639.48	5.860
639.81	5.094
640.13	5.729
640.46	4.027
640.79	5.945
641.12	4.127
641.45	4.888
641.77	3.829
642.10	3.801
642.43	3.453
642.76	3.406
643.09	4.294
643.41	4.249
643.74	6.173
644.07	4.726
644.40	6.442
644.73	6.614
645.05	5.547
645.38	4.265
645.71	5.475
646.04	5.648
646.36	7.012
646.69	7.692
647.02	5.272
647.35	6.014
647.67	7.257
648.00	6.992
648.33	4.785
648.66	4.091
648.98	6.147
649.31	2.840
649.64	5.232
649.96	5.067
650.29	4.739
650.62	5.340
650.94	6.807
651.27	7.095
651.60	6.656
651.92	6.709
652.25	3.909
652.58	6.542
652.90	6.635
653.23	4.931
653.56	4.882
653.88	6.022
654.21	6.477
654.54	5.281
654.86	5.452
655.19	4.595
655.52	1.494
655.84	0.967
656.17	1.163
656.49	1.646
656.82	1.477
657.15	1.221
657.47	1.010
657.80	0.755
658.13	0.625
658.45	1.235
658.78	1.208
659.10	1.691
659.43	1.804
659.75	2.144
660.08	2.025
660.41	3.259
660.73	4.320
661.06	3.822
661.38	8.727
661.71	8.269
662.03	8.679
662.36	4.970
662.68	7.430
663.01	7.475
663.33	6.157
663.66	5.462
663.98	5.400
664.31	5.042
664.63	5.870
664.96	5.835
665.28	6.352
665.61	6.628
665.93	5.030
666.26	5.882
666.58	5.649
666.91	7.188
667.23	6.517
667.56	6.911
667.88	7.265
668.21	8.529
668.53	5.857
668.86	8.009
669.18	8.316
669.50	7.174
669.83	8.932
670.15	8.000
670.48	4.139
670.80	6.897
671.13	9.766
671.45	4.255
671.77	7.739
672.10	6.285
672.42	5.654
672.75	5.307
673.07	5.282
673.39	5.425
673.72	5.469
674.04	6.471
674.37	7.961
674.69	5.317
675.01	4.603
675.34	5.749
675.66	9.053
675.98	6.925
676.31	9.244
676.63	6.794
676.95	7.547
677.28	7.243
677.60	6.813
677.92	7.806
678.25	6.366
678.57	7.371
678.89	5.812
679.22	5.697
679.54	8.588
679.86	6.606
680.18	6.798
680.51	6.206
680.83	8.541
681.15	5.472
681.48	8.507
681.80	5.222
682.12	5.556
682.44	3.868
682.77	7.739
683.09	6.009
683.41	4.878
683.73	5.960
684.06	8.058
684.38	8.023
684.70	7.171
685.02	7.129
685.34	4.029
685.67	4.371
685.99	3.952
686.31	4.096
686.63	3.887
686.96	4.107
687.28	5.957
687.60	5.797
687.92	6.581
688.24	5.513
688.56	5.622
688.89	7.469
689.21	7.642
689.53	8.559
689.85	7.539
690.17	5.176
690.49	7.643
690.82	6.075
691.14	4.241
691.46	3.165
691.78	7.430
692.10	6.198
692.42	5.389
692.74	7.054
693.06	5.957
693.39	6.982
693.71	7.424
694.03	6.526
694.35	5.628
694.67	5.950
694.99	8.780
695.31	5.882
695.63	5.742
695.95	7.824
696.27	4.315
696.59	6.736
696.91	6.736
697.23	7.042
697.56	5.757
697.88	4.908
698.20	7.708
698.52	7.097
698.84	8.018
699.16	7.143
699.48	5.701
699.80	6.039
700.12	8.052
700.44	8.753
700.76	6.354
701.08	8.333
701.40	9.497
701.72	9.329
702.04	10.227
702.36	6.232
702.68	9.348
703.00	8.310
703.32	8.777
703.64	9.651
703.96	8.078
704.28	8.140
704.60	9.971
704.91	7.418
705.23	9.091
705.55	8.970
705.87	15.615
706.19	3.887
706.51	13.084
706.83	11.212
707.15	12.045
707.47	7.071
707.79	10.074
708.11	8.676
708.43	6.429
708.74	5.102
709.06	9.610
709.38	10.761
709.70	10.756
710.02	8.902
710.34	4.545
710.66	9.254
710.98	10.795
711.29	9.884
711.61	10.619
711.93	4.487
712.25	9.968
712.57	10.662
712.89	9.689
713.20	9.119
713.52	9.868
713.84	11.076
714.16	9.756
714.48	8.908
714.80	12.462
715.11	9.222
715.43	5.935
715.75	10.435
716.07	7.668
716.39	8.150
716.70	10.631
717.02	9.353
717.34	13.428
717.66	13.806
717.97	10.757
718.29	12.593
718.61	10.949
718.93	13.235
719.24	13.149
719.56	8.475
719.88	10.508
720.20	9.459
720.51	14.634
720.83	14.870
721.15	5.597
721.46	12.411
721.78	13.262
722.10	13.962
722.42	12.782
722.73	9.363
723.05	8.607
723.37	10.526
723.68	11.197
724.00	11.382
724.32	12.500
724.63	10.976
724.95	7.950
725.27	12.146
725.58	10.547
725.90	13.869
726.22	9.811
726.53	10.417
726.85	10.239
727.16	11.032
727.48	9.220
727.80	10.985
728.11	13.406
728.43	10.769
728.74	10.036
729.06	15.328
729.38	12.132
729.69	11.744
730.01	10.922
730.32	7.986
730.64	10.702
730.96	8.251
731.27	8.609
731.59	9.174
731.90	7.872
732.22	8.696
732.53	7.430
732.85	9.936
733.16	8.360
733.48	8.638
733.80	9.416
734.11	9.554
734.43	12.130
734.74	6.286
735.06	6.017
735.37	8.671
735.69	9.554
736.00	7.516
736.32	11.526
736.63	8.626
736.95	9.904
737.26	4.082
737.58	7.419
737.89	7.358
738.21	12.287
738.52	12.500
738.83	11.321
739.15	10.385
739.46	16.058
739.78	13.194
740.09	11.077
740.41	11.935
740.72	11.847
741.04	11.852
741.35	9.167
741.66	15.111
741.98	8.962
742.29	16.746
742.61	16.810
742.92	14.480
743.23	11.538
743.55	14.000
743.86	7.018
744.18	14.602
744.49	13.876
744.80	10.798
745.12	17.273
745.43	17.181
745.74	15.766
746.06	16.055
746.37	14.798
746.68	14.027
747.00	18.519
747.31	13.810
747.62	10.177
747.94	11.454
748.25	11.489
748.56	16.740
748.88	10.891
749.19	14.500
749.50	10.698
749.82	12.602
750.13	10.204
750.44	9.124
750.75	12.281
751.07	12.862
751.38	13.937
751.69	13.718
752.01	9.398
752.32	11.191
752.63	7.092
752.94	10.246
753.26	15.600
753.57	8.537
753.88	12.891
754.19	7.500
754.51	13.889
754.82	10.108
755.13	13.962
755.44	11.654
755.75	12.409
756.07	9.574
756.38	4.380
756.69	9.060
757.00	8.982
757.31	8.902
757.63	9.942
757.94	7.507
758.25	7.353
758.56	7.654
758.87	11.022
759.18	10.000
759.50	8.464
759.81	10.592
760.12	8.750
760.43	8.883
760.74	5.435
761.05	9.887
761.36	10.160
761.67	11.648
761.99	9.627
762.30	9.028
762.61	9.160
762.92	11.328
763.23	10.924
763.54	14.400
763.85	7.812
764.16	13.846
764.47	12.928
764.78	11.307
765.10	9.810
765.41	7.965
765.72	8.084
766.03	9.091
766.34	10.667
766.65	12.340
766.96	11.966
767.27	16.244
767.58	14.583
767.89	20.526
768.20	13.793
768.51	20.305
768.82	13.303
769.13	13.008
769.44	12.551
769.75	10.300
770.06	5.963
770.37	18.100
770.68	16.667
770.99	12.444
771.30	10.246
771.61	9.417
771.92	12.705
772.23	16.387
772.54	13.846
772.85	17.801
773.16	16.489
773.47	17.935
773.78	25.888
774.09	19.048
774.39	16.959
774.70	18.519
775.01	20.290
775.32	29.412
775.63	23.684
775.94	17.266
776.25	17.323
776.56	25.373
776.87	26.230
777.18	24.219
777.48	30.534
777.79	25.758
778.10	30.370
778.41	14.286
778.72	17.518
779.03	20.134
779.34	19.463
779.65	24.324
779.95	24.540
780.26	30.065
780.57	20.000
780.88	18.750
781.19	20.301
781.50	20.270
781.80	18.239
782.11	13.559
782.42	15.823
782.73	19.632
783.04	19.595
783.34	21.127
783.65	29.452
783.96	17.164
784.27	21.678
784.57	19.424
784.88	23.148
785.19	25.397
785.50	22.642
785.81	26.866
786.11	27.869
786.42	27.907
786.73	23.009
787.04	31.132
787.34	33.036
787.65	30.000
787.96	28.829
788.26	23.967
788.57	27.119
788.88	23.967
789.19	30.556
789.49	37.879
789.80	21.374
790.11	33.333
790.41	26.733
790.72	30.120
791.03	31.522
791.33	30.233
791.64	36.082
791.95	36.634
792.25	38.889
792.56	33.766
792.87	39.744
793.17	44.304
793.48	49.425
793.79	35.632
794.09	29.545
794.40	29.412
794.70	29.412
795.01	19.259
795.32	15.108
795.62	28.346
795.93	26.724
796.23	35.398
796.54	36.471
796.85	28.378
797.15	47.887
797.46	36.364
797.76	53.012
798.07	30.380
798.37	46.154
798.68	34.848
798.99	35.211
799.29	37.662
799.60	34.091
799.90	56.164
800.21	40.299
800.51	48.276
800.82	52.632
801.12	32.787
801.43	40.909
801.73	39.189
802.04	36.508
802.34	45.679
802.65	42.187
802.95	57.627
803.26	48.437
803.56	20.000
803.87	27.692
804.17	58.824
804.48	55.556
804.78	37.931
805.09	45.588
805.39	46.154
805.70	26.786
806.00	45.902
806.30	40.909
806.61	46.341
806.91	21.519
807.22	40.789
807.52	28.358
807.83	53.521
808.13	39.063
808.43	45.000
808.74	47.368
809.04	46.377
809.35	58.209
809.65	55.263
809.95	53.226
810.26	50.847
810.56	50.794
810.86	65.909
811.17	69.048
811.47	58.333
811.77	48.148
812.08	56.364
812.38	52.000
812.69	80.556
812.99	95.455
813.29	67.347
813.59	61.905
813.90	67.347
814.20	54.545
814.50	53.846
814.81	52.941
815.11	63.265
815.41	54.098
815.72	90.476
816.02	61.818
816.32	59.524
816.62	65.000
816.93	58.537
817.23	80.952
817.53	59.091
817.84	106.061
818.14	58.696
818.44	60.000
818.74	70.588
819.04	60.000
819.35	88.571
819.65	105.882
819.95	85.714
820.25	140.000
820.56	76.923
820.86	113.636
821.16	93.023
821.46	58.974
821.76	70.000
822.07	91.429
822.37	87.500
822.67	57.576
822.97	62.745
823.27	128.571
823.57	83.784
823.88	82.500
824.18	90.000
824.48	83.333
824.78	84.000
825.08	91.667
825.38	110.811
825.69	73.171
825.99	116.667
826.29	72.414
826.59	81.579
826.89	65.789
827.19	82.353
827.49	74.194
827.79	84.091
828.09	84.091
828.39	72.340
828.70	79.592
829.00	55.556
829.30	83.871
829.60	62.500
829.90	113.333
830.20	96.429
830.50	47.826
830.80	130.435
831.10	106.667
831.40	103.333
831.70	82.609
832.00	146.154
832.30	122.222
832.60	162.500
832.90	126.667
833.20	242.857
833.50	112.903
833.80	93.103
834.10	134.375
834.40	138.462
834.70	133.333
835.00	185.714
835.30	94.286
835.60	84.615
835.90	106.897
836.20	178.571
836.50	131.034
836.80	84.000
837.10	100.000
837.40	152.381
837.70	152.941
838.00	129.630
838.30	100.000
838.60	166.667
838.90	107.692
839.19	105.000
839.49	228.571
839.79	275.000
840.09	195.000
840.39	142.857
840.69	147.826
840.99	150.000
841.29	100.000
841.59	183.333
841.88	231.250
842.18	113.793
842.48	128.571
842.78	136.667
843.08	139.130
843.38	106.250
843.68	433.333
843.97	146.154
844.27	103.448
844.57	161.905
844.87	218.750
845.17	122.222
845.47	600.000
845.76	344.444
846.06	158.824
846.36	337.500
846.66	214.286
846.96	112.500
847.25	100.000
847.55	245.455
847.85	169.565
848.15	220.000
848.44	207.143
848.74	138.889
849.04	152.941
849.34	210.000
849.63	126.316
849.93	254.545
850.23	460.000
850.53	250.000
850.82	1350.000
851.12	-2600.000
851.42	2200.000
851.71	160.000
852.01	-400.000
852.31	141.667
852.61	1133.333
852.90	157.143
853.20	160.000
853.50	164.706
853.79	109.524
854.09	112.500
854.39	243.750
854.68	127.027
854.98	87.097
855.28	80.000
855.57	155.172
855.87	92.593
856.17	110.526
856.46	106.667
856.76	111.765
857.05	148.276
857.35	100.000
857.65	240.000
857.94	121.739
858.24	100.000
858.53	155.000
858.83	140.909
859.13	206.667
859.42	0.000
859.72	255.556
860.01	245.455
860.31	154.545
860.60	94.737
860.90	134.783
861.20	244.444
861.49	233.333
861.79	-2400.000
862.08	325.000
862.38	214.286
862.67	161.538
862.97	205.882
863.26	255.556
863.56	150.000
863.85	266.667
864.15	300.000
864.44	226.667
864.74	466.667
865.03	350.000
865.33	205.263
865.62	163.636
865.92	215.385
866.21	233.333
866.51	0.000
866.80	263.636
867.10	620.000
867.39	361.538
867.69	290.909
867.98	173.684
868.27	254.545
868.57	157.895
868.86	-2700.000
869.16	300.000
869.45	1050.000
869.75	-1400.000
870.04	283.333
870.33	471.429
870.63	375.000
870.92	1050.000
871.22	442.857
871.51	247.059
871.80	142.857
872.10	192.857
>>>>>End Processed Spectral Data<<<<<
