SpectraSuite Data File
++++++++++++++++++++++++++++++++++++
Date: Wed May 13 21:02:06 PDT 2015
User: schluterlab
Dark Spectrum Present: Yes
Reference Spectrum Present: Yes
Number of Sampled Component Spectra: 1
Spectrometers: USB2E3373
Integration Time (usec): 3000 (USB2E3373)
Spectra Averaged: 3 (USB2E3373)
Boxcar Smoothing: 0 (USB2E3373)
Correct for Electrical Dark: No (USB2E3373)
Strobe/Lamp Enabled: No (USB2E3373)
Correct for Detector Non-linearity: No (USB2E3373)
Correct for Stray Light: No (USB2E3373)
Number of Pixels in Processed Spectrum: 2048
>>>>>Begin Processed Spectral Data<<<<<
178.53	0.000
178.91	550.000
179.29	100.000
179.67	-550.000
180.04	0.000
180.42	-0.000
180.80	400.000
181.18	83.333
181.56	-175.000
181.94	-175.000
182.31	63.636
182.69	92.308
183.07	120.000
183.45	100.000
183.83	-33.333
184.20	42.857
184.58	33.333
184.96	-66.667
185.34	142.857
185.72	0.000
186.09	400.000
186.47	-320.000
186.85	60.000
187.23	450.000
187.61	50.000
187.98	500.000
188.36	-25.000
188.74	0.000
189.12	18.182
189.49	70.000
189.87	58.333
190.25	240.000
190.63	700.000
191.00	-20.000
191.38	140.000
191.76	550.000
192.14	100.000
192.51	-21.053
192.89	533.333
193.27	200.000
193.65	-120.000
194.02	81.818
194.40	110.000
194.78	600.000
195.15	140.000
195.53	80.000
195.91	75.000
196.29	0.000
196.66	0.000
197.04	-150.000
197.42	60.000
197.79	110.000
198.17	-37.500
198.55	-133.333
198.92	150.000
199.30	-533.333
199.68	-20.000
200.05	300.000
200.43	-50.000
200.81	-400.000
201.18	60.000
201.56	150.000
201.94	225.000
202.31	17.391
202.69	-42.857
203.07	-33.333
203.44	-40.000
203.82	33.333
204.19	-60.000
204.57	0.000
204.95	-66.667
205.32	0.000
205.70	-50.000
206.08	-225.000
206.45	-133.333
206.83	175.000
207.20	66.667
207.58	10.000
207.96	-500.000
208.33	-85.714
208.71	-1000.000
209.08	150.000
209.46	250.000
209.84	0.000
210.21	110.000
210.59	1000.000
210.96	200.000
211.34	200.000
211.71	-750.000
212.09	-66.667
212.46	-130.000
212.84	33.333
213.22	125.000
213.59	-700.000
213.97	-100.000
214.34	-500.000
214.72	30.769
215.09	87.500
215.47	122.222
215.84	350.000
216.22	-37.500
216.59	200.000
216.97	166.667
217.34	-22.222
217.72	0.000
218.09	200.000
218.47	0.000
218.84	-71.429
219.22	50.000
219.59	-233.333
219.97	-25.000
220.34	87.500
220.72	160.000
221.09	0.000
221.47	-16.667
221.84	500.000
222.22	0.000
222.59	800.000
222.97	66.667
223.34	-16.667
223.72	-1200.000
224.09	-450.000
224.46	45.455
224.84	100.000
225.21	14.286
225.59	-150.000
225.96	166.667
226.34	110.000
226.71	-42.857
227.08	300.000
227.46	-50.000
227.83	1100.000
228.21	-37.500
228.58	0.000
228.95	5.882
229.33	56.250
229.70	37.500
230.08	53.846
230.45	-37.500
230.82	-41.667
231.20	114.286
231.57	-250.000
231.95	600.000
232.32	83.333
232.69	41.176
233.07	-1100.000
233.44	-4.348
233.81	-400.000
234.19	58.333
234.56	-20.000
234.93	-40.000
235.31	31.579
235.68	-92.308
236.05	69.231
236.43	44.444
236.80	9.091
237.17	-73.333
237.55	-52.941
237.92	-17.241
238.29	-25.926
238.67	2.778
239.04	-16.129
239.41	10.638
239.79	17.021
240.16	13.953
240.53	25.000
240.91	32.143
241.28	23.214
241.65	9.677
242.02	13.158
242.40	24.638
242.77	2.899
243.14	6.410
243.51	7.447
243.89	2.885
244.26	20.755
244.63	2.885
245.00	16.667
245.38	8.403
245.75	4.918
246.12	10.526
246.49	-6.504
246.87	5.042
247.24	10.135
247.61	9.272
247.98	12.179
248.36	13.609
248.73	2.809
249.10	7.576
249.47	8.065
249.84	6.316
250.22	10.448
250.59	7.477
250.96	7.727
251.33	1.914
251.70	7.950
252.08	7.531
252.45	6.173
252.82	11.027
253.19	6.615
253.56	7.554
253.94	10.676
254.31	5.634
254.68	8.054
255.05	10.891
255.42	8.042
255.79	9.509
256.16	10.410
256.54	8.254
256.91	4.114
257.28	7.547
257.65	3.822
258.02	6.452
258.39	6.140
258.76	4.651
259.14	5.966
259.51	8.146
259.88	8.943
260.25	8.889
260.62	6.180
260.99	9.019
261.36	8.549
261.73	6.667
262.10	6.361
262.47	6.914
262.85	7.214
263.22	6.154
263.59	7.273
263.96	6.083
264.33	6.971
264.70	9.535
265.07	6.944
265.44	10.115
265.81	6.865
266.18	6.606
266.55	5.022
266.92	6.356
267.29	5.350
267.66	8.917
268.03	8.025
268.40	5.085
268.77	7.645
269.14	7.143
269.51	9.446
269.88	6.314
270.25	8.051
270.62	6.148
270.99	6.693
271.36	7.937
271.73	8.835
272.10	8.381
272.47	6.526
272.84	5.906
273.21	6.458
273.58	6.967
273.95	6.415
274.32	7.090
274.69	7.650
275.06	8.127
275.43	8.098
275.80	5.851
276.17	5.893
276.54	6.927
276.91	7.143
277.28	5.415
277.65	6.469
278.02	8.036
278.39	6.572
278.76	7.191
279.13	6.690
279.50	5.000
279.87	8.514
280.23	6.126
280.60	5.363
280.97	6.656
281.34	8.675
281.71	6.016
282.08	6.325
282.45	8.197
282.82	7.827
283.19	8.232
283.56	7.813
283.92	6.575
284.29	7.644
284.66	5.272
285.03	6.026
285.40	8.006
285.77	7.357
286.14	6.839
286.51	7.946
286.87	6.154
287.24	5.162
287.61	6.175
287.98	8.235
288.35	5.663
288.72	6.887
289.08	8.405
289.45	5.874
289.82	7.867
290.19	7.574
290.56	5.966
290.93	5.525
291.29	6.430
291.66	5.601
292.03	7.084
292.40	7.268
292.77	6.827
293.13	6.137
293.50	6.797
293.87	6.667
294.24	6.481
294.60	5.982
294.97	7.143
295.34	5.409
295.71	5.388
296.08	4.974
296.44	5.485
296.81	5.359
297.18	6.250
297.55	6.486
297.91	7.081
298.28	6.053
298.65	4.433
299.02	6.838
299.38	5.767
299.75	5.889
300.12	5.233
300.48	6.199
300.85	5.312
301.22	6.388
301.59	3.991
301.95	4.762
302.32	6.301
302.69	4.181
303.05	5.094
303.42	5.909
303.79	5.889
304.15	4.600
304.52	5.591
304.89	4.873
305.25	4.610
305.62	5.748
305.99	5.005
306.35	7.941
306.72	6.714
307.09	6.986
307.45	5.964
307.82	5.368
308.19	5.747
308.55	4.606
308.92	7.662
309.29	6.406
309.65	5.994
310.02	5.964
310.38	6.402
310.75	6.312
311.12	7.483
311.48	6.528
311.85	5.610
312.22	7.930
312.58	5.121
312.95	6.269
313.31	7.163
313.68	7.156
314.05	7.278
314.41	7.205
314.78	7.211
315.14	6.852
315.51	7.897
315.87	8.990
316.24	8.264
316.61	8.584
316.97	8.056
317.34	8.021
317.70	8.921
318.07	11.003
318.43	9.756
318.80	9.250
319.16	8.930
319.53	10.484
319.89	10.388
320.26	12.015
320.62	10.843
320.99	10.756
321.35	11.132
321.72	11.742
322.08	13.469
322.45	13.784
322.81	14.603
323.18	14.132
323.54	15.614
323.91	15.086
324.27	15.482
324.64	15.418
325.00	14.873
325.37	17.406
325.73	17.424
326.10	15.896
326.46	16.722
326.83	17.476
327.19	18.618
327.56	19.098
327.92	18.745
328.29	20.367
328.65	20.508
329.01	20.053
329.38	21.130
329.74	20.687
330.11	20.198
330.47	19.705
330.84	21.841
331.20	20.410
331.56	21.467
331.93	23.859
332.29	22.937
332.66	23.559
333.02	23.458
333.38	23.158
333.75	24.147
334.11	24.740
334.48	24.237
334.84	23.587
335.20	25.300
335.57	24.195
335.93	23.368
336.29	24.168
336.66	24.957
337.02	25.391
337.38	24.108
337.75	24.892
338.11	24.594
338.47	22.945
338.84	24.485
339.20	24.603
339.56	25.341
339.93	26.102
340.29	25.790
340.65	25.834
341.02	25.042
341.38	26.098
341.74	24.034
342.11	24.360
342.47	24.603
342.83	24.673
343.20	24.873
343.56	25.184
343.92	25.264
344.28	26.623
344.65	25.061
345.01	25.747
345.37	26.398
345.73	26.307
346.10	25.522
346.46	25.691
346.82	25.682
347.19	25.712
347.55	25.687
347.91	24.864
348.27	24.448
348.63	25.801
349.00	25.629
349.36	25.667
349.72	26.914
350.08	25.897
350.45	26.782
350.81	26.291
351.17	26.867
351.53	25.530
351.89	26.450
352.26	25.483
352.62	26.434
352.98	26.837
353.34	25.443
353.70	26.090
354.07	26.118
354.43	26.983
354.79	26.282
355.15	26.941
355.51	26.424
355.87	26.271
356.24	27.448
356.60	26.661
356.96	27.859
357.32	27.554
357.68	27.196
358.04	27.075
358.40	26.899
358.77	27.676
359.13	27.704
359.49	27.933
359.85	27.293
360.21	28.065
360.57	27.833
360.93	26.480
361.29	28.571
361.66	27.942
362.02	28.095
362.38	27.917
362.74	27.411
363.10	28.127
363.46	27.161
363.82	27.938
364.18	28.426
364.54	27.279
364.90	27.317
365.26	26.752
365.62	29.332
365.98	27.544
366.35	29.220
366.71	28.531
367.07	27.569
367.43	28.432
367.79	28.700
368.15	28.973
368.51	28.411
368.87	28.890
369.23	28.897
369.59	28.471
369.95	29.390
370.31	28.731
370.67	28.675
371.03	30.512
371.39	29.454
371.75	30.500
372.11	30.057
372.47	29.200
372.83	30.444
373.19	29.209
373.55	29.697
373.91	30.198
374.27	29.530
374.63	29.872
374.99	30.014
375.35	29.521
375.71	30.163
376.07	30.775
376.42	31.818
376.78	31.440
377.14	31.322
377.50	30.704
377.86	30.544
378.22	31.416
378.58	31.274
378.94	31.125
379.30	31.043
379.66	32.182
380.02	30.821
380.38	32.169
380.74	31.978
381.09	31.242
381.45	31.076
381.81	31.916
382.17	31.065
382.53	31.692
382.89	31.966
383.25	32.593
383.61	32.324
383.97	30.875
384.32	31.884
384.68	31.339
385.04	31.399
385.40	32.565
385.76	33.273
386.12	33.054
386.48	33.668
386.83	32.228
387.19	32.572
387.55	33.354
387.91	33.579
388.27	33.107
388.62	33.084
388.98	33.667
389.34	33.584
389.70	33.761
390.06	34.375
390.42	34.665
390.77	32.735
391.13	33.649
391.49	33.017
391.85	34.313
392.20	33.772
392.56	33.968
392.92	33.411
393.28	33.643
393.64	34.067
393.99	33.415
394.35	34.630
394.71	34.872
395.07	33.082
395.42	34.613
395.78	34.620
396.14	34.306
396.50	34.306
396.85	35.182
397.21	34.145
397.57	34.534
397.92	33.713
398.28	34.518
398.64	34.305
399.00	34.375
399.35	35.358
399.71	33.722
400.07	35.361
400.42	35.361
400.78	34.985
401.14	33.967
401.49	34.212
401.85	34.582
402.21	35.975
402.57	35.377
402.92	35.357
403.28	35.084
403.63	34.966
403.99	35.317
404.35	35.973
404.70	34.139
405.06	36.054
405.42	35.616
405.77	35.772
406.13	34.629
406.49	35.470
406.84	36.020
407.20	35.583
407.55	35.260
407.91	35.275
408.27	35.059
408.62	36.034
408.98	35.512
409.34	35.210
409.69	36.842
410.05	36.007
410.40	34.693
410.76	35.138
411.11	36.505
411.47	37.757
411.83	36.556
412.18	35.768
412.54	36.779
412.89	35.674
413.25	35.811
413.60	36.364
413.96	35.893
414.31	36.067
414.67	35.937
415.03	36.806
415.38	35.865
415.74	37.232
416.09	36.352
416.45	36.500
416.80	36.577
417.16	36.775
417.51	37.709
417.87	36.045
418.22	37.363
418.58	36.268
418.93	36.660
419.29	38.284
419.64	36.387
420.00	37.333
420.35	36.880
420.71	36.137
421.06	37.515
421.42	38.321
421.77	37.457
422.12	36.791
422.48	37.241
422.83	37.566
423.19	38.298
423.54	38.104
423.90	37.055
424.25	37.262
424.61	38.632
424.96	36.724
425.31	38.082
425.67	38.213
426.02	38.575
426.38	39.428
426.73	38.668
427.09	38.086
427.44	38.873
427.79	38.539
428.15	38.349
428.50	37.885
428.85	39.176
429.21	38.604
429.56	39.373
429.92	38.417
430.27	39.110
430.62	38.825
430.98	37.864
431.33	37.614
431.68	39.084
432.04	39.268
432.39	38.395
432.74	38.320
433.10	39.512
433.45	39.172
433.80	39.828
434.16	37.357
434.51	39.239
434.86	39.282
435.22	39.615
435.57	39.803
435.92	39.867
436.28	39.099
436.63	38.915
436.98	40.129
437.34	40.354
437.69	39.610
438.04	38.653
438.39	40.100
438.75	39.273
439.10	40.659
439.45	39.165
439.81	39.101
440.16	40.348
440.51	39.536
440.86	40.308
441.22	39.931
441.57	40.130
441.92	39.450
442.27	39.177
442.63	39.236
442.98	38.831
443.33	39.673
443.68	39.642
444.03	40.288
444.39	40.109
444.74	39.867
445.09	40.363
445.44	41.127
445.79	40.320
446.15	40.100
446.50	39.923
446.85	40.673
447.20	40.983
447.55	39.340
447.91	39.326
448.26	40.252
448.61	40.161
448.96	41.287
449.31	41.119
449.66	40.602
450.02	40.250
450.37	40.658
450.72	39.839
451.07	40.752
451.42	39.114
451.77	40.414
452.12	40.582
452.47	41.382
452.83	39.858
453.18	40.293
453.53	40.731
453.88	40.783
454.23	40.173
454.58	39.645
454.93	39.897
455.28	41.490
455.63	39.988
455.98	39.744
456.34	40.178
456.69	40.958
457.04	40.867
457.39	40.168
457.74	40.335
458.09	40.284
458.44	40.776
458.79	39.374
459.14	38.989
459.49	40.366
459.84	40.417
460.19	39.796
460.54	40.998
460.89	40.315
461.24	39.704
461.59	41.184
461.94	39.570
462.29	40.380
462.64	41.029
462.99	41.113
463.34	40.401
463.69	40.786
464.04	39.976
464.39	40.024
464.74	39.373
465.09	40.050
465.44	39.057
465.79	40.828
466.14	40.023
466.49	40.704
466.84	39.809
467.19	39.682
467.54	40.959
467.89	39.975
468.24	39.582
468.59	38.942
468.94	40.038
469.29	39.524
469.64	39.052
469.99	40.759
470.34	39.447
470.68	40.223
471.03	39.986
471.38	40.195
471.73	39.575
472.08	40.412
472.43	40.963
472.78	40.500
473.13	38.127
473.48	39.400
473.83	38.606
474.17	40.104
474.52	40.647
474.87	39.566
475.22	39.674
475.57	38.371
475.92	39.149
476.27	39.860
476.61	39.807
476.96	39.920
477.31	38.727
477.66	41.299
478.01	39.066
478.36	39.891
478.70	39.796
479.05	39.234
479.40	38.898
479.75	39.745
480.10	39.419
480.45	38.843
480.79	38.925
481.14	39.868
481.49	39.171
481.84	38.973
482.19	38.351
482.53	39.095
482.88	39.214
483.23	39.124
483.58	39.272
483.92	39.494
484.27	38.289
484.62	38.260
484.97	38.490
485.31	38.316
485.66	37.798
486.01	37.951
486.36	37.545
486.70	37.853
487.05	38.424
487.40	38.255
487.75	38.386
488.09	38.380
488.44	39.292
488.79	38.910
489.13	39.364
489.48	39.034
489.83	39.303
490.17	39.174
490.52	39.504
490.87	38.433
491.22	38.625
491.56	38.764
491.91	38.646
492.26	38.540
492.60	38.672
492.95	38.435
493.30	37.548
493.64	38.129
493.99	37.971
494.34	39.499
494.68	38.091
495.03	38.340
495.37	38.637
495.72	38.596
496.07	38.724
496.41	37.670
496.76	38.940
497.11	38.404
497.45	37.451
497.80	38.566
498.14	38.338
498.49	37.771
498.84	39.069
499.18	38.128
499.53	38.060
499.87	37.700
500.22	38.477
500.56	38.014
500.91	38.078
501.26	38.128
501.60	37.892
501.95	37.949
502.29	37.670
502.64	38.428
502.98	37.861
503.33	38.297
503.67	37.390
504.02	38.431
504.36	38.039
504.71	38.008
505.06	38.309
505.40	38.041
505.75	38.962
506.09	37.506
506.44	38.206
506.78	38.243
507.13	37.838
507.47	37.487
507.82	36.892
508.16	38.364
508.51	36.983
508.85	37.532
509.19	36.878
509.54	38.552
509.88	38.118
510.23	37.421
510.57	38.718
510.92	37.931
511.26	38.119
511.61	37.761
511.95	36.880
512.30	36.813
512.64	38.536
512.98	37.618
513.33	38.479
513.67	37.649
514.02	38.027
514.36	38.652
514.70	38.972
515.05	37.624
515.39	37.972
515.74	37.537
516.08	38.289
516.42	37.212
516.77	38.489
517.11	37.860
517.46	38.175
517.80	39.709
518.14	37.906
518.49	37.312
518.83	37.888
519.17	37.711
519.52	38.540
519.86	38.312
520.20	37.720
520.55	38.371
520.89	38.077
521.23	39.744
521.58	38.875
521.92	38.215
522.26	37.801
522.61	39.237
522.95	38.342
523.29	39.175
523.64	38.907
523.98	37.548
524.32	37.492
524.66	38.247
525.01	39.581
525.35	37.788
525.69	39.032
526.04	36.808
526.38	38.305
526.72	38.462
527.06	37.073
527.41	38.584
527.75	38.919
528.09	38.870
528.43	38.874
528.78	38.307
529.12	39.263
529.46	37.940
529.80	38.317
530.15	38.353
530.49	38.949
530.83	38.863
531.17	38.630
531.51	37.492
531.86	37.060
532.20	38.112
532.54	38.966
532.88	39.278
533.22	38.721
533.57	38.146
533.91	38.194
534.25	39.518
534.59	39.125
534.93	38.393
535.27	39.363
535.62	38.553
535.96	38.647
536.30	38.098
536.64	37.321
536.98	37.631
537.32	38.505
537.66	39.351
538.01	38.627
538.35	38.536
538.69	36.923
539.03	36.242
539.37	37.492
539.71	38.540
540.05	37.719
540.39	38.128
540.73	38.966
541.07	38.231
541.42	38.249
541.76	37.821
542.10	36.764
542.44	37.561
542.78	38.515
543.12	37.601
543.46	37.388
543.80	37.135
544.14	38.266
544.48	37.027
544.82	38.265
545.16	37.390
545.50	38.420
545.84	37.588
546.18	38.079
546.52	38.250
546.86	37.668
547.20	37.241
547.54	37.455
547.88	38.327
548.22	37.394
548.56	36.424
548.90	38.295
549.24	37.292
549.58	37.153
549.92	38.225
550.26	39.557
550.60	38.213
550.94	37.313
551.28	36.942
551.62	37.218
551.96	38.287
552.30	36.390
552.64	36.653
552.98	38.068
553.32	38.717
553.66	39.178
554.00	36.789
554.34	37.143
554.68	37.360
555.02	38.398
555.36	38.200
555.69	37.582
556.03	37.098
556.37	37.198
556.71	35.950
557.05	37.638
557.39	36.624
557.73	37.670
558.07	38.885
558.41	38.002
558.75	36.952
559.08	37.289
559.42	37.136
559.76	37.156
560.10	38.893
560.44	38.172
560.78	36.115
561.12	36.790
561.45	36.599
561.79	36.795
562.13	36.639
562.47	38.786
562.81	36.580
563.15	35.623
563.48	35.994
563.82	38.440
564.16	36.087
564.50	36.296
564.84	36.149
565.17	37.086
565.51	35.695
565.85	35.310
566.19	36.424
566.52	36.435
566.86	36.157
567.20	36.897
567.54	35.348
567.88	34.155
568.21	35.633
568.55	35.263
568.89	35.145
569.23	34.372
569.56	34.335
569.90	34.816
570.24	33.069
570.57	33.333
570.91	33.622
571.25	33.408
571.59	33.945
571.92	34.028
572.26	33.502
572.60	34.093
572.93	33.208
573.27	33.222
573.61	33.429
573.95	33.421
574.28	33.333
574.62	32.930
574.96	32.923
575.29	32.949
575.63	33.166
575.97	33.859
576.30	32.985
576.64	33.560
576.98	33.451
577.31	32.767
577.65	32.560
577.98	32.651
578.32	32.223
578.66	33.067
578.99	32.793
579.33	32.859
579.67	32.714
580.00	32.199
580.34	32.598
580.67	33.121
581.01	32.183
581.35	32.645
581.68	32.519
582.02	32.378
582.35	32.617
582.69	33.082
583.02	31.723
583.36	32.674
583.70	32.897
584.03	33.163
584.37	32.760
584.70	32.011
585.04	32.699
585.37	32.418
585.71	32.682
586.04	32.957
586.38	32.360
586.72	32.790
587.05	32.741
587.39	32.202
587.72	32.686
588.06	32.503
588.39	31.738
588.73	32.702
589.06	32.234
589.40	32.577
589.73	32.483
590.07	32.629
590.40	32.942
590.73	33.063
591.07	32.762
591.40	33.174
591.74	33.037
592.07	33.546
592.41	32.604
592.74	32.137
593.08	32.068
593.41	31.407
593.75	31.654
594.08	32.124
594.41	31.993
594.75	32.046
595.08	32.972
595.42	32.069
595.75	31.960
596.09	32.294
596.42	32.271
596.75	32.427
597.09	33.621
597.42	33.423
597.75	32.133
598.09	33.060
598.42	32.975
598.76	31.990
599.09	32.773
599.42	31.647
599.76	31.956
600.09	32.041
600.42	32.354
600.76	31.449
601.09	31.902
601.42	31.282
601.76	32.162
602.09	32.428
602.42	32.398
602.76	32.215
603.09	32.649
603.42	32.107
603.76	30.904
604.09	32.095
604.42	31.101
604.76	32.693
605.09	31.717
605.42	32.614
605.75	32.591
606.09	31.498
606.42	31.837
606.75	31.255
607.09	32.181
607.42	32.005
607.75	31.379
608.08	31.921
608.42	31.537
608.75	32.441
609.08	30.818
609.41	32.091
609.75	31.467
610.08	32.051
610.41	32.847
610.74	32.002
611.07	32.064
611.41	32.958
611.74	31.884
612.07	31.527
612.40	32.541
612.73	32.272
613.07	32.539
613.40	32.434
613.73	32.611
614.06	31.122
614.39	31.462
614.72	32.982
615.06	31.778
615.39	32.506
615.72	31.425
616.05	30.912
616.38	31.787
616.71	31.134
617.05	32.371
617.38	30.807
617.71	31.495
618.04	31.383
618.37	32.303
618.70	32.794
619.03	31.684
619.36	31.957
619.69	31.944
620.03	31.731
620.36	31.594
620.69	30.621
621.02	32.231
621.35	32.379
621.68	31.296
622.01	33.172
622.34	32.276
622.67	31.872
623.00	31.611
623.33	32.012
623.66	31.450
623.99	32.558
624.32	31.915
624.65	32.789
624.99	31.374
625.32	32.711
625.65	32.481
625.98	32.227
626.31	31.837
626.64	31.470
626.97	32.180
627.30	32.849
627.63	31.055
627.96	32.121
628.29	33.023
628.62	33.462
628.95	32.665
629.28	32.118
629.61	31.866
629.94	33.559
630.26	33.103
630.59	32.368
630.92	31.928
631.25	32.029
631.58	34.154
631.91	31.283
632.24	32.162
632.57	33.333
632.90	33.489
633.23	32.254
633.56	33.933
633.89	33.852
634.22	34.040
634.55	35.688
634.88	32.721
635.20	31.750
635.53	33.333
635.86	32.949
636.19	32.630
636.52	31.829
636.85	32.328
637.18	30.207
637.51	31.835
637.83	32.768
638.16	33.200
638.49	32.043
638.82	33.987
639.15	32.580
639.48	32.754
639.81	32.778
640.13	32.676
640.46	33.192
640.79	33.381
641.12	32.544
641.45	32.460
641.77	33.726
642.10	32.526
642.43	35.063
642.76	33.754
643.09	31.470
643.41	34.609
643.74	32.633
644.07	33.657
644.40	34.992
644.73	31.864
645.05	31.239
645.38	32.890
645.71	33.503
646.04	32.997
646.36	33.333
646.69	34.790
647.02	32.058
647.35	35.832
647.67	33.641
648.00	31.884
648.33	34.915
648.66	32.053
648.98	31.988
649.31	32.055
649.64	31.455
649.96	32.859
650.29	31.373
650.62	31.960
650.94	31.379
651.27	33.392
651.60	33.566
651.92	35.305
652.25	35.008
652.58	32.013
652.90	32.997
653.23	30.730
653.56	32.231
653.88	29.863
654.21	32.935
654.54	31.728
654.86	34.146
655.19	29.552
655.52	29.529
655.84	26.656
656.17	32.010
656.49	42.857
656.82	42.485
657.15	32.318
657.47	23.935
657.80	17.889
658.13	19.226
658.45	28.247
658.78	29.221
659.10	28.219
659.43	29.410
659.75	29.487
660.08	31.241
660.41	29.412
660.73	31.680
661.06	32.143
661.38	30.814
661.71	32.377
662.03	33.827
662.36	31.195
662.68	33.978
663.01	35.805
663.33	31.102
663.66	33.038
663.98	35.506
664.31	33.626
664.63	30.856
664.96	34.354
665.28	33.476
665.61	32.397
665.93	34.475
666.26	35.443
666.58	32.334
666.91	34.081
667.23	33.410
667.56	32.644
667.88	32.009
668.21	34.152
668.53	29.885
668.86	31.655
669.18	34.752
669.50	33.871
669.83	34.845
670.15	30.714
670.48	34.253
670.80	35.667
671.13	32.037
671.45	29.909
671.77	32.328
672.10	32.359
672.42	31.298
672.75	31.071
673.07	30.727
673.39	32.276
673.72	30.739
674.04	30.533
674.37	31.707
674.69	29.218
675.01	32.692
675.34	33.479
675.66	30.719
675.98	29.646
676.31	33.484
676.63	33.560
676.95	31.529
677.28	31.422
677.60	31.863
677.92	34.590
678.25	33.406
678.57	33.605
678.89	29.851
679.22	32.298
679.54	29.388
679.86	31.836
680.18	31.346
680.51	33.077
680.83	29.435
681.15	31.631
681.48	32.265
681.80	30.879
682.12	31.042
682.44	29.779
682.77	28.000
683.09	29.241
683.41	34.651
683.73	29.018
684.06	32.743
684.38	29.915
684.70	31.772
685.02	30.579
685.34	31.703
685.67	29.456
685.99	29.715
686.31	29.310
686.63	30.147
686.96	30.427
687.28	28.343
687.60	35.539
687.92	29.961
688.24	29.000
688.56	33.553
688.89	29.399
689.21	29.821
689.53	30.405
689.85	32.135
690.17	29.890
690.49	28.744
690.82	30.788
691.14	31.159
691.46	28.538
691.78	30.769
692.10	29.087
692.42	26.374
692.74	32.174
693.06	27.640
693.39	29.274
693.71	31.556
694.03	33.182
694.35	33.559
694.67	36.000
694.99	33.247
695.31	30.233
695.63	32.683
695.95	27.481
696.27	27.123
696.59	29.839
696.91	30.447
697.23	30.457
697.56	32.854
697.88	32.848
698.20	30.022
698.52	29.439
698.84	28.469
699.16	30.496
699.48	29.630
699.80	33.850
700.12	30.563
700.44	29.296
700.76	30.337
701.08	33.233
701.40	31.737
701.72	31.385
702.04	26.101
702.36	34.756
702.68	30.793
703.00	31.579
703.32	28.412
703.64	29.518
703.96	31.965
704.28	29.518
704.60	30.793
704.91	28.527
705.23	34.494
705.55	31.034
705.87	26.761
706.19	29.670
706.51	33.803
706.83	27.070
707.15	28.963
707.47	30.854
707.79	29.188
708.11	27.249
708.43	30.711
708.74	30.053
709.06	30.214
709.38	29.395
709.70	35.135
710.02	30.841
710.34	29.333
710.66	26.384
710.98	26.625
711.29	30.519
711.61	29.677
711.93	31.935
712.25	26.224
712.57	27.368
712.89	29.670
713.20	30.851
713.52	28.832
713.84	29.355
714.16	31.715
714.48	29.747
714.80	25.559
715.11	33.140
715.43	26.708
715.75	30.435
716.07	28.012
716.39	27.273
716.70	33.453
717.02	24.706
717.34	36.364
717.66	30.603
717.97	23.810
718.29	34.646
718.61	30.472
718.93	30.620
719.24	30.258
719.56	26.217
719.88	29.851
720.20	32.016
720.51	32.422
720.83	35.409
721.15	26.016
721.46	28.244
721.78	28.685
722.10	29.482
722.42	29.032
722.73	33.591
723.05	31.429
723.37	27.311
723.68	32.000
724.00	28.511
724.32	31.799
724.63	30.041
724.95	31.197
725.27	32.489
725.58	31.687
725.90	35.565
726.22	26.812
726.53	27.451
726.85	31.387
727.16	28.889
727.48	30.651
727.80	32.812
728.11	26.639
728.43	26.953
728.74	30.556
729.06	29.600
729.38	30.040
729.69	30.605
730.01	28.253
730.32	27.675
730.64	25.000
730.96	29.021
731.27	24.749
731.59	29.206
731.90	27.184
732.22	27.564
732.53	24.662
732.85	27.181
733.16	29.703
733.48	28.041
733.80	28.378
734.11	29.054
734.43	31.269
734.74	29.429
735.06	27.089
735.37	25.228
735.69	30.744
736.00	27.723
736.32	28.723
736.63	30.690
736.95	26.370
737.26	24.828
737.58	28.472
737.89	25.086
738.21	28.114
738.52	24.335
738.83	30.204
739.15	32.911
739.46	29.961
739.78	23.944
740.09	26.027
740.41	26.429
740.72	26.596
741.04	24.000
741.35	28.509
741.66	30.667
741.98	28.846
742.29	30.198
742.61	25.366
742.92	33.333
743.23	27.830
743.55	31.081
743.86	26.009
744.18	25.490
744.49	32.487
744.80	31.122
745.12	27.103
745.43	29.384
745.74	36.036
746.06	28.505
746.37	23.853
746.68	26.923
747.00	31.100
747.31	34.135
747.62	30.275
747.94	31.004
748.25	26.606
748.56	32.889
748.88	31.925
749.19	31.905
749.50	27.184
749.82	28.169
750.13	26.250
750.44	25.769
750.75	23.616
751.07	28.826
751.38	24.823
751.69	24.324
752.01	28.125
752.32	27.308
752.63	27.612
752.94	29.600
753.26	26.360
753.57	26.250
753.88	26.721
754.19	29.084
754.51	22.556
754.82	24.908
755.13	23.478
755.44	24.390
755.75	24.400
756.07	28.044
756.38	28.058
756.69	26.962
757.00	27.414
757.31	26.214
757.63	20.679
757.94	26.271
758.25	24.603
758.56	24.457
758.87	25.893
759.18	29.022
759.50	23.232
759.81	27.759
760.12	26.462
760.43	24.405
760.74	25.989
761.05	24.309
761.36	24.069
761.67	23.867
761.99	25.086
762.30	25.912
762.61	28.395
762.92	31.197
763.23	25.410
763.54	28.571
763.85	27.755
764.16	22.358
764.47	26.000
764.78	26.071
765.10	28.852
765.41	24.012
765.72	21.739
766.03	24.422
766.34	27.308
766.65	23.431
766.96	20.657
767.27	23.762
767.58	19.663
767.89	29.630
768.20	19.337
768.51	32.161
768.82	27.404
769.13	22.566
769.44	26.778
769.75	20.513
770.06	24.215
770.37	31.863
770.68	29.126
770.99	23.301
771.30	26.050
771.61	24.082
771.92	29.046
772.23	27.928
772.54	21.547
772.85	22.674
773.16	30.159
773.47	23.077
773.78	29.310
774.09	28.750
774.39	21.739
774.70	26.531
775.01	20.000
775.32	27.857
775.63	23.308
775.94	29.323
776.25	12.800
776.56	20.661
776.87	26.984
777.18	27.928
777.48	21.622
777.79	28.346
778.10	22.018
778.41	18.421
778.72	18.487
779.03	19.014
779.34	30.405
779.65	25.352
779.95	25.828
780.26	18.705
780.57	27.338
780.88	28.873
781.19	23.529
781.50	26.174
781.80	26.316
782.11	21.512
782.42	27.673
782.73	30.065
783.04	22.069
783.34	23.664
783.65	20.805
783.96	23.846
784.27	25.000
784.57	27.660
784.88	16.346
785.19	35.455
785.50	28.182
785.81	23.810
786.11	17.647
786.42	30.088
786.73	22.642
787.04	18.349
787.34	23.762
787.65	18.333
787.96	22.314
788.26	29.710
788.57	20.635
788.88	23.577
789.19	25.600
789.49	25.191
789.80	29.545
790.11	18.868
790.41	31.683
790.72	22.340
791.03	13.043
791.33	14.118
791.64	27.160
791.95	33.696
792.25	28.409
792.56	34.615
792.87	25.641
793.17	14.103
793.48	25.000
793.79	25.000
794.09	28.846
794.40	30.208
794.70	31.532
795.01	19.531
795.32	24.348
795.62	10.870
795.93	26.415
796.23	26.263
796.54	18.293
796.85	39.286
797.15	16.667
797.46	31.884
797.76	28.947
798.07	17.045
798.37	24.390
798.68	29.032
798.99	18.919
799.29	24.096
799.60	21.795
799.90	41.538
800.21	16.667
800.51	26.667
800.82	29.333
801.12	8.333
801.43	3.333
801.73	25.676
802.04	27.143
802.34	22.951
802.65	22.388
802.95	29.091
803.26	25.862
803.56	26.154
803.87	33.962
804.17	12.903
804.48	26.471
804.78	31.707
805.09	33.333
805.39	23.529
805.70	12.766
806.00	17.544
806.30	32.051
806.61	35.526
806.91	25.676
807.22	26.316
807.52	34.091
807.83	8.475
808.13	0.000
808.43	23.333
808.74	12.069
809.04	19.048
809.35	4.082
809.65	25.000
809.95	24.490
810.26	39.437
810.56	25.000
810.86	28.571
811.17	34.615
811.47	19.149
811.77	22.917
812.08	33.962
812.38	34.375
812.69	32.727
812.99	21.951
813.29	29.730
813.59	2.703
813.90	1.818
814.20	-1.818
814.50	16.667
814.81	30.909
815.11	47.368
815.41	39.535
815.72	22.500
816.02	51.429
816.32	16.216
816.62	22.917
816.93	24.444
817.23	15.556
817.53	11.111
817.84	24.324
818.14	48.780
818.44	10.000
818.74	24.490
819.04	41.463
819.35	38.889
819.65	25.000
819.95	22.222
820.25	9.091
820.56	9.524
820.86	19.444
821.16	13.636
821.46	23.913
821.76	3.448
822.07	32.609
822.37	33.333
822.67	46.341
822.97	45.946
823.27	-5.714
823.57	20.690
823.88	38.235
824.18	13.889
824.48	45.714
824.78	23.810
825.08	32.143
825.38	18.519
825.69	54.839
825.99	24.390
826.29	48.148
826.59	-3.125
826.89	41.935
827.19	-30.435
827.49	-5.556
827.79	-8.696
828.09	29.032
828.39	18.750
828.70	-15.625
829.00	20.690
829.30	27.027
829.60	8.333
829.90	25.926
830.20	12.500
830.50	50.000
830.80	-11.765
831.10	27.273
831.40	-5.882
831.70	15.385
832.00	42.424
832.30	2.941
832.60	10.811
832.90	-1000.000
833.20	46.429
833.50	-35.000
833.80	31.579
834.10	-4.167
834.40	13.636
834.70	13.333
835.00	160.000
835.30	41.667
835.60	23.810
835.90	38.095
836.20	20.000
836.50	29.167
836.80	10.526
837.10	40.541
837.40	46.667
837.70	0.000
838.00	66.667
838.30	26.316
838.60	-50.000
838.90	20.000
839.19	25.000
839.49	-15.385
839.79	73.684
840.09	33.333
840.39	-30.000
840.69	50.000
840.99	28.571
841.29	8.333
841.59	-107.692
841.88	-86.667
842.18	21.429
842.48	56.667
842.78	0.000
843.08	-35.714
843.38	37.500
843.68	-6.250
843.97	50.000
844.27	-55.556
844.57	-36.364
844.87	-73.333
845.17	45.455
845.47	500.000
845.76	53.333
846.06	-8.333
846.36	-50.000
846.66	-36.842
846.96	27.273
847.25	-38.889
847.55	-55.556
847.85	-52.381
848.15	15.385
848.44	-50.000
848.74	58.333
849.04	23.077
849.34	100.000
849.63	-54.545
849.93	-21.429
850.23	50.000
850.53	87.500
850.82	66.667
851.12	0.000
851.42	17.647
851.71	25.000
852.01	47.059
852.31	-23.077
852.61	100.000
852.90	94.118
853.20	40.000
853.50	25.000
853.79	-50.000
854.09	-250.000
854.39	10.000
854.68	7.500
854.98	23.810
855.28	28.000
855.57	20.833
855.87	-12.500
856.17	-12.000
856.46	6.250
856.76	40.000
857.05	40.000
857.35	0.000
857.65	29.412
857.94	-66.667
858.24	25.000
858.53	40.000
858.83	-54.545
859.13	16.000
859.42	7.143
859.72	-25.000
860.01	33.333
860.31	-37.500
860.60	-31.250
860.90	-116.667
861.20	16.667
861.49	33.333
861.79	6.250
862.08	150.000
862.38	-50.000
862.67	100.000
862.97	75.000
863.26	0.000
863.56	45.455
863.85	68.421
864.15	52.941
864.44	-160.000
864.74	-50.000
865.03	-44.444
865.33	50.000
865.62	135.714
865.92	36.842
866.21	-38.889
866.51	63.636
866.80	44.444
867.10	-75.000
867.39	0.000
867.69	6.667
867.98	30.000
868.27	111.765
868.57	0.000
868.86	650.000
869.16	-75.000
869.45	-85.714
869.75	-0.000
870.04	70.000
870.33	-1100.000
870.63	47.368
870.92	-66.667
871.22	-800.000
871.51	-42.857
871.80	11.111
872.10	0.000
>>>>>End Processed Spectral Data<<<<<
