SpectraSuite Data File
++++++++++++++++++++++++++++++++++++
Date: Wed May 13 20:40:14 PDT 2015
User: schluterlab
Dark Spectrum Present: Yes
Reference Spectrum Present: Yes
Number of Sampled Component Spectra: 1
Spectrometers: USB2E3373
Integration Time (usec): 3000 (USB2E3373)
Spectra Averaged: 3 (USB2E3373)
Boxcar Smoothing: 0 (USB2E3373)
Correct for Electrical Dark: No (USB2E3373)
Strobe/Lamp Enabled: No (USB2E3373)
Correct for Detector Non-linearity: No (USB2E3373)
Correct for Stray Light: No (USB2E3373)
Number of Pixels in Processed Spectrum: 2048
>>>>>Begin Processed Spectral Data<<<<<
178.53	0.000
178.91	-950.000
179.29	-875.000
179.67	-116.667
180.04	-1000.000
180.42	1850.000
180.80	760.000
181.18	-625.000
181.56	500.000
181.94	0.000
182.31	-457.143
182.69	1066.667
183.07	-400.000
183.45	-344.444
183.83	454.545
184.20	-280.000
184.58	1650.000
184.96	3500.000
185.34	-600.000
185.72	-525.000
186.09	-1550.000
186.47	1950.000
186.85	1550.000
187.23	3300.000
187.61	-1200.000
187.98	1225.000
188.36	400.000
188.74	354.545
189.12	-540.000
189.49	470.000
189.87	-3500.000
190.25	-875.000
190.63	257.143
191.00	346.154
191.38	683.333
191.76	-1025.000
192.14	1200.000
192.51	500.000
192.89	700.000
193.27	362.500
193.65	-650.000
194.02	330.000
194.40	660.000
194.78	390.000
195.15	400.000
195.53	490.000
195.91	-1550.000
196.29	237.500
196.66	268.421
197.04	-250.000
197.42	0.000
197.79	450.000
198.17	-3300.000
198.55	342.857
198.92	412.500
199.30	480.000
199.68	0.000
200.05	283.333
200.43	714.286
200.81	2200.000
201.18	1466.667
201.56	-1300.000
201.94	355.556
202.31	366.667
202.69	333.333
203.07	360.000
203.44	0.000
203.82	725.000
204.19	600.000
204.57	357.143
204.95	437.500
205.32	1100.000
205.70	390.909
206.08	292.857
206.45	1900.000
206.83	281.250
207.20	783.333
207.58	500.000
207.96	205.556
208.33	375.000
208.71	-600.000
209.08	628.571
209.46	433.333
209.84	390.909
210.21	-1133.333
210.59	1075.000
210.96	-275.000
211.34	1300.000
211.71	390.000
212.09	550.000
212.46	0.000
212.84	1233.333
213.22	825.000
213.59	-3100.000
213.97	516.667
214.34	557.143
214.72	400.000
215.09	780.000
215.47	-1650.000
215.84	-1550.000
216.22	1033.333
216.59	278.571
216.97	825.000
217.34	372.727
217.72	-550.000
218.09	0.000
218.47	-3100.000
218.84	400.000
219.22	600.000
219.59	1266.667
219.97	-428.571
220.34	620.000
220.72	-1366.667
221.09	328.571
221.47	1250.000
221.84	-600.000
222.22	0.000
222.59	925.000
222.97	-2300.000
223.34	960.000
223.72	246.154
224.09	700.000
224.46	1000.000
224.84	-3200.000
225.21	-520.000
225.59	-2900.000
225.96	450.000
226.34	215.000
226.71	1850.000
227.08	500.000
227.46	400.000
227.83	-575.000
228.21	-1800.000
228.58	400.000
228.95	-1450.000
229.33	-1700.000
229.70	1266.667
230.08	542.857
230.45	-360.000
230.82	333.333
231.20	483.333
231.57	357.143
231.95	266.667
232.32	145.455
232.69	281.818
233.07	342.857
233.44	238.462
233.81	-866.667
234.19	205.263
234.56	341.667
234.93	300.000
235.31	236.364
235.68	276.923
236.05	250.000
236.43	109.091
236.80	136.842
237.17	3500.000
237.55	128.571
237.92	164.286
238.29	142.857
238.67	112.903
239.04	151.724
239.41	108.333
239.79	69.565
240.16	107.143
240.53	65.909
240.91	56.863
241.28	70.000
241.65	82.000
242.02	62.319
242.40	66.129
242.77	55.000
243.14	53.763
243.51	53.933
243.89	54.118
244.26	41.111
244.63	41.935
245.00	36.170
245.38	31.683
245.75	37.383
246.12	25.688
246.49	35.766
246.87	45.600
247.24	39.231
247.61	31.429
247.98	27.451
248.36	25.676
248.73	18.471
249.10	28.662
249.47	24.294
249.84	22.995
250.22	20.321
250.59	21.893
250.96	22.222
251.33	22.749
251.70	28.713
252.08	19.048
252.45	19.731
252.82	20.435
253.19	22.128
253.56	21.176
253.94	20.332
254.31	18.359
254.68	23.462
255.05	23.616
255.42	18.293
255.79	16.544
256.16	23.105
256.54	18.021
256.91	16.014
257.28	14.748
257.65	18.482
258.02	15.217
258.39	17.350
258.76	15.719
259.14	17.262
259.51	16.109
259.88	13.975
260.25	16.314
260.62	15.318
260.99	13.043
261.36	18.619
261.73	15.186
262.10	15.988
262.47	15.775
262.85	13.928
263.22	14.245
263.59	18.519
263.96	14.011
264.33	15.927
264.70	15.000
265.07	15.090
265.44	12.121
265.81	12.652
266.18	12.060
266.55	16.098
266.92	12.776
267.29	15.509
267.66	13.532
268.03	12.955
268.40	14.486
268.77	10.979
269.14	10.586
269.51	14.447
269.88	15.618
270.25	15.576
270.62	13.034
270.99	15.269
271.36	15.451
271.73	10.748
272.10	12.391
272.47	14.624
272.84	14.719
273.21	14.256
273.58	10.044
273.95	10.692
274.32	13.430
274.69	13.490
275.06	12.008
275.43	11.064
275.80	12.024
276.17	11.609
276.54	12.682
276.91	12.055
277.28	11.719
277.65	14.313
278.02	9.524
278.39	14.648
278.76	12.545
279.13	11.698
279.50	12.477
279.87	11.355
280.23	8.982
280.60	10.638
280.97	10.906
281.34	12.743
281.71	15.091
282.08	13.628
282.45	9.636
282.82	11.901
283.19	9.091
283.56	12.281
283.92	12.352
284.29	9.700
284.66	10.526
285.03	9.584
285.40	12.676
285.77	10.438
286.14	11.054
286.51	12.000
286.87	12.479
287.24	12.866
287.61	11.396
287.98	11.201
288.35	9.667
288.72	11.059
289.08	11.894
289.45	10.873
289.82	9.756
290.19	9.576
290.56	10.260
290.93	8.459
291.29	10.890
291.66	9.587
292.03	13.081
292.40	12.922
292.77	10.207
293.13	10.149
293.50	9.767
293.87	9.778
294.24	9.185
294.60	7.860
294.97	8.866
295.34	11.283
295.71	9.801
296.08	9.544
296.44	9.216
296.81	8.851
297.18	10.163
297.55	6.596
297.91	8.443
298.28	8.969
298.65	10.574
299.02	10.408
299.38	8.234
299.75	6.469
300.12	7.791
300.48	9.000
300.85	7.645
301.22	7.516
301.59	7.071
301.95	7.935
302.32	6.675
302.69	8.483
303.05	8.848
303.42	6.790
303.79	8.154
304.15	7.226
304.52	7.068
304.89	7.549
305.25	8.469
305.62	8.267
305.99	8.264
306.35	8.501
306.72	6.726
307.09	7.880
307.45	8.559
307.82	7.031
308.19	7.726
308.55	8.091
308.92	7.197
309.29	6.441
309.65	7.423
310.02	7.505
310.38	7.634
310.75	6.019
311.12	8.393
311.48	7.210
311.85	8.281
312.22	7.908
312.58	6.549
312.95	8.237
313.31	7.864
313.68	6.653
314.05	7.988
314.41	8.040
314.78	6.445
315.14	7.349
315.51	7.312
315.87	6.337
316.24	7.448
316.61	7.115
316.97	7.143
317.34	6.262
317.70	6.597
318.07	6.641
318.43	7.730
318.80	7.873
319.16	7.062
319.53	7.317
319.89	8.095
320.26	7.600
320.62	7.143
320.99	7.273
321.35	6.970
321.72	7.187
322.08	8.095
322.45	8.358
322.81	8.140
323.18	7.996
323.54	7.699
323.91	8.208
324.27	8.031
324.64	6.151
325.00	7.484
325.37	8.189
325.73	7.899
326.10	8.473
326.46	7.706
326.83	8.283
327.19	8.284
327.56	7.404
327.92	8.486
328.29	7.808
328.65	8.287
329.01	8.935
329.38	7.863
329.74	7.295
330.11	8.577
330.47	8.999
330.84	8.915
331.20	9.472
331.56	8.807
331.93	7.222
332.29	8.341
332.66	8.673
333.02	8.775
333.38	8.672
333.75	9.447
334.11	8.986
334.48	8.429
334.84	8.088
335.20	9.182
335.57	8.522
335.93	8.125
336.29	8.608
336.66	7.665
337.02	7.602
337.38	8.148
337.75	8.021
338.11	8.326
338.47	8.287
338.84	9.074
339.20	7.064
339.56	8.485
339.93	8.000
340.29	8.062
340.65	8.200
341.02	8.464
341.38	8.274
341.74	7.281
342.11	7.948
342.47	8.018
342.83	8.305
343.20	8.312
343.56	6.908
343.92	7.544
344.28	8.418
344.65	8.169
345.01	7.492
345.37	7.118
345.73	8.206
346.10	8.184
346.46	7.797
346.82	8.731
347.19	7.352
347.55	8.539
347.91	7.848
348.27	8.053
348.63	8.528
349.00	8.495
349.36	7.553
349.72	7.939
350.08	7.455
350.45	8.218
350.81	8.205
351.17	7.942
351.53	7.781
351.89	8.003
352.26	8.761
352.62	6.977
352.98	7.699
353.34	8.217
353.70	7.201
354.07	7.500
354.43	7.540
354.79	6.597
355.15	7.183
355.51	8.074
355.87	7.184
356.24	7.410
356.60	7.378
356.96	7.080
357.32	7.522
357.68	7.480
358.04	7.126
358.40	7.601
358.77	7.981
359.13	7.182
359.49	7.059
359.85	6.032
360.21	7.496
360.57	7.237
360.93	7.231
361.29	7.634
361.66	6.424
362.02	7.612
362.38	7.529
362.74	6.920
363.10	7.402
363.46	6.676
363.82	7.559
364.18	6.681
364.54	7.207
364.90	7.011
365.26	6.544
365.62	7.085
365.98	6.574
366.35	5.946
366.71	6.508
367.07	7.429
367.43	7.692
367.79	7.637
368.15	8.693
368.51	6.032
368.87	7.281
369.23	6.657
369.59	6.300
369.95	6.618
370.31	6.980
370.67	6.812
371.03	7.715
371.39	5.831
371.75	7.279
372.11	6.686
372.47	7.331
372.83	7.205
373.19	6.431
373.55	6.208
373.91	7.585
374.27	6.667
374.63	6.109
374.99	7.203
375.35	6.560
375.71	7.265
376.07	7.339
376.42	5.846
376.78	7.025
377.14	6.649
377.50	7.086
377.86	6.184
378.22	7.206
378.58	6.203
378.94	5.971
379.30	5.916
379.66	6.091
380.02	6.695
380.38	6.375
380.74	6.783
381.09	6.846
381.45	6.884
381.81	7.125
382.17	6.561
382.53	5.912
382.89	6.790
383.25	5.941
383.61	6.320
383.97	6.129
384.32	6.488
384.68	6.444
385.04	6.638
385.40	6.068
385.76	6.572
386.12	5.505
386.48	6.860
386.83	6.479
387.19	5.566
387.55	6.926
387.91	6.167
388.27	6.009
388.62	5.839
388.98	5.344
389.34	7.071
389.70	6.438
390.06	7.161
390.42	6.226
390.77	6.870
391.13	6.701
391.49	6.218
391.85	6.111
392.20	5.615
392.56	6.124
392.92	6.004
393.28	4.615
393.64	6.295
393.99	7.025
394.35	5.583
394.71	6.148
395.07	6.417
395.42	5.624
395.78	6.170
396.14	6.766
396.50	7.080
396.85	6.484
397.21	6.042
397.57	6.386
397.92	6.490
398.28	5.661
398.64	6.810
399.00	6.323
399.35	5.584
399.71	6.076
400.07	6.860
400.42	6.626
400.78	6.393
401.14	6.402
401.49	5.791
401.85	6.110
402.21	6.168
402.57	5.984
402.92	5.233
403.28	5.809
403.63	5.879
403.99	5.924
404.35	6.182
404.70	5.276
405.06	5.358
405.42	6.238
405.77	5.657
406.13	6.208
406.49	5.559
406.84	6.615
407.20	5.319
407.55	6.254
407.91	6.400
408.27	5.361
408.62	5.960
408.98	6.189
409.34	5.597
409.69	6.323
410.05	5.514
410.40	5.994
410.76	6.272
411.11	6.212
411.47	5.112
411.83	6.414
412.18	5.380
412.54	5.417
412.89	6.024
413.25	5.903
413.60	5.991
413.96	5.647
414.31	6.561
414.67	6.020
415.03	5.430
415.38	7.152
415.74	6.367
416.09	6.532
416.45	6.091
416.80	5.155
417.16	7.574
417.51	6.437
417.87	5.395
418.22	6.625
418.58	7.295
418.93	6.020
419.29	6.302
419.64	6.612
420.00	5.366
420.35	6.609
420.71	6.515
421.06	5.728
421.42	5.848
421.77	6.390
422.12	6.008
422.48	5.828
422.83	5.882
423.19	6.298
423.54	6.500
423.90	6.377
424.25	6.421
424.61	6.310
424.96	5.948
425.31	6.478
425.67	5.843
426.02	6.171
426.38	6.044
426.73	6.378
427.09	6.018
427.44	6.153
427.79	6.038
428.15	6.548
428.50	6.319
428.85	5.721
429.21	5.798
429.56	5.702
429.92	6.190
430.27	6.107
430.62	5.325
430.98	6.279
431.33	6.082
431.68	6.126
432.04	6.816
432.39	6.511
432.74	6.044
433.10	5.829
433.45	5.773
433.80	5.820
434.16	6.303
434.51	6.158
434.86	6.328
435.22	5.837
435.57	6.444
435.92	5.851
436.28	5.991
436.63	7.506
436.98	5.610
437.34	6.619
437.69	6.068
438.04	5.621
438.39	6.269
438.75	6.334
439.10	6.313
439.45	5.903
439.81	5.921
440.16	6.494
440.51	6.444
440.86	6.543
441.22	6.452
441.57	6.316
441.92	6.602
442.27	7.051
442.63	5.477
442.98	6.873
443.33	5.978
443.68	5.885
444.03	6.393
444.39	5.599
444.74	6.223
445.09	6.038
445.44	6.124
445.79	6.333
446.15	6.141
446.50	6.247
446.85	6.166
447.20	5.966
447.55	5.974
447.91	5.847
448.26	5.843
448.61	6.162
448.96	6.257
449.31	6.749
449.66	6.753
450.02	5.738
450.37	5.499
450.72	5.584
451.07	5.424
451.42	6.261
451.77	6.929
452.12	5.370
452.47	6.530
452.83	5.886
453.18	6.724
453.53	6.803
453.88	5.611
454.23	6.336
454.58	6.784
454.93	7.184
455.28	6.421
455.63	6.250
455.98	6.667
456.34	6.219
456.69	6.324
457.04	6.502
457.39	6.078
457.74	5.746
458.09	7.016
458.44	5.644
458.79	5.857
459.14	6.772
459.49	6.071
459.84	5.817
460.19	5.775
460.54	5.961
460.89	5.815
461.24	6.072
461.59	7.321
461.94	6.473
462.29	6.291
462.64	6.509
462.99	6.376
463.34	7.667
463.69	6.692
464.04	6.609
464.39	6.899
464.74	6.655
465.09	6.695
465.44	6.482
465.79	6.376
466.14	6.623
466.49	6.452
466.84	7.414
467.19	6.216
467.54	6.937
467.89	6.723
468.24	6.632
468.59	6.716
468.94	6.536
469.29	6.362
469.64	7.162
469.99	6.563
470.34	6.671
470.68	6.537
471.03	6.803
471.38	6.324
471.73	6.596
472.08	7.763
472.43	6.658
472.78	6.517
473.13	7.060
473.48	6.866
473.83	6.951
474.17	6.534
474.52	6.141
474.87	7.414
475.22	6.442
475.57	6.018
475.92	5.789
476.27	6.257
476.61	6.619
476.96	6.322
477.31	6.279
477.66	6.400
478.01	5.750
478.36	6.187
478.70	5.763
479.05	6.230
479.40	6.448
479.75	6.101
480.10	6.312
480.45	5.997
480.79	6.116
481.14	6.213
481.49	5.838
481.84	5.716
482.19	6.224
482.53	6.468
482.88	6.049
483.23	6.262
483.58	6.369
483.92	5.998
484.27	5.447
484.62	5.560
484.97	5.558
485.31	6.027
485.66	4.744
486.01	4.182
486.36	4.447
486.70	4.557
487.05	5.029
487.40	5.107
487.75	5.257
488.09	5.672
488.44	5.504
488.79	5.678
489.13	6.379
489.48	5.628
489.83	5.783
490.17	6.313
490.52	5.492
490.87	6.015
491.22	5.957
491.56	5.831
491.91	5.770
492.26	6.569
492.60	6.452
492.95	6.080
493.30	6.168
493.64	6.113
493.99	5.850
494.34	6.244
494.68	6.136
495.03	6.814
495.37	6.235
495.72	5.897
496.07	6.682
496.41	6.195
496.76	6.464
497.11	6.439
497.45	6.474
497.80	6.670
498.14	5.266
498.49	6.390
498.84	6.328
499.18	6.286
499.53	6.078
499.87	6.570
500.22	6.123
500.56	6.893
500.91	5.962
501.26	6.354
501.60	6.028
501.95	6.095
502.29	6.560
502.64	6.657
502.98	5.704
503.33	6.307
503.67	6.497
504.02	6.034
504.36	6.972
504.71	6.155
505.06	6.410
505.40	6.125
505.75	6.220
506.09	5.977
506.44	6.561
506.78	6.040
507.13	6.764
507.47	6.212
507.82	6.636
508.16	6.079
508.51	6.240
508.85	6.405
509.19	6.480
509.54	6.633
509.88	6.749
510.23	6.118
510.57	7.637
510.92	6.577
511.26	6.783
511.61	6.535
511.95	6.263
512.30	6.575
512.64	6.717
512.98	6.431
513.33	6.638
513.67	6.990
514.02	6.602
514.36	7.428
514.70	6.752
515.05	6.247
515.39	6.842
515.74	6.869
516.08	7.323
516.42	6.826
516.77	6.689
517.11	6.548
517.46	7.336
517.80	7.027
518.14	6.543
518.49	7.526
518.83	7.216
519.17	7.159
519.52	6.961
519.86	7.302
520.20	7.514
520.55	7.241
520.89	8.151
521.23	7.720
521.58	7.323
521.92	7.777
522.26	6.650
522.61	7.103
522.95	7.305
523.29	7.547
523.64	7.012
523.98	7.086
524.32	6.936
524.66	7.577
525.01	6.801
525.35	7.063
525.69	7.081
526.04	7.103
526.38	6.894
526.72	7.791
527.06	8.035
527.41	6.436
527.75	7.524
528.09	7.900
528.43	6.692
528.78	7.560
529.12	7.636
529.46	7.716
529.80	7.488
530.15	7.477
530.49	7.262
530.83	8.228
531.17	8.029
531.51	8.042
531.86	7.161
532.20	7.757
532.54	8.520
532.88	8.023
533.22	7.433
533.57	7.778
533.91	7.285
534.25	7.594
534.59	7.505
534.93	7.912
535.27	7.725
535.62	7.937
535.96	7.784
536.30	7.756
536.64	7.341
536.98	7.233
537.32	8.492
537.66	7.067
538.01	8.097
538.35	7.951
538.69	7.403
539.03	8.447
539.37	7.348
539.71	7.194
540.05	7.712
540.39	7.309
540.73	6.533
541.07	8.112
541.42	8.089
541.76	8.323
542.10	8.538
542.44	7.086
542.78	8.235
543.12	7.486
543.46	7.869
543.80	8.263
544.14	6.804
544.48	8.190
544.82	7.184
545.16	7.157
545.50	7.262
545.84	8.468
546.18	7.609
546.52	8.259
546.86	7.423
547.20	7.755
547.54	8.684
547.88	7.462
548.22	7.410
548.56	7.296
548.90	7.875
549.24	7.811
549.58	7.981
549.92	8.036
550.26	7.528
550.60	7.400
550.94	8.239
551.28	6.584
551.62	7.908
551.96	8.772
552.30	8.328
552.64	7.911
552.98	8.271
553.32	8.024
553.66	7.907
554.00	7.756
554.34	7.177
554.68	8.298
555.02	7.546
555.36	7.307
555.69	7.781
556.03	7.672
556.37	7.026
556.71	7.162
557.05	7.773
557.39	8.258
557.73	7.198
558.07	8.629
558.41	8.032
558.75	8.670
559.08	8.203
559.42	8.012
559.76	8.676
560.10	8.137
560.44	8.036
560.78	7.452
561.12	8.179
561.45	8.735
561.79	7.515
562.13	7.378
562.47	8.060
562.81	7.880
563.15	8.094
563.48	8.223
563.82	7.828
564.16	7.783
564.50	7.096
564.84	7.396
565.17	7.014
565.51	8.051
565.85	7.805
566.19	7.264
566.52	7.853
566.86	6.992
567.20	8.078
567.54	7.021
567.88	6.355
568.21	7.566
568.55	7.482
568.89	6.080
569.23	6.506
569.56	6.356
569.90	6.038
570.24	6.243
570.57	5.780
570.91	5.721
571.25	5.991
571.59	5.685
571.92	5.472
572.26	5.430
572.60	5.495
572.93	5.817
573.27	5.531
573.61	5.388
573.95	5.478
574.28	5.553
574.62	5.564
574.96	5.161
575.29	5.068
575.63	5.615
575.97	5.311
576.30	5.523
576.64	5.155
576.98	4.959
577.31	5.152
577.65	5.147
577.98	5.046
578.32	4.786
578.66	5.283
578.99	5.113
579.33	4.962
579.67	5.157
580.00	5.131
580.34	5.339
580.67	5.223
581.01	5.329
581.35	5.093
581.68	4.928
582.02	4.583
582.35	4.864
582.69	4.870
583.02	5.022
583.36	5.465
583.70	5.220
584.03	5.381
584.37	5.586
584.70	5.355
585.04	5.235
585.37	5.126
585.71	5.381
586.04	5.074
586.38	5.408
586.72	5.800
587.05	5.134
587.39	4.881
587.72	5.385
588.06	5.336
588.39	5.816
588.73	5.573
589.06	5.921
589.40	5.825
589.73	5.808
590.07	5.730
590.40	5.517
590.73	5.933
591.07	6.553
591.40	6.580
591.74	6.797
592.07	6.414
592.41	6.573
592.74	6.030
593.08	5.829
593.41	5.568
593.75	5.559
594.08	5.598
594.41	5.797
594.75	5.582
595.08	5.906
595.42	5.849
595.75	5.484
596.09	6.534
596.42	6.680
596.75	6.205
597.09	6.970
597.42	6.239
597.75	6.253
598.09	6.783
598.42	6.701
598.76	6.040
599.09	6.233
599.42	5.495
599.76	5.783
600.09	5.902
600.42	6.026
600.76	5.857
601.09	6.193
601.42	5.898
601.76	6.262
602.09	6.245
602.42	6.250
602.76	6.570
603.09	6.530
603.42	5.974
603.76	6.593
604.09	5.971
604.42	6.441
604.76	6.959
605.09	6.728
605.42	6.755
605.75	6.167
606.09	6.019
606.42	6.007
606.75	6.512
607.09	6.488
607.42	6.247
607.75	6.034
608.08	6.122
608.42	6.903
608.75	6.492
609.08	6.198
609.41	7.377
609.75	6.193
610.08	6.880
610.41	6.285
610.74	6.528
611.07	6.719
611.41	6.673
611.74	6.888
612.07	7.195
612.40	7.135
612.73	6.632
613.07	6.950
613.40	7.004
613.73	6.974
614.06	6.828
614.39	7.236
614.72	6.737
615.06	7.563
615.39	6.688
615.72	7.209
616.05	6.752
616.38	7.449
616.71	7.957
617.05	7.774
617.38	7.517
617.71	6.967
618.04	7.272
618.37	7.983
618.70	6.970
619.03	8.092
619.36	8.282
619.69	8.239
620.03	8.173
620.36	8.824
620.69	8.493
621.02	7.448
621.35	7.909
621.68	8.255
622.01	8.591
622.34	8.245
622.67	8.745
623.00	7.337
623.33	7.791
623.66	8.292
623.99	8.321
624.32	8.131
624.65	8.545
624.99	7.720
625.32	7.314
625.65	8.866
625.98	7.917
626.31	9.020
626.64	9.061
626.97	8.894
627.30	8.146
627.63	9.188
627.96	9.420
628.29	8.836
628.62	9.698
628.95	11.226
629.28	9.215
629.61	10.449
629.94	9.333
630.26	8.770
630.59	9.342
630.92	9.387
631.25	9.181
631.58	9.309
631.91	9.432
632.24	8.439
632.57	10.808
632.90	10.088
633.23	10.626
633.56	11.186
633.89	10.646
634.22	10.329
634.55	11.716
634.88	9.461
635.20	9.677
635.53	11.325
635.86	9.777
636.19	11.059
636.52	10.611
636.85	10.882
637.18	11.175
637.51	12.057
637.83	10.851
638.16	10.742
638.49	10.957
638.82	12.010
639.15	10.000
639.48	11.471
639.81	12.064
640.13	12.760
640.46	12.349
640.79	11.096
641.12	11.554
641.45	11.313
641.77	11.929
642.10	11.842
642.43	10.661
642.76	12.539
643.09	12.730
643.41	13.050
643.74	12.500
644.07	12.043
644.40	14.877
644.73	12.756
645.05	14.263
645.38	11.690
645.71	12.399
646.04	12.957
646.36	13.689
646.69	13.378
647.02	10.884
647.35	13.058
647.67	12.743
648.00	16.098
648.33	11.881
648.66	12.727
648.98	11.394
649.31	11.510
649.64	12.257
649.96	13.264
650.29	12.322
650.62	13.269
650.94	13.614
651.27	15.203
651.60	14.476
651.92	14.058
652.25	12.541
652.58	11.059
652.90	12.006
653.23	13.097
653.56	12.756
653.88	12.995
654.21	12.480
654.54	12.376
654.86	12.305
655.19	9.730
655.52	6.216
655.84	3.920
656.17	4.330
656.49	5.923
656.82	6.204
657.15	4.936
657.47	3.929
657.80	3.283
658.13	3.524
658.45	5.167
658.78	5.403
659.10	6.078
659.43	6.161
659.75	7.191
660.08	7.278
660.41	8.845
660.73	11.436
661.06	11.624
661.38	13.818
661.71	13.846
662.03	15.187
662.36	13.320
662.68	14.859
663.01	13.131
663.33	14.225
663.66	15.756
663.98	12.743
664.31	13.445
664.63	14.980
664.96	13.078
665.28	13.525
665.61	13.645
665.93	14.286
666.26	14.604
666.58	14.226
666.91	16.068
667.23	15.056
667.56	11.879
667.88	16.026
668.21	15.565
668.53	14.317
668.86	15.152
669.18	15.991
669.50	15.435
669.83	16.122
670.15	15.778
670.48	15.686
670.80	16.595
671.13	15.287
671.45	14.894
671.77	16.497
672.10	13.124
672.42	10.954
672.75	14.096
673.07	12.500
673.39	10.307
673.72	11.328
674.04	14.510
674.37	13.786
674.69	12.270
675.01	12.971
675.34	16.632
675.66	16.000
675.98	14.460
676.31	15.336
676.63	14.862
676.95	15.933
677.28	12.383
677.60	14.945
677.92	16.245
678.25	12.526
678.57	14.542
678.89	14.429
679.22	12.181
679.54	14.504
679.86	13.761
680.18	12.701
680.51	12.589
680.83	12.456
681.15	14.717
681.48	13.043
681.80	11.799
682.12	13.218
682.44	13.733
682.77	15.071
683.09	17.167
683.41	14.634
683.73	14.570
684.06	15.702
684.38	12.916
684.70	13.760
685.02	12.946
685.34	12.271
685.67	9.790
685.99	11.340
686.31	12.628
686.63	9.364
686.96	12.857
687.28	13.538
687.60	11.775
687.92	14.077
688.24	12.738
688.56	15.462
688.89	14.108
689.21	17.904
689.53	15.866
689.85	14.191
690.17	11.801
690.49	15.711
690.82	13.318
691.14	12.054
691.46	13.080
691.78	15.863
692.10	13.636
692.42	15.170
692.74	12.656
693.06	16.596
693.39	15.606
693.71	15.939
694.03	16.211
694.35	12.121
694.67	14.645
694.99	14.146
695.31	15.196
695.63	15.072
695.95	15.648
696.27	14.975
696.59	16.321
696.91	17.098
697.23	12.207
697.56	14.925
697.88	12.883
698.20	12.917
698.52	15.269
698.84	13.586
699.16	12.673
699.48	15.202
699.80	13.527
700.12	16.104
700.44	16.180
700.76	16.575
701.08	16.667
701.40	17.318
701.72	18.950
702.04	21.023
702.36	16.431
702.68	18.980
703.00	17.452
703.32	18.085
703.64	15.550
703.96	16.156
704.28	16.570
704.60	18.182
704.91	15.134
705.23	19.648
705.55	22.591
705.87	22.259
706.19	16.961
706.51	16.511
706.83	18.485
707.15	20.168
707.47	15.909
707.79	14.005
708.11	14.384
708.43	13.571
708.74	14.286
709.06	16.364
709.38	17.323
709.70	17.442
710.02	16.914
710.34	15.455
710.66	18.806
710.98	20.170
711.29	19.767
711.61	18.879
711.93	17.308
712.25	20.257
712.57	17.647
712.89	16.609
713.20	20.061
713.52	22.039
713.84	17.089
714.16	18.598
714.48	15.230
714.80	17.933
715.11	17.291
715.43	12.760
715.75	18.551
716.07	19.489
716.39	18.495
716.70	23.588
717.02	24.460
717.34	22.968
717.66	19.776
717.97	21.116
718.29	22.593
718.61	21.168
718.93	19.118
719.24	18.339
719.56	18.644
719.88	18.983
720.20	21.284
720.51	20.209
720.83	20.446
721.15	14.552
721.46	20.567
721.78	17.921
722.10	21.887
722.42	24.812
722.73	19.850
723.05	18.852
723.37	19.028
723.68	20.463
724.00	19.919
724.32	23.387
724.63	21.138
724.95	16.736
725.27	19.838
725.58	22.656
725.90	21.168
726.22	20.000
726.53	17.708
726.85	17.747
727.16	19.929
727.48	20.213
727.80	17.424
728.11	21.014
728.43	20.769
728.74	21.505
729.06	25.912
729.38	23.897
729.69	19.217
730.01	18.430
730.32	17.014
730.64	17.391
730.96	17.822
731.27	17.219
731.59	19.572
731.90	15.452
732.22	16.149
732.53	14.861
732.85	19.551
733.16	15.756
733.48	15.947
733.80	14.935
734.11	19.427
734.43	16.864
734.74	16.571
735.06	13.181
735.37	17.052
735.69	18.471
736.00	19.935
736.32	16.822
736.63	16.294
736.95	17.891
737.26	9.864
737.58	18.065
737.89	21.070
738.21	19.454
738.52	19.286
738.83	16.604
739.15	16.923
739.46	20.073
739.78	19.792
740.09	17.538
740.41	16.774
740.72	16.376
741.04	19.630
741.35	16.667
741.66	23.556
741.98	23.113
742.29	20.096
742.61	23.707
742.92	22.624
743.23	21.368
743.55	23.600
743.86	19.737
744.18	22.566
744.49	21.531
744.80	29.108
745.12	24.091
745.43	25.991
745.74	27.928
746.06	22.477
746.37	21.076
746.68	18.100
747.00	27.778
747.31	20.952
747.62	19.912
747.94	21.145
748.25	18.723
748.56	22.026
748.88	25.248
749.19	31.000
749.50	21.860
749.82	18.699
750.13	17.551
750.44	17.518
750.75	21.404
751.07	19.614
751.38	16.725
751.69	19.134
752.01	19.549
752.32	15.884
752.63	18.440
752.94	21.721
753.26	20.000
753.57	19.106
753.88	19.922
754.19	18.214
754.51	20.139
754.82	15.884
755.13	24.528
755.44	16.917
755.75	19.343
756.07	16.312
756.38	15.693
756.69	14.430
757.00	15.269
757.31	18.398
757.63	15.205
757.94	15.013
758.25	12.990
758.56	14.568
758.87	14.785
759.18	17.879
759.50	17.555
759.81	15.576
760.12	11.250
760.43	17.765
760.74	14.130
761.05	16.384
761.36	15.775
761.67	15.625
761.99	18.012
762.30	19.444
762.61	20.229
762.92	19.531
763.23	20.588
763.54	25.200
763.85	17.578
764.16	23.846
764.47	21.673
764.78	16.608
765.10	13.924
765.41	15.634
765.72	17.964
766.03	14.420
766.34	16.333
766.65	20.426
766.96	18.803
767.27	23.350
767.58	29.167
767.89	27.895
768.20	24.713
768.51	22.335
768.82	25.688
769.13	19.512
769.44	19.838
769.75	20.172
770.06	15.138
770.37	25.792
770.68	19.444
770.99	18.667
771.30	13.115
771.61	20.628
771.92	19.672
772.23	26.891
772.54	17.949
772.85	24.607
773.16	26.064
773.47	29.348
773.78	30.457
774.09	20.238
774.39	27.485
774.70	30.864
775.01	28.986
775.32	28.758
775.63	25.658
775.94	30.216
776.25	34.646
776.56	33.582
776.87	33.607
777.18	26.563
777.48	37.405
777.79	32.576
778.10	31.111
778.41	39.286
778.72	20.438
779.03	28.859
779.34	20.134
779.65	27.027
779.95	28.221
780.26	30.719
780.57	36.552
780.88	37.500
781.19	24.812
781.50	31.081
781.80	27.673
782.11	21.469
782.42	27.215
782.73	31.902
783.04	37.838
783.34	28.169
783.65	35.616
783.96	31.343
784.27	30.070
784.57	25.899
784.88	28.704
785.19	42.063
785.50	36.792
785.81	43.284
786.11	33.607
786.42	31.783
786.73	35.398
787.04	43.396
787.34	41.964
787.65	42.000
787.96	39.640
788.26	34.711
788.57	33.051
788.88	44.628
789.19	39.583
789.49	36.364
789.80	35.115
790.11	42.857
790.41	47.525
790.72	40.964
791.03	45.652
791.33	48.837
791.64	43.299
791.95	46.535
792.25	42.222
792.56	36.364
792.87	67.949
793.17	58.228
793.48	54.023
793.79	43.678
794.09	38.636
794.40	31.933
794.70	35.294
795.01	27.407
795.32	29.496
795.62	35.433
795.93	37.931
796.23	39.823
796.54	30.588
796.85	43.243
797.15	47.887
797.46	53.030
797.76	65.060
798.07	51.899
798.37	55.385
798.68	46.970
798.99	42.254
799.29	46.753
799.60	42.045
799.90	63.014
800.21	71.642
800.51	60.345
800.82	75.439
801.12	57.377
801.43	62.121
801.73	47.297
802.04	58.730
802.34	59.259
802.65	59.375
802.95	72.881
803.26	71.875
803.56	41.429
803.87	60.000
804.17	66.176
804.48	66.667
804.78	63.793
805.09	55.882
805.39	61.538
805.70	67.857
806.00	65.574
806.30	46.970
806.61	52.439
806.91	39.241
807.22	44.737
807.52	46.269
807.83	80.282
808.13	81.250
808.43	63.333
808.74	55.263
809.04	55.072
809.35	58.209
809.65	51.316
809.95	70.968
810.26	64.407
810.56	68.254
810.86	100.000
811.17	78.571
811.47	81.667
811.77	61.111
812.08	83.636
812.38	66.000
812.69	88.889
812.99	90.909
813.29	87.755
813.59	52.381
813.90	83.673
814.20	67.273
814.50	60.000
814.81	63.235
815.11	79.592
815.41	80.328
815.72	90.476
816.02	72.727
816.32	83.333
816.62	97.500
816.93	95.122
817.23	92.857
817.53	88.636
817.84	103.030
818.14	89.130
818.44	100.000
818.74	100.000
819.04	82.500
819.35	102.857
819.65	108.824
819.95	117.857
820.25	140.000
820.56	105.128
820.86	100.000
821.16	79.070
821.46	112.821
821.76	72.000
822.07	102.857
822.37	130.000
822.67	96.970
822.97	86.275
823.27	160.714
823.57	94.595
823.88	90.000
824.18	150.000
824.48	109.524
824.78	152.000
825.08	141.667
825.38	100.000
825.69	87.805
825.99	158.333
826.29	124.138
826.59	123.684
826.89	86.842
827.19	126.471
827.49	122.581
827.79	100.000
828.09	77.273
828.39	72.340
828.70	93.878
829.00	44.444
829.30	87.097
829.60	80.000
829.90	206.667
830.20	121.429
830.50	130.435
830.80	143.478
831.10	130.000
831.40	116.667
831.70	130.435
832.00	169.231
832.30	129.630
832.60	212.500
832.90	140.000
833.20	307.143
833.50	148.387
833.80	103.448
834.10	159.375
834.40	196.154
834.70	233.333
835.00	257.143
835.30	117.143
835.60	161.538
835.90	124.138
836.20	214.286
836.50	127.586
836.80	124.000
837.10	136.111
837.40	147.619
837.70	205.882
838.00	122.222
838.30	176.190
838.60	190.476
838.90	169.231
839.19	180.000
839.49	278.571
839.79	235.000
840.09	190.000
840.39	190.476
840.69	169.565
840.99	222.222
841.29	240.000
841.59	275.000
841.88	256.250
842.18	148.276
842.48	180.952
842.78	130.000
843.08	191.304
843.38	134.375
843.68	666.667
843.97	180.769
844.27	120.690
844.57	204.762
844.87	262.500
845.17	174.074
845.47	900.000
845.76	288.889
846.06	217.647
846.36	375.000
846.66	250.000
846.96	193.750
847.25	290.909
847.55	236.364
847.85	160.870
848.15	340.000
848.44	314.286
848.74	172.222
849.04	223.529
849.34	360.000
849.63	173.684
849.93	336.364
850.23	700.000
850.53	278.571
850.82	1250.000
851.12	-3100.000
851.42	2800.000
851.71	185.000
852.01	-466.667
852.31	158.333
852.61	1266.667
852.90	200.000
853.20	168.000
853.50	252.941
853.79	166.667
854.09	150.000
854.39	237.500
854.68	129.730
854.98	174.194
855.28	133.333
855.57	148.276
855.87	159.259
856.17	189.474
856.46	173.333
856.76	205.882
857.05	148.276
857.35	183.333
857.65	253.333
857.94	195.652
858.24	188.462
858.53	240.000
858.83	145.455
859.13	300.000
859.42	0.000
859.72	333.333
860.01	290.909
860.31	140.909
860.60	210.526
860.90	165.217
861.20	488.889
861.49	366.667
861.79	-3400.000
862.08	500.000
862.38	161.905
862.67	230.769
862.97	247.059
863.26	322.222
863.56	188.889
863.85	225.000
864.15	250.000
864.44	300.000
864.74	550.000
865.03	462.500
865.33	178.947
865.62	263.636
865.92	284.615
866.21	200.000
866.51	0.000
866.80	218.182
867.10	580.000
867.39	353.846
867.69	245.455
867.98	194.737
868.27	336.364
868.57	226.316
868.86	-3500.000
869.16	287.500
869.45	1350.000
869.75	-2000.000
870.04	358.333
870.33	485.714
870.63	700.000
870.92	1650.000
871.22	585.714
871.51	229.412
871.80	214.286
872.10	300.000
>>>>>End Processed Spectral Data<<<<<
