SpectraSuite Data File
++++++++++++++++++++++++++++++++++++
Date: Wed May 13 20:46:39 PDT 2015
User: schluterlab
Dark Spectrum Present: Yes
Reference Spectrum Present: Yes
Number of Sampled Component Spectra: 1
Spectrometers: USB2E3373
Integration Time (usec): 3000 (USB2E3373)
Spectra Averaged: 3 (USB2E3373)
Boxcar Smoothing: 0 (USB2E3373)
Correct for Electrical Dark: No (USB2E3373)
Strobe/Lamp Enabled: No (USB2E3373)
Correct for Detector Non-linearity: No (USB2E3373)
Correct for Stray Light: No (USB2E3373)
Number of Pixels in Processed Spectrum: 2048
>>>>>Begin Processed Spectral Data<<<<<
178.53	0.000
178.91	-525.000
179.29	-975.000
179.67	-88.889
180.04	-550.000
180.42	1300.000
180.80	460.000
181.18	-400.000
181.56	414.286
181.94	0.000
182.31	-371.429
182.69	1066.667
183.07	-337.500
183.45	-300.000
183.83	327.273
184.20	-280.000
184.58	1250.000
184.96	4000.000
185.34	-300.000
185.72	-350.000
186.09	-1700.000
186.47	2050.000
186.85	1700.000
187.23	2500.000
187.61	-1166.667
187.98	900.000
188.36	327.273
188.74	372.727
189.12	-340.000
189.49	390.000
189.87	-2400.000
190.25	-850.000
190.63	242.857
191.00	261.538
191.38	633.333
191.76	-775.000
192.14	825.000
192.51	462.500
192.89	566.667
193.27	362.500
193.65	-600.000
194.02	360.000
194.40	440.000
194.78	360.000
195.15	383.333
195.53	490.000
195.91	-1050.000
196.29	187.500
196.66	221.053
197.04	-90.000
197.42	0.000
197.79	340.000
198.17	-1500.000
198.55	271.429
198.92	425.000
199.30	620.000
199.68	0.000
200.05	183.333
200.43	414.286
200.81	2800.000
201.18	933.333
201.56	-966.667
201.94	311.111
202.31	422.222
202.69	233.333
203.07	250.000
203.44	0.000
203.82	650.000
204.19	571.429
204.57	278.571
204.95	400.000
205.32	966.667
205.70	318.182
206.08	292.857
206.45	1600.000
206.83	237.500
207.20	450.000
207.58	360.000
207.96	200.000
208.33	500.000
208.71	-416.667
209.08	471.429
209.46	244.444
209.84	281.818
210.21	-800.000
210.59	825.000
210.96	-325.000
211.34	1800.000
211.71	380.000
212.09	583.333
212.46	0.000
212.84	866.667
213.22	1050.000
213.59	-3100.000
213.97	633.333
214.34	557.143
214.72	381.818
215.09	640.000
215.47	-1650.000
215.84	-1050.000
216.22	1100.000
216.59	264.286
216.97	900.000
217.34	245.455
217.72	-300.000
218.09	0.000
218.47	-2800.000
218.84	377.778
219.22	514.286
219.59	1100.000
219.97	-328.571
220.34	600.000
220.72	-900.000
221.09	285.714
221.47	1075.000
221.84	-683.333
222.22	0.000
222.59	775.000
222.97	-1700.000
223.34	860.000
223.72	323.077
224.09	640.000
224.46	1600.000
224.84	-1900.000
225.21	-680.000
225.59	-2300.000
225.96	400.000
226.34	225.000
226.71	1700.000
227.08	462.500
227.46	330.000
227.83	-650.000
228.21	-1300.000
228.58	366.667
228.95	-1400.000
229.33	-1150.000
229.70	833.333
230.08	485.714
230.45	-780.000
230.82	208.333
231.20	600.000
231.57	314.286
231.95	300.000
232.32	163.636
232.69	345.455
233.07	528.571
233.44	192.308
233.81	-1366.667
234.19	252.632
234.56	350.000
234.93	258.333
235.31	318.182
235.68	292.308
236.05	285.714
236.43	145.455
236.80	215.789
237.17	3500.000
237.55	171.429
237.92	160.714
238.29	166.667
238.67	141.935
239.04	206.897
239.41	166.667
239.79	100.000
240.16	133.333
240.53	136.364
240.91	109.804
241.28	122.000
241.65	134.000
242.02	107.246
242.40	117.742
242.77	115.000
243.14	92.473
243.51	97.753
243.89	90.588
244.26	83.333
244.63	82.796
245.00	86.170
245.38	95.050
245.75	88.785
246.12	78.899
246.49	91.241
246.87	83.200
247.24	87.692
247.61	75.000
247.98	81.699
248.36	81.081
248.73	76.433
249.10	82.803
249.47	77.966
249.84	78.610
250.22	77.005
250.59	73.964
250.96	79.798
251.33	74.882
251.70	78.218
252.08	76.667
252.45	80.717
252.82	72.609
253.19	78.298
253.56	72.549
253.94	72.199
254.31	73.828
254.68	80.385
255.05	70.849
255.42	73.577
255.79	76.471
256.16	74.368
256.54	71.025
256.91	77.936
257.28	73.381
257.65	71.947
258.02	69.876
258.39	66.877
258.76	71.906
259.14	67.560
259.51	67.781
259.88	69.255
260.25	72.508
260.62	70.520
260.99	71.429
261.36	73.574
261.73	71.920
262.10	76.163
262.47	76.620
262.85	67.409
263.22	68.661
263.59	72.934
263.96	69.505
264.33	67.885
264.70	67.895
265.07	69.054
265.44	68.434
265.81	66.423
266.18	70.854
266.55	70.488
266.92	69.287
267.29	68.981
267.66	66.284
268.03	67.045
268.40	68.925
268.77	65.632
269.14	64.865
269.51	68.172
269.88	69.464
270.25	68.849
270.62	65.843
270.99	69.247
271.36	64.592
271.73	67.991
272.10	65.000
272.47	67.097
272.84	66.017
273.21	65.828
273.58	66.594
273.95	65.409
274.32	63.636
274.69	67.452
275.06	63.976
275.43	68.723
275.80	66.934
276.17	66.395
276.54	67.983
276.91	66.403
277.28	62.109
277.65	64.023
278.02	64.182
278.39	66.797
278.76	65.455
279.13	63.774
279.50	61.825
279.87	63.347
280.23	65.269
280.60	66.925
280.97	62.292
281.34	65.841
281.71	61.091
282.08	65.067
282.45	64.364
282.82	61.812
283.19	60.963
283.56	62.281
283.92	63.283
284.29	62.257
284.66	61.162
285.03	59.855
285.40	60.563
285.77	60.774
286.14	60.449
286.51	61.000
286.87	59.145
287.24	60.098
287.61	58.106
287.98	58.604
288.35	56.101
288.72	57.632
289.08	57.433
289.45	57.002
289.82	57.886
290.19	54.945
290.56	57.274
290.93	54.532
291.29	56.902
291.66	56.195
292.03	54.651
292.40	54.332
292.77	53.846
293.13	54.478
293.50	54.373
293.87	54.519
294.24	51.556
294.60	52.402
294.97	52.326
295.34	51.622
295.71	50.852
296.08	49.145
296.44	48.831
296.81	47.820
297.18	49.864
297.55	45.646
297.91	47.757
298.28	51.539
298.65	48.172
299.02	48.880
299.38	48.074
299.75	45.013
300.12	46.232
300.48	46.500
300.85	46.486
301.22	46.497
301.59	44.823
301.95	47.985
302.32	45.828
302.69	44.922
303.05	43.758
303.42	43.951
303.79	44.168
304.15	43.823
304.52	44.264
304.89	44.483
305.25	43.155
305.62	42.582
305.99	44.038
306.35	44.743
306.72	43.946
307.09	43.063
307.45	46.059
307.82	41.741
308.19	42.936
308.55	43.905
308.92	42.642
309.29	42.344
309.65	40.509
310.02	41.543
310.38	41.935
310.75	42.555
311.12	42.477
311.48	41.379
311.85	42.138
312.22	40.375
312.58	40.541
312.95	42.344
313.31	38.835
313.68	43.139
314.05	42.012
314.41	40.201
314.78	40.886
315.14	39.424
315.51	39.959
315.87	39.901
316.24	40.318
316.61	39.766
316.97	39.530
317.34	38.356
317.70	39.579
318.07	39.846
318.43	39.922
318.80	41.518
319.16	40.395
319.53	39.400
319.89	39.048
320.26	38.600
320.62	40.278
320.99	39.697
321.35	38.485
321.72	39.938
322.08	40.079
322.45	40.796
322.81	40.407
323.18	39.210
323.54	39.610
323.91	39.340
324.27	39.388
324.64	39.702
325.00	38.052
325.37	39.308
325.73	38.330
326.10	37.246
326.46	37.097
326.83	38.481
327.19	37.148
327.56	39.634
327.92	38.845
328.29	39.130
328.65	38.950
329.01	37.545
329.38	37.650
329.74	36.842
330.11	37.418
330.47	37.649
330.84	38.235
331.20	36.885
331.56	37.248
331.93	36.852
332.29	35.670
332.66	38.584
333.02	38.391
333.38	37.037
333.75	36.720
334.11	36.744
334.48	36.025
334.84	37.224
335.20	37.091
335.57	36.809
335.93	36.607
336.29	36.264
336.66	36.880
337.02	34.932
337.38	34.907
337.75	34.492
338.11	36.526
338.47	36.372
338.84	36.297
339.20	36.330
339.56	36.314
339.93	35.000
340.29	36.051
340.65	35.918
341.02	35.253
341.38	36.655
341.74	35.000
342.11	35.633
342.47	37.181
342.83	35.788
343.20	35.844
343.56	34.709
343.92	36.053
344.28	35.374
344.65	35.684
345.01	35.101
345.37	35.077
345.73	36.548
346.10	35.891
346.46	34.831
346.82	35.750
347.19	34.503
347.55	33.662
347.91	34.709
348.27	34.922
348.63	35.284
349.00	33.576
349.36	34.729
349.72	35.285
350.08	35.737
350.45	35.557
350.81	35.012
351.17	34.360
351.53	35.217
351.89	33.498
352.26	35.122
352.62	34.322
352.98	34.603
353.34	35.251
353.70	33.797
354.07	34.355
354.43	33.651
354.79	32.502
355.15	33.520
355.51	34.932
355.87	34.449
356.24	34.202
356.60	32.719
356.96	33.950
357.32	34.178
357.68	34.094
358.04	33.492
358.40	33.967
358.77	33.333
359.13	33.149
359.49	32.941
359.85	31.905
360.21	33.333
360.57	34.241
360.93	35.538
361.29	33.031
361.66	33.204
362.02	32.687
362.38	32.928
362.74	33.780
363.10	32.865
363.46	32.575
363.82	33.787
364.18	33.407
364.54	32.987
364.90	32.790
365.26	32.721
365.62	33.163
365.98	32.505
366.35	31.805
366.71	31.960
367.07	32.921
367.43	32.874
367.79	32.834
368.15	34.052
368.51	32.922
368.87	32.191
369.23	31.895
369.59	32.585
369.95	31.176
370.31	32.621
370.67	31.449
371.03	33.184
371.39	31.924
371.75	31.765
372.11	31.223
372.47	31.891
372.83	32.781
373.19	30.780
373.55	31.855
373.91	32.327
374.27	31.753
374.63	32.145
374.99	32.203
375.35	30.984
375.71	31.803
376.07	32.099
376.42	32.256
376.78	31.345
377.14	30.258
377.50	32.119
377.86	32.048
378.22	31.542
378.58	30.075
378.94	30.861
379.30	30.089
379.66	31.726
380.02	31.572
380.38	30.844
380.74	30.792
381.09	31.479
381.45	31.530
381.81	31.020
382.17	31.274
382.53	30.000
382.89	30.370
383.25	30.769
383.61	31.103
383.97	30.894
384.32	29.944
384.68	30.359
385.04	29.994
385.40	30.341
385.76	30.590
386.12	30.246
386.48	30.019
386.83	30.340
387.19	31.107
387.55	30.612
387.91	30.472
388.27	29.920
388.62	31.039
388.98	29.791
389.34	30.413
389.70	29.798
390.06	31.242
390.42	29.702
390.77	30.598
391.13	30.823
391.49	30.647
391.85	29.472
392.20	28.959
392.56	29.861
392.92	30.135
393.28	28.994
393.64	30.396
393.99	30.177
394.35	29.839
394.71	29.799
395.07	30.467
395.42	30.408
395.78	29.580
396.14	30.168
396.50	30.639
396.85	29.625
397.21	29.162
397.57	30.316
397.92	30.288
398.28	28.475
398.64	29.152
399.00	29.379
399.35	29.611
399.71	29.861
400.07	29.332
400.42	30.491
400.78	30.036
401.14	29.390
401.49	29.254
401.85	28.312
402.21	28.623
402.57	29.550
402.92	30.013
403.28	29.606
403.63	29.889
403.99	29.172
404.35	28.364
404.70	29.197
405.06	29.121
405.42	30.318
405.77	28.343
406.13	28.668
406.49	29.627
406.84	29.770
407.20	28.723
407.55	28.590
407.91	30.467
408.27	28.398
408.62	27.754
408.98	29.412
409.34	28.782
409.69	29.032
410.05	28.067
410.40	28.685
410.76	29.271
411.11	29.131
411.47	28.754
411.83	29.566
412.18	27.891
412.54	28.767
412.89	29.277
413.25	28.394
413.60	28.968
413.96	28.415
414.31	28.858
414.67	29.594
415.03	29.934
415.38	28.608
415.74	27.846
416.09	28.870
416.45	28.648
416.80	28.949
417.16	28.686
417.51	29.330
417.87	28.324
418.22	29.022
418.58	29.438
418.93	28.808
419.29	29.217
419.64	29.471
420.00	29.207
420.35	28.522
420.71	29.408
421.06	28.878
421.42	28.538
421.77	28.531
422.12	28.523
422.48	27.847
422.83	28.538
423.19	27.901
423.54	28.845
423.90	29.275
424.25	28.699
424.61	27.262
424.96	28.746
425.31	29.236
425.67	27.303
426.02	28.457
426.38	29.731
426.73	28.379
427.09	28.328
427.44	28.005
427.79	27.890
428.15	28.512
428.50	27.794
428.85	28.546
429.21	27.830
429.56	27.268
429.92	27.831
430.27	27.557
430.62	27.752
430.98	28.023
431.33	28.402
431.68	27.958
432.04	27.423
432.39	28.726
432.74	27.349
433.10	28.183
433.45	28.688
433.80	27.716
434.16	27.885
434.51	28.053
434.86	28.563
435.22	28.961
435.57	28.146
435.92	28.555
436.28	28.588
436.63	29.525
436.98	27.647
437.34	28.563
437.69	28.996
438.04	28.387
438.39	27.761
438.75	28.065
439.10	28.101
439.45	28.394
439.81	27.251
440.16	27.216
440.51	28.471
440.86	28.489
441.22	27.030
441.57	27.972
441.92	28.403
442.27	27.610
442.63	28.067
442.98	28.394
443.33	27.989
443.68	27.930
444.03	27.428
444.39	28.043
444.74	28.355
445.09	28.248
445.44	27.392
445.79	27.313
446.15	27.951
446.50	27.679
446.85	28.674
447.20	27.588
447.55	27.862
447.91	28.682
448.26	28.214
448.61	28.095
448.96	28.516
449.31	27.503
449.66	27.743
450.02	27.409
450.37	27.324
450.72	27.524
451.07	27.118
451.42	27.599
451.77	28.068
452.12	27.771
452.47	28.545
452.83	28.730
453.18	27.812
453.53	28.695
453.88	27.289
454.23	27.735
454.58	28.528
454.93	27.845
455.28	26.372
455.63	28.580
455.98	29.226
456.34	28.266
456.69	26.863
457.04	28.297
457.39	27.411
457.74	27.336
458.09	28.522
458.44	27.708
458.79	27.007
459.14	27.765
459.49	27.846
459.84	27.091
460.19	26.812
460.54	27.720
460.89	27.372
461.24	28.537
461.59	28.181
461.94	28.052
462.29	28.012
462.64	27.377
462.99	27.586
463.34	28.133
463.69	27.767
464.04	27.304
464.39	27.420
464.74	27.689
465.09	28.227
465.44	28.033
465.79	27.405
466.14	27.039
466.49	27.197
466.84	27.963
467.19	27.037
467.54	28.500
467.89	26.471
468.24	26.934
468.59	27.534
468.94	26.512
469.29	27.378
469.64	28.715
469.99	27.064
470.34	27.543
470.68	26.293
471.03	27.347
471.38	27.241
471.73	27.382
472.08	28.092
472.43	27.136
472.78	27.057
473.13	26.701
473.48	27.091
473.83	27.134
474.17	26.633
474.52	26.861
474.87	27.671
475.22	27.220
475.57	26.921
475.92	26.500
476.27	27.283
476.61	27.358
476.96	26.718
477.31	26.531
477.66	26.915
478.01	25.876
478.36	27.657
478.70	26.376
479.05	27.636
479.40	26.970
479.75	27.097
480.10	27.087
480.45	26.464
480.79	26.374
481.14	26.614
481.49	26.388
481.84	26.749
482.19	27.124
482.53	26.697
482.88	27.222
483.23	26.121
483.58	26.934
483.92	27.507
484.27	25.490
484.62	26.078
484.97	26.330
485.31	27.021
485.66	24.853
486.01	25.940
486.36	25.991
486.70	26.373
487.05	26.951
487.40	27.043
487.75	26.150
488.09	27.085
488.44	27.252
488.79	26.691
489.13	26.280
489.48	26.020
489.83	25.766
490.17	25.954
490.52	25.642
490.87	26.232
491.22	26.376
491.56	25.923
491.91	25.826
492.26	25.999
492.60	26.267
492.95	25.257
493.30	26.776
493.64	26.178
493.99	26.137
494.34	26.503
494.68	25.916
495.03	26.175
495.37	26.105
495.72	25.828
496.07	26.218
496.41	25.575
496.76	26.033
497.11	25.214
497.45	26.176
497.80	25.144
498.14	25.652
498.49	25.561
498.84	26.366
499.18	25.095
499.53	25.689
499.87	26.281
500.22	25.954
500.56	26.408
500.91	25.385
501.26	24.988
501.60	26.768
501.95	25.756
502.29	25.773
502.64	26.210
502.98	25.947
503.33	25.823
503.67	25.429
504.02	25.772
504.36	26.533
504.71	25.989
505.06	25.590
505.40	25.377
505.75	25.362
506.09	25.316
506.44	26.640
506.78	25.767
507.13	26.148
507.47	26.263
507.82	26.140
508.16	25.735
508.51	25.571
508.85	26.018
509.19	26.224
509.54	25.306
509.88	25.451
510.23	25.758
510.57	26.574
510.92	25.997
511.26	25.694
511.61	26.349
511.95	24.582
512.30	25.239
512.64	25.631
512.98	26.045
513.33	25.589
513.67	25.667
514.02	25.703
514.36	25.341
514.70	25.346
515.05	25.878
515.39	26.248
515.74	25.788
516.08	25.713
516.42	25.860
516.77	25.975
517.11	25.860
517.46	25.451
517.80	25.784
518.14	25.014
518.49	25.904
518.83	25.682
519.17	24.885
519.52	24.844
519.86	25.271
520.20	26.936
520.55	25.434
520.89	25.730
521.23	26.176
521.58	25.330
521.92	26.026
522.26	25.137
522.61	25.794
522.95	25.107
523.29	25.563
523.64	26.220
523.98	26.248
524.32	25.814
524.66	25.376
525.01	24.755
525.35	25.713
525.69	24.692
526.04	25.732
526.38	26.052
526.72	24.785
527.06	26.177
527.41	24.257
527.75	26.752
528.09	26.268
528.43	25.175
528.78	25.569
529.12	25.636
529.46	26.026
529.80	25.804
530.15	25.919
530.49	25.415
530.83	25.190
531.17	27.611
531.51	26.783
531.86	25.677
532.20	26.728
532.54	26.073
532.88	25.481
533.22	24.610
533.57	26.296
533.91	25.286
534.25	25.759
534.59	24.649
534.93	25.104
535.27	24.562
535.62	25.397
535.96	25.173
536.30	24.666
536.64	26.143
536.98	25.282
537.32	25.609
537.66	25.200
538.01	25.082
538.35	26.115
538.69	25.590
539.03	25.536
539.37	24.728
539.71	25.146
540.05	26.275
540.39	26.445
540.73	24.709
541.07	26.217
541.42	25.766
541.76	25.613
542.10	25.032
542.44	26.358
542.78	25.758
543.12	25.016
543.46	24.984
543.80	25.504
544.14	25.417
544.48	26.667
544.82	25.273
545.16	25.569
545.50	25.193
545.84	25.806
546.18	25.993
546.52	25.809
546.86	25.292
547.20	25.287
547.54	25.251
547.88	26.594
548.22	25.654
548.56	25.283
548.90	24.776
549.24	25.253
549.58	25.648
549.92	24.725
550.26	26.136
550.60	25.242
550.94	25.211
551.28	25.018
551.62	25.953
551.96	24.772
552.30	26.280
552.64	25.423
552.98	26.915
553.32	26.298
553.66	25.903
554.00	25.944
554.34	24.017
554.68	26.180
555.02	25.529
555.36	25.400
555.69	24.831
556.03	25.236
556.37	25.921
556.71	25.239
557.05	25.630
557.39	24.563
557.73	25.759
558.07	27.049
558.41	25.398
558.75	24.320
559.08	25.056
559.42	25.170
559.76	26.471
560.10	24.483
560.44	25.577
560.78	25.150
561.12	24.472
561.45	26.662
561.79	25.445
562.13	24.883
562.47	25.820
562.81	26.081
563.15	25.017
563.48	25.663
563.82	25.440
564.16	24.984
564.50	24.870
564.84	24.716
565.17	24.775
565.51	25.495
565.85	24.873
566.19	25.047
566.52	25.586
566.86	25.316
567.20	26.238
567.54	25.342
567.88	25.638
568.21	25.820
568.55	24.874
568.89	26.070
569.23	24.733
569.56	25.992
569.90	25.925
570.24	25.117
570.57	25.230
570.91	25.113
571.25	25.633
571.59	25.449
571.92	26.037
572.26	25.881
572.60	25.375
572.93	24.978
573.27	25.170
573.61	25.544
573.95	25.504
574.28	25.075
574.62	25.729
574.96	25.185
575.29	25.194
575.63	25.635
575.97	25.332
576.30	25.305
576.64	25.474
576.98	24.575
577.31	25.370
577.65	25.255
577.98	25.211
578.32	25.596
578.66	25.241
578.99	25.839
579.33	25.248
579.67	25.249
580.00	25.438
580.34	25.605
580.67	25.431
581.01	25.051
581.35	25.159
581.68	24.995
582.02	25.503
582.35	25.461
582.69	25.488
583.02	25.759
583.36	25.640
583.70	25.824
584.03	26.202
584.37	25.507
584.70	25.261
585.04	25.171
585.37	25.116
585.71	25.587
586.04	25.441
586.38	25.758
586.72	25.739
587.05	24.776
587.39	25.488
587.72	26.050
588.06	25.747
588.39	25.926
588.73	25.638
589.06	25.802
589.40	25.758
589.73	25.449
590.07	25.516
590.40	24.699
590.73	25.956
591.07	25.763
591.40	25.306
591.74	25.325
592.07	24.913
592.41	24.969
592.74	24.682
593.08	24.783
593.41	25.878
593.75	25.265
594.08	25.813
594.41	25.875
594.75	26.285
595.08	25.197
595.42	25.359
595.75	25.142
596.09	25.422
596.42	25.344
596.75	25.201
597.09	26.147
597.42	24.958
597.75	25.011
598.09	24.826
598.42	25.258
598.76	24.362
599.09	24.553
599.42	24.418
599.76	25.842
600.09	25.027
600.42	24.909
600.76	24.929
601.09	24.954
601.42	25.114
601.76	25.617
602.09	25.375
602.42	25.756
602.76	25.715
603.09	25.728
603.42	25.537
603.76	24.848
604.09	25.359
604.42	25.479
604.76	25.348
605.09	24.989
605.42	25.609
605.75	25.248
606.09	25.580
606.42	24.969
606.75	25.633
607.09	25.199
607.42	25.032
607.75	24.726
608.08	25.445
608.42	25.146
608.75	24.797
609.08	25.578
609.41	24.941
609.75	25.441
610.08	25.730
610.41	25.140
610.74	24.598
611.07	24.358
611.41	25.319
611.74	26.043
612.07	25.880
612.40	24.974
612.73	24.632
613.07	25.269
613.40	26.066
613.73	25.118
614.06	25.860
614.39	25.066
614.72	25.684
615.06	24.632
615.39	25.318
615.72	25.460
616.05	24.987
616.38	25.514
616.71	24.762
617.05	25.324
617.38	24.955
617.71	25.285
618.04	25.421
618.37	24.483
618.70	24.704
619.03	26.118
619.36	25.594
619.69	26.127
620.03	25.275
620.36	25.267
620.69	24.795
621.02	24.484
621.35	25.137
621.68	24.611
622.01	25.232
622.34	25.946
622.67	25.171
623.00	23.551
623.33	24.732
623.66	26.019
623.99	24.890
624.32	25.535
624.65	24.576
624.99	24.150
625.32	25.127
625.65	25.545
625.98	25.058
626.31	25.194
626.64	25.143
626.97	26.517
627.30	24.522
627.63	24.528
627.96	25.652
628.29	25.722
628.62	24.886
628.95	26.698
629.28	24.179
629.61	25.481
629.94	26.667
630.26	25.548
630.59	25.643
630.92	25.192
631.25	24.186
631.58	25.025
631.91	24.645
632.24	23.418
632.57	25.079
632.90	25.219
633.23	24.944
633.56	25.989
633.89	24.009
634.22	24.518
634.55	26.154
634.88	22.754
635.20	26.284
635.53	26.265
635.86	25.248
636.19	24.588
636.52	25.029
636.85	24.742
637.18	25.691
637.51	25.768
637.83	23.551
638.16	24.552
638.49	25.189
638.82	26.296
639.15	24.875
639.48	24.439
639.81	24.263
640.13	25.391
640.46	24.564
640.79	25.627
641.12	24.484
641.45	25.140
641.77	25.773
642.10	24.708
642.43	25.676
642.76	23.529
643.09	24.080
643.41	25.038
643.74	26.080
644.07	24.695
644.40	26.687
644.73	27.874
645.05	26.941
645.38	24.329
645.71	26.248
646.04	26.080
646.36	26.878
646.69	25.753
647.02	26.020
647.35	26.289
647.67	25.841
648.00	25.854
648.33	25.743
648.66	24.091
648.98	27.286
649.31	25.561
649.64	26.009
649.96	25.782
650.29	25.750
650.62	25.081
650.94	27.391
651.27	25.338
651.60	24.626
651.92	25.719
652.25	25.570
652.58	26.012
652.90	25.750
653.23	25.732
653.56	25.039
653.88	24.089
654.21	27.488
654.54	25.743
654.86	26.480
655.19	24.730
655.52	22.116
655.84	22.515
656.17	29.430
656.49	39.610
656.82	40.511
657.15	31.089
657.47	22.972
657.80	17.542
658.13	18.107
658.45	26.216
658.78	26.422
659.10	26.216
659.43	25.970
659.75	25.324
660.08	25.316
660.41	24.953
660.73	24.142
661.06	24.204
661.38	26.182
661.71	25.769
662.03	27.613
662.36	24.652
662.68	25.100
663.01	25.657
663.33	28.025
663.66	27.101
663.98	26.566
664.31	26.050
664.63	23.887
664.96	23.944
665.28	26.844
665.61	26.706
665.93	25.553
666.26	26.572
666.58	25.732
666.91	24.736
667.23	25.169
667.56	23.542
667.88	26.282
668.21	27.079
668.53	29.067
668.86	24.459
669.18	26.652
669.50	23.478
669.83	28.758
670.15	28.889
670.48	23.747
670.80	24.569
671.13	27.176
671.45	24.894
671.77	27.495
672.10	27.726
672.42	27.739
672.75	26.036
673.07	26.761
673.39	26.401
673.72	25.977
674.04	26.078
674.37	25.825
674.69	26.585
675.01	23.849
675.34	28.131
675.66	24.842
675.98	27.291
676.31	25.630
676.63	25.265
676.95	28.931
677.28	26.168
677.60	26.593
677.92	27.637
678.25	24.641
678.57	27.291
678.89	24.449
679.22	26.523
679.54	27.481
679.86	25.138
680.18	26.297
680.51	27.128
680.83	26.512
681.15	28.868
681.48	30.057
681.80	28.820
682.12	25.862
682.44	24.565
682.77	25.662
683.09	28.755
683.41	26.829
683.73	26.490
684.06	28.306
684.38	28.571
684.70	25.388
685.02	25.704
685.34	26.374
685.67	24.650
685.99	25.601
686.31	25.939
686.63	25.442
686.96	25.000
687.28	27.437
687.60	25.000
687.92	28.154
688.24	24.715
688.56	27.309
688.89	28.008
689.21	27.948
689.53	27.140
689.85	29.933
690.17	27.329
690.49	26.964
690.82	27.804
691.14	26.116
691.46	26.582
691.78	28.514
692.10	28.926
692.42	26.347
692.74	24.481
693.06	26.170
693.39	28.747
693.71	27.074
694.03	24.842
694.35	26.840
694.67	25.629
694.99	29.756
695.31	25.735
695.63	27.033
695.95	26.406
696.27	24.619
696.59	27.202
696.91	26.684
697.23	25.587
697.56	28.358
697.88	25.153
698.20	25.833
698.52	26.237
698.84	25.835
699.16	24.885
699.48	27.316
699.80	27.295
700.12	30.909
700.44	28.117
700.76	27.624
701.08	27.874
701.40	25.978
701.72	29.446
702.04	29.545
702.36	26.629
702.68	28.612
703.00	27.147
703.32	24.468
703.64	27.346
703.96	27.019
704.28	30.814
704.60	30.205
704.91	25.519
705.23	27.566
705.55	32.558
705.87	25.914
706.19	28.269
706.51	29.283
706.83	29.697
707.15	30.532
707.47	28.030
707.79	27.273
708.11	27.854
708.43	25.000
708.74	27.806
709.06	29.091
709.38	29.396
709.70	29.651
710.02	32.047
710.34	26.364
710.66	31.642
710.98	27.557
711.29	25.581
711.61	33.628
711.93	28.846
712.25	31.190
712.57	31.618
712.89	28.374
713.20	31.611
713.52	31.908
713.84	29.114
714.16	30.793
714.48	29.023
714.80	34.347
715.11	29.971
715.43	27.003
715.75	27.826
716.07	31.949
716.39	30.094
716.70	28.571
717.02	33.453
717.34	31.095
717.66	30.597
717.97	37.052
718.29	28.148
718.61	27.372
718.93	29.044
719.24	31.488
719.56	26.441
719.88	31.186
720.20	29.730
720.51	27.875
720.83	30.112
721.15	30.597
721.46	30.851
721.78	32.258
722.10	32.830
722.42	35.338
722.73	29.963
723.05	29.508
723.37	32.389
723.68	29.730
724.00	31.301
724.32	31.855
724.63	32.520
724.95	24.268
725.27	37.247
725.58	36.719
725.90	32.482
726.22	30.189
726.53	30.556
726.85	29.010
727.16	27.046
727.48	28.723
727.80	30.303
728.11	31.159
728.43	29.231
728.74	31.541
729.06	35.036
729.38	37.868
729.69	32.028
730.01	26.621
730.32	31.597
730.64	28.763
730.96	24.752
731.27	33.775
731.59	29.969
731.90	32.070
732.22	30.124
732.53	30.031
732.85	31.090
733.16	28.617
733.48	28.239
733.80	31.818
734.11	30.892
734.43	31.361
734.74	28.000
735.06	24.642
735.37	33.237
735.69	27.707
736.00	31.046
736.32	29.283
736.63	30.351
736.95	32.588
737.26	26.871
737.58	30.645
737.89	30.100
738.21	28.669
738.52	30.714
738.83	23.396
739.15	29.231
739.46	30.657
739.78	25.694
740.09	34.154
740.41	30.323
740.72	30.662
741.04	30.370
741.35	30.833
741.66	36.889
741.98	28.302
742.29	34.928
742.61	34.052
742.92	31.674
743.23	32.906
743.55	30.000
743.86	31.579
744.18	34.956
744.49	31.100
744.80	35.681
745.12	32.727
745.43	31.718
745.74	36.486
746.06	33.486
746.37	34.529
746.68	32.579
747.00	36.574
747.31	31.429
747.62	31.416
747.94	33.921
748.25	30.213
748.56	33.040
748.88	31.683
749.19	34.500
749.50	35.814
749.82	30.081
750.13	30.204
750.44	32.117
750.75	32.281
751.07	33.119
751.38	30.314
751.69	31.408
752.01	35.338
752.32	31.408
752.63	31.206
752.94	35.656
753.26	33.200
753.57	29.268
753.88	33.203
754.19	32.143
754.51	34.028
754.82	28.881
755.13	31.321
755.44	28.571
755.75	30.657
756.07	25.887
756.38	29.927
756.69	28.523
757.00	31.437
757.31	34.125
757.63	28.070
757.94	29.223
758.25	27.696
758.56	27.901
758.87	32.527
759.18	27.576
759.50	28.527
759.81	30.530
760.12	29.062
760.43	31.519
760.74	29.620
761.05	31.921
761.36	27.807
761.67	30.966
761.99	31.056
762.30	32.639
762.61	28.626
762.92	32.813
763.23	31.513
763.54	35.600
763.85	32.031
764.16	35.769
764.47	33.460
764.78	27.915
765.10	28.797
765.41	29.794
765.72	30.838
766.03	29.467
766.34	28.667
766.65	35.319
766.96	33.761
767.27	34.010
767.58	35.417
767.89	34.737
768.20	39.080
768.51	38.071
768.82	37.615
769.13	28.862
769.44	29.150
769.75	32.618
770.06	29.358
770.37	32.579
770.68	32.870
770.99	35.111
771.30	27.459
771.61	40.807
771.92	34.016
772.23	36.134
772.54	36.923
772.85	32.984
773.16	31.383
773.47	34.239
773.78	35.025
774.09	35.714
774.39	36.257
774.70	38.889
775.01	38.406
775.32	39.869
775.63	34.868
775.94	35.971
776.25	40.157
776.56	36.567
776.87	38.525
777.18	35.156
777.48	48.855
777.79	43.939
778.10	45.185
778.41	38.393
778.72	36.496
779.03	36.913
779.34	36.913
779.65	43.919
779.95	40.491
780.26	46.405
780.57	38.621
780.88	46.875
781.19	39.098
781.50	43.243
781.80	42.767
782.11	29.379
782.42	45.570
782.73	30.061
783.04	44.595
783.34	39.437
783.65	53.425
783.96	40.299
784.27	34.266
784.57	33.813
784.88	46.296
785.19	46.032
785.50	45.283
785.81	46.269
786.11	45.902
786.42	51.163
786.73	41.593
787.04	44.340
787.34	60.714
787.65	46.000
787.96	41.441
788.26	40.496
788.57	44.068
788.88	50.413
789.19	48.611
789.49	46.970
789.80	45.802
790.11	57.143
790.41	61.386
790.72	48.193
791.03	45.652
791.33	60.465
791.64	50.515
791.95	55.446
792.25	57.778
792.56	61.039
792.87	56.410
793.17	50.633
793.48	57.471
793.79	45.977
794.09	46.591
794.40	35.294
794.70	49.265
795.01	42.963
795.32	34.532
795.62	42.520
795.93	45.690
796.23	44.248
796.54	48.235
796.85	56.757
797.15	80.282
797.46	40.909
797.76	55.422
798.07	54.430
798.37	55.385
798.68	75.758
798.99	30.986
799.29	55.844
799.60	39.773
799.90	52.055
800.21	65.672
800.51	65.517
800.82	71.930
801.12	78.689
801.43	74.242
801.73	45.946
802.04	65.079
802.34	65.432
802.65	70.312
802.95	71.186
803.26	73.438
803.56	51.429
803.87	50.769
804.17	72.059
804.48	75.926
804.78	60.345
805.09	52.941
805.39	65.385
805.70	55.357
806.00	72.131
806.30	66.667
806.61	68.293
806.91	51.899
807.22	60.526
807.52	53.731
807.83	69.014
808.13	60.937
808.43	56.667
808.74	43.421
809.04	62.319
809.35	76.119
809.65	80.263
809.95	69.355
810.26	61.017
810.56	65.079
810.86	90.909
811.17	107.143
811.47	80.000
811.77	77.778
812.08	65.455
812.38	84.000
812.69	105.556
812.99	90.909
813.29	83.673
813.59	40.476
813.90	75.510
814.20	85.455
814.50	63.077
814.81	73.529
815.11	81.633
815.41	72.131
815.72	92.857
816.02	83.636
816.32	57.143
816.62	95.000
816.93	90.244
817.23	83.333
817.53	93.182
817.84	103.030
818.14	84.783
818.44	82.222
818.74	100.000
819.04	100.000
819.35	80.000
819.65	126.471
819.95	103.571
820.25	140.000
820.56	100.000
820.86	104.545
821.16	97.674
821.46	76.923
821.76	84.000
822.07	114.286
822.37	115.000
822.67	103.030
822.97	82.353
823.27	121.429
823.57	83.784
823.88	117.500
824.18	123.333
824.48	90.476
824.78	124.000
825.08	129.167
825.38	110.811
825.69	78.049
825.99	129.167
826.29	82.759
826.59	97.368
826.89	102.632
827.19	97.059
827.49	132.258
827.79	95.455
828.09	109.091
828.39	87.234
828.70	89.796
829.00	77.778
829.30	119.355
829.60	82.500
829.90	153.333
830.20	139.286
830.50	104.348
830.80	143.478
831.10	96.667
831.40	100.000
831.70	91.304
832.00	111.538
832.30	103.704
832.60	156.250
832.90	163.333
833.20	307.143
833.50	135.484
833.80	127.586
834.10	137.500
834.40	134.615
834.70	194.444
835.00	180.952
835.30	114.286
835.60	92.308
835.90	120.690
836.20	150.000
836.50	137.931
836.80	88.000
837.10	119.444
837.40	142.857
837.70	205.882
838.00	114.815
838.30	119.048
838.60	185.714
838.90	146.154
839.19	165.000
839.49	285.714
839.79	220.000
840.09	155.000
840.39	171.429
840.69	152.174
840.99	133.333
841.29	350.000
841.59	200.000
841.88	262.500
842.18	155.172
842.48	180.952
842.78	100.000
843.08	134.783
843.38	131.250
843.68	616.667
843.97	115.385
844.27	117.241
844.57	190.476
844.87	250.000
845.17	133.333
845.47	1200.000
845.76	255.556
846.06	229.412
846.36	412.500
846.66	200.000
846.96	125.000
847.25	254.545
847.55	200.000
847.85	160.870
848.15	330.000
848.44	207.143
848.74	138.889
849.04	129.412
849.34	360.000
849.63	168.421
849.93	336.364
850.23	600.000
850.53	200.000
850.82	1200.000
851.12	-1400.000
851.42	2400.000
851.71	180.000
852.01	-366.667
852.31	145.833
852.61	1066.667
852.90	138.095
853.20	136.000
853.50	170.588
853.79	171.429
854.09	120.833
854.39	193.750
854.68	135.135
854.98	129.032
855.28	126.667
855.57	144.828
855.87	148.148
856.17	142.105
856.46	160.000
856.76	217.647
857.05	144.828
857.35	145.833
857.65	186.667
857.94	147.826
858.24	169.231
858.53	160.000
858.83	163.636
859.13	213.333
859.42	0.000
859.72	333.333
860.01	218.182
860.31	163.636
860.60	178.947
860.90	165.217
861.20	433.333
861.49	241.667
861.79	-1800.000
862.08	475.000
862.38	176.190
862.67	138.462
862.97	247.059
863.26	322.222
863.56	161.111
863.85	216.667
864.15	375.000
864.44	253.333
864.74	600.000
865.03	400.000
865.33	215.789
865.62	254.545
865.92	253.846
866.21	266.667
866.51	0.000
866.80	227.273
867.10	720.000
867.39	276.923
867.69	227.273
867.98	221.053
868.27	418.182
868.57	194.737
868.86	-2300.000
869.16	237.500
869.45	1350.000
869.75	-2300.000
870.04	341.667
870.33	400.000
870.63	550.000
870.92	1550.000
871.22	428.571
871.51	223.529
871.80	142.857
872.10	192.857
>>>>>End Processed Spectral Data<<<<<
