SpectraSuite Data File
++++++++++++++++++++++++++++++++++++
Date: Wed May 13 21:05:22 PDT 2015
User: schluterlab
Dark Spectrum Present: Yes
Reference Spectrum Present: Yes
Number of Sampled Component Spectra: 1
Spectrometers: USB2E3373
Integration Time (usec): 3000 (USB2E3373)
Spectra Averaged: 3 (USB2E3373)
Boxcar Smoothing: 0 (USB2E3373)
Correct for Electrical Dark: No (USB2E3373)
Strobe/Lamp Enabled: No (USB2E3373)
Correct for Detector Non-linearity: No (USB2E3373)
Correct for Stray Light: No (USB2E3373)
Number of Pixels in Processed Spectrum: 2048
>>>>>Begin Processed Spectral Data<<<<<
178.53	0.000
178.91	300.000
179.29	175.000
179.67	-100.000
180.04	-266.667
180.42	160.000
180.80	-100.000
181.18	50.000
181.56	-225.000
181.94	-125.000
182.31	109.091
182.69	69.231
183.07	-240.000
183.45	183.333
183.83	133.333
184.20	128.571
184.58	33.333
184.96	100.000
185.34	114.286
185.72	0.000
186.09	-300.000
186.47	-200.000
186.85	160.000
187.23	50.000
187.61	550.000
187.98	800.000
188.36	-37.500
188.74	0.000
189.12	-72.727
189.49	40.000
189.87	66.667
190.25	240.000
190.63	600.000
191.00	-200.000
191.38	220.000
191.76	350.000
192.14	191.667
192.51	21.053
192.89	233.333
193.27	300.000
193.65	-100.000
194.02	163.636
194.40	90.000
194.78	-300.000
195.15	240.000
195.53	-180.000
195.91	12.500
196.29	-266.667
196.66	0.000
197.04	250.000
197.42	60.000
197.79	-20.000
198.17	-175.000
198.55	-200.000
198.92	250.000
199.30	-300.000
199.68	-20.000
200.05	450.000
200.43	-0.000
200.81	-1500.000
201.18	-280.000
201.56	16.667
201.94	475.000
202.31	17.391
202.69	-114.286
203.07	-233.333
203.44	180.000
203.82	-200.000
204.19	10.000
204.57	0.000
204.95	-33.333
205.32	0.000
205.70	-300.000
206.08	-75.000
206.45	-150.000
206.83	375.000
207.20	-200.000
207.58	20.000
207.96	-1400.000
208.33	-100.000
208.71	-1200.000
209.08	200.000
209.46	500.000
209.84	0.000
210.21	150.000
210.59	1300.000
210.96	300.000
211.34	500.000
211.71	-650.000
212.09	-233.333
212.46	-70.000
212.84	66.667
213.22	200.000
213.59	0.000
213.97	200.000
214.34	-300.000
214.72	23.077
215.09	112.500
215.47	233.333
215.84	600.000
216.22	25.000
216.59	-500.000
216.97	533.333
217.34	155.556
217.72	0.000
218.09	133.333
218.47	300.000
218.84	57.143
219.22	-25.000
219.59	-433.333
219.97	-25.000
220.34	-25.000
220.72	-220.000
221.09	0.000
221.47	-100.000
221.84	-300.000
222.22	0.000
222.59	700.000
222.97	-366.667
223.34	-25.000
223.72	-700.000
224.09	-350.000
224.46	27.273
224.84	-12.500
225.21	-57.143
225.59	-425.000
225.96	-33.333
226.34	-20.000
226.71	-128.571
227.08	250.000
227.46	-200.000
227.83	300.000
228.21	-25.000
228.58	-50.000
228.95	-58.824
229.33	12.500
229.70	-112.500
230.08	23.077
230.45	25.000
230.82	-100.000
231.20	142.857
231.57	-275.000
231.95	900.000
232.32	33.333
232.69	11.765
233.07	-900.000
233.44	4.348
233.81	-600.000
234.19	62.500
234.56	-33.333
234.93	-33.333
235.31	31.579
235.68	-46.154
236.05	15.385
236.43	-22.222
236.80	-18.182
237.17	-13.333
237.55	-64.706
237.92	-27.586
238.29	-22.222
238.67	8.333
239.04	-19.355
239.41	-19.149
239.79	10.638
240.16	-18.605
240.53	-1.786
240.91	30.357
241.28	-7.143
241.65	8.065
242.02	3.947
242.40	27.536
242.77	10.145
243.14	-8.974
243.51	7.447
243.89	14.423
244.26	17.925
244.63	7.692
245.00	14.583
245.38	10.924
245.75	18.852
246.12	8.271
246.49	10.569
246.87	2.521
247.24	12.162
247.61	13.245
247.98	15.385
248.36	9.467
248.73	9.551
249.10	10.606
249.47	16.129
249.84	13.684
250.22	14.428
250.59	12.150
250.96	13.636
251.33	8.134
251.70	14.226
252.08	13.808
252.45	11.523
252.82	15.970
253.19	11.673
253.56	12.230
253.94	15.658
254.31	11.972
254.68	19.128
255.05	13.201
255.42	16.434
255.79	14.724
256.16	11.672
256.54	12.063
256.91	9.810
257.28	15.409
257.65	12.420
258.02	12.317
258.39	18.129
258.76	11.628
259.14	12.500
259.51	13.483
259.88	13.550
260.25	13.333
260.62	12.921
260.99	13.263
261.36	12.953
261.73	12.840
262.10	13.232
262.47	11.358
262.85	14.428
263.22	15.897
263.59	12.468
263.96	13.382
264.33	11.779
264.70	14.884
265.07	15.046
265.44	17.241
265.81	14.416
266.18	13.440
266.55	13.537
266.92	12.076
267.29	13.374
267.66	15.074
268.03	14.403
268.40	10.381
268.77	13.843
269.14	14.694
269.51	16.838
269.88	12.627
270.25	11.229
270.62	12.500
270.99	14.173
271.36	14.484
271.73	14.056
272.10	13.524
272.47	13.820
272.84	14.173
273.21	14.090
273.58	13.525
273.95	15.472
274.32	14.179
274.69	15.665
275.06	15.371
275.43	14.689
275.80	12.589
276.17	11.971
276.54	14.387
276.91	14.286
277.28	11.913
277.65	13.811
278.02	11.964
278.39	12.256
278.76	14.716
279.13	14.065
279.50	14.310
279.87	14.493
280.23	13.694
280.60	12.284
280.97	13.312
281.34	13.722
281.71	12.520
282.08	13.504
282.45	12.787
282.82	12.141
283.19	13.262
283.56	13.594
283.92	14.526
284.29	13.885
284.66	13.015
285.03	11.401
285.40	13.142
285.77	15.165
286.14	15.502
286.51	14.693
286.87	13.231
287.24	12.832
287.61	14.458
287.98	12.941
288.35	11.177
288.72	12.912
289.08	14.387
289.45	12.335
289.82	13.767
290.19	13.885
290.56	11.932
290.93	11.188
291.29	12.312
291.66	12.432
292.03	14.033
292.40	11.978
292.77	12.182
293.13	13.529
293.50	10.196
293.87	11.467
294.24	10.979
294.60	12.484
294.97	13.095
295.34	10.554
295.71	9.724
296.08	10.995
296.44	10.842
296.81	10.840
297.18	12.250
297.55	10.731
297.91	11.056
298.28	10.169
298.65	11.330
299.02	11.477
299.38	10.184
299.75	10.938
300.12	10.116
300.48	10.292
300.85	9.931
301.22	9.988
301.59	11.268
301.95	8.943
302.32	9.918
302.69	8.701
303.05	11.185
303.42	10.795
303.79	12.198
304.15	10.515
304.52	10.538
304.89	8.749
305.25	9.989
305.62	9.653
305.99	10.555
306.35	11.703
306.72	10.987
307.09	9.802
307.45	11.076
307.82	10.105
308.19	7.837
308.55	10.235
308.92	11.690
309.29	10.110
309.65	9.391
310.02	12.425
310.38	10.366
310.75	8.580
311.12	9.815
311.48	10.880
311.85	10.236
312.22	11.412
312.58	10.048
312.95	10.149
313.31	10.652
313.68	10.496
314.05	11.248
314.41	10.759
314.78	11.480
315.14	10.556
315.51	11.132
315.87	11.214
316.24	13.131
316.61	11.689
316.97	11.389
317.34	11.230
317.70	12.846
318.07	13.753
318.43	11.653
318.80	12.653
319.16	11.671
319.53	12.993
319.89	12.918
320.26	14.510
320.62	14.458
320.99	11.919
321.35	14.500
321.72	13.474
322.08	15.406
322.45	16.004
322.81	14.880
323.18	15.385
323.54	15.253
323.91	15.628
324.27	16.562
324.64	15.592
325.00	17.148
325.37	17.833
325.73	17.424
326.10	17.494
326.46	16.722
326.83	17.961
327.19	18.374
327.56	19.500
327.92	19.147
328.29	20.701
328.65	21.297
329.01	18.294
329.38	21.217
329.74	21.116
330.11	20.379
330.47	20.660
330.84	21.390
331.20	21.349
331.56	22.283
331.93	20.586
332.29	21.546
332.66	20.339
333.02	23.458
333.38	22.456
333.75	21.758
334.11	22.309
334.48	22.232
334.84	22.438
335.20	23.242
335.57	22.889
335.93	23.196
336.29	23.468
336.66	23.504
337.02	23.826
337.38	22.019
337.75	23.256
338.11	23.570
338.47	23.459
338.84	21.821
339.20	24.074
339.56	23.208
339.93	24.028
340.29	24.167
340.65	24.294
341.02	23.960
341.38	23.902
341.74	23.697
342.11	22.296
342.47	22.929
342.83	24.592
343.20	23.858
343.56	24.448
343.92	23.233
344.28	24.026
344.65	24.245
345.01	24.052
345.37	25.247
345.73	25.000
346.10	24.398
346.46	24.065
346.82	24.799
347.19	24.604
347.55	23.990
347.91	24.474
348.27	23.817
348.63	25.401
349.00	24.686
349.36	24.961
349.72	25.135
350.08	24.649
350.45	23.649
350.81	25.822
351.17	25.404
351.53	24.038
351.89	24.146
352.26	23.938
352.62	25.426
352.98	25.639
353.34	24.718
353.70	25.857
354.07	25.020
354.43	25.661
354.79	26.683
355.15	25.543
355.51	25.816
355.87	24.316
356.24	25.441
356.60	24.629
356.96	24.942
357.32	25.774
357.68	25.592
358.04	25.136
358.40	25.891
358.77	26.453
359.13	25.992
359.49	25.587
359.85	26.232
360.21	26.523
360.57	25.779
360.93	26.024
361.29	25.759
361.66	25.968
362.02	25.278
362.38	25.997
362.74	25.163
363.10	26.320
363.46	25.000
363.82	25.499
364.18	26.396
364.54	26.988
364.90	25.226
365.26	25.902
365.62	25.923
365.98	26.335
366.35	25.106
366.71	25.892
367.07	26.506
367.43	25.296
367.79	26.407
368.15	27.426
368.51	26.582
368.87	27.285
369.23	25.765
369.59	26.286
369.95	26.270
370.31	26.499
370.67	25.778
371.03	27.691
371.39	28.034
371.75	27.643
372.11	25.356
372.47	26.172
372.83	26.768
373.19	25.683
373.55	26.590
373.91	25.955
374.27	26.349
374.63	27.383
374.99	26.811
375.35	26.918
375.71	25.883
376.07	26.868
376.42	26.939
376.78	27.939
377.14	27.932
377.50	27.053
377.86	27.291
378.22	27.181
378.58	27.049
378.94	28.875
379.30	28.232
379.66	27.682
380.02	27.512
380.38	27.530
380.74	28.691
381.09	27.925
381.45	27.207
381.81	26.864
382.17	27.914
382.53	27.508
382.89	27.986
383.25	28.333
383.61	28.269
383.97	26.750
384.32	27.410
384.68	27.946
385.04	27.306
385.40	28.207
385.76	28.102
386.12	27.695
386.48	27.837
386.83	28.035
387.19	27.822
387.55	29.062
387.91	28.536
388.27	27.805
388.62	28.901
388.98	28.098
389.34	27.882
389.70	28.083
390.06	28.312
390.42	28.544
390.77	28.059
391.13	28.283
391.49	28.083
391.85	27.859
392.20	28.509
392.56	28.000
392.92	27.560
393.28	28.298
393.64	27.951
393.99	27.723
394.35	28.148
394.71	27.885
395.07	27.107
395.42	29.311
395.78	28.378
396.14	28.472
396.50	27.901
396.85	28.107
397.21	27.091
397.57	28.323
397.92	27.485
398.28	27.468
398.64	28.051
399.00	28.627
399.35	28.661
399.71	27.606
400.07	27.952
400.42	27.774
400.78	27.492
401.14	26.732
401.49	27.202
401.85	27.948
402.21	27.492
402.57	27.529
402.92	27.785
403.28	27.455
403.63	26.968
403.99	27.255
404.35	26.434
404.70	26.586
405.06	26.424
405.42	26.633
405.77	27.477
406.13	26.914
406.49	26.902
406.84	27.167
407.20	26.880
407.55	26.883
407.91	26.340
408.27	26.014
408.62	26.642
408.98	26.449
409.34	26.671
409.69	27.680
410.05	26.057
410.40	26.415
410.76	26.354
411.11	25.933
411.47	26.808
411.83	25.951
412.18	26.259
412.54	27.068
412.89	25.956
413.25	25.369
413.60	26.207
413.96	25.905
414.31	25.647
414.67	26.730
415.03	25.304
415.38	24.835
415.74	25.081
416.09	26.900
416.45	25.154
416.80	25.101
417.16	26.518
417.51	24.782
417.87	24.405
418.22	25.533
418.58	24.901
418.93	24.859
419.29	25.611
419.64	24.237
420.00	24.508
420.35	24.328
420.71	24.558
421.06	24.047
421.42	24.939
421.77	24.393
422.12	24.871
422.48	23.991
422.83	25.103
423.19	23.807
423.54	25.265
423.90	24.287
424.25	25.130
424.61	24.646
424.96	23.773
425.31	23.948
425.67	24.985
426.02	24.441
426.38	25.000
426.73	24.374
427.09	23.827
427.44	24.310
427.79	23.040
428.15	23.425
428.50	22.779
428.85	23.739
429.21	23.073
429.56	23.379
429.92	23.946
430.27	23.466
430.62	24.292
430.98	24.484
431.33	23.321
431.68	22.524
432.04	23.268
432.39	23.152
432.74	22.624
433.10	23.475
433.45	23.373
433.80	22.931
434.16	22.283
434.51	23.207
434.86	23.439
435.22	22.920
435.57	22.236
435.92	21.894
436.28	21.682
436.63	22.113
436.98	22.562
437.34	21.978
437.69	21.606
438.04	22.694
438.39	22.727
438.75	22.408
439.10	22.788
439.45	22.579
439.81	22.475
440.16	22.667
440.51	22.176
440.86	22.229
441.22	22.203
441.57	22.885
441.92	21.721
442.27	22.132
442.63	21.152
442.98	21.123
443.33	21.614
443.68	20.770
444.03	21.510
444.39	21.765
444.74	21.259
445.09	22.302
445.44	22.197
445.79	21.631
446.15	21.742
446.50	21.971
446.85	21.005
447.20	21.746
447.55	21.712
447.91	21.180
448.26	21.612
448.61	21.289
448.96	20.501
449.31	21.416
449.66	21.053
450.02	21.546
450.37	20.035
450.72	20.379
451.07	20.439
451.42	20.898
451.77	19.598
452.12	20.499
452.47	20.852
452.83	20.342
453.18	20.369
453.53	19.672
453.88	20.783
454.23	20.828
454.58	20.588
454.93	20.654
455.28	20.039
455.63	19.775
455.98	20.694
456.34	20.216
456.69	19.553
457.04	19.257
457.39	19.844
457.74	20.347
458.09	20.142
458.44	19.506
458.79	20.099
459.14	18.820
459.49	19.024
459.84	19.448
460.19	19.688
460.54	19.282
460.89	19.088
461.24	19.236
461.59	19.384
461.94	19.027
462.29	19.424
462.64	19.063
462.99	19.316
463.34	20.097
463.69	19.459
464.04	18.367
464.39	19.646
464.74	18.980
465.09	19.219
465.44	18.575
465.79	19.494
466.14	18.700
466.49	18.358
466.84	17.932
467.19	18.280
467.54	18.276
467.89	18.730
468.24	18.685
468.59	18.674
468.94	17.944
469.29	18.506
469.64	18.271
469.99	18.207
470.34	17.532
470.68	16.952
471.03	18.124
471.38	18.011
471.73	17.215
472.08	18.007
472.43	18.470
472.78	17.918
473.13	17.480
473.48	17.221
473.83	17.012
474.17	17.187
474.52	17.735
474.87	16.526
475.22	17.693
475.57	17.066
475.92	17.666
476.27	17.541
476.61	16.988
476.96	16.619
477.31	17.206
477.66	17.119
478.01	16.648
478.36	16.730
478.70	16.541
479.05	17.370
479.40	17.057
479.75	16.578
480.10	17.185
480.45	16.675
480.79	17.521
481.14	16.616
481.49	16.922
481.84	16.918
482.19	16.350
482.53	16.381
482.88	16.922
483.23	16.073
483.58	16.588
483.92	16.488
484.27	16.102
484.62	16.378
484.97	16.798
485.31	15.947
485.66	16.989
486.01	17.011
486.36	16.979
486.70	16.657
487.05	16.238
487.40	16.369
487.75	16.624
488.09	16.422
488.44	15.913
488.79	16.011
489.13	16.024
489.48	15.904
489.83	15.766
490.17	15.025
490.52	16.363
490.87	15.067
491.22	16.109
491.56	15.621
491.91	15.699
492.26	15.667
492.60	16.114
492.95	16.181
493.30	15.891
493.64	14.916
493.99	15.604
494.34	16.040
494.68	15.370
495.03	15.069
495.37	15.328
495.72	15.589
496.07	15.392
496.41	15.021
496.76	15.631
497.11	15.587
497.45	15.078
497.80	15.800
498.14	15.516
498.49	14.675
498.84	15.789
499.18	15.082
499.53	15.165
499.87	14.556
500.22	14.485
500.56	15.898
500.91	15.342
501.26	15.665
501.60	14.755
501.95	15.285
502.29	15.291
502.64	15.381
502.98	15.077
503.33	14.939
503.67	14.946
504.02	14.559
504.36	14.710
504.71	14.431
505.06	14.773
505.40	14.845
505.75	15.209
506.09	14.614
506.44	15.020
506.78	14.271
507.13	14.917
507.47	14.528
507.82	14.547
508.16	15.092
508.51	14.411
508.85	13.945
509.19	13.968
509.54	15.228
509.88	14.946
510.23	14.316
510.57	14.142
510.92	14.763
511.26	14.026
511.61	13.886
511.95	14.057
512.30	13.604
512.64	15.040
512.98	14.958
513.33	14.366
513.67	14.367
514.02	13.854
514.36	14.494
514.70	14.434
515.05	14.336
515.39	14.446
515.74	14.506
516.08	13.628
516.42	14.171
516.77	13.591
517.11	14.580
517.46	14.346
517.80	14.831
518.14	13.656
518.49	13.984
518.83	14.320
519.17	13.614
519.52	14.355
519.86	13.783
520.20	13.584
520.55	13.682
520.89	13.978
521.23	14.359
521.58	14.349
521.92	14.205
522.26	13.663
522.61	14.221
522.95	13.990
523.29	13.270
523.64	13.541
523.98	13.342
524.32	13.674
524.66	14.091
525.01	13.827
525.35	14.615
525.69	13.983
526.04	13.616
526.38	13.767
526.72	13.609
527.06	13.540
527.41	13.700
527.75	12.150
528.09	14.908
528.43	14.315
528.78	13.824
529.12	14.036
529.46	12.988
529.80	13.333
530.15	13.707
530.49	14.084
530.83	13.406
531.17	13.562
531.51	13.082
531.86	13.550
532.20	13.232
532.54	13.172
532.88	13.206
533.22	14.545
533.57	12.980
533.91	14.839
534.25	13.737
534.59	13.642
534.93	14.286
535.27	13.631
535.62	13.487
535.96	14.639
536.30	12.965
536.64	13.124
536.98	12.824
537.32	12.811
537.66	13.822
538.01	13.315
538.35	13.467
538.69	12.977
539.03	13.758
539.37	13.883
539.71	12.756
540.05	13.495
540.39	12.939
540.73	13.617
541.07	12.517
541.42	13.939
541.76	14.005
542.10	12.525
542.44	12.959
542.78	12.491
543.12	12.736
543.46	12.370
543.80	13.103
544.14	13.352
544.48	12.143
544.82	12.979
545.16	13.252
545.50	13.842
545.84	12.482
546.18	12.763
546.52	13.691
546.86	12.650
547.20	13.224
547.54	12.652
547.88	13.023
548.22	13.029
548.56	13.409
548.90	12.652
549.24	13.472
549.58	12.598
549.92	13.720
550.26	13.432
550.60	12.462
550.94	11.866
551.28	12.415
551.62	13.158
551.96	13.397
552.30	12.300
552.64	11.794
552.98	13.210
553.32	12.617
553.66	13.573
554.00	12.311
554.34	11.795
554.68	12.975
555.02	12.126
555.36	12.254
555.69	12.819
556.03	12.938
556.37	12.447
556.71	13.385
557.05	11.587
557.39	11.379
557.73	12.405
558.07	13.037
558.41	12.945
558.75	12.933
559.08	11.628
559.42	12.589
559.76	12.615
560.10	12.068
560.44	12.528
560.78	12.734
561.12	12.824
561.45	12.177
561.79	13.686
562.13	13.010
562.47	12.500
562.81	11.760
563.15	12.110
563.48	12.251
563.82	13.064
564.16	13.067
564.50	12.415
564.84	12.973
565.17	13.510
565.51	11.832
565.85	11.925
566.19	12.185
566.52	12.451
566.86	11.441
567.20	13.195
567.54	12.550
567.88	11.590
568.21	12.330
568.55	13.250
568.89	11.864
569.23	12.145
569.56	12.808
569.90	12.385
570.24	12.094
570.57	12.897
570.91	12.949
571.25	13.057
571.59	12.718
571.92	12.496
572.26	12.801
572.60	12.596
572.93	12.527
573.27	12.572
573.61	12.784
573.95	12.586
574.28	12.838
574.62	12.293
574.96	13.140
575.29	12.713
575.63	12.302
575.97	12.908
576.30	12.858
576.64	12.994
576.98	12.790
577.31	13.022
577.65	12.812
577.98	13.077
578.32	13.118
578.66	12.654
578.99	13.005
579.33	13.143
579.67	12.373
580.00	12.199
580.34	12.336
580.67	12.935
581.01	12.523
581.35	12.962
581.68	12.720
582.02	13.081
582.35	13.047
582.69	12.580
583.02	12.318
583.36	12.391
583.70	12.599
584.03	12.726
584.37	12.514
584.70	12.756
585.04	12.735
585.37	12.224
585.71	13.121
586.04	12.506
586.38	12.681
586.72	12.644
587.05	12.803
587.39	12.463
587.72	12.447
588.06	12.257
588.39	12.958
588.73	12.395
589.06	12.059
589.40	11.937
589.73	12.073
590.07	12.286
590.40	12.571
590.73	11.872
591.07	12.077
591.40	11.913
591.74	12.361
592.07	12.004
592.41	12.398
592.74	12.731
593.08	12.274
593.41	12.653
593.75	12.371
594.08	12.193
594.41	12.431
594.75	12.219
595.08	12.136
595.42	11.525
595.75	12.328
596.09	11.740
596.42	12.051
596.75	12.418
597.09	12.056
597.42	12.696
597.75	12.444
598.09	12.113
598.42	11.723
598.76	11.839
599.09	12.885
599.42	12.727
599.76	12.167
600.09	12.236
600.42	12.580
600.76	12.343
601.09	12.655
601.42	12.348
601.76	12.124
602.09	12.444
602.42	12.877
602.76	11.871
603.09	12.402
603.42	12.275
603.76	12.276
604.09	12.490
604.42	11.260
604.76	11.960
605.09	12.234
605.42	12.865
605.75	12.034
606.09	11.921
606.42	12.677
606.75	11.688
607.09	11.924
607.42	12.566
607.75	11.554
608.08	12.218
608.42	11.200
608.75	12.136
609.08	11.906
609.41	11.624
609.75	11.699
610.08	12.821
610.41	11.759
610.74	12.127
611.07	11.673
611.41	12.538
611.74	12.267
612.07	11.985
612.40	12.216
612.73	10.977
613.07	11.197
613.40	12.059
613.73	11.972
614.06	11.830
614.39	11.006
614.72	12.326
615.06	11.611
615.39	12.252
615.72	11.177
616.05	11.036
616.38	11.455
616.71	10.798
617.05	12.346
617.38	11.768
617.71	11.336
618.04	11.517
618.37	11.356
618.70	11.190
619.03	11.271
619.36	11.673
619.69	10.234
620.03	11.237
620.36	12.039
620.69	11.206
621.02	11.154
621.35	9.730
621.68	10.106
622.01	11.003
622.34	11.657
622.67	11.276
623.00	10.790
623.33	11.668
623.66	9.442
623.99	11.478
624.32	11.445
624.65	12.315
624.99	10.727
625.32	11.725
625.65	10.930
625.98	11.216
626.31	11.673
626.64	11.178
626.97	10.294
627.30	12.660
627.63	10.294
627.96	10.476
628.29	11.256
628.62	11.605
628.95	10.521
629.28	11.133
629.61	11.483
629.94	10.735
630.26	11.626
630.59	11.189
630.92	10.542
631.25	9.681
631.58	11.135
631.91	10.498
632.24	10.099
632.57	9.556
632.90	10.618
633.23	9.472
633.56	10.552
633.89	10.407
634.22	12.956
634.55	10.231
634.88	9.436
635.20	11.875
635.53	9.561
635.86	9.359
636.19	11.042
636.52	10.488
636.85	10.736
637.18	9.501
637.51	9.738
637.83	11.880
638.16	9.600
638.49	10.013
638.82	11.111
639.15	11.170
639.48	10.294
639.81	10.417
640.13	11.127
640.46	12.288
640.79	9.496
641.12	9.615
641.45	9.170
641.77	10.457
642.10	10.741
642.43	11.164
642.76	8.360
643.09	11.022
643.41	11.802
643.74	10.501
644.07	10.032
644.40	8.955
644.73	11.186
645.05	7.330
645.38	9.801
645.71	7.823
646.04	6.566
646.36	9.722
646.69	10.140
647.02	9.836
647.35	9.689
647.67	6.654
648.00	8.696
648.33	10.339
648.66	8.347
648.98	10.714
649.31	10.123
649.64	9.546
649.96	11.216
650.29	8.660
650.62	8.072
650.94	8.276
651.27	9.717
651.60	12.238
651.92	10.573
652.25	10.050
652.58	10.726
652.90	9.259
653.23	8.659
653.56	9.421
653.88	8.191
654.21	7.509
654.54	9.967
654.86	10.732
655.19	10.224
655.52	12.250
655.84	13.007
656.17	15.657
656.49	20.344
656.82	19.549
657.15	14.139
657.47	10.276
657.80	7.281
658.13	7.717
658.45	11.215
658.78	10.564
659.10	10.238
659.43	10.000
659.75	10.220
660.08	10.000
660.41	9.026
660.73	10.193
661.06	8.503
661.38	6.008
661.71	7.787
662.03	8.879
662.36	7.522
662.68	8.817
663.01	12.712
663.33	9.719
663.66	7.761
663.98	9.213
664.31	9.011
664.63	4.505
664.96	9.628
665.28	10.944
665.61	6.479
665.93	6.852
666.26	10.970
666.58	8.779
666.91	10.090
667.23	8.295
667.56	8.046
667.88	9.813
668.21	7.143
668.53	8.506
668.86	6.954
669.18	8.983
669.50	11.521
669.83	9.069
670.15	6.905
670.48	9.655
670.80	9.409
671.13	6.865
671.45	9.589
671.77	9.914
672.10	7.797
672.42	8.397
672.75	6.429
673.07	8.545
673.39	9.328
673.72	11.776
674.04	10.861
674.37	10.976
674.69	7.819
675.01	7.906
675.34	9.628
675.66	10.458
675.98	6.416
676.31	7.919
676.63	11.791
676.95	9.176
677.28	9.404
677.60	9.804
677.92	10.421
678.25	8.894
678.57	11.405
678.89	7.889
679.22	7.453
679.54	9.796
679.86	8.203
680.18	8.269
680.51	8.269
680.83	7.797
681.15	11.591
681.48	8.617
681.80	8.384
682.12	6.042
682.44	8.652
682.77	5.895
683.09	7.366
683.41	7.907
683.73	8.259
684.06	7.743
684.38	9.402
684.70	6.925
685.02	7.231
685.34	11.937
685.67	9.568
685.99	8.185
686.31	10.345
686.63	9.191
686.96	10.390
687.28	7.784
687.60	9.641
687.92	11.089
688.24	7.600
688.56	9.868
688.89	5.345
689.21	8.520
689.53	7.432
689.85	7.865
690.17	11.648
690.49	6.280
690.82	5.489
691.14	8.696
691.46	8.353
691.78	7.912
692.10	9.130
692.42	7.473
692.74	10.435
693.06	7.640
693.39	8.197
693.71	10.000
694.03	13.409
694.35	11.036
694.67	8.750
694.99	9.278
695.31	8.786
695.63	9.756
695.95	6.107
696.27	6.575
696.59	9.140
696.91	5.587
697.23	6.345
697.56	8.153
697.88	11.642
698.20	9.071
698.52	9.112
698.84	7.656
699.16	7.801
699.48	8.642
699.80	8.786
700.12	8.579
700.44	7.042
700.76	8.146
701.08	8.459
701.40	6.886
701.72	5.231
702.04	5.031
702.36	8.537
702.68	7.012
703.00	8.480
703.32	6.685
703.64	6.325
703.96	7.625
704.28	9.337
704.60	10.366
704.91	8.464
705.23	10.127
705.55	9.310
705.87	6.690
706.19	7.692
706.51	7.042
706.83	5.732
707.15	9.451
707.47	10.193
707.79	8.376
708.11	5.141
708.43	8.629
708.74	6.915
709.06	9.626
709.38	8.646
709.70	9.009
710.02	12.150
710.34	5.000
710.66	10.098
710.98	9.598
711.29	7.792
711.61	8.065
711.93	11.290
712.25	5.594
712.57	5.263
712.89	7.326
713.20	9.929
713.52	6.934
713.84	7.742
714.16	7.767
714.48	9.494
714.80	5.751
715.11	11.047
715.43	5.590
715.75	12.422
716.07	11.446
716.39	7.744
716.70	10.432
717.02	3.922
717.34	9.091
717.66	3.879
717.97	5.556
718.29	10.236
718.61	3.863
718.93	7.752
719.24	15.867
719.56	9.738
719.88	5.970
720.20	7.905
720.51	10.156
720.83	12.451
721.15	3.659
721.46	5.344
721.78	11.554
722.10	6.375
722.42	4.839
722.73	6.178
723.05	6.531
723.37	8.824
723.68	4.000
724.00	4.681
724.32	9.623
724.63	10.288
724.95	6.410
725.27	10.970
725.58	12.757
725.90	5.021
726.22	10.507
726.53	3.922
726.85	9.854
727.16	4.444
727.48	11.111
727.80	7.813
728.11	9.426
728.43	6.250
728.74	7.540
729.06	6.400
729.38	10.672
729.69	8.541
730.01	8.922
730.32	9.225
730.64	6.061
730.96	8.741
731.27	5.017
731.59	8.889
731.90	8.414
732.22	6.731
732.53	4.392
732.85	9.396
733.16	12.211
733.48	10.135
733.80	8.108
734.11	10.811
734.43	9.288
734.74	11.111
735.06	9.798
735.37	9.119
735.69	7.443
736.00	8.581
736.32	8.511
736.63	8.276
736.95	7.192
737.26	7.586
737.58	8.333
737.89	10.997
738.21	4.982
738.52	3.042
738.83	10.612
739.15	5.485
739.46	7.782
739.78	5.986
740.09	7.192
740.41	8.571
740.72	7.092
741.04	3.600
741.35	9.211
741.66	12.444
741.98	10.577
742.29	12.871
742.61	7.805
742.92	9.211
743.23	5.660
743.55	8.108
743.86	2.242
744.18	4.902
744.49	5.076
744.80	8.163
745.12	5.140
745.43	8.531
745.74	5.856
746.06	7.477
746.37	8.257
746.68	8.173
747.00	5.742
747.31	6.731
747.62	5.963
747.94	11.790
748.25	5.963
748.56	8.444
748.88	13.146
749.19	11.905
749.50	5.340
749.82	4.695
750.13	2.500
750.44	5.385
750.75	7.749
751.07	8.185
751.38	8.865
751.69	6.564
752.01	5.859
752.32	7.308
752.63	9.701
752.94	11.600
753.26	7.950
753.57	5.417
753.88	4.453
754.19	9.562
754.51	11.278
754.82	5.861
755.13	1.304
755.44	8.130
755.75	5.600
756.07	6.273
756.38	7.194
756.69	10.580
757.00	13.707
757.31	9.709
757.63	8.642
757.94	9.605
758.25	11.111
758.56	10.326
758.87	10.714
759.18	8.517
759.50	8.081
759.81	11.371
760.12	10.154
760.43	8.929
760.74	10.734
761.05	9.392
761.36	6.590
761.67	7.251
761.99	9.966
762.30	6.934
762.61	2.881
762.92	8.974
763.23	12.295
763.54	9.957
763.85	4.082
764.16	10.976
764.47	6.000
764.78	11.071
765.10	8.525
765.41	6.991
765.72	5.280
766.03	9.241
766.34	5.769
766.65	7.950
766.96	9.859
767.27	9.901
767.58	0.562
767.89	8.642
768.20	4.972
768.51	16.080
768.82	7.212
769.13	11.947
769.44	7.531
769.75	3.846
770.06	8.520
770.37	1.471
770.68	10.680
770.99	7.282
771.30	7.563
771.61	10.204
771.92	12.033
772.23	4.054
772.54	6.077
772.85	5.814
773.16	10.582
773.47	3.550
773.78	14.943
774.09	10.625
774.39	15.528
774.70	12.925
775.01	4.828
775.32	4.286
775.63	-0.752
775.94	-0.752
776.25	2.400
776.56	6.612
776.87	9.524
777.18	-1.802
777.48	7.207
777.79	3.150
778.10	-1.835
778.41	0.000
778.72	5.042
779.03	-3.521
779.34	6.757
779.65	7.042
779.95	1.325
780.26	8.633
780.57	10.791
780.88	3.521
781.19	-0.840
781.50	10.738
781.80	8.772
782.11	2.907
782.42	8.805
782.73	12.418
783.04	2.069
783.34	9.160
783.65	3.356
783.96	-1.538
784.27	12.857
784.57	11.348
784.88	-0.962
785.19	14.545
785.50	9.091
785.81	-1.905
786.11	2.521
786.42	9.735
786.73	-0.943
787.04	-3.670
787.34	-5.941
787.65	9.167
787.96	12.397
788.26	7.246
788.57	4.762
788.88	9.756
789.19	3.200
789.49	0.763
789.80	9.848
790.11	-2.830
790.41	6.931
790.72	1.064
791.03	1.087
791.33	1.176
791.64	2.469
791.95	2.174
792.25	-6.818
792.56	11.538
792.87	-6.410
793.17	-14.103
793.48	-5.952
793.79	7.500
794.09	17.308
794.40	12.500
794.70	-0.901
795.01	3.125
795.32	4.348
795.62	-16.304
795.93	0.000
796.23	12.121
796.54	3.659
796.85	-4.762
797.15	-13.636
797.46	2.899
797.76	1.316
798.07	14.773
798.37	9.756
798.68	6.452
798.99	-5.405
799.29	6.024
799.60	3.846
799.90	0.000
800.21	9.091
800.51	-9.333
800.82	9.333
801.12	-35.417
801.43	-21.667
801.73	10.811
802.04	8.571
802.34	6.557
802.65	5.970
802.95	7.273
803.26	1.724
803.56	6.154
803.87	15.094
804.17	-1.613
804.48	16.176
804.78	-12.195
805.09	13.043
805.39	13.235
805.70	-23.404
806.00	3.509
806.30	5.128
806.61	3.947
806.91	10.811
807.22	2.632
807.52	2.273
807.83	-11.864
808.13	-21.212
808.43	10.000
808.74	-29.310
809.04	-14.286
809.35	-36.735
809.65	-6.667
809.95	-22.449
810.26	22.535
810.56	0.000
810.86	-30.612
811.17	17.308
811.47	4.255
811.77	-6.250
812.08	-5.660
812.38	-18.750
812.69	-3.636
812.99	-14.634
813.29	-2.703
813.59	-2.703
813.90	9.091
814.20	-1.818
814.50	-1.667
814.81	16.364
815.11	-8.772
815.41	2.326
815.72	-10.000
816.02	-17.143
816.32	-18.919
816.62	-12.500
816.93	6.667
817.23	-15.556
817.53	-33.333
817.84	-8.108
818.14	-17.073
818.44	4.000
818.74	8.163
819.04	14.634
819.35	-5.556
819.65	11.364
819.95	-50.000
820.25	-9.091
820.56	-9.524
820.86	2.778
821.16	-18.182
821.46	-26.087
821.76	0.000
822.07	15.217
822.37	9.091
822.67	24.390
822.97	-18.919
823.27	-5.714
823.57	10.345
823.88	0.000
824.18	-16.667
824.48	-8.571
824.78	9.524
825.08	3.571
825.38	-14.815
825.69	-9.677
825.99	24.390
826.29	3.704
826.59	9.375
826.89	-38.710
827.19	-34.783
827.49	-30.556
827.79	-39.130
828.09	-19.355
828.39	-8.333
828.70	-28.125
829.00	0.000
829.30	-2.703
829.60	-29.167
829.90	-22.222
830.20	-21.875
830.50	-13.636
830.80	-147.059
831.10	-13.636
831.40	-17.647
831.70	-34.615
832.00	-27.273
832.30	2.941
832.60	-2.703
832.90	1800.000
833.20	7.143
833.50	-125.000
833.80	-18.421
834.10	-25.000
834.40	-9.091
834.70	-106.667
835.00	-160.000
835.30	-20.833
835.60	-38.095
835.90	-23.810
836.20	-8.000
836.50	-25.000
836.80	-57.895
837.10	10.811
837.40	36.667
837.70	-13.043
838.00	16.667
838.30	21.053
838.60	-20.000
838.90	-50.000
839.19	-50.000
839.49	7.692
839.79	-21.053
840.09	-266.667
840.39	-100.000
840.69	4.545
840.99	-23.810
841.29	-16.667
841.59	-46.154
841.88	-86.667
842.18	-35.714
842.48	-20.000
842.78	-128.571
843.08	-28.571
843.38	-150.000
843.68	-37.500
843.97	-57.143
844.27	-144.444
844.57	-100.000
844.87	-93.333
845.17	27.273
845.47	433.333
845.76	-66.667
846.06	8.333
846.36	-1100.000
846.66	-57.895
846.96	-22.727
847.25	-66.667
847.55	-177.778
847.85	-23.810
848.15	-7.692
848.44	-250.000
848.74	-25.000
849.04	-115.385
849.34	-325.000
849.63	-100.000
849.93	-71.429
850.23	0.000
850.53	-112.500
850.82	5.556
851.12	-106.667
851.42	-52.941
851.71	-12.500
852.01	-23.529
852.31	-61.538
852.61	1000.000
852.90	-47.059
853.20	-33.333
853.50	-25.000
853.79	-92.857
854.09	-75.000
854.39	-35.000
854.68	7.500
854.98	-4.762
855.28	-24.000
855.57	-25.000
855.87	16.667
856.17	-44.000
856.46	-9.375
856.76	0.000
857.05	28.000
857.35	-125.000
857.65	-88.235
857.94	-141.667
858.24	-58.333
858.53	-25.000
858.83	-54.545
859.13	-8.000
859.42	-57.143
859.72	-137.500
860.01	25.000
860.31	-75.000
860.60	-12.500
860.90	-66.667
861.20	-150.000
861.49	-46.667
861.79	-18.750
862.08	250.000
862.38	-116.667
862.67	242.857
862.97	425.000
863.26	-100.000
863.56	-9.091
863.85	21.053
864.15	17.647
864.44	-200.000
864.74	10.000
865.03	-100.000
865.33	-35.714
865.62	64.286
865.92	-5.263
866.21	-72.222
866.51	-90.909
866.80	-55.556
867.10	-75.000
867.39	-25.000
867.69	-26.667
867.98	-150.000
868.27	5.882
868.57	0.000
868.86	750.000
869.16	-325.000
869.45	-171.429
869.75	450.000
870.04	-80.000
870.33	-1600.000
870.63	-15.789
870.92	-108.333
871.22	-1900.000
871.51	-228.571
871.80	-122.222
872.10	-275.000
>>>>>End Processed Spectral Data<<<<<
