SpectraSuite Data File
++++++++++++++++++++++++++++++++++++
Date: Wed May 13 20:59:03 PDT 2015
User: schluterlab
Dark Spectrum Present: Yes
Reference Spectrum Present: Yes
Number of Sampled Component Spectra: 1
Spectrometers: USB2E3373
Integration Time (usec): 3000 (USB2E3373)
Spectra Averaged: 3 (USB2E3373)
Boxcar Smoothing: 0 (USB2E3373)
Correct for Electrical Dark: No (USB2E3373)
Strobe/Lamp Enabled: No (USB2E3373)
Correct for Detector Non-linearity: No (USB2E3373)
Correct for Stray Light: No (USB2E3373)
Number of Pixels in Processed Spectrum: 2048
>>>>>Begin Processed Spectral Data<<<<<
178.53	0.000
178.91	200.000
179.29	75.000
179.67	50.000
180.04	100.000
180.42	100.000
180.80	700.000
181.18	83.333
181.56	-225.000
181.94	100.000
182.31	81.818
182.69	69.231
183.07	300.000
183.45	50.000
183.83	133.333
184.20	-57.143
184.58	100.000
184.96	166.667
185.34	114.286
185.72	0.000
186.09	600.000
186.47	120.000
186.85	40.000
187.23	250.000
187.61	500.000
187.98	100.000
188.36	150.000
188.74	0.000
189.12	54.545
189.49	130.000
189.87	91.667
190.25	100.000
190.63	100.000
191.00	60.000
191.38	-100.000
191.76	250.000
192.14	50.000
192.51	15.789
192.89	33.333
193.27	50.000
193.65	-60.000
194.02	54.545
194.40	100.000
194.78	900.000
195.15	180.000
195.53	0.000
195.91	112.500
196.29	-33.333
196.66	0.000
197.04	-0.000
197.42	140.000
197.79	60.000
198.17	37.500
198.55	133.333
198.92	-0.000
199.30	-33.333
199.68	90.000
200.05	250.000
200.43	50.000
200.81	0.000
201.18	80.000
201.56	-33.333
201.94	375.000
202.31	30.435
202.69	-71.429
203.07	0.000
203.44	40.000
203.82	100.000
204.19	20.000
204.57	0.000
204.95	0.000
205.32	0.000
205.70	50.000
206.08	75.000
206.45	83.333
206.83	-0.000
207.20	66.667
207.58	-20.000
207.96	0.000
208.33	-85.714
208.71	-800.000
209.08	100.000
209.46	200.000
209.84	0.000
210.21	80.000
210.59	1200.000
210.96	160.000
211.34	700.000
211.71	-500.000
212.09	-50.000
212.46	-110.000
212.84	66.667
213.22	150.000
213.59	100.000
213.97	150.000
214.34	100.000
214.72	46.154
215.09	62.500
215.47	155.556
215.84	150.000
216.22	-25.000
216.59	-50.000
216.97	-0.000
217.34	66.667
217.72	0.000
218.09	-33.333
218.47	400.000
218.84	28.571
219.22	-37.500
219.59	-33.333
219.97	-150.000
220.34	62.500
220.72	20.000
221.09	0.000
221.47	33.333
221.84	700.000
222.22	0.000
222.59	800.000
222.97	-333.333
223.34	58.333
223.72	500.000
224.09	100.000
224.46	18.182
224.84	100.000
225.21	-14.286
225.59	25.000
225.96	33.333
226.34	100.000
226.71	42.857
227.08	250.000
227.46	37.500
227.83	400.000
228.21	-6.250
228.58	-50.000
228.95	-52.941
229.33	87.500
229.70	-25.000
230.08	38.462
230.45	-12.500
230.82	-33.333
231.20	57.143
231.57	-275.000
231.95	500.000
232.32	83.333
232.69	41.176
233.07	-500.000
233.44	0.000
233.81	-50.000
234.19	33.333
234.56	-6.667
234.93	-6.667
235.31	-21.053
235.68	69.231
236.05	69.231
236.43	50.000
236.80	33.333
237.17	-6.667
237.55	11.765
237.92	20.690
238.29	-25.926
238.67	-8.333
239.04	32.258
239.41	6.383
239.79	46.809
240.16	27.907
240.53	28.571
240.91	42.857
241.28	37.500
241.65	33.871
242.02	10.526
242.40	18.841
242.77	24.638
243.14	20.513
243.51	12.766
243.89	17.308
244.26	29.245
244.63	16.346
245.00	18.750
245.38	15.966
245.75	16.393
246.12	18.045
246.49	6.504
246.87	9.244
247.24	20.946
247.61	17.219
247.98	16.667
248.36	15.976
248.73	15.730
249.10	14.646
249.47	15.591
249.84	14.737
250.22	13.930
250.59	15.421
250.96	16.364
251.33	8.134
251.70	14.226
252.08	15.900
252.45	16.049
252.82	17.871
253.19	13.230
253.56	19.424
253.94	22.420
254.31	17.606
254.68	18.121
255.05	17.822
255.42	16.434
255.79	15.951
256.16	12.934
256.54	14.921
256.91	14.873
257.28	15.409
257.65	15.605
258.02	16.716
258.39	18.129
258.76	15.698
259.14	14.205
259.51	14.326
259.88	18.157
260.25	16.111
260.62	12.640
260.99	17.507
261.36	15.026
261.73	14.074
262.10	14.249
262.47	12.593
262.85	14.677
263.22	16.923
263.59	13.506
263.96	14.599
264.33	14.183
264.70	16.279
265.07	14.120
265.44	17.701
265.81	16.476
266.18	13.895
266.55	16.376
266.92	16.737
267.29	13.786
267.66	16.348
268.03	17.078
268.40	14.619
268.77	14.669
269.14	14.490
269.51	19.918
269.88	15.275
270.25	17.373
270.62	13.730
270.99	13.976
271.36	15.079
271.73	15.663
272.10	13.143
272.47	15.355
272.84	16.732
273.21	14.481
273.58	15.574
273.95	15.472
274.32	17.164
274.69	18.397
275.06	16.784
275.43	17.514
275.80	16.489
276.17	13.996
276.54	14.210
276.91	14.286
277.28	13.177
277.65	16.958
278.02	16.607
278.39	13.321
278.76	15.385
279.13	16.638
279.50	15.517
279.87	13.768
280.23	16.216
280.60	15.052
280.97	14.448
281.34	17.350
281.71	15.285
282.08	14.359
282.45	13.607
282.82	15.176
283.19	16.768
283.56	13.906
283.92	16.667
284.29	12.793
284.66	15.486
285.03	14.007
285.40	13.595
285.77	15.766
286.14	14.286
286.51	16.192
286.87	15.692
287.24	13.422
287.61	14.608
287.98	15.294
288.35	13.860
288.72	13.917
289.08	15.527
289.45	13.803
289.82	14.523
290.19	13.745
290.56	12.784
290.93	13.536
291.29	12.859
291.66	15.164
292.03	14.169
292.40	12.517
292.77	12.718
293.13	13.529
293.50	14.510
293.87	13.733
294.24	14.418
294.60	14.694
294.97	14.418
295.34	12.533
295.71	12.352
296.08	12.042
296.44	12.628
296.81	10.719
297.18	13.750
297.55	12.972
297.91	12.422
298.28	12.712
298.65	12.438
299.02	13.187
299.38	11.656
299.75	12.380
300.12	11.512
300.48	12.515
300.85	11.894
301.22	12.660
301.59	12.207
301.95	10.569
302.32	12.485
302.69	10.395
303.05	10.742
303.42	11.364
303.79	13.460
304.15	10.077
304.52	12.688
304.89	12.071
305.25	11.965
305.62	12.039
305.99	11.208
306.35	11.181
306.72	13.632
307.09	11.366
307.45	11.289
307.82	11.789
308.19	10.240
308.55	12.385
308.92	12.868
309.29	10.511
309.65	11.389
310.02	12.028
310.38	11.280
310.75	11.933
311.12	11.176
311.48	12.166
311.85	11.024
312.22	12.476
312.58	10.145
312.95	12.239
313.31	12.672
313.68	10.878
314.05	11.720
314.41	11.816
314.78	12.524
315.14	11.852
315.51	12.084
315.87	12.697
316.24	12.213
316.61	12.420
316.97	11.111
317.34	12.210
317.70	11.508
318.07	13.043
318.43	13.189
318.80	11.693
319.16	12.467
319.53	11.918
319.89	12.105
320.26	12.384
320.62	13.253
320.99	12.888
321.35	11.787
321.72	13.186
322.08	13.376
322.45	13.784
322.81	13.124
323.18	13.238
323.54	14.079
323.91	13.460
324.27	14.221
324.64	14.024
325.00	13.736
325.37	14.078
325.73	14.562
326.10	14.298
326.46	14.716
326.83	14.887
327.19	15.691
327.56	16.197
327.92	14.964
328.29	17.279
328.65	16.389
329.01	16.007
329.38	17.565
329.74	18.112
330.11	17.764
330.47	16.667
330.84	17.419
331.20	18.446
331.56	16.395
331.93	17.657
332.29	18.940
332.66	18.729
333.02	18.940
333.38	18.947
333.75	18.942
334.11	18.576
334.48	19.529
334.84	18.110
335.20	19.640
335.57	18.973
335.93	18.900
336.29	19.352
336.66	19.402
337.02	18.696
337.38	19.930
337.75	19.638
338.11	19.727
338.47	19.264
338.84	20.361
339.20	20.459
339.56	19.539
339.93	19.101
340.29	18.958
340.65	21.044
341.02	19.468
341.38	20.017
341.74	18.908
342.11	20.562
342.47	19.916
342.83	18.709
343.20	20.558
343.56	20.196
343.92	19.821
344.28	21.104
344.65	20.898
345.01	20.178
345.37	21.217
345.73	20.833
346.10	20.706
346.46	20.325
346.82	20.626
347.19	19.778
347.55	20.598
347.91	20.343
348.27	20.505
348.63	19.872
349.00	20.991
349.36	21.193
349.72	21.036
350.08	20.593
350.45	21.300
350.81	19.953
351.17	21.478
351.53	21.917
351.89	19.619
352.26	20.386
352.62	21.395
352.98	21.326
353.34	21.417
353.70	22.040
354.07	21.961
354.43	21.617
354.79	22.035
355.15	21.196
355.51	22.399
355.87	21.892
356.24	21.750
356.60	20.954
356.96	21.796
357.32	21.904
357.68	22.613
358.04	21.102
358.40	21.705
358.77	22.248
359.13	21.634
359.49	20.969
359.85	22.896
360.21	21.897
360.57	21.521
360.93	22.079
361.29	22.502
361.66	23.083
362.02	21.868
362.38	21.713
362.74	21.102
363.10	22.921
363.46	22.262
363.82	23.356
364.18	22.770
364.54	21.955
364.90	22.648
365.26	22.081
365.62	22.585
365.98	23.559
366.35	23.333
366.71	23.110
367.07	23.529
367.43	23.693
367.79	23.767
368.15	23.980
368.51	23.488
368.87	23.866
369.23	23.345
369.59	24.031
369.95	23.440
370.31	23.431
370.67	24.041
371.03	24.202
371.39	23.847
371.75	25.214
372.11	25.071
372.47	25.162
372.83	24.133
373.19	23.525
373.55	24.783
373.91	24.611
374.27	24.136
374.63	24.680
374.99	23.955
375.35	25.068
375.71	24.185
376.07	24.949
376.42	23.997
376.78	25.165
377.14	25.627
377.50	24.837
377.86	25.764
378.22	24.652
378.58	26.103
378.94	26.062
379.30	25.859
379.66	25.771
380.02	24.939
380.38	25.422
380.74	25.702
381.09	25.090
381.45	25.998
381.81	26.001
382.17	25.835
382.53	25.846
382.89	25.211
383.25	26.296
383.61	26.150
383.97	25.875
384.32	25.898
384.68	26.589
385.04	25.779
385.40	26.276
385.76	25.852
386.12	26.017
386.48	26.082
386.83	26.345
387.19	26.897
387.55	26.855
387.91	27.122
388.27	26.819
388.62	27.403
388.98	26.408
389.34	26.065
389.70	26.068
390.06	26.062
390.42	26.675
390.77	25.496
391.13	26.768
391.49	26.755
391.85	26.709
392.20	26.003
392.56	26.349
392.92	26.448
393.28	26.496
393.64	26.667
393.99	25.337
394.35	26.914
394.71	26.795
395.07	26.604
395.42	27.483
395.78	26.770
396.14	27.647
396.50	26.316
396.85	27.087
397.21	26.030
397.57	25.466
397.92	26.946
398.28	26.678
398.64	26.351
399.00	26.618
399.35	26.958
399.71	26.733
400.07	26.145
400.42	26.019
400.78	27.311
401.14	26.058
401.49	26.723
401.85	27.334
402.21	26.316
402.57	26.916
402.92	27.472
403.28	26.266
403.63	26.286
403.99	26.104
404.35	25.998
404.70	26.707
405.06	26.835
405.42	25.440
405.77	26.037
406.13	26.343
406.49	26.004
406.84	26.923
407.20	26.347
407.55	27.013
407.91	26.539
408.27	24.953
408.62	27.256
408.98	26.141
409.34	26.361
409.69	27.031
410.05	26.244
410.40	25.015
410.76	25.933
411.11	26.244
411.47	26.543
411.83	25.951
412.18	26.071
412.54	26.566
412.89	25.893
413.25	25.192
413.60	26.082
413.96	26.217
414.31	25.709
414.67	26.095
415.03	25.778
415.38	25.231
415.74	26.381
416.09	25.777
416.45	26.111
416.80	26.107
417.16	25.776
417.51	25.318
417.87	26.323
418.22	26.244
418.58	26.478
418.93	26.303
419.29	26.205
419.64	26.081
420.00	26.413
420.35	26.599
420.71	25.411
421.06	26.015
421.42	26.825
421.77	26.127
422.12	27.106
422.48	25.409
422.83	26.521
423.19	26.797
423.54	26.325
423.90	26.010
424.25	26.228
424.61	26.186
424.96	26.138
425.31	26.080
425.67	26.573
426.02	26.914
426.38	26.741
426.73	26.573
427.09	26.579
427.44	26.835
427.79	26.722
428.15	26.239
428.50	25.740
428.85	27.183
429.21	25.380
429.56	26.780
429.92	26.132
430.27	26.738
430.62	26.443
430.98	26.917
431.33	27.028
431.68	27.370
432.04	26.986
432.39	27.598
432.74	25.874
433.10	27.716
433.45	26.805
433.80	26.839
434.16	26.925
434.51	26.359
434.86	26.973
435.22	27.504
435.57	26.290
435.92	27.503
436.28	26.066
436.63	26.674
436.98	27.615
437.34	27.228
437.69	27.273
438.04	26.938
438.39	27.771
438.75	27.592
439.10	27.820
439.45	27.724
439.81	28.017
440.16	28.290
440.51	28.121
440.86	27.919
441.22	27.367
441.57	27.440
441.92	27.527
442.27	26.948
442.63	26.426
442.98	27.025
443.33	28.555
443.68	27.043
444.03	27.074
444.39	27.516
444.74	27.499
445.09	26.707
445.44	28.507
445.79	27.207
446.15	27.565
446.50	28.304
446.85	28.006
447.20	28.071
447.55	27.084
447.91	28.090
448.26	27.673
448.61	27.560
448.96	27.335
449.31	28.212
449.66	28.687
450.02	29.449
450.37	27.850
450.72	27.497
451.07	28.339
451.42	27.636
451.77	28.606
452.12	27.629
452.47	27.889
452.83	26.769
453.18	26.798
453.53	27.364
453.88	28.072
454.23	27.689
454.58	27.880
454.93	28.159
455.28	27.746
455.63	27.573
455.98	27.754
456.34	27.209
456.69	28.243
457.04	27.678
457.39	28.322
457.74	27.887
458.09	26.422
458.44	26.616
458.79	27.677
459.14	27.528
459.49	27.683
459.84	27.339
460.19	26.951
460.54	27.494
460.89	28.097
461.24	28.175
461.59	27.657
461.94	27.686
462.29	27.267
462.64	27.045
462.99	27.632
463.34	29.006
463.69	28.093
464.04	27.671
464.39	27.700
464.74	27.211
465.09	28.022
465.44	28.002
465.79	27.602
466.14	27.594
466.49	27.859
466.84	26.838
467.19	28.025
467.54	28.386
467.89	27.781
468.24	28.150
468.59	28.489
468.94	27.905
469.29	28.553
469.64	28.661
469.99	27.655
470.34	27.849
470.68	27.732
471.03	28.632
471.38	28.303
471.73	27.846
472.08	28.454
472.43	28.562
472.78	28.736
473.13	27.770
473.48	28.245
473.83	28.751
474.17	28.581
474.52	28.026
474.87	28.106
475.22	28.080
475.57	29.225
475.92	28.844
476.27	27.855
476.61	27.916
476.96	28.098
477.31	28.317
477.66	27.684
478.01	27.747
478.36	28.447
478.70	28.464
479.05	27.969
479.40	27.197
479.75	27.524
480.10	27.792
480.45	27.219
480.79	27.427
481.14	28.622
481.49	27.923
481.84	27.333
482.19	27.744
482.53	28.000
482.88	28.476
483.23	27.478
483.58	27.647
483.92	28.113
484.27	27.127
484.62	26.809
484.97	27.831
485.31	27.578
485.66	25.836
486.01	25.846
486.36	25.782
486.70	26.268
487.05	26.849
487.40	27.220
487.75	27.189
488.09	26.994
488.44	27.725
488.79	28.728
489.13	27.753
489.48	27.961
489.83	27.155
490.17	27.417
490.52	28.799
490.87	27.492
491.22	27.744
491.56	27.360
491.91	27.652
492.26	27.563
492.60	26.792
492.95	28.134
493.30	27.955
493.64	26.954
493.99	26.908
494.34	27.938
494.68	27.017
495.03	27.026
495.37	27.591
495.72	27.669
496.07	28.057
496.41	26.954
496.76	27.377
497.11	27.559
497.45	27.091
497.80	26.704
498.14	27.809
498.49	27.383
498.84	28.593
499.18	26.829
499.53	27.080
499.87	27.123
500.22	27.427
500.56	28.485
500.91	27.867
501.26	27.882
501.60	27.353
501.95	27.456
502.29	28.107
502.64	27.338
502.98	27.312
503.33	27.883
503.67	27.507
504.02	27.010
504.36	27.687
504.71	27.490
505.06	28.681
505.40	27.938
505.75	27.620
506.09	28.104
506.44	27.722
506.78	27.882
507.13	27.547
507.47	27.731
507.82	27.368
508.16	28.549
508.51	27.014
508.85	27.527
509.19	27.831
509.54	27.828
509.88	28.065
510.23	27.842
510.57	28.390
510.92	27.909
511.26	28.988
511.61	28.540
511.95	27.839
512.30	28.540
512.64	29.909
512.98	28.255
513.33	28.169
513.67	28.393
514.02	28.392
514.36	28.371
514.70	28.695
515.05	28.789
515.39	28.597
515.74	28.656
516.08	28.142
516.42	27.880
516.77	28.354
517.11	28.101
517.46	29.412
517.80	29.479
518.14	28.108
518.49	28.270
518.83	29.177
519.17	28.193
519.52	29.131
519.86	28.658
520.20	28.381
520.55	28.918
520.89	29.285
521.23	29.936
521.58	29.836
521.92	29.227
522.26	29.083
522.61	28.765
522.95	28.951
523.29	29.778
523.64	28.989
523.98	28.717
524.32	28.796
524.66	29.286
525.01	29.227
525.35	29.888
525.69	29.291
526.04	28.469
526.38	29.318
526.72	29.980
527.06	28.627
527.41	28.458
527.75	27.904
528.09	28.999
528.43	29.240
528.78	28.811
529.12	28.784
529.46	28.599
529.80	28.867
530.15	28.443
530.49	29.043
530.83	29.790
531.17	28.767
531.51	28.388
531.86	28.455
532.20	28.532
532.54	28.690
532.88	28.795
533.22	28.148
533.57	28.344
533.91	29.484
534.25	28.711
534.59	28.250
534.93	28.890
535.27	28.599
535.62	27.763
535.96	29.148
536.30	29.455
536.64	29.050
536.98	28.662
537.32	27.972
537.66	29.408
538.01	28.571
538.35	28.936
538.69	28.696
539.03	28.792
539.37	27.029
539.71	27.831
540.05	27.733
540.39	28.011
540.73	28.841
541.07	27.959
541.42	28.956
541.76	28.146
542.10	27.488
542.44	27.720
542.78	27.342
543.12	28.571
543.46	27.851
543.80	28.038
544.14	27.805
544.48	27.605
544.82	27.438
545.16	27.992
545.50	27.887
545.84	27.980
546.18	28.401
546.52	29.640
546.86	27.350
547.20	27.591
547.54	26.733
547.88	27.733
548.22	27.492
548.56	27.552
548.90	26.861
549.24	27.986
549.58	27.544
549.92	28.393
550.26	28.635
550.60	27.703
550.94	27.687
551.28	27.025
551.62	28.421
551.96	28.770
552.30	25.910
552.64	26.624
552.98	27.983
553.32	28.479
553.66	28.173
554.00	28.006
554.34	26.593
554.68	27.890
555.02	27.470
555.36	28.442
555.69	27.531
556.03	27.591
556.37	27.312
556.71	27.470
557.05	27.970
557.39	26.827
557.73	27.761
558.07	26.526
558.41	28.917
558.75	28.637
559.08	27.586
559.42	27.852
559.76	26.835
560.10	27.440
560.44	28.003
560.78	26.835
561.12	25.929
561.45	27.415
561.79	26.823
562.13	27.918
562.47	28.000
562.81	26.696
563.15	26.771
563.48	26.290
563.82	27.770
564.16	26.134
564.50	27.137
564.84	26.689
565.17	27.086
565.51	26.337
565.85	26.116
566.19	26.225
566.52	25.885
566.86	25.348
567.20	27.367
567.54	25.849
567.88	25.140
568.21	25.747
568.55	25.091
568.89	24.776
569.23	25.160
569.56	25.198
569.90	24.348
570.24	24.477
570.57	24.701
570.91	24.634
571.25	24.204
571.59	24.083
571.92	23.878
572.26	23.938
572.60	24.638
572.93	24.774
573.27	24.233
573.61	24.705
573.95	23.956
574.28	23.898
574.62	23.476
574.96	23.917
575.29	23.922
575.63	23.446
575.97	23.995
576.30	23.816
576.64	24.181
576.98	23.991
577.31	23.968
577.65	23.371
577.98	23.112
578.32	23.171
578.66	23.777
578.99	23.756
579.33	24.013
579.67	24.414
580.00	23.205
580.34	23.970
580.67	24.130
581.01	23.601
581.35	23.168
581.68	22.942
582.02	23.586
582.35	23.355
582.69	23.343
583.02	22.801
583.36	23.793
583.70	24.609
584.03	24.211
584.37	23.689
584.70	23.329
585.04	23.797
585.37	23.402
585.71	22.672
586.04	23.459
586.38	23.152
586.72	23.096
587.05	23.914
587.39	23.649
587.72	23.883
588.06	23.447
588.39	23.258
588.73	22.984
589.06	23.860
589.40	23.633
589.73	23.176
590.07	24.426
590.40	24.385
590.73	24.716
591.07	24.112
591.40	24.348
591.74	24.189
592.07	24.327
592.41	23.981
592.74	23.804
593.08	22.496
593.41	23.282
593.75	22.578
594.08	23.558
594.41	23.839
594.75	23.838
595.08	23.077
595.42	22.477
595.75	23.572
596.09	23.980
596.42	24.101
596.75	24.265
597.09	24.659
597.42	24.450
597.75	23.911
598.09	24.089
598.42	24.340
598.76	22.712
599.09	23.810
599.42	23.187
599.76	23.507
600.09	23.268
600.42	23.992
600.76	22.949
601.09	23.277
601.42	23.520
601.76	23.514
602.09	23.227
602.42	23.648
602.76	23.322
603.09	23.984
603.42	23.071
603.76	23.733
604.09	23.043
604.42	23.231
604.76	23.745
605.09	23.516
605.42	23.797
605.75	22.570
606.09	22.227
606.42	22.776
606.75	23.160
607.09	23.404
607.42	23.599
607.75	22.582
608.08	23.625
608.42	23.430
608.75	23.125
609.08	23.616
609.41	24.292
609.75	23.550
610.08	23.225
610.41	24.101
610.74	23.484
611.07	23.447
611.41	24.411
611.74	23.706
612.07	23.710
612.40	23.730
612.73	24.204
613.07	23.503
613.40	23.954
613.73	23.239
614.06	23.438
614.39	22.568
614.72	23.709
615.06	22.778
615.39	22.958
615.72	23.164
616.05	23.930
616.38	23.654
616.71	22.855
617.05	24.017
617.38	22.551
617.71	23.100
618.04	23.218
618.37	24.290
618.70	24.127
619.03	23.230
619.36	23.630
619.69	23.904
620.03	23.392
620.36	22.408
620.69	24.411
621.02	25.000
621.35	23.303
621.68	23.635
622.01	24.272
622.34	22.998
622.67	24.119
623.00	24.392
623.33	23.859
623.66	21.784
623.99	24.531
624.32	22.891
624.65	23.368
624.99	24.614
625.32	24.347
625.65	23.256
625.98	24.013
626.31	24.408
626.64	24.076
626.97	25.087
627.30	24.380
627.63	23.875
627.96	22.511
628.29	24.558
628.62	24.081
628.95	24.349
629.28	24.729
629.61	25.742
629.94	24.081
630.26	24.828
630.59	23.776
630.92	23.996
631.25	24.717
631.58	25.054
631.91	23.860
632.24	23.710
632.57	24.222
632.90	25.554
633.23	23.741
633.56	25.300
633.89	25.239
634.22	25.913
634.55	26.797
634.88	25.490
635.20	25.375
635.53	25.452
635.86	26.667
636.19	23.697
636.52	24.390
636.85	25.332
637.18	22.168
637.51	22.222
637.83	25.718
638.16	23.867
638.49	23.765
638.82	25.229
639.15	23.803
639.48	24.198
639.81	22.639
640.13	25.775
640.46	25.565
640.79	23.453
641.12	24.556
641.45	23.435
641.77	22.975
642.10	25.719
642.43	26.101
642.76	25.552
643.09	25.719
643.41	25.678
643.74	26.979
644.07	26.375
644.40	24.378
644.73	26.102
645.05	25.131
645.38	23.256
645.71	26.020
646.04	22.559
646.36	25.521
646.69	27.448
647.02	27.687
647.35	27.057
647.67	24.584
648.00	26.087
648.33	26.102
648.66	22.871
648.98	23.292
649.31	26.687
649.64	23.161
649.96	26.066
650.29	24.837
650.62	26.524
650.94	23.793
651.27	25.442
651.60	26.573
651.92	26.165
652.25	26.466
652.58	22.607
652.90	23.232
653.23	24.448
653.56	22.314
653.88	23.379
654.21	22.867
654.54	24.419
654.86	23.577
655.19	22.969
655.52	21.534
655.84	17.869
656.17	22.184
656.49	30.214
656.82	31.106
657.15	24.373
657.47	18.445
657.80	13.823
658.13	15.121
658.45	22.131
658.78	23.158
659.10	23.398
659.43	24.502
659.75	24.548
660.08	24.966
660.41	23.732
660.73	25.620
661.06	23.299
661.38	24.225
661.71	25.820
662.03	24.736
662.36	24.558
662.68	23.871
663.01	26.059
663.33	22.678
663.66	23.947
663.98	25.618
664.31	22.857
664.63	22.523
664.96	26.039
665.28	27.253
665.61	23.542
665.93	23.555
666.26	26.793
666.58	22.698
666.91	27.130
667.23	25.115
667.56	26.667
667.88	23.131
668.21	26.562
668.53	24.138
668.86	26.139
669.18	24.113
669.50	25.115
669.83	23.628
670.15	23.571
670.48	23.218
670.80	28.884
671.13	26.087
671.45	25.571
671.77	23.060
672.10	23.002
672.42	22.519
672.75	22.500
673.07	21.091
673.39	23.881
673.72	23.353
674.04	25.205
674.37	22.561
674.69	22.634
675.01	23.291
675.34	25.602
675.66	25.272
675.98	22.788
676.31	22.398
676.63	25.624
676.95	24.941
677.28	23.394
677.60	26.471
677.92	23.503
678.25	24.512
678.57	24.236
678.89	21.748
679.22	22.774
679.54	24.694
679.86	24.805
680.18	24.808
680.51	19.423
680.83	22.027
681.15	23.969
681.48	22.645
681.80	23.517
682.12	22.083
682.44	20.926
682.77	20.211
683.09	22.545
683.41	25.814
683.73	21.429
684.06	25.000
684.38	22.650
684.70	21.181
685.02	24.380
685.34	19.961
685.67	23.640
685.99	22.064
686.31	21.724
686.63	22.610
686.96	23.191
687.28	21.756
687.60	26.087
687.92	24.319
688.24	21.800
688.56	25.877
688.89	19.376
689.21	23.094
689.53	20.721
689.85	23.146
690.17	23.956
690.49	23.671
690.82	22.912
691.14	21.981
691.46	21.114
691.78	23.956
692.10	23.355
692.42	19.560
692.74	27.174
693.06	19.326
693.39	23.185
693.71	24.222
694.03	23.182
694.35	23.649
694.67	25.250
694.99	24.485
695.31	22.222
695.63	23.415
695.95	23.410
696.27	21.918
696.59	21.505
696.91	22.905
697.23	20.812
697.56	24.221
697.88	23.909
698.20	23.326
698.52	21.028
698.84	22.967
699.16	19.622
699.48	22.222
699.80	25.581
700.12	23.592
700.44	20.845
700.76	22.753
701.08	20.846
701.40	23.054
701.72	19.692
702.04	21.384
702.36	25.000
702.68	22.561
703.00	21.345
703.32	19.777
703.64	24.398
703.96	22.581
704.28	24.398
704.60	24.695
704.91	22.571
705.23	25.316
705.55	20.345
705.87	27.465
706.19	17.216
706.51	18.310
706.83	19.745
707.15	23.476
707.47	22.590
707.79	20.812
708.11	22.879
708.43	21.574
708.74	25.266
709.06	21.390
709.38	23.343
709.70	25.826
710.02	22.118
710.34	17.667
710.66	22.150
710.98	21.981
711.29	23.052
711.61	21.613
711.93	21.290
712.25	18.531
712.57	20.000
712.89	23.443
713.20	23.759
713.52	21.898
713.84	23.548
714.16	17.152
714.48	20.253
714.80	19.169
715.11	25.872
715.43	18.634
715.75	20.497
716.07	23.193
716.39	22.896
716.70	22.662
717.02	23.137
717.34	25.000
717.66	20.259
717.97	19.841
718.29	22.835
718.61	22.747
718.93	18.992
719.24	16.236
719.56	22.472
719.88	23.507
720.20	20.553
720.51	21.484
720.83	22.179
721.15	15.041
721.46	20.992
721.78	22.709
722.10	20.717
722.42	17.742
722.73	19.691
723.05	22.449
723.37	23.109
723.68	18.400
724.00	18.723
724.32	24.268
724.63	23.868
724.95	17.949
725.27	21.941
725.58	25.926
725.90	16.318
726.22	20.652
726.53	16.863
726.85	23.723
727.16	18.889
727.48	20.307
727.80	23.828
728.11	18.852
728.43	23.828
728.74	22.222
729.06	19.200
729.38	20.553
729.69	22.064
730.01	22.677
730.32	22.140
730.64	17.045
730.96	24.825
731.27	17.726
731.59	19.683
731.90	20.712
732.22	18.269
732.53	17.905
732.85	19.128
733.16	23.432
733.48	17.568
733.80	17.905
734.11	21.284
734.43	20.743
734.74	21.922
735.06	21.037
735.37	24.012
735.69	25.566
736.00	21.122
736.32	23.404
736.63	22.414
736.95	22.945
737.26	19.310
737.58	20.833
737.89	17.869
738.21	20.996
738.52	19.392
738.83	22.041
739.15	15.612
739.46	21.012
739.78	18.662
740.09	20.205
740.41	14.643
740.72	16.312
741.04	19.200
741.35	17.544
741.66	24.444
741.98	16.827
742.29	28.713
742.61	22.927
742.92	21.930
743.23	19.340
743.55	20.721
743.86	18.834
744.18	19.118
744.49	20.305
744.80	22.449
745.12	23.832
745.43	19.431
745.74	22.072
746.06	17.757
746.37	14.220
746.68	19.712
747.00	19.139
747.31	18.750
747.62	19.266
747.94	26.201
748.25	18.807
748.56	24.000
748.88	20.657
749.19	23.810
749.50	16.505
749.82	19.718
750.13	12.917
750.44	18.077
750.75	17.343
751.07	21.708
751.38	21.277
751.69	16.602
752.01	18.750
752.32	19.231
752.63	21.269
752.94	22.400
753.26	17.992
753.57	20.417
753.88	21.053
754.19	16.335
754.51	21.429
754.82	20.147
755.13	15.652
755.44	19.512
755.75	20.000
756.07	17.712
756.38	20.144
756.69	17.406
757.00	19.626
757.31	16.828
757.63	15.741
757.94	18.927
758.25	18.783
758.56	19.565
758.87	18.155
759.18	19.874
759.50	18.519
759.81	21.070
760.12	20.308
760.43	14.286
760.74	18.362
761.05	14.917
761.36	16.332
761.67	15.106
761.99	13.402
762.30	14.599
762.61	19.342
762.92	23.077
763.23	23.770
763.54	21.212
763.85	21.224
764.16	14.634
764.47	18.000
764.78	21.786
765.10	18.689
765.41	20.365
765.72	21.118
766.03	18.152
766.34	21.154
766.65	15.900
766.96	19.718
767.27	21.782
767.58	16.292
767.89	29.012
768.20	17.127
768.51	18.090
768.82	22.115
769.13	21.681
769.44	19.247
769.75	14.957
770.06	20.628
770.37	16.176
770.68	18.447
770.99	17.476
771.30	21.429
771.61	15.102
771.92	17.842
772.23	18.919
772.54	8.840
772.85	18.605
773.16	23.280
773.47	15.976
773.78	22.414
774.09	16.875
774.39	21.118
774.70	19.728
775.01	13.103
775.32	21.429
775.63	22.556
775.94	16.541
776.25	19.200
776.56	22.314
776.87	21.429
777.18	12.613
777.48	30.631
777.79	24.409
778.10	32.110
778.41	28.070
778.72	17.647
779.03	11.972
779.34	26.351
779.65	18.310
779.95	21.192
780.26	19.424
780.57	18.705
780.88	16.901
781.19	5.042
781.50	20.805
781.80	18.129
782.11	20.930
782.42	20.755
782.73	21.569
783.04	22.759
783.34	19.084
783.65	12.081
783.96	16.154
784.27	22.143
784.57	21.277
784.88	10.577
785.19	32.727
785.50	26.364
785.81	14.286
786.11	13.445
786.42	26.549
786.73	14.151
787.04	11.927
787.34	7.921
787.65	26.667
787.96	17.355
788.26	22.464
788.57	20.635
788.88	15.447
789.19	20.000
789.49	12.977
789.80	28.788
790.11	4.717
790.41	23.762
790.72	19.149
791.03	14.130
791.33	27.059
791.64	24.691
791.95	30.435
792.25	15.909
792.56	32.051
792.87	23.077
793.17	15.385
793.48	15.476
793.79	1.250
794.09	22.115
794.40	16.667
794.70	18.919
795.01	18.750
795.32	21.739
795.62	8.696
795.93	24.528
796.23	22.222
796.54	12.195
796.85	19.048
797.15	15.152
797.46	18.841
797.76	10.526
798.07	23.864
798.37	9.756
798.68	24.194
798.99	18.919
799.29	21.687
799.60	29.487
799.90	13.846
800.21	34.848
800.51	5.333
800.82	14.667
801.12	-10.417
801.43	28.333
801.73	13.514
802.04	27.143
802.34	24.590
802.65	26.866
802.95	12.727
803.26	24.138
803.56	12.308
803.87	35.849
804.17	20.968
804.48	26.471
804.78	-2.439
805.09	28.986
805.39	13.235
805.70	0.000
806.00	14.035
806.30	26.923
806.61	15.789
806.91	16.216
807.22	14.474
807.52	23.864
807.83	0.000
808.13	-1.515
808.43	13.333
808.74	1.724
809.04	20.635
809.35	14.286
809.65	25.000
809.95	4.082
810.26	32.394
810.56	12.500
810.86	34.694
811.17	34.615
811.47	19.149
811.77	12.500
812.08	7.547
812.38	-6.250
812.69	25.455
812.99	9.756
813.29	2.703
813.59	-2.703
813.90	5.455
814.20	20.000
814.50	10.000
814.81	23.636
815.11	42.105
815.41	32.558
815.72	30.000
816.02	8.571
816.32	16.216
816.62	20.833
816.93	11.111
817.23	15.556
817.53	2.778
817.84	43.243
818.14	19.512
818.44	20.000
818.74	2.041
819.04	26.829
819.35	36.111
819.65	47.727
819.95	-27.778
820.25	21.212
820.56	-2.381
820.86	22.222
821.16	13.636
821.46	19.565
821.76	17.241
822.07	19.565
822.37	36.364
822.67	43.902
822.97	8.108
823.27	8.571
823.57	20.690
823.88	8.824
824.18	25.000
824.48	45.714
824.78	38.095
825.08	32.143
825.38	7.407
825.69	45.161
825.99	29.268
826.29	11.111
826.59	3.125
826.89	6.452
827.19	-34.783
827.49	-5.556
827.79	13.043
828.09	19.355
828.39	31.250
828.70	-31.250
829.00	13.793
829.30	21.622
829.60	25.000
829.90	33.333
830.20	15.625
830.50	18.182
830.80	-47.059
831.10	-9.091
831.40	-2.941
831.70	42.308
832.00	24.242
832.30	23.529
832.60	27.027
832.90	300.000
833.20	25.000
833.50	-35.000
833.80	28.947
834.10	-4.167
834.40	4.545
834.70	-60.000
835.00	0.000
835.30	20.833
835.60	-9.524
835.90	42.857
836.20	0.000
836.50	-4.167
836.80	0.000
837.10	29.730
837.40	70.000
837.70	13.043
838.00	62.500
838.30	21.053
838.60	-110.000
838.90	-150.000
839.19	16.667
839.49	69.231
839.79	10.526
840.09	-16.667
840.39	-60.000
840.69	9.091
840.99	-23.810
841.29	12.500
841.59	-30.769
841.88	-6.667
842.18	-21.429
842.48	46.667
842.78	-128.571
843.08	-7.143
843.38	12.500
843.68	62.500
843.97	35.714
844.27	-33.333
844.57	-54.545
844.87	-46.667
845.17	0.000
845.47	633.333
845.76	13.333
846.06	-33.333
846.36	-600.000
846.66	-42.105
846.96	40.909
847.25	16.667
847.55	-44.444
847.85	-33.333
848.15	69.231
848.44	16.667
848.74	8.333
849.04	23.077
849.34	-25.000
849.63	9.091
849.93	-64.286
850.23	40.000
850.53	-100.000
850.82	83.333
851.12	73.333
851.42	23.529
851.71	75.000
852.01	29.412
852.31	0.000
852.61	250.000
852.90	35.294
853.20	93.333
853.50	12.500
853.79	-14.286
854.09	-50.000
854.39	-5.000
854.68	32.500
854.98	66.667
855.28	32.000
855.57	50.000
855.87	25.000
856.17	-40.000
856.46	31.250
856.76	40.000
857.05	28.000
857.35	33.333
857.65	-35.294
857.94	-33.333
858.24	-8.333
858.53	15.000
858.83	-81.818
859.13	36.000
859.42	71.429
859.72	-25.000
860.01	45.833
860.31	0.000
860.60	31.250
860.90	-83.333
861.20	-83.333
861.49	33.333
861.79	0.000
862.08	-125.000
862.38	-66.667
862.67	271.429
862.97	300.000
863.26	36.364
863.56	72.727
863.85	31.579
864.15	5.882
864.44	-40.000
864.74	-90.000
865.03	22.222
865.33	7.143
865.62	50.000
865.92	21.053
866.21	-16.667
866.51	90.909
866.80	44.444
867.10	-87.500
867.39	56.250
867.69	0.000
867.98	-20.000
868.27	64.706
868.57	0.000
868.86	750.000
869.16	25.000
869.45	-28.571
869.75	50.000
870.04	110.000
870.33	-200.000
870.63	-31.579
870.92	0.000
871.22	-100.000
871.51	-14.286
871.80	-144.444
872.10	-75.000
>>>>>End Processed Spectral Data<<<<<
