SpectraSuite Data File
++++++++++++++++++++++++++++++++++++
Date: Wed May 13 21:02:14 PDT 2015
User: schluterlab
Dark Spectrum Present: Yes
Reference Spectrum Present: Yes
Number of Sampled Component Spectra: 1
Spectrometers: USB2E3373
Integration Time (usec): 3000 (USB2E3373)
Spectra Averaged: 3 (USB2E3373)
Boxcar Smoothing: 0 (USB2E3373)
Correct for Electrical Dark: No (USB2E3373)
Strobe/Lamp Enabled: No (USB2E3373)
Correct for Detector Non-linearity: No (USB2E3373)
Correct for Stray Light: No (USB2E3373)
Number of Pixels in Processed Spectrum: 2048
>>>>>Begin Processed Spectral Data<<<<<
178.53	0.000
178.91	300.000
179.29	150.000
179.67	-350.000
180.04	-300.000
180.42	80.000
180.80	1100.000
181.18	183.333
181.56	-200.000
181.94	-75.000
182.31	45.455
182.69	30.769
183.07	-180.000
183.45	116.667
183.83	155.556
184.20	71.429
184.58	0.000
184.96	33.333
185.34	257.143
185.72	0.000
186.09	-400.000
186.47	-20.000
186.85	20.000
187.23	300.000
187.61	450.000
187.98	1200.000
188.36	225.000
188.74	0.000
189.12	27.273
189.49	60.000
189.87	33.333
190.25	80.000
190.63	800.000
191.00	40.000
191.38	60.000
191.76	75.000
192.14	108.333
192.51	-10.526
192.89	133.333
193.27	-25.000
193.65	-100.000
194.02	209.091
194.40	90.000
194.78	300.000
195.15	200.000
195.53	100.000
195.91	112.500
196.29	66.667
196.66	0.000
197.04	300.000
197.42	100.000
197.79	90.000
198.17	-125.000
198.55	-333.333
198.92	200.000
199.30	-200.000
199.68	20.000
200.05	-150.000
200.43	-0.000
200.81	-700.000
201.18	-160.000
201.56	-66.667
201.94	450.000
202.31	65.217
202.69	57.143
203.07	66.667
203.44	20.000
203.82	-166.667
204.19	40.000
204.57	0.000
204.95	-16.667
205.32	0.000
205.70	400.000
206.08	-200.000
206.45	-66.667
206.83	450.000
207.20	100.000
207.58	40.000
207.96	-400.000
208.33	-157.143
208.71	-1500.000
209.08	162.500
209.46	225.000
209.84	0.000
210.21	90.000
210.59	1700.000
210.96	200.000
211.34	100.000
211.71	-200.000
212.09	-50.000
212.46	-60.000
212.84	133.333
213.22	200.000
213.59	-200.000
213.97	250.000
214.34	-600.000
214.72	-61.538
215.09	162.500
215.47	88.889
215.84	100.000
216.22	50.000
216.59	50.000
216.97	366.667
217.34	122.222
217.72	0.000
218.09	100.000
218.47	-100.000
218.84	28.571
219.22	0.000
219.59	33.333
219.97	175.000
220.34	62.500
220.72	0.000
221.09	0.000
221.47	50.000
221.84	-500.000
222.22	0.000
222.59	-1100.000
222.97	-200.000
223.34	-66.667
223.72	500.000
224.09	150.000
224.46	-45.455
224.84	-25.000
225.21	71.429
225.59	50.000
225.96	33.333
226.34	-20.000
226.71	-142.857
227.08	-200.000
227.46	0.000
227.83	300.000
228.21	81.250
228.58	125.000
228.95	17.647
229.33	75.000
229.70	50.000
230.08	0.000
230.45	-25.000
230.82	-50.000
231.20	185.714
231.57	-250.000
231.95	1300.000
232.32	33.333
232.69	58.824
233.07	-1000.000
233.44	-21.739
233.81	-600.000
234.19	12.500
234.56	-33.333
234.93	13.333
235.31	5.263
235.68	-69.231
236.05	100.000
236.43	38.889
236.80	3.030
237.17	-53.333
237.55	-35.294
237.92	-20.690
238.29	-44.444
238.67	-2.778
239.04	-25.806
239.41	-2.128
239.79	12.766
240.16	18.605
240.53	8.929
240.91	10.714
241.28	-3.571
241.65	3.226
242.02	2.632
242.40	17.391
242.77	-2.899
243.14	-3.846
243.51	7.447
243.89	0.000
244.26	10.377
244.63	-3.846
245.00	7.292
245.38	4.202
245.75	9.016
246.12	6.767
246.49	-4.065
246.87	-4.202
247.24	16.892
247.61	11.258
247.98	0.641
248.36	8.284
248.73	5.618
249.10	4.040
249.47	2.688
249.84	6.842
250.22	6.965
250.59	9.813
250.96	6.818
251.33	2.392
251.70	7.950
252.08	8.787
252.45	6.173
252.82	6.464
253.19	5.837
253.56	6.115
253.94	8.541
254.31	7.042
254.68	8.725
255.05	5.941
255.42	5.245
255.79	7.669
256.16	9.779
256.54	8.889
256.91	2.532
257.28	7.233
257.65	2.548
258.02	5.572
258.39	6.725
258.76	6.395
259.14	5.966
259.51	4.775
259.88	5.420
260.25	8.611
260.62	6.180
260.99	9.019
261.36	10.363
261.73	6.914
262.10	6.616
262.47	4.691
262.85	7.463
263.22	4.615
263.59	5.974
263.96	5.839
264.33	6.250
264.70	5.581
265.07	8.565
265.44	9.885
265.81	4.577
266.18	7.517
266.55	5.459
266.92	4.237
267.29	5.144
267.66	7.856
268.03	8.848
268.40	4.873
268.77	8.884
269.14	6.939
269.51	11.499
269.88	5.906
270.25	6.144
270.62	5.738
270.99	8.268
271.36	8.929
271.73	8.835
272.10	7.238
272.47	7.486
272.84	8.661
273.21	7.632
273.58	6.352
273.95	7.358
274.32	7.463
274.69	7.832
275.06	8.657
275.43	7.721
275.80	5.851
276.17	7.551
276.54	5.151
276.91	6.969
277.28	3.610
277.65	6.993
278.02	8.571
278.39	7.460
278.76	8.528
279.13	8.233
279.50	6.034
279.87	5.616
280.23	5.766
280.60	6.747
280.97	8.117
281.34	8.360
281.71	7.154
282.08	5.641
282.45	8.033
282.82	7.348
283.19	8.079
283.56	6.875
283.92	7.034
284.29	6.396
284.66	6.755
285.03	5.537
285.40	5.891
285.77	7.658
286.14	7.143
286.51	7.346
286.87	6.308
287.24	7.375
287.61	6.777
287.98	5.735
288.35	6.259
288.72	8.465
289.08	7.835
289.45	5.727
289.82	6.354
290.19	7.293
290.56	5.824
290.93	6.630
291.29	6.840
291.66	5.464
292.03	5.995
292.40	6.999
292.77	6.158
293.13	6.974
293.50	5.882
293.87	6.800
294.24	7.804
294.60	5.592
294.97	6.878
295.34	4.090
295.71	5.388
296.08	5.105
296.44	5.357
296.81	6.456
297.18	7.125
297.55	5.542
297.91	7.826
298.28	4.964
298.65	4.680
299.02	5.128
299.38	3.926
299.75	5.168
300.12	4.535
300.48	3.977
300.85	5.543
301.22	3.949
301.59	4.930
301.95	3.252
302.32	5.251
302.69	5.085
303.05	5.205
303.42	5.568
303.79	5.258
304.15	5.696
304.52	5.806
304.89	4.540
305.25	3.952
305.62	5.098
305.99	5.441
306.35	6.061
306.72	5.595
307.09	6.361
307.45	5.538
307.82	4.947
308.19	4.807
308.55	4.913
308.92	6.385
309.29	5.806
309.65	4.795
310.02	5.865
310.38	5.996
310.75	5.030
311.12	5.539
311.48	5.440
311.85	5.118
312.22	5.706
312.58	5.894
312.95	5.672
313.31	5.510
313.68	5.821
314.05	5.955
314.41	6.628
314.78	6.452
315.14	6.019
315.51	6.185
315.87	5.468
316.24	6.612
316.61	6.484
316.97	6.759
317.34	5.615
317.70	6.780
318.07	7.453
318.43	5.691
318.80	6.108
319.16	5.924
319.53	6.452
319.89	6.956
320.26	6.654
320.62	6.951
320.99	6.395
321.35	6.268
321.72	7.122
322.08	7.380
322.45	8.881
322.81	8.318
323.18	8.855
323.54	10.018
323.91	10.208
324.27	9.181
324.64	9.146
325.00	9.624
325.37	10.154
325.73	9.933
326.10	10.345
326.46	11.120
326.83	12.945
327.19	11.463
327.56	14.585
327.92	13.355
328.29	14.441
328.65	15.162
329.01	14.776
329.38	16.435
329.74	15.107
330.11	15.059
330.47	15.278
330.84	16.155
331.20	16.482
331.56	16.576
331.93	17.485
332.29	16.768
332.66	16.610
333.02	17.984
333.38	18.333
333.75	17.577
334.11	18.490
334.48	19.355
334.84	18.816
335.20	17.581
335.57	18.538
335.93	18.299
336.29	17.951
336.66	19.915
337.02	19.217
337.38	18.973
337.75	18.777
338.11	19.641
338.47	19.606
338.84	19.244
339.20	19.841
339.56	20.392
339.93	20.916
340.29	18.958
340.65	20.873
341.02	20.216
341.38	20.777
341.74	18.235
342.11	21.057
342.47	20.669
342.83	20.588
343.20	21.658
343.56	22.077
343.92	20.877
344.28	21.104
344.65	21.469
345.01	20.662
345.37	21.711
345.73	23.039
346.10	20.706
346.46	21.220
346.82	21.268
347.19	21.282
347.55	21.648
347.91	21.356
348.27	21.530
348.63	21.474
349.00	21.541
349.36	22.920
349.72	22.583
350.08	22.387
350.45	21.300
350.81	22.535
351.17	23.018
351.53	22.702
351.89	21.684
352.26	21.236
352.62	23.411
352.98	22.843
353.34	23.108
353.70	22.664
354.07	21.961
354.43	22.862
354.79	23.317
355.15	24.301
355.51	23.386
355.87	23.690
356.24	22.953
356.60	22.127
356.96	23.868
357.32	25.077
357.68	24.141
358.04	24.981
358.40	24.961
358.77	24.618
359.13	24.903
359.49	24.603
359.85	24.867
360.21	25.366
360.57	25.399
360.93	24.279
361.29	24.352
361.66	25.285
362.02	25.056
362.38	25.554
362.74	25.018
363.10	24.873
363.46	24.928
363.82	25.277
364.18	26.178
364.54	27.498
364.90	25.784
365.26	26.256
365.62	25.568
365.98	26.335
366.35	26.738
366.71	27.033
367.07	26.435
367.43	26.341
367.79	26.824
368.15	27.989
368.51	26.371
368.87	26.797
369.23	26.548
369.59	27.343
369.95	27.504
370.31	27.406
370.67	27.806
371.03	27.765
371.39	27.608
371.75	28.000
372.11	28.063
372.47	28.335
372.83	28.363
373.19	29.065
373.55	28.902
373.91	28.784
374.27	28.423
374.63	28.378
374.99	28.273
375.35	30.342
375.71	29.076
376.07	29.815
376.42	29.947
376.78	30.647
377.14	30.237
377.50	31.030
377.86	30.677
378.22	29.836
378.58	30.202
378.94	31.312
379.30	31.293
379.66	31.504
380.02	31.495
380.38	31.205
380.74	31.859
381.09	32.027
381.45	32.648
381.81	31.731
382.17	33.018
382.53	31.262
382.89	31.242
383.25	31.728
383.61	33.232
383.97	32.312
384.32	32.073
384.68	32.511
385.04	33.109
385.40	34.371
385.76	33.577
386.12	34.797
386.48	33.668
386.83	33.730
387.19	33.313
387.55	33.844
387.91	33.887
388.27	34.279
388.62	34.519
388.98	34.793
389.34	35.464
389.70	34.127
390.06	35.938
390.42	35.245
390.77	35.618
391.13	35.480
391.49	35.041
391.85	35.272
392.20	35.401
392.56	36.254
392.92	35.869
393.28	36.026
393.64	36.758
393.99	34.700
394.35	36.049
394.71	36.090
395.07	35.031
395.42	36.258
395.78	36.680
396.14	37.793
396.50	37.413
396.85	37.285
397.21	35.955
397.57	36.087
397.92	36.766
398.28	38.071
398.64	37.158
399.00	37.612
399.35	38.309
399.71	37.100
400.07	38.012
400.42	38.370
400.78	38.429
401.14	37.646
401.49	37.807
401.85	37.408
402.21	39.257
402.57	37.707
402.92	38.548
403.28	39.149
403.63	39.120
403.99	38.324
404.35	39.214
404.70	38.731
405.06	39.636
405.42	38.631
405.77	38.537
406.13	38.457
406.49	38.886
406.84	39.683
407.20	39.254
407.55	39.805
407.91	38.782
408.27	38.802
408.62	40.577
408.98	39.766
409.34	38.614
409.69	40.676
410.05	40.112
410.40	38.831
410.76	40.132
411.11	40.858
411.47	41.274
411.83	40.299
412.18	40.239
412.54	40.288
412.89	40.313
413.25	38.820
413.60	40.878
413.96	40.637
414.31	40.814
414.67	40.825
415.03	41.137
415.38	40.225
415.74	40.806
416.09	43.027
416.45	42.105
416.80	41.477
417.16	41.835
417.51	40.589
417.87	42.063
418.22	41.241
418.58	41.721
418.93	41.431
419.29	41.848
419.64	41.985
420.00	42.159
420.35	42.618
420.71	41.560
421.06	43.296
421.42	42.214
421.77	43.237
422.12	42.350
422.48	41.549
422.83	42.823
423.19	42.381
423.54	43.168
423.90	42.458
424.25	44.079
424.61	43.068
424.96	42.933
425.31	42.400
425.67	44.562
426.02	43.875
426.38	43.657
426.73	44.105
427.09	43.340
427.44	43.922
427.79	43.943
428.15	43.180
428.50	43.142
428.85	44.465
429.21	42.375
429.56	43.783
429.92	44.196
430.27	43.047
430.62	43.127
430.98	43.786
431.33	44.116
431.68	45.154
432.04	45.239
432.39	43.129
432.74	43.532
433.10	45.148
433.45	44.734
433.80	44.655
434.16	44.238
434.51	43.424
434.86	44.817
435.22	44.256
435.57	45.147
435.92	45.476
436.28	44.565
436.63	44.400
436.98	44.771
437.34	45.543
437.69	44.746
438.04	44.652
438.39	46.451
438.75	45.590
439.10	46.617
439.45	45.521
439.81	45.567
440.16	46.261
440.51	45.422
440.86	45.762
441.22	46.586
441.57	44.685
441.92	44.686
442.27	44.535
442.63	44.133
442.98	45.312
443.33	45.260
443.68	45.071
444.03	45.902
444.39	45.612
444.74	45.113
445.09	45.870
445.44	46.254
445.79	45.483
446.15	45.535
446.50	45.319
446.85	46.766
447.20	45.635
447.55	46.055
447.91	46.236
448.26	45.969
448.61	45.742
448.96	46.071
449.31	45.917
449.66	45.807
450.02	46.219
450.37	46.357
450.72	45.350
451.07	47.774
451.42	46.226
451.77	46.439
452.12	45.395
452.47	46.675
452.83	45.696
453.18	45.767
453.53	46.217
453.88	47.169
454.23	46.106
454.58	46.262
454.93	46.504
455.28	46.757
455.63	46.600
455.98	46.500
456.34	45.327
456.69	46.326
457.04	46.687
457.39	46.061
457.74	47.457
458.09	45.794
458.44	45.946
458.79	44.975
459.14	44.831
459.49	46.585
459.84	44.814
460.19	45.798
460.54	47.324
460.89	45.890
461.24	45.746
461.59	46.316
461.94	46.018
462.29	46.814
462.64	46.042
462.99	45.205
463.34	47.307
463.69	45.876
464.04	45.258
464.39	46.492
464.74	44.410
465.09	45.443
465.44	44.893
465.79	45.888
466.14	44.698
466.49	46.452
466.84	46.264
467.19	45.987
467.54	46.273
467.89	45.820
468.24	47.019
468.59	46.590
468.94	46.807
469.29	46.200
469.64	46.932
469.99	47.931
470.34	46.325
470.68	46.320
471.03	46.968
471.38	44.854
471.73	45.748
472.08	48.179
472.43	47.164
472.78	46.112
473.13	45.185
473.48	45.727
473.83	46.516
474.17	46.159
474.52	45.243
474.87	45.597
475.22	45.833
475.57	46.235
475.92	45.638
476.27	46.037
476.61	46.093
476.96	47.116
477.31	45.254
477.66	47.232
478.01	44.945
478.36	45.232
478.70	44.952
479.05	45.616
479.40	45.762
479.75	45.696
480.10	45.997
480.45	45.611
480.79	45.893
481.14	45.745
481.49	46.670
481.84	44.533
482.19	44.928
482.53	44.857
482.88	44.343
483.23	45.236
483.58	45.510
483.92	45.039
484.27	45.654
484.62	44.296
484.97	45.292
485.31	43.846
485.66	40.412
486.01	39.831
486.36	40.145
486.70	41.597
487.05	42.696
487.40	43.720
487.75	44.961
488.09	45.042
488.44	45.706
488.79	46.707
489.13	46.163
489.48	45.190
489.83	46.003
490.17	45.665
490.52	46.283
490.87	44.043
491.22	47.009
491.56	46.095
491.91	44.983
492.26	45.841
492.60	45.936
492.95	45.724
493.30	45.107
493.64	44.460
493.99	46.184
494.34	45.183
494.68	46.301
495.03	46.146
495.37	46.861
495.72	45.564
496.07	47.053
496.41	44.642
496.76	44.561
497.11	44.930
497.45	45.428
497.80	45.785
498.14	46.902
498.49	45.285
498.84	46.306
499.18	44.998
499.53	45.495
499.87	44.541
500.22	46.690
500.56	45.938
500.91	46.076
501.26	46.305
501.60	46.029
501.95	45.664
502.29	45.874
502.64	46.480
502.98	45.279
503.33	45.304
503.67	45.862
504.02	45.588
504.36	45.914
504.71	45.325
505.06	45.848
505.40	46.495
505.75	46.541
506.09	46.500
506.44	46.270
506.78	46.216
507.13	45.946
507.47	45.970
507.82	46.520
508.16	46.966
508.51	45.816
508.85	46.242
509.19	47.672
509.54	47.453
509.88	47.634
510.23	47.632
510.57	47.034
510.92	46.498
511.26	48.405
511.61	47.530
511.95	47.023
512.30	47.140
512.64	47.673
512.98	47.368
513.33	47.211
513.67	46.053
514.02	47.948
514.36	47.135
514.70	48.441
515.05	48.800
515.39	48.998
515.74	48.135
516.08	47.316
516.42	47.465
516.77	46.456
517.11	46.384
517.46	48.860
517.80	49.758
518.14	47.397
518.49	47.498
518.83	48.329
519.17	47.530
519.52	49.276
519.86	48.452
520.20	48.757
520.55	49.876
520.89	49.462
521.23	49.679
521.58	50.126
521.92	49.026
522.26	49.772
522.61	49.968
522.95	50.842
523.29	49.587
523.64	48.570
523.98	48.094
524.32	49.464
524.66	50.649
525.01	50.459
525.35	49.901
525.69	50.431
526.04	47.687
526.38	49.140
526.72	50.164
527.06	49.065
527.41	49.040
527.75	48.264
528.09	51.055
528.43	50.746
528.78	49.871
529.12	49.483
529.46	48.688
529.80	48.350
530.15	49.099
530.49	49.596
530.83	49.357
531.17	49.589
531.51	48.887
531.86	48.984
532.20	49.690
532.54	49.448
532.88	50.647
533.22	49.360
533.57	50.000
533.91	50.129
534.25	50.260
534.59	47.941
534.93	48.469
535.27	47.707
535.62	49.671
535.96	48.016
536.30	50.332
536.64	48.599
536.98	47.722
537.32	48.754
537.66	50.846
538.01	50.347
538.35	48.343
538.69	47.559
539.03	47.987
539.37	47.150
539.71	48.909
540.05	48.583
540.39	47.075
540.73	48.324
541.07	49.320
541.42	49.024
541.76	49.526
542.10	48.003
542.44	47.817
542.78	50.243
543.12	48.720
543.46	48.100
543.80	47.386
544.14	50.172
544.48	47.910
544.82	47.545
545.16	48.208
545.50	49.426
545.84	48.036
546.18	48.738
546.52	49.400
546.86	47.915
547.20	49.107
547.54	49.178
547.88	48.718
548.22	48.339
548.56	47.698
548.90	47.429
549.24	49.236
549.58	48.897
549.92	49.963
550.26	49.594
550.60	49.399
550.94	50.224
551.28	48.524
551.62	48.872
551.96	48.536
552.30	47.525
552.64	48.164
552.98	48.438
553.32	47.945
553.66	49.303
554.00	46.796
554.34	48.571
554.68	48.322
555.02	49.626
555.36	50.832
555.69	47.779
556.03	47.605
556.37	48.151
556.71	49.404
557.05	48.782
557.39	49.209
557.73	49.622
558.07	49.586
558.41	49.357
558.75	48.730
559.08	49.800
559.42	49.725
559.76	49.006
560.10	48.578
560.44	50.184
560.78	47.554
561.12	48.493
561.45	47.075
561.79	48.762
562.13	47.539
562.47	48.071
562.81	47.475
563.15	49.363
563.48	46.593
563.82	48.085
564.16	47.055
564.50	48.236
564.84	46.554
565.17	47.483
565.51	46.658
565.85	47.169
566.19	47.152
566.52	46.527
566.86	46.271
567.20	46.915
567.54	45.941
567.88	45.185
568.21	44.921
568.55	44.862
568.89	43.619
569.23	43.538
569.56	42.804
569.90	42.025
570.24	40.686
570.57	40.259
570.91	41.378
571.25	41.465
571.59	40.559
571.92	40.862
572.26	41.016
572.60	41.423
572.93	41.737
573.27	40.783
573.61	41.031
573.95	40.693
574.28	40.681
574.62	39.570
574.96	40.846
575.29	39.920
575.63	39.858
575.97	41.114
576.30	40.887
576.64	40.660
576.98	40.212
577.31	39.821
577.65	39.032
577.98	39.085
578.32	39.293
578.66	39.491
578.99	40.469
579.33	40.205
579.67	40.657
580.00	40.124
580.34	40.063
580.67	40.617
581.01	39.599
581.35	38.948
581.68	38.141
582.02	38.559
582.35	39.085
582.69	39.188
583.02	39.485
583.36	39.812
583.70	40.595
584.03	41.305
584.37	41.475
584.70	40.852
585.04	40.443
585.37	39.563
585.71	39.074
586.04	39.850
586.38	39.647
586.72	40.208
587.05	40.412
587.39	39.642
587.72	39.920
588.06	40.410
588.39	39.882
588.73	40.012
589.06	40.640
589.40	41.830
589.73	41.107
590.07	40.941
590.40	41.462
590.73	42.869
591.07	42.750
591.40	41.739
591.74	43.130
592.07	42.538
592.41	42.214
592.74	40.664
593.08	39.966
593.41	39.531
593.75	39.212
594.08	40.000
594.41	41.243
594.75	40.405
595.08	41.001
595.42	40.551
595.75	40.889
596.09	41.263
596.42	41.258
596.75	42.563
597.09	42.675
597.42	42.441
597.75	41.689
598.09	42.350
598.42	42.327
598.76	40.890
599.09	41.096
599.42	40.106
599.76	40.180
600.09	39.985
600.42	40.339
600.76	39.616
601.09	40.904
601.42	40.572
601.76	40.386
602.09	41.346
602.42	41.808
602.76	41.275
603.09	42.341
603.42	40.224
603.76	40.023
604.09	40.119
604.42	40.393
604.76	41.859
605.09	41.278
605.42	41.745
605.75	40.385
606.09	39.818
606.42	40.815
606.75	40.130
607.09	41.401
607.42	40.893
607.75	39.562
608.08	41.975
608.42	41.987
608.75	40.898
609.08	41.156
609.41	42.424
609.75	42.108
610.08	41.765
610.41	41.156
610.74	41.482
611.07	41.884
611.41	41.709
611.74	41.822
612.07	40.750
612.40	43.514
612.73	42.042
613.07	42.184
613.40	41.740
613.73	41.712
614.06	41.680
614.39	41.857
614.72	41.699
615.06	41.889
615.39	41.832
615.72	41.037
616.05	41.779
616.38	42.153
616.71	41.212
617.05	43.120
617.38	42.329
617.71	42.402
618.04	43.083
618.37	43.912
618.70	42.561
619.03	44.261
619.36	44.626
619.69	43.494
620.03	43.958
620.36	43.145
620.69	42.256
621.02	43.846
621.35	44.317
621.68	44.580
622.01	44.337
622.34	43.537
622.67	43.383
623.00	44.605
623.33	42.782
623.66	43.643
623.99	44.261
624.32	42.993
624.65	42.582
624.99	43.424
625.32	42.942
625.65	43.798
625.98	44.392
626.31	44.980
626.64	45.400
626.97	45.675
627.30	46.108
627.63	45.242
627.96	45.368
628.29	46.791
628.62	46.518
628.95	47.595
629.28	47.291
629.61	46.794
629.94	46.325
630.26	48.276
630.59	46.454
630.92	46.988
631.25	47.374
631.58	48.608
631.91	45.599
632.24	47.091
632.57	47.556
632.90	49.242
633.23	49.161
633.56	50.240
633.89	48.684
634.22	50.177
634.55	51.035
634.88	49.877
635.20	49.000
635.53	48.579
635.86	49.103
636.19	49.380
636.52	46.463
636.85	48.975
637.18	46.529
637.51	48.689
637.83	48.303
638.16	49.067
638.49	46.996
638.82	47.712
639.15	49.069
639.48	50.936
639.81	50.139
640.13	50.282
640.46	48.729
640.79	49.353
641.12	49.704
641.45	50.364
641.77	48.895
642.10	50.227
642.43	49.214
642.76	48.423
643.09	51.118
643.41	51.515
643.74	51.050
644.07	49.191
644.40	49.088
644.73	52.712
645.05	48.342
645.38	50.166
645.71	51.020
646.04	48.990
646.36	49.479
646.69	49.301
647.02	53.370
647.35	52.102
647.67	51.941
648.00	49.638
648.33	46.780
648.66	48.080
648.98	48.758
649.31	48.620
649.64	46.479
649.96	48.499
650.29	48.529
650.62	47.941
650.94	49.483
651.27	50.883
651.60	49.476
651.92	50.179
652.25	50.921
652.58	49.010
652.90	47.980
653.23	47.029
653.56	46.281
653.88	47.270
654.21	47.440
654.54	46.678
654.86	47.805
655.19	45.378
655.52	38.233
655.84	30.756
656.17	36.354
656.49	48.405
656.82	50.094
657.15	39.387
657.47	30.200
657.80	23.256
658.13	24.711
658.45	37.988
658.78	39.132
659.10	39.421
659.43	41.550
659.75	42.054
660.08	42.759
660.41	45.132
660.73	46.970
661.06	51.020
661.38	49.225
661.71	51.434
662.03	54.968
662.36	50.885
662.68	49.247
663.01	51.907
663.33	52.052
663.66	51.885
663.98	53.483
664.31	49.231
664.63	45.721
664.96	52.735
665.28	50.215
665.61	47.732
665.93	47.966
666.26	51.266
666.58	49.679
666.91	54.260
667.23	50.230
667.56	53.333
667.88	51.168
668.21	49.107
668.53	53.103
668.86	51.559
669.18	51.537
669.50	50.230
669.83	48.210
670.15	49.286
670.48	50.115
670.80	49.891
671.13	51.259
671.45	50.685
671.77	50.000
672.10	46.004
672.42	45.611
672.75	43.929
673.07	45.091
673.39	47.015
673.72	47.505
674.04	48.975
674.37	46.951
674.69	45.267
675.01	49.786
675.34	51.860
675.66	51.198
675.98	48.230
676.31	50.905
676.63	51.247
676.95	48.471
677.28	47.706
677.60	51.716
677.92	44.124
678.25	47.505
678.57	47.658
678.89	45.629
679.22	47.412
679.54	47.143
679.86	46.289
680.18	46.154
680.51	45.385
680.83	45.614
681.15	45.972
681.48	46.092
681.80	44.172
682.12	45.000
682.44	43.662
682.77	43.158
683.09	44.643
683.41	46.744
683.73	46.875
684.06	47.124
684.38	40.598
684.70	44.399
685.02	46.281
685.34	46.575
685.67	44.090
685.99	41.459
686.31	41.379
686.63	42.463
686.96	45.269
687.28	44.112
687.60	46.314
687.92	43.191
688.24	42.800
688.56	44.518
688.89	45.657
689.21	45.740
689.53	41.667
689.85	45.393
690.17	44.835
690.49	44.203
690.82	46.062
691.14	42.995
691.46	45.940
691.78	43.736
692.10	39.703
692.42	43.077
692.74	43.696
693.06	42.247
693.39	41.920
693.71	44.222
694.03	45.682
694.35	42.793
694.67	47.000
694.99	48.969
695.31	45.736
695.63	44.878
695.95	46.310
696.27	43.562
696.59	47.043
696.91	44.134
697.23	42.640
697.56	45.084
697.88	42.412
698.20	43.844
698.52	43.692
698.84	42.105
699.16	38.771
699.48	44.938
699.80	46.512
700.12	46.917
700.44	45.915
700.76	45.506
701.08	45.619
701.40	47.605
701.72	47.385
702.04	42.453
702.36	46.341
702.68	43.293
703.00	43.567
703.32	44.847
703.64	46.386
703.96	45.161
704.28	44.880
704.60	45.427
704.91	44.514
705.23	49.367
705.55	44.828
705.87	50.000
706.19	42.125
706.51	45.423
706.83	39.172
707.15	43.598
707.47	45.730
707.79	41.117
708.11	39.589
708.43	40.355
708.74	42.553
709.06	41.979
709.38	42.939
709.70	44.444
710.02	45.171
710.34	40.667
710.66	44.951
710.98	41.486
711.29	46.753
711.61	42.903
711.93	44.839
712.25	42.657
712.57	40.351
712.89	44.689
713.20	45.035
713.52	42.336
713.84	42.258
714.16	40.453
714.48	41.456
714.80	39.297
715.11	42.733
715.43	40.373
715.75	44.099
716.07	40.361
716.39	43.771
716.70	46.043
717.02	43.529
717.34	48.106
717.66	42.672
717.97	41.667
718.29	46.063
718.61	43.777
718.93	44.186
719.24	44.649
719.56	41.573
719.88	39.552
720.20	41.897
720.51	39.453
720.83	43.191
721.15	39.837
721.46	41.985
721.78	43.825
722.10	45.817
722.42	40.726
722.73	39.768
723.05	42.449
723.37	44.118
723.68	42.400
724.00	42.553
724.32	43.933
724.63	43.621
724.95	40.598
725.27	46.835
725.58	46.091
725.90	48.954
726.22	38.768
726.53	39.608
726.85	40.511
727.16	39.259
727.48	43.678
727.80	43.750
728.11	40.164
728.43	39.063
728.74	40.476
729.06	38.000
729.38	39.921
729.69	39.502
730.01	37.175
730.32	38.007
730.64	38.258
730.96	43.357
731.27	36.789
731.59	37.143
731.90	38.835
732.22	33.974
732.53	40.878
732.85	34.564
733.16	37.954
733.48	37.500
733.80	37.838
734.11	39.189
734.43	34.985
734.74	34.535
735.06	37.176
735.37	34.347
735.69	38.188
736.00	35.314
736.32	41.135
736.63	37.241
736.95	38.014
737.26	36.552
737.58	35.069
737.89	38.144
738.21	37.011
738.52	38.403
738.83	41.633
739.15	35.443
739.46	38.132
739.78	32.042
740.09	36.301
740.41	31.429
740.72	38.652
741.04	36.000
741.35	39.912
741.66	37.333
741.98	37.019
742.29	47.030
742.61	42.439
742.92	36.842
743.23	36.321
743.55	45.946
743.86	38.565
744.18	41.667
744.49	40.102
744.80	41.837
745.12	37.383
745.43	41.232
745.74	40.541
746.06	35.047
746.37	36.697
746.68	36.538
747.00	41.627
747.31	42.308
747.62	38.991
747.94	40.175
748.25	42.661
748.56	40.444
748.88	38.498
749.19	41.905
749.50	40.291
749.82	34.742
750.13	32.917
750.44	35.000
750.75	34.686
751.07	41.637
751.38	34.752
751.69	30.888
752.01	36.719
752.32	33.462
752.63	39.179
752.94	37.200
753.26	38.075
753.57	40.417
753.88	38.462
754.19	32.669
754.51	33.835
754.82	34.066
755.13	33.478
755.44	33.333
755.75	35.200
756.07	32.103
756.38	35.612
756.69	36.177
757.00	37.383
757.31	32.039
757.63	33.333
757.94	31.356
758.25	32.540
758.56	33.152
758.87	30.952
759.18	29.968
759.50	31.650
759.81	36.789
760.12	31.692
760.43	33.036
760.74	32.203
761.05	29.006
761.36	28.080
761.67	32.024
761.99	30.241
762.30	31.387
762.61	31.276
762.92	35.897
763.23	38.525
763.54	33.766
763.85	33.061
764.16	32.114
764.47	34.800
764.78	29.643
765.10	36.066
765.41	29.179
765.72	31.988
766.03	34.323
766.34	32.308
766.65	32.636
766.96	29.108
767.27	35.644
767.58	28.652
767.89	37.037
768.20	30.387
768.51	37.688
768.82	34.615
769.13	33.186
769.44	30.962
769.75	24.359
770.06	29.148
770.37	27.451
770.68	37.864
770.99	33.981
771.30	32.773
771.61	28.980
771.92	34.025
772.23	30.631
772.54	30.939
772.85	31.395
773.16	35.450
773.47	24.852
773.78	36.207
774.09	36.875
774.39	37.267
774.70	32.653
775.01	31.724
775.32	39.286
775.63	34.586
775.94	32.331
776.25	35.200
776.56	36.364
776.87	38.095
777.18	32.432
777.48	41.441
777.79	36.220
778.10	28.440
778.41	40.351
778.72	35.294
779.03	28.873
779.34	32.432
779.65	35.211
779.95	32.450
780.26	25.180
780.57	32.374
780.88	30.986
781.19	32.773
781.50	34.899
781.80	30.994
782.11	31.395
782.42	36.478
782.73	32.680
783.04	31.724
783.34	29.771
783.65	24.832
783.96	30.769
784.27	30.714
784.57	30.496
784.88	21.154
785.19	38.182
785.50	33.636
785.81	22.857
786.11	18.487
786.42	34.513
786.73	39.623
787.04	24.771
787.34	25.743
787.65	32.500
787.96	42.149
788.26	33.333
788.57	25.397
788.88	33.333
789.19	28.800
789.49	28.244
789.80	33.333
790.11	26.415
790.41	33.663
790.72	38.298
791.03	35.870
791.33	28.235
791.64	20.988
791.95	29.348
792.25	44.318
792.56	37.179
792.87	29.487
793.17	34.615
793.48	34.524
793.79	33.750
794.09	38.462
794.40	37.500
794.70	32.432
795.01	25.000
795.32	30.435
795.62	33.696
795.93	27.358
796.23	36.364
796.54	32.927
796.85	34.524
797.15	37.879
797.46	34.783
797.76	28.947
798.07	26.136
798.37	23.171
798.68	24.194
798.99	28.378
799.29	27.711
799.60	26.923
799.90	49.231
800.21	36.364
800.51	26.667
800.82	34.667
801.12	33.333
801.43	16.667
801.73	17.568
802.04	30.000
802.34	27.869
802.65	44.776
802.95	30.909
803.26	31.034
803.56	40.000
803.87	37.736
804.17	29.032
804.48	30.882
804.78	29.268
805.09	34.783
805.39	26.471
805.70	25.532
806.00	33.333
806.30	37.179
806.61	34.211
806.91	33.784
807.22	36.842
807.52	27.273
807.83	32.203
808.13	1.515
808.43	35.000
808.74	0.000
809.04	38.095
809.35	30.612
809.65	35.000
809.95	6.122
810.26	43.662
810.56	37.500
810.86	26.531
811.17	40.385
811.47	34.043
811.77	33.333
812.08	43.396
812.38	40.625
812.69	25.455
812.99	17.073
813.29	48.649
813.59	10.811
813.90	18.182
814.20	12.727
814.50	21.667
814.81	34.545
815.11	36.842
815.41	51.163
815.72	42.500
816.02	45.714
816.32	21.622
816.62	10.417
816.93	37.778
817.23	20.000
817.53	-5.556
817.84	16.216
818.14	26.829
818.44	22.000
818.74	46.939
819.04	60.976
819.35	55.556
819.65	40.909
819.95	16.667
820.25	30.303
820.56	26.190
820.86	33.333
821.16	6.818
821.46	30.435
821.76	25.862
822.07	45.652
822.37	36.364
822.67	41.463
822.97	18.919
823.27	-8.571
823.57	41.379
823.88	38.235
824.18	13.889
824.48	25.714
824.78	47.619
825.08	7.143
825.38	29.630
825.69	25.806
825.99	34.146
826.29	25.926
826.59	21.875
826.89	19.355
827.19	34.783
827.49	2.778
827.79	17.391
828.09	58.065
828.39	22.917
828.70	0.000
829.00	24.138
829.30	24.324
829.60	-16.667
829.90	59.259
830.20	31.250
830.50	27.273
830.80	-70.588
831.10	22.727
831.40	-8.824
831.70	7.692
832.00	27.273
832.30	52.941
832.60	24.324
832.90	400.000
833.20	28.571
833.50	-25.000
833.80	2.632
834.10	4.167
834.40	36.364
834.70	0.000
835.00	20.000
835.30	25.000
835.60	14.286
835.90	19.048
836.20	24.000
836.50	-16.667
836.80	10.526
837.10	18.919
837.40	50.000
837.70	-17.391
838.00	87.500
838.30	10.526
838.60	-150.000
838.90	-90.000
839.19	-16.667
839.49	23.077
839.79	26.316
840.09	0.000
840.39	-20.000
840.69	77.273
840.99	61.905
841.29	-25.000
841.59	23.077
841.88	13.333
842.18	-57.143
842.48	40.000
842.78	-57.143
843.08	21.429
843.38	112.500
843.68	-37.500
843.97	50.000
844.27	-100.000
844.57	-54.545
844.87	-53.333
845.17	36.364
845.47	233.333
845.76	20.000
846.06	-16.667
846.36	-600.000
846.66	36.842
846.96	4.545
847.25	-22.222
847.55	-111.111
847.85	-28.571
848.15	-15.385
848.44	-150.000
848.74	-8.333
849.04	7.692
849.34	-200.000
849.63	-27.273
849.93	-78.571
850.23	30.000
850.53	-62.500
850.82	61.111
851.12	-26.667
851.42	11.765
851.71	137.500
852.01	58.824
852.31	46.154
852.61	100.000
852.90	52.941
853.20	53.333
853.50	56.250
853.79	14.286
854.09	-75.000
854.39	50.000
854.68	17.500
854.98	19.048
855.28	4.000
855.57	12.500
855.87	16.667
856.17	28.000
856.46	9.375
856.76	55.000
857.05	76.000
857.35	-41.667
857.65	23.529
857.94	-50.000
858.24	-8.333
858.53	45.000
858.83	-27.273
859.13	0.000
859.42	-7.143
859.72	12.500
860.01	0.000
860.31	-112.500
860.60	25.000
860.90	16.667
861.20	66.667
861.49	33.333
861.79	-56.250
862.08	-125.000
862.38	-125.000
862.67	242.857
862.97	225.000
863.26	0.000
863.56	18.182
863.85	63.158
864.15	5.882
864.44	-180.000
864.74	-80.000
865.03	-22.222
865.33	57.143
865.62	57.143
865.92	-21.053
866.21	50.000
866.51	109.091
866.80	-33.333
867.10	-137.500
867.39	37.500
867.69	-6.667
867.98	10.000
868.27	41.176
868.57	0.000
868.86	850.000
869.16	-50.000
869.45	-85.714
869.75	-150.000
870.04	0.000
870.33	-1000.000
870.63	52.632
870.92	-33.333
871.22	-1000.000
871.51	14.286
871.80	0.000
872.10	-150.000
>>>>>End Processed Spectral Data<<<<<
