SpectraSuite Data File
++++++++++++++++++++++++++++++++++++
Date: Wed May 13 20:45:18 PDT 2015
User: schluterlab
Dark Spectrum Present: Yes
Reference Spectrum Present: Yes
Number of Sampled Component Spectra: 1
Spectrometers: USB2E3373
Integration Time (usec): 3000 (USB2E3373)
Spectra Averaged: 3 (USB2E3373)
Boxcar Smoothing: 0 (USB2E3373)
Correct for Electrical Dark: No (USB2E3373)
Strobe/Lamp Enabled: No (USB2E3373)
Correct for Detector Non-linearity: No (USB2E3373)
Correct for Stray Light: No (USB2E3373)
Number of Pixels in Processed Spectrum: 2048
>>>>>Begin Processed Spectral Data<<<<<
178.53	0.000
178.91	-750.000
179.29	-575.000
179.67	-138.889
180.04	-850.000
180.42	1900.000
180.80	660.000
181.18	-600.000
181.56	371.429
181.94	0.000
182.31	-200.000
182.69	1233.333
183.07	-262.500
183.45	-244.444
183.83	390.909
184.20	-200.000
184.58	1750.000
184.96	3600.000
185.34	-660.000
185.72	-412.500
186.09	-1200.000
186.47	1950.000
186.85	1300.000
187.23	2800.000
187.61	-1100.000
187.98	900.000
188.36	409.091
188.74	381.818
189.12	-500.000
189.49	360.000
189.87	-2800.000
190.25	-700.000
190.63	250.000
191.00	276.923
191.38	616.667
191.76	-775.000
192.14	1075.000
192.51	375.000
192.89	683.333
193.27	325.000
193.65	-825.000
194.02	330.000
194.40	560.000
194.78	370.000
195.15	400.000
195.53	510.000
195.91	-1100.000
196.29	181.250
196.66	242.105
197.04	-270.000
197.42	0.000
197.79	380.000
198.17	-3100.000
198.55	400.000
198.92	487.500
199.30	500.000
199.68	0.000
200.05	255.556
200.43	628.571
200.81	2800.000
201.18	900.000
201.56	-733.333
201.94	288.889
202.31	366.667
202.69	266.667
203.07	320.000
203.44	0.000
203.82	675.000
204.19	500.000
204.57	235.714
204.95	512.500
205.32	1166.667
205.70	309.091
206.08	300.000
206.45	1750.000
206.83	231.250
207.20	583.333
207.58	460.000
207.96	205.556
208.33	462.500
208.71	-600.000
209.08	642.857
209.46	377.778
209.84	345.455
210.21	-966.667
210.59	1000.000
210.96	-375.000
211.34	1250.000
211.71	420.000
212.09	600.000
212.46	0.000
212.84	1000.000
213.22	825.000
213.59	-1600.000
213.97	450.000
214.34	514.286
214.72	345.455
215.09	540.000
215.47	-1100.000
215.84	-1550.000
216.22	1400.000
216.59	207.143
216.97	725.000
217.34	236.364
217.72	-466.667
218.09	0.000
218.47	-2800.000
218.84	433.333
219.22	471.429
219.59	1033.333
219.97	-371.429
220.34	700.000
220.72	-933.333
221.09	221.429
221.47	825.000
221.84	-616.667
222.22	0.000
222.59	850.000
222.97	-1550.000
223.34	820.000
223.72	284.615
224.09	460.000
224.46	1050.000
224.84	-2900.000
225.21	-580.000
225.59	-3000.000
225.96	450.000
226.34	175.000
226.71	1750.000
227.08	550.000
227.46	340.000
227.83	-650.000
228.21	-1300.000
228.58	422.222
228.95	-1450.000
229.33	-1350.000
229.70	1366.667
230.08	542.857
230.45	-400.000
230.82	283.333
231.20	516.667
231.57	300.000
231.95	350.000
232.32	154.545
232.69	200.000
233.07	442.857
233.44	276.923
233.81	-800.000
234.19	178.947
234.56	391.667
234.93	358.333
235.31	372.727
235.68	238.462
236.05	285.714
236.43	112.121
236.80	121.053
237.17	4100.000
237.55	161.905
237.92	132.143
238.29	190.476
238.67	148.387
239.04	158.621
239.41	136.111
239.79	95.652
240.16	100.000
240.53	95.455
240.91	74.510
241.28	74.000
241.65	80.000
242.02	76.812
242.40	59.677
242.77	86.667
243.14	65.591
243.51	80.899
243.89	63.529
244.26	57.778
244.63	61.290
245.00	57.447
245.38	59.406
245.75	54.206
246.12	66.972
246.49	70.803
246.87	65.600
247.24	60.000
247.61	55.714
247.98	50.980
248.36	50.676
248.73	50.955
249.10	49.682
249.47	54.802
249.84	51.337
250.22	45.989
250.59	52.071
250.96	49.495
251.33	52.607
251.70	55.941
252.08	50.000
252.45	45.291
252.82	47.826
253.19	48.936
253.56	44.706
253.94	47.303
254.31	46.484
254.68	48.077
255.05	48.339
255.42	46.341
255.79	42.647
256.16	46.209
256.54	44.876
256.91	44.484
257.28	44.604
257.65	46.205
258.02	46.273
258.39	41.956
258.76	43.478
259.14	43.750
259.51	41.033
259.88	45.342
260.25	46.526
260.62	41.908
260.99	46.273
261.36	44.444
261.73	41.834
262.10	43.023
262.47	43.662
262.85	42.897
263.22	37.892
263.59	43.305
263.96	41.484
264.33	44.125
264.70	43.421
265.07	44.246
265.44	42.677
265.81	37.226
266.18	42.714
266.55	40.488
266.92	38.084
267.29	39.815
267.66	41.743
268.03	42.273
268.40	40.888
268.77	40.573
269.14	37.613
269.51	42.438
269.88	40.793
270.25	41.084
270.62	38.876
270.99	41.935
271.36	39.700
271.73	40.888
272.10	41.522
272.47	40.860
272.84	39.610
273.21	40.042
273.58	37.773
273.95	37.107
274.32	38.223
274.69	41.328
275.06	37.402
275.43	40.000
275.80	38.076
276.17	39.919
276.54	41.372
276.91	38.340
277.28	36.914
277.65	37.718
278.02	40.166
278.39	40.039
278.76	38.364
279.13	38.113
279.50	38.920
279.87	38.645
280.23	41.916
280.60	37.911
280.97	39.002
281.34	38.053
281.71	39.273
282.08	39.923
282.45	37.455
282.82	37.123
283.19	36.364
283.56	38.070
283.92	37.394
284.29	35.097
284.66	37.568
285.03	35.081
285.40	36.268
285.77	36.195
286.14	35.751
286.51	37.333
286.87	36.068
287.24	37.622
287.61	36.116
287.98	37.013
288.35	34.073
288.72	34.735
289.08	34.272
289.45	34.761
289.82	34.959
290.19	33.752
290.56	33.691
290.93	32.477
291.29	32.209
291.66	33.038
292.03	34.738
292.40	34.949
292.77	31.361
293.13	31.045
293.50	32.507
293.87	33.630
294.24	31.704
294.60	30.131
294.97	30.378
295.34	31.030
295.71	31.392
296.08	29.060
296.44	31.637
296.81	28.534
297.18	30.623
297.55	27.704
297.91	30.607
298.28	31.058
298.65	30.157
299.02	29.644
299.38	28.951
299.75	27.493
300.12	28.352
300.48	29.000
300.85	29.470
301.22	30.064
301.59	27.399
301.95	28.463
302.32	28.241
302.69	29.152
303.05	27.879
303.42	27.531
303.79	27.180
304.15	25.874
304.52	26.883
304.89	26.365
305.25	27.726
305.62	26.954
305.99	29.398
306.35	27.740
306.72	25.897
307.09	27.414
307.45	27.140
307.82	26.116
308.19	27.152
308.55	27.940
308.92	25.994
309.29	26.716
309.65	25.981
310.02	26.110
310.38	27.097
310.75	26.927
311.12	27.226
311.48	26.019
311.85	28.197
312.22	27.992
312.58	26.091
312.95	26.716
313.31	26.214
313.68	27.235
314.05	30.769
314.41	27.337
314.78	29.104
315.14	28.103
315.51	28.939
315.87	28.218
316.24	26.912
316.61	28.363
316.97	28.082
317.34	28.865
317.70	29.159
318.07	28.489
318.43	30.626
318.80	29.335
319.16	30.603
319.53	30.769
319.89	31.905
320.26	34.700
320.62	33.036
320.99	33.939
321.35	34.747
321.72	34.394
322.08	36.920
322.45	37.512
322.81	36.240
323.18	37.765
323.54	37.477
323.91	37.170
324.27	39.866
324.64	39.609
325.00	40.757
325.37	42.129
325.73	41.741
326.10	43.778
326.46	45.341
326.83	46.160
327.19	45.602
327.56	47.213
327.92	47.419
328.29	47.382
328.65	49.632
329.01	50.271
329.38	52.451
329.74	51.524
330.11	52.215
330.47	52.893
330.84	53.493
331.20	53.643
331.56	53.945
331.93	54.630
332.29	55.901
332.66	55.664
333.02	56.581
333.38	57.182
333.75	55.882
334.11	55.961
334.48	56.344
334.84	58.640
335.20	58.636
335.57	57.298
335.93	57.143
336.29	59.066
336.66	59.152
337.02	59.638
337.38	60.278
337.75	59.180
338.11	59.534
338.47	60.221
338.84	60.312
339.20	60.642
339.56	60.766
339.93	61.182
340.29	60.054
340.65	60.071
341.02	61.082
341.38	60.053
341.74	59.386
342.11	60.349
342.47	61.410
342.83	59.932
343.20	61.818
343.56	59.562
343.92	60.702
344.28	58.333
344.65	62.683
345.01	60.354
345.37	61.750
345.73	62.437
346.10	59.676
346.46	62.966
346.82	61.697
347.19	61.236
347.55	59.852
347.91	61.408
348.27	61.545
348.63	62.709
349.00	61.327
349.36	61.823
349.72	61.828
350.08	60.616
350.45	62.408
350.81	60.764
351.17	60.940
351.53	61.753
351.89	61.551
352.26	61.010
352.62	60.545
352.98	61.750
353.34	61.709
353.70	60.966
354.07	61.613
354.43	60.317
354.79	59.212
355.15	61.053
355.51	61.950
355.87	61.796
356.24	61.482
356.60	60.144
356.96	61.223
357.32	62.224
357.68	61.969
358.04	61.362
358.40	62.154
358.77	60.876
359.13	59.984
359.49	61.490
359.85	59.365
360.21	62.041
360.57	60.856
360.93	62.231
361.29	61.149
361.66	61.533
362.02	61.567
362.38	61.065
362.74	61.682
363.10	59.808
363.46	60.748
363.82	60.771
364.18	59.838
364.54	60.550
364.90	61.615
365.26	61.618
365.62	61.505
365.98	59.459
366.35	60.315
366.71	61.099
367.07	61.981
367.43	62.554
367.79	62.170
368.15	61.997
368.51	61.410
368.87	60.956
369.23	61.156
369.59	61.332
369.95	60.368
370.31	60.541
370.67	60.797
371.03	61.573
371.39	61.953
371.75	61.176
372.11	59.459
372.47	61.437
372.83	61.167
373.19	60.766
373.55	62.676
373.91	60.457
374.27	60.069
374.63	61.018
374.99	61.794
375.35	60.363
375.71	59.287
376.07	60.974
376.42	62.999
376.78	61.166
377.14	58.820
377.50	61.126
377.86	59.973
378.22	60.051
378.58	58.647
378.94	60.088
379.30	61.323
379.66	61.294
380.02	61.118
380.38	59.866
380.74	60.684
381.09	59.352
381.45	61.156
381.81	61.486
382.17	61.019
382.53	60.063
382.89	60.370
383.25	60.725
383.61	61.710
383.97	59.912
384.32	60.574
384.68	60.781
385.04	60.418
385.40	59.690
385.76	60.504
386.12	61.334
386.48	60.478
386.83	60.616
387.19	61.163
387.55	58.936
387.91	60.399
388.27	60.760
388.62	60.111
388.98	60.012
389.34	60.951
389.70	60.392
390.06	60.837
390.42	59.987
390.77	60.051
391.13	61.136
391.49	60.343
391.85	58.816
392.20	59.495
392.56	60.164
392.92	60.742
393.28	59.349
393.64	60.492
393.99	59.866
394.35	59.367
394.71	58.407
395.07	58.318
395.42	61.063
395.78	59.351
396.14	60.646
396.50	60.464
396.85	59.186
397.21	57.953
397.57	58.958
397.92	59.856
398.28	58.296
398.64	59.259
399.00	59.373
399.35	59.786
399.71	59.664
400.07	59.077
400.42	60.613
400.78	59.469
401.14	60.183
401.49	59.522
401.85	59.105
402.21	58.443
402.57	59.346
402.92	60.025
403.28	59.338
403.63	59.406
403.99	60.127
404.35	58.061
404.70	58.873
405.06	58.998
405.42	59.638
405.77	58.229
406.13	58.070
406.49	59.255
406.84	58.535
407.20	58.333
407.55	59.158
407.91	60.400
408.27	59.668
408.62	57.736
408.98	58.701
409.34	57.626
409.69	58.710
410.05	59.294
410.40	58.532
410.76	57.467
411.11	58.745
411.47	58.594
411.83	58.644
412.18	58.565
412.54	57.908
412.89	59.217
413.25	58.560
413.60	58.987
413.96	58.409
414.31	59.052
414.67	58.872
415.03	58.940
415.38	58.054
415.74	59.035
416.09	60.353
416.45	58.434
416.80	58.559
417.16	58.981
417.51	59.190
417.87	57.482
418.22	58.612
418.58	57.715
418.93	59.091
419.29	58.307
419.64	57.746
420.00	58.110
420.35	56.754
420.71	58.757
421.06	57.697
421.42	57.895
421.77	58.520
422.12	57.889
422.48	58.068
422.83	58.358
423.19	57.735
423.54	58.445
423.90	58.203
424.25	58.124
424.61	57.976
424.96	58.542
425.31	57.973
425.67	57.247
426.02	57.486
426.38	59.158
426.73	57.578
427.09	58.359
427.44	57.677
427.79	58.022
428.15	57.857
428.50	58.455
428.85	57.330
429.21	57.206
429.56	57.335
429.92	56.618
430.27	58.292
430.62	57.399
430.98	57.758
431.33	56.804
431.68	58.377
432.04	56.390
432.39	57.910
432.74	59.066
433.10	58.008
433.45	56.327
433.80	58.370
434.16	58.280
434.51	57.000
434.86	58.723
435.22	58.255
435.57	58.176
435.92	58.397
436.28	57.829
436.63	57.781
436.98	58.443
437.34	58.974
437.69	59.218
438.04	58.966
438.39	57.851
438.75	59.152
439.10	58.939
439.45	58.737
439.81	58.127
440.16	57.651
440.51	59.754
440.86	58.367
441.22	58.231
441.57	58.333
441.92	59.724
442.27	58.288
442.63	57.399
442.98	57.634
443.33	57.337
443.68	56.789
444.03	57.394
444.39	57.644
444.74	57.900
445.09	58.329
445.44	58.393
445.79	57.942
446.15	57.067
446.50	58.104
446.85	58.736
447.20	57.828
447.55	59.743
447.91	57.253
448.26	58.709
448.61	58.621
448.96	59.413
449.31	58.943
449.66	58.976
450.02	57.326
450.37	57.483
450.72	58.658
451.07	57.709
451.42	57.872
451.77	60.012
452.12	58.487
452.47	59.204
452.83	59.033
453.18	58.557
453.53	60.049
453.88	57.944
454.23	57.681
454.58	59.721
454.93	59.949
455.28	58.603
455.63	59.163
455.98	60.298
456.34	58.982
456.69	60.426
457.04	59.628
457.39	58.913
457.74	57.342
458.09	58.712
458.44	60.091
458.79	57.701
459.14	59.255
459.49	58.786
459.84	57.341
460.19	57.631
460.54	57.060
460.89	59.188
461.24	59.381
461.59	60.081
461.94	58.631
462.29	58.754
462.64	58.009
462.99	57.450
463.34	58.933
463.69	58.662
464.04	58.029
464.39	57.797
464.74	59.418
465.09	58.504
465.44	59.058
465.79	57.550
466.14	56.212
466.49	57.341
466.84	57.793
467.19	58.479
467.54	60.063
467.89	57.383
468.24	57.184
468.59	58.730
468.94	58.705
469.29	58.997
469.64	58.701
469.99	59.269
470.34	58.256
470.68	59.986
471.03	58.095
471.38	59.833
471.73	59.227
472.08	59.342
472.43	58.480
472.78	59.118
473.13	58.858
473.48	58.739
473.83	59.146
474.17	59.116
474.52	58.995
474.87	60.187
475.22	57.806
475.57	56.314
475.92	59.161
476.27	58.230
476.61	58.522
476.96	58.329
477.31	58.189
477.66	58.425
478.01	57.554
478.36	57.166
478.70	58.152
479.05	58.147
479.40	58.342
479.75	58.719
480.10	59.245
480.45	57.068
480.79	57.812
481.14	58.415
481.49	58.187
481.84	57.064
482.19	59.246
482.53	58.119
482.88	57.980
483.23	58.318
483.58	58.326
483.92	58.154
484.27	56.296
484.62	58.147
484.97	56.721
485.31	56.164
485.66	54.031
486.01	53.482
486.36	53.481
486.70	54.502
487.05	55.480
487.40	55.286
487.75	55.367
488.09	56.203
488.44	55.971
488.79	56.854
489.13	57.181
489.48	56.403
489.83	57.661
490.17	58.308
490.52	57.662
490.87	57.666
491.22	57.208
491.56	57.494
491.91	58.213
492.26	56.729
492.60	57.834
492.95	58.279
493.30	57.570
493.64	58.469
493.99	58.124
494.34	57.401
494.68	58.883
495.03	57.425
495.37	57.143
495.72	58.138
496.07	59.304
496.41	56.637
496.76	58.399
497.11	57.317
497.45	57.848
497.80	57.726
498.14	57.633
498.49	58.098
498.84	57.095
499.18	57.905
499.53	57.075
499.87	57.176
500.22	58.361
500.56	58.932
500.91	57.644
501.26	56.899
501.60	58.567
501.95	57.562
502.29	57.826
502.64	57.682
502.98	57.784
503.33	56.170
503.67	56.937
504.02	56.548
504.36	56.294
504.71	57.841
505.06	57.108
505.40	57.560
505.75	57.040
506.09	57.337
506.44	57.770
506.78	57.379
507.13	59.162
507.47	57.576
507.82	58.460
508.16	59.372
508.51	57.839
508.85	57.349
509.19	58.163
509.54	57.398
509.88	57.805
510.23	58.869
510.57	58.617
510.92	58.674
511.26	57.246
511.61	58.402
511.95	56.315
512.30	57.688
512.64	58.356
512.98	58.735
513.33	58.672
513.67	58.485
514.02	57.522
514.36	59.366
514.70	57.222
515.05	59.621
515.39	58.160
515.74	58.164
516.08	59.083
516.42	59.212
516.77	58.250
517.11	58.213
517.46	58.860
517.80	58.653
518.14	59.294
518.49	60.793
518.83	58.352
519.17	57.852
519.52	58.857
519.86	59.099
520.20	59.769
520.55	58.947
520.89	60.706
521.23	60.253
521.58	59.904
521.92	59.400
522.26	57.840
522.61	60.436
522.95	59.607
523.29	58.673
523.64	59.634
523.98	59.335
524.32	59.047
524.66	58.328
525.01	58.885
525.35	58.550
525.69	58.005
526.04	60.312
526.38	59.243
526.72	58.098
527.06	59.196
527.41	57.921
527.75	58.842
528.09	60.244
528.43	60.166
528.78	58.144
529.12	57.152
529.46	59.094
529.80	59.530
530.15	59.190
530.49	56.985
530.83	59.684
531.17	59.465
531.51	59.663
531.86	59.097
532.20	59.713
532.54	58.680
532.88	59.435
533.22	56.964
533.57	57.469
533.91	58.278
534.25	58.080
534.59	57.596
534.93	57.823
535.27	57.936
535.62	57.814
535.96	58.883
536.30	57.088
536.64	58.596
536.98	59.257
537.32	57.011
537.66	57.600
538.01	58.986
538.35	56.884
538.69	57.562
539.03	56.465
539.37	57.636
539.71	56.124
540.05	58.431
540.39	58.472
540.73	55.498
541.07	58.728
541.42	58.187
541.76	57.677
542.10	57.891
542.44	59.139
542.78	58.300
543.12	55.982
543.46	57.639
543.80	57.645
544.14	56.996
544.48	58.413
544.82	56.895
545.16	56.929
545.50	56.105
545.84	57.594
546.18	57.172
546.52	56.848
546.86	57.869
547.20	58.530
547.54	56.647
547.88	57.526
548.22	54.919
548.56	56.981
548.90	56.530
549.24	57.172
549.58	58.595
549.92	57.830
550.26	58.878
550.60	56.432
550.94	56.831
551.28	55.962
551.62	57.009
551.96	55.649
552.30	56.928
552.64	56.457
552.98	57.424
553.32	55.428
553.66	56.510
554.00	56.898
554.34	56.660
554.68	58.011
555.02	56.911
555.36	55.950
555.69	54.736
556.03	55.518
556.37	56.753
556.71	55.935
557.05	56.653
557.39	54.794
557.73	56.034
558.07	57.796
558.41	56.585
558.75	56.796
559.08	56.749
559.42	56.538
559.76	55.294
560.10	56.031
560.44	54.368
560.78	54.158
561.12	55.211
561.45	55.671
561.79	55.504
562.13	56.070
562.47	55.260
562.81	54.742
563.15	54.649
563.48	55.040
563.82	54.534
564.16	53.172
564.50	54.427
564.84	53.413
565.17	55.084
565.51	55.974
565.85	54.061
566.19	53.413
566.52	55.035
566.86	53.466
567.20	53.656
567.54	53.653
567.88	52.852
568.21	53.280
568.55	51.769
568.89	52.772
569.23	51.515
569.56	50.040
569.90	50.189
570.24	49.874
570.57	49.065
570.91	48.869
571.25	48.518
571.59	47.865
571.92	48.704
572.26	48.700
572.60	49.279
572.93	47.886
573.27	48.092
573.61	47.850
573.95	47.519
574.28	47.161
574.62	46.720
574.96	47.384
575.29	46.678
575.63	46.545
575.97	47.410
576.30	47.132
576.64	47.384
576.98	46.184
577.31	46.696
577.65	46.949
577.98	46.643
578.32	45.473
578.66	46.583
578.99	46.839
579.33	46.817
579.67	46.217
580.00	46.608
580.34	46.132
580.67	45.994
581.01	45.761
581.35	45.797
581.68	44.969
582.02	45.251
582.35	45.280
582.69	45.935
583.02	45.993
583.36	46.691
583.70	47.103
584.03	47.100
584.37	46.509
584.70	46.264
585.04	45.499
585.37	45.550
585.71	46.382
586.04	45.639
586.38	46.839
586.72	46.589
587.05	45.232
587.39	45.858
587.72	46.251
588.06	45.945
588.39	46.145
588.73	46.289
589.06	46.681
589.40	47.172
589.73	47.166
590.07	46.690
590.40	46.474
590.73	47.112
591.07	47.945
591.40	48.840
591.74	47.965
592.07	47.164
592.41	46.548
592.74	46.030
593.08	46.036
593.41	45.808
593.75	45.128
594.08	45.759
594.41	46.129
594.75	46.359
595.08	46.242
595.42	45.709
595.75	46.403
596.09	46.789
596.42	46.640
596.75	46.813
597.09	46.277
597.42	46.374
597.75	46.399
598.09	46.913
598.42	46.220
598.76	46.291
599.09	44.926
599.42	45.124
599.76	45.498
600.09	45.355
600.42	44.923
600.76	44.786
601.09	44.809
601.42	45.472
601.76	45.541
602.09	45.415
602.42	45.462
602.76	46.030
603.09	45.555
603.42	46.232
603.76	45.427
604.09	44.436
604.42	45.128
604.76	46.183
605.09	46.134
605.42	45.361
605.75	45.323
606.09	44.856
606.42	44.871
606.75	44.919
607.09	45.626
607.42	45.058
607.75	44.135
608.08	45.115
608.42	44.913
608.75	44.815
609.08	45.375
609.41	45.264
609.75	45.069
610.08	45.570
610.41	44.879
610.74	45.364
611.07	46.097
611.41	45.339
611.74	45.802
612.07	46.739
612.40	45.960
612.73	45.526
613.07	46.606
613.40	46.130
613.73	45.831
614.06	45.645
614.39	45.202
614.72	45.158
615.06	45.063
615.39	45.701
615.72	45.092
616.05	44.444
616.38	46.804
616.71	45.784
617.05	46.702
617.38	46.302
617.71	45.886
618.04	46.514
618.37	46.600
618.70	46.235
619.03	47.105
619.36	46.911
619.69	47.535
620.03	47.115
620.36	46.457
620.69	48.356
621.02	47.345
621.35	47.455
621.68	47.196
622.01	47.601
622.34	47.655
622.67	47.681
623.00	47.909
623.33	45.818
623.66	46.676
623.99	45.582
624.32	45.792
624.65	47.246
624.99	45.680
625.32	46.778
625.65	46.732
625.98	48.194
626.31	47.123
626.64	47.102
626.97	47.631
627.30	49.210
627.63	46.432
627.96	46.930
628.29	48.206
628.62	47.027
628.95	48.774
629.28	48.175
629.61	48.854
629.94	48.571
630.26	50.143
630.59	48.618
630.92	48.563
631.25	48.371
631.58	47.047
631.91	47.972
632.24	47.890
632.57	49.423
632.90	49.671
633.23	51.007
633.56	48.814
633.89	49.377
634.22	50.170
634.55	51.361
634.88	50.659
635.20	51.613
635.53	50.000
635.86	49.876
636.19	48.000
636.52	48.328
636.85	49.599
637.18	47.926
637.51	49.527
637.83	46.979
638.16	50.895
638.49	48.992
638.82	51.075
639.15	48.500
639.48	48.628
639.81	51.206
640.13	50.130
640.46	50.336
640.79	50.727
641.12	48.143
641.45	50.978
641.77	51.841
642.10	53.363
642.43	50.901
642.76	50.774
643.09	52.914
643.41	50.835
643.74	54.475
644.07	51.067
644.40	50.920
644.73	51.181
645.05	51.189
645.38	50.711
645.71	51.047
646.04	52.658
646.36	51.586
646.69	52.341
647.02	52.041
647.35	52.749
647.67	52.920
648.00	48.455
648.33	49.340
648.66	49.242
648.98	49.475
649.31	47.235
649.64	48.580
649.96	49.031
650.29	51.659
650.62	48.220
650.94	50.891
651.27	51.689
651.60	49.418
651.92	48.882
652.25	50.163
652.58	50.156
652.90	51.185
653.23	48.382
653.56	48.661
653.88	52.773
654.21	50.711
654.54	49.835
654.86	47.196
655.19	46.351
655.52	36.581
655.84	33.965
656.17	42.201
656.49	55.868
656.82	56.366
657.15	43.021
657.47	32.273
657.80	24.302
658.13	25.059
658.45	37.595
658.78	37.799
659.10	38.821
659.43	38.768
659.75	40.063
660.08	40.316
660.41	44.600
660.73	46.379
661.06	49.522
661.38	51.091
661.71	50.385
662.03	51.677
662.36	49.702
662.68	50.803
663.01	50.707
663.33	51.380
663.66	51.050
663.98	51.404
664.31	49.790
664.63	47.571
664.96	48.491
665.28	50.000
665.61	49.708
665.93	51.509
666.26	47.465
666.58	50.418
666.91	52.008
667.23	51.236
667.56	51.620
667.88	48.932
668.21	47.335
668.53	48.590
668.86	48.918
669.18	48.827
669.50	50.652
669.83	52.941
670.15	49.333
670.48	50.980
670.80	49.353
671.13	51.380
671.45	49.574
671.77	49.695
672.10	48.799
672.42	49.293
672.75	47.927
673.07	46.127
673.39	47.740
673.72	50.000
674.04	50.392
674.37	50.680
674.69	48.262
675.01	44.979
675.34	48.665
675.66	50.526
675.98	48.880
676.31	47.479
676.63	48.832
676.95	46.122
677.28	52.103
677.60	48.352
677.92	50.211
678.25	47.228
678.57	48.805
678.89	47.094
679.22	44.008
679.54	48.664
679.86	46.606
680.18	46.154
680.51	46.454
680.83	46.619
681.15	44.151
681.48	46.125
681.80	46.422
682.12	45.785
682.44	43.520
682.77	46.843
683.09	48.283
683.41	49.224
683.73	48.565
684.06	45.041
684.38	44.423
684.70	44.767
685.02	46.154
685.34	44.872
685.67	44.755
685.99	41.409
686.31	43.174
686.63	42.580
686.96	44.286
687.28	43.141
687.60	43.116
687.92	45.521
688.24	44.297
688.56	45.181
688.89	46.473
689.21	49.782
689.53	44.050
689.85	46.563
690.17	42.857
690.49	46.497
690.82	45.794
691.14	44.866
691.46	44.515
691.78	42.570
692.10	45.248
692.42	45.309
692.74	45.643
693.06	44.681
693.39	44.969
693.71	47.598
694.03	45.263
694.35	43.074
694.67	44.165
694.99	46.829
695.31	47.549
695.63	46.890
695.95	44.743
696.27	43.909
696.59	47.668
696.91	47.409
697.23	45.070
697.56	46.269
697.88	38.855
698.20	41.458
698.52	42.151
698.84	45.657
699.16	42.857
699.48	45.606
699.80	48.309
700.12	48.831
700.44	46.154
700.76	49.448
701.08	43.966
701.40	48.045
701.72	47.230
702.04	50.852
702.36	43.059
702.68	48.442
703.00	43.213
703.32	44.149
703.64	44.504
703.96	45.404
704.28	47.384
704.60	48.680
704.91	46.291
705.23	45.748
705.55	49.502
705.87	52.159
706.19	51.590
706.51	47.664
706.83	48.788
707.15	44.538
707.47	44.949
707.79	44.472
708.11	42.009
708.43	43.333
708.74	41.582
709.06	46.234
709.38	46.457
709.70	46.802
710.02	47.478
710.34	43.636
710.66	48.657
710.98	45.455
711.29	45.349
711.61	49.558
711.93	50.000
712.25	48.232
712.57	50.735
712.89	49.135
713.20	45.289
713.52	46.382
713.84	46.835
714.16	42.378
714.48	45.977
714.80	47.112
715.11	44.092
715.43	48.071
715.75	46.667
716.07	43.770
716.39	47.649
716.70	48.837
717.02	48.921
717.34	47.703
717.66	48.507
717.97	53.386
718.29	46.296
718.61	44.161
718.93	49.632
719.24	49.827
719.56	44.407
719.88	45.085
720.20	49.324
720.51	49.129
720.83	46.468
721.15	46.269
721.46	46.809
721.78	44.444
722.10	47.170
722.42	53.383
722.73	44.195
723.05	52.459
723.37	51.417
723.68	45.946
724.00	46.748
724.32	45.968
724.63	47.561
724.95	48.117
725.27	49.393
725.58	50.391
725.90	49.635
726.22	41.509
726.53	42.361
726.85	45.734
727.16	45.196
727.48	41.135
727.80	46.212
728.11	45.290
728.43	43.077
728.74	45.161
729.06	50.365
729.38	50.000
729.69	47.331
730.01	44.369
730.32	42.014
730.64	42.140
730.96	40.264
731.27	44.702
731.59	41.284
731.90	41.691
732.22	43.168
732.53	39.319
732.85	43.269
733.16	42.122
733.48	44.186
733.80	43.506
734.11	44.586
734.43	42.308
734.74	39.429
735.06	42.120
735.37	43.064
735.69	42.038
736.00	45.752
736.32	44.860
736.63	41.214
736.95	41.214
737.26	40.816
737.58	42.258
737.89	40.134
738.21	42.321
738.52	41.786
738.83	42.264
739.15	43.462
739.46	46.715
739.78	43.750
740.09	41.538
740.41	42.903
740.72	41.812
741.04	44.444
741.35	46.250
741.66	52.444
741.98	44.340
742.29	47.368
742.61	49.569
742.92	44.344
743.23	49.573
743.55	44.000
743.86	44.737
744.18	52.655
744.49	45.933
744.80	49.296
745.12	49.545
745.43	45.815
745.74	50.000
746.06	41.743
746.37	47.085
746.68	50.679
747.00	46.296
747.31	48.571
747.62	45.133
747.94	45.374
748.25	48.511
748.56	51.982
748.88	48.515
749.19	56.000
749.50	48.372
749.82	45.122
750.13	47.347
750.44	45.620
750.75	46.667
751.07	43.730
751.38	43.554
751.69	41.155
752.01	43.609
752.32	40.794
752.63	44.326
752.94	41.393
753.26	48.000
753.57	47.154
753.88	43.750
754.19	41.786
754.51	43.750
754.82	36.462
755.13	43.774
755.44	43.609
755.75	40.876
756.07	40.780
756.38	42.336
756.69	41.611
757.00	39.521
757.31	40.059
757.63	37.135
757.94	37.265
758.25	38.725
758.56	38.025
758.87	38.441
759.18	39.394
759.50	39.498
759.81	40.498
760.12	37.500
760.43	41.261
760.74	39.402
761.05	39.548
761.36	35.561
761.67	43.466
761.99	40.683
762.30	41.319
762.61	43.511
762.92	43.359
763.23	44.538
763.54	48.000
763.85	36.328
764.16	46.538
764.47	41.445
764.78	39.576
765.10	35.443
765.41	38.348
765.72	39.521
766.03	38.245
766.34	36.667
766.65	44.255
766.96	45.726
767.27	51.777
767.58	45.833
767.89	55.263
768.20	51.149
768.51	49.746
768.82	43.119
769.13	39.431
769.44	40.891
769.75	38.197
770.06	38.073
770.37	42.986
770.68	46.296
770.99	41.778
771.30	41.803
771.61	45.291
771.92	43.852
772.23	48.319
772.54	48.205
772.85	45.026
773.16	45.213
773.47	43.478
773.78	50.761
774.09	43.452
774.39	44.444
774.70	44.444
775.01	48.551
775.32	54.248
775.63	51.974
775.94	45.324
776.25	59.843
776.56	56.716
776.87	52.459
777.18	54.688
777.48	59.542
777.79	61.364
778.10	51.852
778.41	43.750
778.72	50.365
779.03	48.993
779.34	41.611
779.65	51.351
779.95	50.307
780.26	54.902
780.57	54.483
780.88	58.594
781.19	46.617
781.50	51.351
781.80	49.686
782.11	46.893
782.42	47.468
782.73	44.785
783.04	53.378
783.34	54.225
783.65	56.164
783.96	55.224
784.27	46.853
784.57	45.324
784.88	54.630
785.19	57.143
785.50	56.604
785.81	56.716
786.11	50.820
786.42	53.488
786.73	54.867
787.04	62.264
787.34	54.464
787.65	67.000
787.96	52.252
788.26	53.719
788.57	71.186
788.88	60.331
789.19	53.472
789.49	59.091
789.80	56.489
790.11	68.571
790.41	59.406
790.72	63.855
791.03	63.043
791.33	58.140
791.64	61.856
791.95	63.366
792.25	72.222
792.56	66.234
792.87	69.231
793.17	75.949
793.48	66.667
793.79	70.115
794.09	63.636
794.40	62.185
794.70	58.824
795.01	48.148
795.32	51.079
795.62	46.457
795.93	56.034
796.23	52.212
796.54	61.176
796.85	66.216
797.15	78.873
797.46	53.030
797.76	75.904
798.07	65.823
798.37	70.769
798.68	78.788
798.99	59.155
799.29	71.429
799.60	61.364
799.90	76.712
800.21	80.597
800.51	87.931
800.82	92.982
801.12	80.328
801.43	89.394
801.73	75.676
802.04	76.190
802.34	71.605
802.65	75.000
802.95	91.525
803.26	84.375
803.56	71.429
803.87	64.615
804.17	77.941
804.48	92.593
804.78	77.586
805.09	79.412
805.39	101.923
805.70	83.929
806.00	75.410
806.30	63.636
806.61	81.707
806.91	65.823
807.22	63.158
807.52	58.209
807.83	77.465
808.13	78.125
808.43	80.000
808.74	63.158
809.04	69.565
809.35	82.090
809.65	60.526
809.95	87.097
810.26	67.797
810.56	71.429
810.86	106.818
811.17	152.381
811.47	85.000
811.77	70.370
812.08	78.182
812.38	98.000
812.69	122.222
812.99	111.364
813.29	97.959
813.59	85.714
813.90	93.878
814.20	72.727
814.50	61.538
814.81	85.294
815.11	104.082
815.41	88.525
815.72	107.143
816.02	90.909
816.32	88.095
816.62	97.500
816.93	80.488
817.23	102.381
817.53	90.909
817.84	109.091
818.14	108.696
818.44	97.778
818.74	120.588
819.04	85.000
819.35	134.286
819.65	150.000
819.95	125.000
820.25	150.000
820.56	87.179
820.86	104.545
821.16	120.930
821.46	125.641
821.76	104.000
822.07	128.571
822.37	115.000
822.67	109.091
822.97	107.843
823.27	114.286
823.57	116.216
823.88	122.500
824.18	130.000
824.48	116.667
824.78	144.000
825.08	133.333
825.38	105.405
825.69	102.439
825.99	154.167
826.29	141.379
826.59	107.895
826.89	126.316
827.19	155.882
827.49	135.484
827.79	106.818
828.09	102.273
828.39	93.617
828.70	93.878
829.00	129.630
829.30	100.000
829.60	112.500
829.90	240.000
830.20	142.857
830.50	134.783
830.80	200.000
831.10	150.000
831.40	140.000
831.70	152.174
832.00	180.769
832.30	122.222
832.60	237.500
832.90	126.667
833.20	235.714
833.50	138.710
833.80	120.690
834.10	146.875
834.40	176.923
834.70	216.667
835.00	223.810
835.30	122.857
835.60	176.923
835.90	158.621
836.20	285.714
836.50	120.690
836.80	128.000
837.10	136.111
837.40	161.905
837.70	188.235
838.00	151.852
838.30	185.714
838.60	228.571
838.90	134.615
839.19	175.000
839.49	292.857
839.79	235.000
840.09	170.000
840.39	190.476
840.69	156.522
840.99	277.778
841.29	300.000
841.59	166.667
841.88	250.000
842.18	162.069
842.48	214.286
842.78	143.333
843.08	156.522
843.38	125.000
843.68	450.000
843.97	176.923
844.27	175.862
844.57	233.333
844.87	268.750
845.17	148.148
845.47	1066.667
845.76	244.444
846.06	235.294
846.36	400.000
846.66	200.000
846.96	200.000
847.25	354.545
847.55	200.000
847.85	226.087
848.15	290.000
848.44	200.000
848.74	111.111
849.04	182.353
849.34	360.000
849.63	126.316
849.93	236.364
850.23	760.000
850.53	385.714
850.82	1300.000
851.12	-3000.000
851.42	2700.000
851.71	195.000
852.01	-733.333
852.31	187.500
852.61	1300.000
852.90	195.238
853.20	128.000
853.50	205.882
853.79	161.905
854.09	125.000
854.39	231.250
854.68	100.000
854.98	138.710
855.28	160.000
855.57	155.172
855.87	155.556
856.17	147.368
856.46	173.333
856.76	170.588
857.05	127.586
857.35	162.500
857.65	213.333
857.94	152.174
858.24	138.462
858.53	225.000
858.83	154.545
859.13	253.333
859.42	0.000
859.72	355.556
860.01	236.364
860.31	154.545
860.60	168.421
860.90	169.565
861.20	377.778
861.49	391.667
861.79	-2600.000
862.08	362.500
862.38	180.952
862.67	261.538
862.97	223.529
863.26	388.889
863.56	138.889
863.85	266.667
864.15	312.500
864.44	253.333
864.74	483.333
865.03	462.500
865.33	173.684
865.62	254.545
865.92	246.154
866.21	183.333
866.51	0.000
866.80	227.273
867.10	720.000
867.39	276.923
867.69	300.000
867.98	178.947
868.27	281.818
868.57	178.947
868.86	-1600.000
869.16	250.000
869.45	850.000
869.75	-1400.000
870.04	283.333
870.33	457.143
870.63	575.000
870.92	1800.000
871.22	585.714
871.51	223.529
871.80	138.095
872.10	214.286
>>>>>End Processed Spectral Data<<<<<
