SpectraSuite Data File
++++++++++++++++++++++++++++++++++++
Date: Wed May 13 21:01:53 PDT 2015
User: schluterlab
Dark Spectrum Present: Yes
Reference Spectrum Present: Yes
Number of Sampled Component Spectra: 1
Spectrometers: USB2E3373
Integration Time (usec): 3000 (USB2E3373)
Spectra Averaged: 3 (USB2E3373)
Boxcar Smoothing: 0 (USB2E3373)
Correct for Electrical Dark: No (USB2E3373)
Strobe/Lamp Enabled: No (USB2E3373)
Correct for Detector Non-linearity: No (USB2E3373)
Correct for Stray Light: No (USB2E3373)
Number of Pixels in Processed Spectrum: 2048
>>>>>Begin Processed Spectral Data<<<<<
178.53	0.000
178.91	-0.000
179.29	150.000
179.67	-500.000
180.04	33.333
180.42	100.000
180.80	1100.000
181.18	200.000
181.56	-325.000
181.94	200.000
182.31	45.455
182.69	84.615
183.07	-120.000
183.45	150.000
183.83	66.667
184.20	85.714
184.58	-233.333
184.96	-0.000
185.34	57.143
185.72	0.000
186.09	200.000
186.47	-120.000
186.85	-120.000
187.23	500.000
187.61	400.000
187.98	300.000
188.36	37.500
188.74	0.000
189.12	18.182
189.49	90.000
189.87	16.667
190.25	100.000
190.63	-300.000
191.00	60.000
191.38	100.000
191.76	325.000
192.14	108.333
192.51	10.526
192.89	400.000
193.27	-0.000
193.65	-160.000
194.02	136.364
194.40	110.000
194.78	400.000
195.15	-40.000
195.53	0.000
195.91	150.000
196.29	66.667
196.66	0.000
197.04	-150.000
197.42	60.000
197.79	10.000
198.17	-12.500
198.55	-233.333
198.92	200.000
199.30	-200.000
199.68	80.000
200.05	-50.000
200.43	33.333
200.81	-600.000
201.18	20.000
201.56	-133.333
201.94	450.000
202.31	26.087
202.69	-28.571
203.07	-233.333
203.44	-80.000
203.82	-233.333
204.19	-30.000
204.57	0.000
204.95	50.000
205.32	0.000
205.70	-200.000
206.08	25.000
206.45	83.333
206.83	175.000
207.20	-166.667
207.58	0.000
207.96	100.000
208.33	-157.143
208.71	-1200.000
209.08	37.500
209.46	225.000
209.84	0.000
210.21	90.000
210.59	900.000
210.96	220.000
211.34	-0.000
211.71	-200.000
212.09	-50.000
212.46	-40.000
212.84	66.667
213.22	300.000
213.59	-700.000
213.97	-350.000
214.34	-300.000
214.72	30.769
215.09	175.000
215.47	122.222
215.84	350.000
216.22	-37.500
216.59	-100.000
216.97	400.000
217.34	100.000
217.72	0.000
218.09	33.333
218.47	300.000
218.84	-157.143
219.22	50.000
219.59	-66.667
219.97	50.000
220.34	50.000
220.72	100.000
221.09	0.000
221.47	16.667
221.84	900.000
222.22	0.000
222.59	400.000
222.97	133.333
223.34	-25.000
223.72	-200.000
224.09	-250.000
224.46	-36.364
224.84	12.500
225.21	128.571
225.59	75.000
225.96	-33.333
226.34	40.000
226.71	14.286
227.08	50.000
227.46	-50.000
227.83	400.000
228.21	25.000
228.58	-75.000
228.95	-5.882
229.33	68.750
229.70	12.500
230.08	7.692
230.45	-37.500
230.82	-33.333
231.20	14.286
231.57	-75.000
231.95	300.000
232.32	66.667
232.69	-11.765
233.07	-400.000
233.44	0.000
233.81	-150.000
234.19	54.167
234.56	-60.000
234.93	40.000
235.31	21.053
235.68	-53.846
236.05	23.077
236.43	38.889
236.80	6.061
237.17	0.000
237.55	35.294
237.92	20.690
238.29	22.222
238.67	36.111
239.04	35.484
239.41	12.766
239.79	63.830
240.16	13.953
240.53	17.857
240.91	39.286
241.28	33.929
241.65	33.871
242.02	30.263
242.40	44.928
242.77	26.087
243.14	32.051
243.51	31.915
243.89	31.731
244.26	47.170
244.63	19.231
245.00	27.083
245.38	34.454
245.75	37.705
246.12	26.316
246.49	36.585
246.87	28.571
247.24	35.811
247.61	31.788
247.98	32.051
248.36	33.728
248.73	33.146
249.10	22.222
249.47	33.871
249.84	33.684
250.22	33.333
250.59	31.776
250.96	40.000
251.33	26.794
251.70	34.728
252.08	35.983
252.45	37.449
252.82	32.700
253.19	34.241
253.56	32.014
253.94	37.722
254.31	32.746
254.68	37.584
255.05	33.003
255.42	32.867
255.79	29.755
256.16	33.123
256.54	31.429
256.91	34.494
257.28	38.050
257.65	31.847
258.02	33.724
258.39	33.041
258.76	30.233
259.14	32.955
259.51	29.775
259.88	30.894
260.25	31.389
260.62	33.989
260.99	31.830
261.36	32.383
261.73	29.383
262.10	28.499
262.47	31.852
262.85	29.851
263.22	31.282
263.59	30.130
263.96	29.927
264.33	30.529
264.70	31.395
265.07	31.019
265.44	33.793
265.81	31.579
266.18	32.574
266.55	31.004
266.92	32.203
267.29	31.687
267.66	33.546
268.03	32.099
268.40	29.661
268.77	32.231
269.14	31.020
269.51	32.033
269.88	31.976
270.25	33.051
270.62	29.918
270.99	31.496
271.36	30.952
271.73	30.723
272.10	29.714
272.47	27.639
272.84	31.496
273.21	30.333
273.58	30.738
273.95	29.057
274.32	30.037
274.69	31.512
275.06	31.272
275.43	32.392
275.80	30.142
276.17	29.098
276.54	30.728
276.91	29.443
277.28	27.076
277.65	30.245
278.02	29.821
278.39	28.064
278.76	28.595
279.13	28.302
279.50	30.345
279.87	29.348
280.23	30.991
280.60	28.720
280.97	28.734
281.34	30.126
281.71	29.268
282.08	29.573
282.45	29.180
282.82	30.990
283.19	29.878
283.56	29.375
283.92	29.052
284.29	29.329
284.66	27.018
285.03	28.502
285.40	27.644
285.77	28.529
286.14	29.331
286.51	28.936
286.87	28.154
287.24	27.729
287.61	26.807
287.98	27.647
288.35	26.379
288.72	28.838
289.08	26.781
289.45	26.138
289.82	27.685
290.19	28.050
290.56	25.710
290.93	24.309
291.29	25.581
291.66	26.776
292.03	26.975
292.40	24.226
292.77	25.167
293.13	25.105
293.50	25.229
293.87	26.933
294.24	23.413
294.60	24.837
294.97	26.190
295.34	22.955
295.71	21.945
296.08	23.037
296.44	23.724
296.81	22.290
297.18	23.250
297.55	22.524
297.91	24.099
298.28	23.123
298.65	22.044
299.02	24.298
299.38	21.472
299.75	21.875
300.12	23.023
300.48	23.275
300.85	20.554
301.22	22.300
301.59	22.770
301.95	20.441
302.32	21.820
302.69	20.000
303.05	21.484
303.42	21.364
303.79	22.923
304.15	21.577
304.52	23.118
304.89	22.148
305.25	20.746
305.62	21.475
305.99	22.089
306.35	22.571
306.72	22.482
307.09	22.106
307.45	21.193
307.82	21.684
308.19	19.645
308.55	19.550
308.92	23.084
309.29	21.021
309.65	21.678
310.02	22.068
310.38	21.646
310.75	21.302
311.12	22.741
311.48	21.563
311.85	21.555
312.22	23.017
312.58	20.773
312.95	22.189
313.31	21.212
313.68	20.802
314.05	21.361
314.41	23.055
314.78	22.296
315.14	21.111
315.51	21.979
315.87	22.057
316.24	22.498
316.61	20.639
316.97	21.759
317.34	20.499
317.70	22.569
318.07	22.094
318.43	21.771
318.80	21.291
319.16	19.894
319.53	21.595
319.89	21.319
320.26	22.643
320.62	22.428
320.99	20.349
321.35	21.983
321.72	20.885
322.08	23.155
322.45	21.554
322.81	21.349
323.18	21.377
323.54	21.841
323.91	22.132
324.27	20.702
324.64	20.296
325.00	21.872
325.37	21.758
325.73	21.886
326.10	22.708
326.46	21.906
326.83	20.955
327.19	22.846
327.56	22.401
327.92	21.158
328.29	22.037
328.65	23.488
329.01	20.668
329.38	22.870
329.74	20.773
330.11	22.633
330.47	20.660
330.84	22.563
331.20	22.459
331.56	21.286
331.93	22.136
332.29	22.242
332.66	21.949
333.02	22.763
333.38	21.930
333.75	20.904
334.11	22.396
334.48	22.319
334.84	21.113
335.20	21.698
335.57	20.888
335.93	21.220
336.29	20.753
336.66	21.709
337.02	21.478
337.38	20.453
337.75	21.275
338.11	21.520
338.47	21.062
338.84	21.993
339.20	22.310
339.56	21.758
339.93	20.916
340.29	21.008
340.65	21.728
341.02	21.131
341.38	21.199
341.74	20.924
342.11	20.396
342.47	20.084
342.83	21.242
343.20	20.389
343.56	21.177
343.92	20.552
344.28	20.130
344.65	21.224
345.01	20.823
345.37	20.230
345.73	21.895
346.10	21.509
346.46	20.081
346.82	21.027
347.19	20.728
347.55	21.486
347.91	20.109
348.27	20.899
348.63	20.593
349.00	19.104
349.36	21.272
349.72	20.572
350.08	20.515
350.45	20.047
350.81	20.266
351.17	20.400
351.53	20.738
351.89	18.904
352.26	18.842
352.62	20.310
352.98	19.649
353.34	21.014
353.70	19.938
354.07	20.078
354.43	19.362
354.79	20.513
355.15	20.264
355.51	20.501
355.87	19.312
356.24	19.904
356.60	19.937
356.96	19.724
357.32	20.279
357.68	20.168
358.04	19.860
358.40	19.767
358.77	20.413
359.13	20.000
359.49	19.531
359.85	19.560
360.21	20.432
360.57	19.316
360.93	20.410
361.29	19.837
361.66	19.590
362.02	19.199
362.38	19.202
362.74	18.492
363.10	19.595
363.46	19.380
363.82	19.438
364.18	18.927
364.54	19.183
364.90	18.885
365.26	19.038
365.62	18.679
365.98	18.648
366.35	20.213
366.71	18.260
367.07	19.064
367.43	19.164
367.79	19.388
368.15	18.847
368.51	18.565
368.87	19.958
369.23	18.505
369.59	19.591
369.95	18.650
370.31	18.689
370.67	17.668
371.03	19.451
371.39	19.872
371.75	18.214
372.11	18.590
372.47	18.745
372.83	18.308
373.19	17.554
373.55	19.436
373.91	19.024
374.27	18.396
374.63	18.706
374.99	18.663
375.35	18.630
375.71	18.682
376.07	19.260
376.42	18.984
376.78	19.155
377.14	19.525
377.50	19.361
377.86	19.190
378.22	18.774
378.58	18.348
378.94	19.188
379.30	18.738
379.66	18.989
380.02	18.076
380.38	18.313
380.74	18.530
381.09	18.396
381.45	18.380
381.81	18.299
382.17	18.463
382.53	18.646
382.89	18.637
383.25	18.395
383.61	18.765
383.97	18.062
384.32	17.643
384.68	19.062
385.04	18.204
385.40	18.618
385.76	19.039
386.12	18.851
386.48	17.492
386.83	18.648
387.19	18.445
387.55	18.884
387.91	19.250
388.27	18.496
388.62	19.101
388.98	18.273
389.34	18.421
389.70	18.071
390.06	18.063
390.42	18.041
390.77	17.873
391.13	18.561
391.49	18.406
391.85	18.722
392.20	17.669
392.56	18.159
392.92	18.373
393.28	17.838
393.64	17.554
393.99	17.442
394.35	17.778
394.71	17.244
395.07	17.547
395.42	17.611
395.78	16.988
396.14	18.199
396.50	18.199
396.85	18.228
397.21	17.665
397.57	16.957
397.92	17.725
398.28	17.879
398.64	18.458
399.00	17.690
399.35	17.764
399.71	17.938
400.07	18.193
400.42	16.991
400.78	17.946
401.14	16.983
401.49	17.675
401.85	17.076
402.21	17.523
402.57	18.148
402.92	18.899
403.28	17.636
403.63	17.979
403.99	17.658
404.35	17.768
404.70	17.402
405.06	18.086
405.42	17.525
405.77	17.800
406.13	16.857
406.49	18.095
406.84	18.071
407.20	17.821
407.55	17.597
407.91	17.075
408.27	17.592
408.62	17.986
408.98	17.386
409.34	17.141
409.69	18.908
410.05	17.289
410.40	16.859
410.76	16.486
411.11	18.035
411.47	18.049
411.83	17.405
412.18	17.128
412.54	17.982
412.89	17.179
413.25	17.168
413.60	17.179
413.96	16.479
414.31	17.016
414.67	16.571
415.03	16.373
415.38	16.843
415.74	17.414
416.09	17.052
416.45	17.703
416.80	17.181
417.16	18.623
417.51	17.482
417.87	17.328
418.22	17.776
418.58	16.820
418.93	17.326
419.29	18.152
419.64	17.557
420.00	17.778
420.35	17.095
420.71	17.246
421.06	17.589
421.42	18.309
421.77	17.746
422.12	17.593
422.48	16.957
422.83	17.956
423.19	16.274
423.54	17.491
423.90	17.043
424.25	17.909
424.61	16.697
424.96	17.150
425.31	16.994
425.67	18.401
426.02	17.432
426.38	17.848
426.73	17.227
427.09	17.073
427.44	17.557
427.79	17.280
428.15	17.248
428.50	17.523
428.85	16.359
429.21	16.882
429.56	17.216
429.92	17.699
430.27	18.303
430.62	17.314
430.98	17.715
431.33	16.067
431.68	17.838
432.04	17.746
432.39	16.628
432.74	16.432
433.10	17.083
433.45	16.509
433.80	17.299
434.16	16.821
434.51	17.391
434.86	16.961
435.22	16.921
435.57	17.260
435.92	17.551
436.28	16.697
436.63	17.552
436.98	16.921
437.34	17.460
437.69	16.824
438.04	16.978
438.39	16.874
438.75	17.223
439.10	17.004
439.45	16.949
439.81	18.103
440.16	17.623
440.51	16.468
440.86	17.487
441.22	17.212
441.57	17.625
441.92	16.952
442.27	16.775
442.63	17.761
442.98	16.319
443.33	17.833
443.68	16.974
444.03	16.791
444.39	17.501
444.74	17.449
445.09	16.685
445.44	18.085
445.79	17.346
446.15	16.916
446.50	17.841
446.85	17.317
447.20	17.355
447.55	17.963
447.91	17.584
448.26	17.667
448.61	17.376
448.96	17.426
449.31	17.362
449.66	18.508
450.02	17.453
450.37	17.803
450.72	16.418
451.07	17.241
451.42	16.532
451.77	17.712
452.12	17.291
452.47	17.689
452.83	17.217
453.18	17.568
453.53	17.150
453.88	17.651
454.23	17.305
454.58	17.034
454.93	17.704
455.28	17.084
455.63	16.157
455.98	17.407
456.34	16.974
456.69	17.444
457.04	17.833
457.39	17.198
457.74	17.115
458.09	17.358
458.44	17.333
458.79	17.408
459.14	16.854
459.49	17.500
459.84	17.080
460.19	16.507
460.54	17.579
460.89	17.624
461.24	16.893
461.59	17.150
461.94	16.561
462.29	16.422
462.64	17.150
462.99	17.505
463.34	18.439
463.69	17.848
464.04	16.687
464.39	17.084
464.74	17.690
465.09	17.173
465.44	17.901
465.79	17.884
466.14	16.876
466.49	16.833
466.84	17.693
467.19	17.389
467.54	17.498
467.89	16.970
468.24	17.640
468.59	16.507
468.94	16.667
469.29	18.440
469.64	17.294
469.99	17.448
470.34	17.060
470.68	17.323
471.03	15.726
471.38	16.898
471.73	17.215
472.08	18.144
472.43	17.744
472.78	16.971
473.13	17.084
473.48	17.025
473.83	17.200
474.17	16.732
474.52	16.699
474.87	16.285
475.22	16.546
475.57	17.289
475.92	17.394
476.27	16.667
476.61	16.591
476.96	16.790
477.31	16.882
477.66	16.441
478.01	17.033
478.36	17.112
478.70	17.401
479.05	17.425
479.40	16.589
479.75	16.684
480.10	17.593
480.45	17.067
480.79	17.621
481.14	17.477
481.49	17.218
481.84	16.400
482.19	17.369
482.53	17.381
482.88	16.251
483.23	16.121
483.58	17.155
483.92	16.002
484.27	17.063
484.62	17.310
484.97	17.005
485.31	17.232
485.66	18.321
486.01	18.289
486.36	18.049
486.70	17.432
487.05	18.098
487.40	17.394
487.75	17.169
488.09	16.672
488.44	16.894
488.79	16.957
489.13	16.461
489.48	16.888
489.83	16.436
490.17	16.568
490.52	17.345
490.87	15.577
491.22	16.345
491.56	17.441
491.91	16.707
492.26	16.441
492.60	16.498
492.95	16.618
493.30	16.085
493.64	16.163
493.99	16.908
494.34	16.281
494.68	16.134
495.03	16.897
495.37	16.691
495.72	15.990
496.07	16.805
496.41	16.285
496.76	16.636
497.11	16.901
497.45	16.245
497.80	17.113
498.14	16.474
498.49	16.188
498.84	16.447
499.18	15.630
499.53	16.100
499.87	16.545
500.22	17.422
500.56	16.750
500.91	16.147
501.26	17.044
501.60	16.127
501.95	16.339
502.29	16.553
502.64	16.731
502.98	16.233
503.33	16.302
503.67	16.358
504.02	16.127
504.36	16.444
504.71	15.904
505.06	17.320
505.40	16.134
505.75	17.548
506.09	16.658
506.44	16.532
506.78	16.557
507.13	16.840
507.47	15.589
507.82	16.222
508.16	16.887
508.51	15.806
508.85	15.967
509.19	16.667
509.54	15.871
509.88	16.290
510.23	16.158
510.57	16.578
510.92	15.625
511.26	15.787
511.61	15.532
511.95	14.994
512.30	16.602
512.64	16.856
512.98	15.180
513.33	16.000
513.67	15.559
514.02	16.078
514.36	15.674
514.70	15.589
515.05	15.565
515.39	16.686
515.74	16.400
516.08	16.224
516.42	15.841
516.77	15.641
517.11	16.637
517.46	15.906
517.80	16.707
518.14	15.064
518.49	15.913
518.83	15.752
519.17	15.783
519.52	14.837
519.86	15.726
520.20	15.039
520.55	14.925
520.89	15.497
521.23	16.218
521.58	16.435
521.92	16.091
522.26	15.615
522.61	15.579
522.95	15.479
523.29	15.556
523.64	16.084
523.98	15.502
524.32	15.627
524.66	16.364
525.01	15.596
525.35	15.076
525.69	15.441
526.04	14.853
526.38	15.360
526.72	15.976
527.06	15.152
527.41	15.222
527.75	14.686
528.09	15.657
528.43	15.739
528.78	15.375
529.12	16.624
529.46	15.803
529.80	15.728
530.15	15.122
530.49	15.431
530.83	15.504
531.17	15.137
531.51	15.711
531.86	15.854
532.20	15.851
532.54	14.690
532.88	15.997
533.22	15.556
533.57	15.298
533.91	16.774
534.25	16.667
534.59	16.216
534.93	16.135
535.27	15.796
535.62	15.526
535.96	16.005
536.30	16.024
536.64	16.268
536.98	16.118
537.32	15.516
537.66	15.726
538.01	15.465
538.35	14.779
538.69	15.518
539.03	15.034
539.37	14.956
539.71	15.894
540.05	15.182
540.39	14.935
540.73	15.154
541.07	14.898
541.42	16.229
541.76	15.968
542.10	14.353
542.44	15.177
542.78	16.239
543.12	15.903
543.46	15.411
543.80	15.479
544.14	16.449
544.48	14.731
544.82	15.535
545.16	15.145
545.50	16.543
545.84	15.708
546.18	14.797
546.52	16.161
546.86	13.640
547.20	14.939
547.54	15.082
547.88	15.924
548.22	15.831
548.56	15.677
548.90	15.629
549.24	15.625
549.58	15.587
549.92	14.674
550.26	16.531
550.60	15.841
550.94	16.045
551.28	14.610
551.62	15.940
551.96	15.373
552.30	14.847
552.64	15.819
552.98	16.761
553.32	14.275
553.66	15.921
554.00	15.839
554.34	15.092
554.68	16.182
555.02	15.494
555.36	15.356
555.69	15.149
556.03	15.511
556.37	15.861
556.71	16.328
557.05	15.424
557.39	15.825
557.73	15.280
558.07	14.996
558.41	15.594
558.75	15.012
559.08	15.397
559.42	16.208
559.76	14.144
560.10	16.449
560.44	15.991
560.78	14.676
561.12	16.188
561.45	15.850
561.79	16.162
562.13	15.190
562.47	16.429
562.81	16.378
563.15	16.431
563.48	15.072
563.82	15.321
564.16	16.655
564.50	16.554
564.84	15.878
565.17	15.828
565.51	16.176
565.85	14.790
566.19	15.497
566.52	16.252
566.86	15.550
567.20	15.761
567.54	16.062
567.88	15.733
568.21	16.513
568.55	16.484
568.89	15.803
569.23	16.819
569.56	16.896
569.90	16.986
570.24	16.606
570.57	16.854
570.91	16.911
571.25	16.561
571.59	16.717
571.92	16.662
572.26	17.107
572.60	17.154
572.93	17.463
573.27	16.702
573.61	17.190
573.95	17.002
574.28	17.324
574.62	16.712
574.96	17.840
575.29	17.352
575.63	17.255
575.97	17.310
576.30	17.153
576.64	17.108
576.98	16.978
577.31	17.764
577.65	17.672
577.98	17.712
578.32	17.491
578.66	17.633
578.99	17.347
579.33	17.516
579.67	17.184
580.00	17.043
580.34	17.208
580.67	17.271
581.01	17.491
581.35	17.595
581.68	17.698
582.02	17.730
582.35	17.824
582.69	18.164
583.02	17.317
583.36	17.385
583.70	17.347
584.03	17.579
584.37	16.339
584.70	17.443
585.04	17.649
585.37	17.327
585.71	17.463
586.04	17.494
586.38	17.048
586.72	17.027
587.05	17.766
587.39	17.404
587.72	17.207
588.06	16.963
588.39	17.464
588.73	17.569
589.06	17.168
589.40	17.544
589.73	16.457
590.07	16.770
590.40	16.660
590.73	17.099
591.07	17.092
591.40	16.348
591.74	17.119
592.07	17.389
592.41	17.074
592.74	17.438
593.08	17.197
593.41	17.502
593.75	17.410
594.08	17.582
594.41	17.404
594.75	17.279
595.08	17.289
595.42	17.215
595.75	17.426
596.09	16.667
596.42	16.871
596.75	16.235
597.09	17.106
597.42	17.362
597.75	17.067
598.09	16.530
598.42	17.405
598.76	17.212
599.09	17.847
599.42	17.598
599.76	17.912
600.09	17.357
600.42	17.288
600.76	17.369
601.09	17.100
601.42	17.719
601.76	17.181
602.09	17.390
602.42	17.788
602.76	17.072
603.09	17.741
603.42	17.073
603.76	16.991
604.09	16.838
604.42	16.367
604.76	17.329
605.09	17.852
605.42	17.319
605.75	17.259
606.09	16.349
606.42	17.165
606.75	16.753
607.09	17.243
607.42	17.513
607.75	16.236
608.08	17.448
608.42	16.589
608.75	17.057
609.08	16.610
609.41	17.337
609.75	16.843
610.08	16.667
610.41	17.055
610.74	17.036
611.07	17.184
611.41	16.735
611.74	17.236
612.07	16.675
612.40	17.838
612.73	17.124
613.07	17.738
613.40	17.291
613.73	16.522
614.06	17.302
614.39	17.009
614.72	18.268
615.06	16.500
615.39	17.494
615.72	15.389
616.05	16.441
616.38	16.953
616.71	15.897
617.05	16.892
617.38	16.143
617.71	15.748
618.04	16.819
618.37	16.972
618.70	16.429
619.03	16.151
619.36	15.658
619.69	16.155
620.03	15.901
620.36	16.980
620.69	15.846
621.02	15.308
621.35	15.699
621.68	15.811
622.01	16.424
622.34	15.940
622.67	15.740
623.00	16.109
623.33	15.557
623.66	15.316
623.99	16.954
624.32	15.701
624.65	16.914
624.99	15.871
625.32	16.654
625.65	15.736
625.98	15.245
626.31	15.755
626.64	16.595
626.97	15.398
627.30	15.740
627.63	15.571
627.96	15.065
628.29	15.814
628.62	15.764
628.95	14.830
629.28	15.369
629.61	15.598
629.94	16.344
630.26	17.143
630.59	14.585
630.92	14.659
631.25	14.109
631.58	15.953
631.91	14.210
632.24	13.172
632.57	14.889
632.90	14.352
633.23	14.508
633.56	14.269
633.89	15.431
634.22	15.783
634.55	14.738
634.88	14.216
635.20	15.375
635.53	13.695
635.86	15.385
636.19	15.757
636.52	14.024
636.85	15.561
637.18	12.302
637.51	16.105
637.83	14.230
638.16	14.267
638.49	13.351
638.82	14.379
639.15	13.963
639.48	14.171
639.81	14.167
640.13	14.507
640.46	15.113
640.79	13.237
641.12	13.905
641.45	13.683
641.77	15.022
642.10	14.523
642.43	13.679
642.76	12.934
643.09	14.537
643.41	15.470
643.74	13.570
644.07	14.239
644.40	14.262
644.73	14.068
645.05	14.136
645.38	13.123
645.71	13.605
646.04	13.468
646.36	13.194
646.69	12.762
647.02	11.840
647.35	12.980
647.67	12.754
648.00	13.225
648.33	13.729
648.66	12.688
648.98	13.665
649.31	13.497
649.64	14.397
649.96	12.480
650.29	13.072
650.62	14.003
650.94	13.448
651.27	11.837
651.60	14.161
651.92	15.412
652.25	14.573
652.58	13.036
652.90	14.141
653.23	12.224
653.56	14.380
653.88	12.628
654.21	14.164
654.54	13.455
654.86	13.659
655.19	14.846
655.52	18.117
655.84	18.590
656.17	22.992
656.49	30.350
656.82	29.540
657.15	21.353
657.47	15.759
657.80	11.492
658.13	12.036
658.45	17.689
658.78	16.954
659.10	17.243
659.43	15.941
659.75	17.311
660.08	16.345
660.41	14.199
660.73	15.014
661.06	13.095
661.38	13.953
661.71	12.705
662.03	16.702
662.36	14.381
662.68	14.409
663.01	16.102
663.33	12.095
663.66	8.869
663.98	13.933
664.31	11.429
664.63	10.811
664.96	13.348
665.28	13.734
665.61	14.471
665.93	13.704
666.26	16.245
666.58	14.561
666.91	13.901
667.23	13.364
667.56	16.092
667.88	11.449
668.21	10.938
668.53	14.483
668.86	11.751
669.18	12.766
669.50	16.129
669.83	10.740
670.15	11.905
670.48	12.874
670.80	16.411
671.13	13.501
671.45	12.785
671.77	15.302
672.10	15.595
672.42	14.885
672.75	13.750
673.07	12.545
673.39	15.112
673.72	16.966
674.04	15.164
674.37	14.431
674.69	11.728
675.01	13.889
675.34	13.129
675.66	13.725
675.98	15.265
676.31	12.670
676.63	18.367
676.95	10.824
677.28	14.220
677.60	13.725
677.92	13.525
678.25	13.232
678.57	16.090
678.89	13.646
679.22	11.801
679.54	13.878
679.86	16.211
680.18	14.615
680.51	13.269
680.83	14.815
681.15	14.931
681.48	14.228
681.80	14.724
682.12	11.667
682.44	14.085
682.77	10.105
683.09	14.732
683.41	11.628
683.73	11.607
684.06	13.717
684.38	13.034
684.70	14.053
685.02	14.463
685.34	14.677
685.67	13.696
685.99	16.014
686.31	15.690
686.63	14.154
686.96	14.657
687.28	12.375
687.60	14.367
687.92	15.564
688.24	15.200
688.56	13.596
688.89	12.918
689.21	11.883
689.53	11.937
689.85	15.056
690.17	12.527
690.49	12.077
690.82	14.320
691.14	12.802
691.46	14.153
691.78	13.626
692.10	14.862
692.42	12.088
692.74	15.217
693.06	13.258
693.39	14.286
693.71	16.444
694.03	15.455
694.35	14.414
694.67	15.250
694.99	13.660
695.31	15.245
695.63	13.171
695.95	13.232
696.27	10.137
696.59	13.172
696.91	12.849
697.23	14.467
697.56	12.470
697.88	18.295
698.20	14.687
698.52	12.850
698.84	13.876
699.16	13.475
699.48	17.284
699.80	13.178
700.12	16.086
700.44	13.521
700.76	12.921
701.08	12.085
701.40	16.467
701.72	14.154
702.04	12.579
702.36	12.805
702.68	10.976
703.00	13.450
703.32	14.206
703.64	12.952
703.96	12.317
704.28	14.458
704.60	14.939
704.91	10.345
705.23	17.405
705.55	13.793
705.87	13.028
706.19	14.652
706.51	11.620
706.83	6.369
707.15	14.329
707.47	15.702
707.79	16.497
708.11	14.653
708.43	15.990
708.74	16.489
709.06	16.845
709.38	14.697
709.70	13.514
710.02	14.953
710.34	10.333
710.66	10.098
710.98	13.003
711.29	12.987
711.61	13.226
711.93	14.516
712.25	9.790
712.57	10.526
712.89	11.355
713.20	11.702
713.52	11.679
713.84	12.903
714.16	11.650
714.48	12.025
714.80	10.224
715.11	17.442
715.43	11.180
715.75	14.907
716.07	12.952
716.39	13.468
716.70	15.827
717.02	11.373
717.34	14.394
717.66	13.793
717.97	9.524
718.29	14.173
718.61	8.155
718.93	8.527
719.24	14.022
719.56	18.352
719.88	10.448
720.20	11.067
720.51	19.141
720.83	17.121
721.15	8.130
721.46	12.214
721.78	12.351
722.10	8.765
722.42	8.871
722.73	11.197
723.05	13.061
723.37	17.647
723.68	12.000
724.00	8.936
724.32	12.134
724.63	10.700
724.95	11.111
725.27	15.190
725.58	18.930
725.90	7.950
726.22	14.130
726.53	8.627
726.85	19.708
727.16	14.815
727.48	12.644
727.80	15.625
728.11	14.754
728.43	13.672
728.74	14.286
729.06	14.000
729.38	19.763
729.69	16.370
730.01	13.383
730.32	13.284
730.64	13.258
730.96	16.434
731.27	13.712
731.59	15.556
731.90	14.563
732.22	14.103
732.53	10.473
732.85	12.416
733.16	16.172
733.48	14.189
733.80	11.149
734.11	17.568
734.43	16.718
734.74	16.517
735.06	16.138
735.37	17.629
735.69	17.476
736.00	14.191
736.32	12.411
736.63	15.862
736.95	14.726
737.26	15.172
737.58	13.542
737.89	12.715
738.21	11.032
738.52	12.928
738.83	14.694
739.15	11.814
739.46	14.008
739.78	15.493
740.09	12.329
740.41	11.429
740.72	12.057
741.04	12.800
741.35	10.526
741.66	16.000
741.98	17.788
742.29	17.822
742.61	14.634
742.92	18.421
743.23	16.509
743.55	17.117
743.86	12.108
744.18	16.667
744.49	18.274
744.80	15.816
745.12	14.486
745.43	9.479
745.74	18.018
746.06	14.953
746.37	11.009
746.68	12.981
747.00	17.703
747.31	15.385
747.62	16.972
747.94	14.410
748.25	16.972
748.56	20.444
748.88	18.310
749.19	16.190
749.50	11.650
749.82	6.103
750.13	8.750
750.44	14.231
750.75	12.546
751.07	20.285
751.38	19.504
751.69	13.514
752.01	14.844
752.32	12.692
752.63	15.672
752.94	17.200
753.26	20.921
753.57	13.333
753.88	16.194
754.19	15.139
754.51	13.910
754.82	11.722
755.13	13.913
755.44	16.667
755.75	6.400
756.07	12.546
756.38	17.986
756.69	18.089
757.00	13.707
757.31	14.239
757.63	10.494
757.94	16.667
758.25	18.519
758.56	14.402
758.87	17.857
759.18	15.142
759.50	15.825
759.81	15.719
760.12	18.462
760.43	13.095
760.74	16.949
761.05	13.260
761.36	12.894
761.67	16.314
761.99	10.653
762.30	13.139
762.61	15.638
762.92	17.521
763.23	20.492
763.54	16.883
763.85	18.367
764.16	14.634
764.47	14.800
764.78	16.071
765.10	18.689
765.41	15.805
765.72	17.081
766.03	16.832
766.34	16.538
766.65	13.389
766.96	12.207
767.27	21.782
767.58	7.303
767.89	14.815
768.20	9.945
768.51	15.578
768.82	19.231
769.13	14.602
769.44	18.828
769.75	11.538
770.06	12.108
770.37	9.804
770.68	20.388
770.99	11.650
771.30	12.605
771.61	13.469
771.92	21.162
772.23	14.865
772.54	14.365
772.85	15.698
773.16	17.460
773.47	10.059
773.78	21.264
774.09	21.875
774.39	16.149
774.70	12.925
775.01	4.828
775.32	13.571
775.63	12.782
775.94	4.511
776.25	13.600
776.56	15.702
776.87	8.730
777.18	11.712
777.48	8.108
777.79	7.874
778.10	10.092
778.41	15.789
778.72	21.008
779.03	4.930
779.34	18.243
779.65	14.789
779.95	13.907
780.26	10.791
780.57	17.266
780.88	9.859
781.19	9.244
781.50	25.503
781.80	18.713
782.11	11.628
782.42	25.157
782.73	16.993
783.04	17.241
783.34	15.267
783.65	14.765
783.96	19.231
784.27	15.000
784.57	14.894
784.88	10.577
785.19	28.182
785.50	12.727
785.81	9.524
786.11	10.924
786.42	16.814
786.73	7.547
787.04	2.752
787.34	3.960
787.65	9.167
787.96	13.223
788.26	14.493
788.57	8.730
788.88	13.008
789.19	6.400
789.49	9.924
789.80	15.909
790.11	14.151
790.41	19.802
790.72	10.638
791.03	2.174
791.33	9.412
791.64	12.346
791.95	15.217
792.25	14.773
792.56	24.359
792.87	3.846
793.17	-2.564
793.48	16.667
793.79	12.500
794.09	25.962
794.40	13.542
794.70	19.820
795.01	10.937
795.32	14.783
795.62	-2.174
795.93	12.264
796.23	17.172
796.54	7.317
796.85	15.476
797.15	7.576
797.46	15.942
797.76	6.579
798.07	11.364
798.37	6.098
798.68	14.516
798.99	8.108
799.29	10.843
799.60	11.538
799.90	12.308
800.21	4.545
800.51	10.667
800.82	13.333
801.12	-2.083
801.43	8.333
801.73	5.405
802.04	27.143
802.34	21.311
802.65	10.448
802.95	7.273
803.26	6.897
803.56	23.077
803.87	16.981
804.17	3.226
804.48	23.529
804.78	0.000
805.09	1.449
805.39	17.647
805.70	4.255
806.00	5.263
806.30	11.538
806.61	13.158
806.91	14.865
807.22	-1.316
807.52	17.045
807.83	10.169
808.13	-12.121
808.43	20.000
808.74	-15.517
809.04	6.349
809.35	-2.041
809.65	16.667
809.95	-12.245
810.26	19.718
810.56	4.167
810.86	-6.122
811.17	40.385
811.47	-2.128
811.77	6.250
812.08	15.094
812.38	12.500
812.69	-3.636
812.99	-17.073
813.29	10.811
813.59	2.703
813.90	7.273
814.20	1.818
814.50	18.333
814.81	21.818
815.11	14.035
815.41	23.256
815.72	25.000
816.02	-11.429
816.32	2.703
816.62	27.083
816.93	24.444
817.23	-2.222
817.53	-30.556
817.84	-32.432
818.14	4.878
818.44	20.000
818.74	6.122
819.04	19.512
819.35	8.333
819.65	11.364
819.95	-61.111
820.25	3.030
820.56	-26.190
820.86	0.000
821.16	2.273
821.46	-13.043
821.76	-3.448
822.07	19.565
822.37	54.545
822.67	31.707
822.97	-2.703
823.27	-20.000
823.57	24.138
823.88	5.882
824.18	11.111
824.48	14.286
824.78	19.048
825.08	3.571
825.38	7.407
825.69	16.129
825.99	7.317
826.29	11.111
826.59	15.625
826.89	9.677
827.19	-8.696
827.49	-22.222
827.79	-34.783
828.09	-3.226
828.39	4.167
828.70	-25.000
829.00	24.138
829.30	10.811
829.60	25.000
829.90	29.630
830.20	18.750
830.50	-27.273
830.80	-17.647
831.10	4.545
831.40	-14.706
831.70	34.615
832.00	9.091
832.30	8.824
832.60	10.811
832.90	700.000
833.20	-17.857
833.50	-20.000
833.80	26.316
834.10	-29.167
834.40	-77.273
834.70	-53.333
835.00	20.000
835.30	-4.167
835.60	9.524
835.90	4.762
836.20	-8.000
836.50	20.833
836.80	47.368
837.10	29.730
837.40	53.333
837.70	13.043
838.00	54.167
838.30	-15.789
838.60	-190.000
838.90	-100.000
839.19	16.667
839.49	-7.692
839.79	-5.263
840.09	-183.333
840.39	-20.000
840.69	-54.545
840.99	28.571
841.29	-16.667
841.59	-61.538
841.88	-46.667
842.18	-50.000
842.48	20.000
842.78	-200.000
843.08	21.429
843.38	-25.000
843.68	-12.500
843.97	21.429
844.27	-55.556
844.57	-145.455
844.87	20.000
845.17	54.545
845.47	366.667
845.76	40.000
846.06	-41.667
846.36	-400.000
846.66	5.263
846.96	-18.182
847.25	-5.556
847.55	-122.222
847.85	-28.571
848.15	0.000
848.44	-50.000
848.74	-33.333
849.04	-53.846
849.34	-300.000
849.63	-72.727
849.93	-64.286
850.23	30.000
850.53	-125.000
850.82	11.111
851.12	0.000
851.42	17.647
851.71	-12.500
852.01	70.588
852.31	7.692
852.61	350.000
852.90	47.059
853.20	80.000
853.50	-56.250
853.79	-42.857
854.09	-125.000
854.39	0.000
854.68	10.000
854.98	-4.762
855.28	8.000
855.57	-4.167
855.87	-16.667
856.17	-36.000
856.46	3.125
856.76	45.000
857.05	36.000
857.35	-50.000
857.65	-17.647
857.94	-25.000
858.24	-58.333
858.53	-15.000
858.83	-9.091
859.13	24.000
859.42	-21.429
859.72	-137.500
860.01	0.000
860.31	-12.500
860.60	6.250
860.90	-116.667
861.20	50.000
861.49	6.667
861.79	56.250
862.08	-50.000
862.38	-133.333
862.67	242.857
862.97	200.000
863.26	-54.545
863.56	18.182
863.85	47.368
864.15	11.765
864.44	-100.000
864.74	-130.000
865.03	-11.111
865.33	0.000
865.62	192.857
865.92	-10.526
866.21	-44.444
866.51	-54.545
866.80	-44.444
867.10	-50.000
867.39	31.250
867.69	-60.000
867.98	10.000
868.27	5.882
868.57	0.000
868.86	650.000
869.16	-225.000
869.45	-71.429
869.75	-100.000
870.04	60.000
870.33	-200.000
870.63	52.632
870.92	-8.333
871.22	400.000
871.51	-71.429
871.80	66.667
872.10	-300.000
>>>>>End Processed Spectral Data<<<<<
