SpectraSuite Data File
++++++++++++++++++++++++++++++++++++
Date: Wed May 13 21:02:33 PDT 2015
User: schluterlab
Dark Spectrum Present: Yes
Reference Spectrum Present: Yes
Number of Sampled Component Spectra: 1
Spectrometers: USB2E3373
Integration Time (usec): 3000 (USB2E3373)
Spectra Averaged: 3 (USB2E3373)
Boxcar Smoothing: 0 (USB2E3373)
Correct for Electrical Dark: No (USB2E3373)
Strobe/Lamp Enabled: No (USB2E3373)
Correct for Detector Non-linearity: No (USB2E3373)
Correct for Stray Light: No (USB2E3373)
Number of Pixels in Processed Spectrum: 2048
>>>>>Begin Processed Spectral Data<<<<<
178.53	0.000
178.91	100.000
179.29	125.000
179.67	-300.000
180.04	-433.333
180.42	220.000
180.80	1200.000
181.18	16.667
181.56	100.000
181.94	-175.000
182.31	45.455
182.69	46.154
183.07	120.000
183.45	33.333
183.83	55.556
184.20	157.143
184.58	333.333
184.96	200.000
185.34	-0.000
185.72	0.000
186.09	1000.000
186.47	-140.000
186.85	60.000
187.23	-100.000
187.61	50.000
187.98	300.000
188.36	175.000
188.74	0.000
189.12	72.727
189.49	90.000
189.87	58.333
190.25	300.000
190.63	1000.000
191.00	-120.000
191.38	100.000
191.76	100.000
192.14	33.333
192.51	31.579
192.89	366.667
193.27	175.000
193.65	-20.000
194.02	9.091
194.40	-20.000
194.78	-400.000
195.15	300.000
195.53	-180.000
195.91	37.500
196.29	166.667
196.66	0.000
197.04	-50.000
197.42	120.000
197.79	50.000
198.17	0.000
198.55	300.000
198.92	-25.000
199.30	-200.000
199.68	70.000
200.05	-50.000
200.43	-100.000
200.81	-700.000
201.18	-120.000
201.56	50.000
201.94	200.000
202.31	43.478
202.69	14.286
203.07	-166.667
203.44	140.000
203.82	266.667
204.19	90.000
204.57	0.000
204.95	-50.000
205.32	0.000
205.70	0.000
206.08	-25.000
206.45	33.333
206.83	25.000
207.20	66.667
207.58	-30.000
207.96	-500.000
208.33	-71.429
208.71	-600.000
209.08	137.500
209.46	350.000
209.84	0.000
210.21	90.000
210.59	1000.000
210.96	220.000
211.34	800.000
211.71	-400.000
212.09	-116.667
212.46	-120.000
212.84	133.333
213.22	0.000
213.59	-200.000
213.97	-150.000
214.34	-350.000
214.72	7.692
215.09	162.500
215.47	211.111
215.84	550.000
216.22	0.000
216.59	-150.000
216.97	333.333
217.34	133.333
217.72	0.000
218.09	-133.333
218.47	400.000
218.84	-85.714
219.22	-75.000
219.59	-266.667
219.97	-100.000
220.34	-12.500
220.72	-20.000
221.09	0.000
221.47	-133.333
221.84	800.000
222.22	0.000
222.59	1200.000
222.97	-200.000
223.34	8.333
223.72	600.000
224.09	50.000
224.46	-9.091
224.84	-112.500
225.21	-71.429
225.59	-300.000
225.96	-33.333
226.34	0.000
226.71	-14.286
227.08	250.000
227.46	-12.500
227.83	-800.000
228.21	-25.000
228.58	-100.000
228.95	5.882
229.33	31.250
229.70	87.500
230.08	46.154
230.45	-25.000
230.82	-33.333
231.20	71.429
231.57	-100.000
231.95	900.000
232.32	41.667
232.69	-5.882
233.07	-600.000
233.44	-4.348
233.81	-50.000
234.19	4.167
234.56	6.667
234.93	13.333
235.31	68.421
235.68	7.692
236.05	-46.154
236.43	-27.778
236.80	-6.061
237.17	-73.333
237.55	17.647
237.92	-10.345
238.29	-33.333
238.67	2.778
239.04	-9.677
239.41	-12.766
239.79	36.170
240.16	-9.302
240.53	3.571
240.91	8.929
241.28	8.929
241.65	24.194
242.02	10.526
242.40	-1.449
242.77	-7.246
243.14	2.564
243.51	10.638
243.89	4.808
244.26	20.755
244.63	0.962
245.00	2.083
245.38	6.723
245.75	13.115
246.12	5.263
246.49	4.065
246.87	-0.840
247.24	14.865
247.61	3.974
247.98	8.333
248.36	2.959
248.73	1.124
249.10	4.545
249.47	4.839
249.84	8.421
250.22	7.960
250.59	7.009
250.96	9.545
251.33	0.957
251.70	14.644
252.08	4.184
252.45	7.407
252.82	7.605
253.19	7.004
253.56	3.597
253.94	7.473
254.31	6.690
254.68	8.389
255.05	10.891
255.42	8.042
255.79	6.442
256.16	7.571
256.54	4.762
256.91	8.861
257.28	8.805
257.65	1.911
258.02	7.038
258.39	8.772
258.76	4.651
259.14	4.545
259.51	6.180
259.88	7.859
260.25	9.167
260.62	4.775
260.99	6.631
261.36	10.622
261.73	5.926
262.10	3.308
262.47	6.173
262.85	5.473
263.22	5.385
263.59	5.455
263.96	4.866
264.33	3.365
264.70	4.884
265.07	3.935
265.44	6.667
265.81	3.432
266.18	7.289
266.55	5.459
266.92	4.025
267.29	6.173
267.66	6.157
268.03	8.848
268.40	4.873
268.77	6.612
269.14	5.510
269.51	7.803
269.88	5.499
270.25	5.085
270.62	5.533
270.99	6.693
271.36	7.540
271.73	8.835
272.10	7.048
272.47	6.526
272.84	7.677
273.21	4.892
273.58	6.148
273.95	6.415
274.32	6.716
274.69	7.286
275.06	9.187
275.43	6.968
275.80	6.915
276.17	6.446
276.54	5.506
276.91	6.446
277.28	5.054
277.65	6.993
278.02	6.250
278.39	6.750
278.76	6.856
279.13	6.861
279.50	5.517
279.87	5.435
280.23	6.126
280.60	5.017
280.97	6.818
281.34	8.360
281.71	7.317
282.08	5.299
282.45	6.885
282.82	5.751
283.19	7.927
283.56	5.469
283.92	6.575
284.29	6.708
284.66	5.272
285.03	5.863
285.40	6.798
285.77	7.207
286.14	7.143
286.51	7.946
286.87	6.462
287.24	7.080
287.61	7.229
287.98	6.471
288.35	5.812
288.72	6.313
289.08	7.407
289.45	6.021
289.82	5.749
290.19	7.293
290.56	4.261
290.93	5.801
291.29	4.788
291.66	5.601
292.03	4.905
292.40	5.787
292.77	6.024
293.13	4.742
293.50	5.490
293.87	7.867
294.24	5.952
294.60	6.632
294.97	7.804
295.34	3.430
295.71	4.205
296.08	3.665
296.44	4.592
296.81	5.116
297.18	5.625
297.55	6.250
297.91	7.205
298.28	6.416
298.65	5.911
299.02	7.082
299.38	3.804
299.75	5.048
300.12	3.837
300.48	4.795
300.85	6.005
301.22	5.923
301.59	5.869
301.95	5.691
302.32	5.601
302.69	6.102
303.05	4.762
303.42	4.659
303.79	5.783
304.15	6.572
304.52	5.914
304.89	3.322
305.25	4.940
305.62	5.206
305.99	5.550
306.35	6.374
306.72	7.121
307.09	5.631
307.45	5.857
307.82	4.526
308.19	4.075
308.55	5.937
308.92	7.073
309.29	6.206
309.65	6.593
310.02	6.660
310.38	7.724
310.75	5.917
311.12	6.608
311.48	5.440
311.85	6.594
312.22	7.834
312.58	6.280
312.95	6.269
313.31	7.530
313.68	7.347
314.05	7.656
314.41	7.205
314.78	8.159
315.14	9.074
315.51	8.944
315.87	10.287
316.24	9.642
316.61	10.959
316.97	9.537
317.34	9.002
317.70	10.526
318.07	11.979
318.43	10.479
318.80	11.518
319.16	11.406
319.53	11.022
319.89	11.563
320.26	13.124
320.62	12.048
320.99	12.597
321.35	12.254
321.72	12.512
322.08	12.731
322.45	14.801
322.81	14.048
323.18	14.758
323.54	15.433
323.91	14.815
324.27	17.282
324.64	14.721
325.00	16.185
325.37	17.406
325.73	17.508
326.10	16.569
326.46	18.395
326.83	17.071
327.19	18.455
327.56	19.742
327.92	19.067
328.29	20.534
328.65	19.895
329.01	20.053
329.38	19.478
329.74	20.601
330.11	19.567
330.47	20.573
330.84	20.307
331.20	20.068
331.56	20.199
331.93	20.844
332.29	21.112
332.66	20.169
333.02	21.112
333.38	20.965
333.75	21.075
334.11	20.747
334.48	22.493
334.84	20.141
335.20	21.441
335.57	21.845
335.93	21.564
336.29	21.716
336.66	22.051
337.02	22.174
337.38	22.715
337.75	22.308
338.11	21.776
338.47	22.175
338.84	22.423
339.20	21.517
339.56	21.843
339.93	22.645
340.29	21.008
340.65	21.814
341.02	21.714
341.38	21.622
341.74	20.336
342.11	21.965
342.47	21.423
342.83	21.078
343.20	22.081
343.56	22.649
343.92	21.771
344.28	23.377
344.65	22.204
345.01	22.034
345.37	21.957
345.73	23.284
346.10	21.910
346.46	21.545
346.82	21.830
347.19	22.627
347.55	23.506
347.91	22.915
348.27	20.978
348.63	23.798
349.00	22.642
349.36	22.763
349.72	22.660
350.08	23.089
350.45	23.493
350.81	22.535
351.17	23.788
351.53	22.781
351.89	22.319
352.26	22.934
352.62	23.566
352.98	23.083
353.34	23.430
353.70	23.832
354.07	23.137
354.43	23.173
354.79	23.718
355.15	22.283
355.51	23.311
355.87	22.830
356.24	23.917
356.60	22.752
356.96	23.638
357.32	24.613
357.68	23.453
358.04	23.739
358.40	24.884
358.77	23.394
359.13	24.125
359.49	23.467
359.85	23.503
360.21	24.210
360.57	24.791
360.93	24.507
361.29	25.315
361.66	24.677
362.02	24.981
362.38	24.446
362.74	24.148
363.10	24.801
363.46	25.072
363.82	25.203
364.18	24.293
364.54	24.945
364.90	24.460
365.26	24.133
365.62	24.858
365.98	25.125
366.35	25.248
366.71	24.893
367.07	25.514
367.43	25.366
367.79	26.616
368.15	26.301
368.51	24.824
368.87	26.029
369.23	25.338
369.59	24.877
369.95	26.488
370.31	25.523
370.67	25.272
371.03	26.652
371.39	25.479
371.75	25.357
372.11	27.066
372.47	25.739
372.83	27.115
373.19	26.043
373.55	26.806
373.91	26.450
374.27	26.971
374.63	27.169
374.99	26.114
375.35	27.397
375.71	25.543
376.07	27.896
376.42	27.273
376.78	28.071
377.14	28.000
377.50	27.966
377.86	27.158
378.22	27.813
378.58	27.932
378.94	28.938
379.30	27.483
379.66	28.545
380.02	27.267
380.38	26.867
380.74	29.169
381.09	27.443
381.45	28.174
381.81	28.959
382.17	27.788
382.53	28.985
382.89	29.011
383.25	28.765
383.61	28.814
383.97	28.062
384.32	28.103
384.68	29.488
385.04	28.467
385.40	29.203
385.76	28.893
386.12	29.438
386.48	29.467
386.83	29.287
387.19	29.858
387.55	29.920
387.91	30.381
388.27	29.223
388.62	29.526
388.98	30.601
389.34	29.010
389.70	29.609
390.06	30.250
390.42	29.832
390.77	30.237
391.13	30.303
391.49	29.349
391.85	29.521
392.20	29.825
392.56	30.349
392.92	29.725
393.28	29.634
393.64	29.969
393.99	29.315
394.35	30.741
394.71	29.679
395.07	29.119
395.42	30.408
395.78	30.309
396.14	30.374
396.50	30.818
396.85	32.186
397.21	29.650
397.57	30.621
397.92	29.820
398.28	29.893
398.64	30.358
399.00	30.525
399.35	29.739
399.71	30.169
400.07	30.060
400.42	30.282
400.78	30.211
401.14	30.227
401.49	30.677
401.85	30.528
402.21	30.836
402.57	30.227
402.92	30.350
403.28	31.395
403.63	30.192
403.99	30.006
404.35	31.484
404.70	29.668
405.06	30.945
405.42	30.214
405.77	30.357
406.13	30.171
406.49	29.958
406.84	30.830
407.20	29.899
407.55	31.299
407.91	30.841
408.27	29.819
408.62	30.510
408.98	30.271
409.34	31.374
409.69	31.059
410.05	29.975
410.40	29.884
410.76	30.566
411.11	30.473
411.47	30.591
411.83	29.881
412.18	29.345
412.54	30.576
412.89	30.219
413.25	30.383
413.60	30.972
413.96	29.713
414.31	29.840
414.67	29.778
415.03	30.176
415.38	28.864
415.74	30.604
416.09	31.527
416.45	29.528
416.80	30.134
417.16	30.567
417.51	29.739
417.87	30.291
418.22	29.864
418.58	29.632
418.93	30.634
419.29	31.023
419.64	30.789
420.00	29.587
420.35	30.126
420.71	29.433
421.06	30.197
421.42	30.596
421.77	30.405
422.12	30.143
422.48	29.716
422.83	30.892
423.19	30.420
423.54	30.801
423.90	29.572
424.25	30.156
424.61	29.698
424.96	28.918
425.31	29.725
425.67	30.570
426.02	30.683
426.38	29.851
426.73	29.872
427.09	30.832
427.44	30.182
427.79	29.988
428.15	29.969
428.50	29.607
428.85	30.750
429.21	29.375
429.56	29.702
429.92	30.349
430.27	29.294
430.62	30.115
430.98	30.037
431.33	29.393
431.68	30.032
432.04	30.028
432.39	29.388
432.74	30.288
433.10	31.726
433.45	30.237
433.80	29.885
434.16	29.765
434.51	30.326
434.86	30.448
435.22	30.900
435.57	30.283
435.92	29.795
436.28	29.670
436.63	29.388
436.98	30.552
437.34	30.220
437.69	29.988
438.04	29.145
438.39	30.448
438.75	30.572
439.10	30.075
439.45	29.479
439.81	30.788
440.16	29.855
440.51	28.954
440.86	30.409
441.22	29.948
441.57	30.260
441.92	30.638
442.27	29.762
442.63	29.440
442.98	29.572
443.33	30.418
443.68	29.046
444.03	29.111
444.39	30.144
444.74	30.094
445.09	29.570
445.44	30.085
445.79	29.066
446.15	29.839
446.50	30.947
446.85	30.305
447.20	29.953
447.55	30.554
447.91	30.112
448.26	29.160
448.61	29.747
448.96	29.727
449.31	30.668
449.66	30.075
450.02	29.960
450.37	30.024
450.72	29.851
451.07	29.969
451.42	28.571
451.77	29.154
452.12	29.471
452.47	30.278
452.83	29.245
453.18	29.726
453.53	30.328
453.88	30.663
454.23	29.852
454.58	28.615
454.93	29.314
455.28	29.865
455.63	28.759
455.98	28.667
456.34	29.498
456.69	30.543
457.04	29.350
457.39	29.104
457.74	29.683
458.09	28.614
458.44	29.025
458.79	28.281
459.14	28.596
459.49	29.085
459.84	28.354
460.19	27.731
460.54	29.258
460.89	28.885
461.24	29.346
461.59	29.046
461.94	28.887
462.29	28.554
462.64	28.100
462.99	29.645
463.34	28.867
463.69	28.673
464.04	27.731
464.39	28.310
464.74	28.686
465.09	28.022
465.44	28.507
465.79	29.155
466.14	28.278
466.49	27.742
466.84	27.854
467.19	27.197
467.54	27.933
467.89	27.404
468.24	28.027
468.59	27.597
468.94	27.522
469.29	27.892
469.64	27.127
469.99	28.345
470.34	27.377
470.68	26.617
471.03	27.715
471.38	27.260
471.73	26.749
472.08	27.010
472.43	27.968
472.78	27.519
473.13	26.781
473.48	26.810
473.83	26.868
474.17	26.628
474.52	26.537
474.87	26.779
475.22	26.812
475.57	26.269
475.92	26.772
476.27	26.690
476.61	25.821
476.96	26.785
477.31	26.052
477.66	26.215
478.01	25.934
478.36	25.831
478.70	26.101
479.05	26.304
479.40	25.533
479.75	25.877
480.10	25.905
480.45	25.208
480.79	26.182
481.14	26.241
481.49	25.950
481.84	24.788
482.19	24.502
482.53	25.429
482.88	24.928
483.23	24.447
483.58	25.567
483.92	25.292
484.27	24.337
484.62	24.545
484.97	24.927
485.31	24.759
485.66	23.172
486.01	24.060
486.36	23.824
486.70	24.055
487.05	24.208
487.40	24.698
487.75	24.376
488.09	23.804
488.44	24.290
488.79	24.943
489.13	23.777
489.48	24.198
489.83	24.341
490.17	23.559
490.52	24.077
490.87	23.366
491.22	24.870
491.56	24.245
491.91	24.628
492.26	24.130
492.60	23.569
492.95	24.344
493.30	23.304
493.64	23.453
493.99	24.106
494.34	23.410
494.68	23.723
495.03	23.617
495.37	22.482
495.72	23.308
496.07	23.819
496.41	23.350
496.76	23.446
497.11	23.427
497.45	23.200
497.80	23.069
498.14	23.224
498.49	22.895
498.84	23.381
499.18	22.549
499.53	22.550
499.87	22.368
500.22	23.395
500.56	23.821
500.91	23.239
501.26	21.823
501.60	22.647
501.95	22.377
502.29	21.893
502.64	22.903
502.98	21.676
503.33	22.190
503.67	22.882
504.02	21.814
504.36	22.387
504.71	22.409
505.06	22.720
505.40	22.680
505.75	22.686
506.09	22.177
506.44	21.623
506.78	21.940
507.13	22.765
507.47	21.633
507.82	21.507
508.16	21.847
508.51	21.488
508.85	22.084
509.19	21.164
509.54	22.091
509.88	21.452
510.23	21.684
510.57	21.610
510.92	21.875
511.26	21.892
511.61	21.240
511.95	21.389
512.30	21.099
512.64	21.737
512.98	21.717
513.33	21.014
513.67	20.443
514.02	21.608
514.36	21.067
514.70	21.305
515.05	21.065
515.39	21.757
515.74	21.018
516.08	20.944
516.42	21.083
516.77	20.797
517.11	20.106
517.46	21.188
517.80	21.065
518.14	20.269
518.49	21.157
518.83	21.122
519.17	20.301
519.52	20.507
519.86	20.279
520.20	20.376
520.55	20.585
520.89	19.924
521.23	21.026
521.58	20.670
521.92	20.176
522.26	20.690
522.61	20.556
522.95	20.661
523.29	20.952
523.64	20.216
523.98	20.584
524.32	20.542
524.66	20.130
525.01	20.904
525.35	20.211
525.69	19.748
526.04	19.935
526.38	21.033
526.72	19.724
527.06	19.471
527.41	20.251
527.75	19.159
528.09	20.626
528.43	20.488
528.78	18.475
529.12	20.634
529.46	19.578
529.80	19.935
530.15	18.983
530.49	19.677
530.83	20.785
531.17	20.068
531.51	18.881
531.86	18.767
532.20	19.021
532.54	19.310
532.88	19.061
533.22	19.731
533.57	18.874
533.91	19.806
534.25	20.247
534.59	19.562
534.93	19.515
535.27	18.981
535.62	19.474
535.96	19.974
536.30	19.215
536.64	18.387
536.98	18.080
537.32	18.719
537.66	19.394
538.01	19.071
538.35	17.887
538.69	18.194
539.03	18.456
539.37	18.377
539.71	18.417
540.05	18.623
540.39	18.858
540.73	18.436
541.07	19.320
541.42	19.125
541.76	18.471
542.10	18.822
542.44	17.879
542.78	18.182
543.12	18.531
543.46	17.484
543.80	18.330
544.14	19.339
544.48	17.850
544.82	17.350
545.16	18.391
545.50	18.433
545.84	16.760
546.18	17.321
546.52	18.066
546.86	17.951
547.20	17.870
547.54	17.012
547.88	18.286
548.22	17.524
548.56	18.212
548.90	17.253
549.24	17.639
549.58	17.224
549.92	18.195
550.26	18.450
550.60	17.793
550.94	17.836
551.28	17.562
551.62	16.692
551.96	17.789
552.30	16.376
552.64	16.455
552.98	17.685
553.32	16.655
553.66	17.315
554.00	17.855
554.34	17.143
554.68	17.972
555.02	17.590
555.36	17.171
555.69	17.189
556.03	16.941
556.37	16.785
556.71	17.169
557.05	16.753
557.39	16.729
557.73	17.549
558.07	17.784
558.41	16.427
558.75	17.321
559.08	16.279
559.42	17.624
559.76	16.972
560.10	16.295
560.44	17.612
560.78	16.403
561.12	16.889
561.45	16.463
561.79	17.538
562.13	16.245
562.47	17.143
562.81	15.657
563.15	17.280
563.48	16.655
563.82	16.553
564.16	15.775
564.50	16.893
564.84	16.554
565.17	17.219
565.51	16.511
565.85	15.256
566.19	16.026
566.52	15.990
566.86	15.740
567.20	17.043
567.54	16.695
567.88	14.838
568.21	15.752
568.55	16.119
568.89	15.503
569.23	15.857
569.56	14.852
569.90	15.337
570.24	14.657
570.57	15.421
570.91	15.180
571.25	14.522
571.59	15.213
571.92	15.166
572.26	15.296
572.60	15.337
572.93	15.651
573.27	15.123
573.61	15.001
573.95	15.336
574.28	15.055
574.62	14.638
574.96	15.133
575.29	14.719
575.63	14.700
575.97	14.864
576.30	14.482
576.64	15.012
576.98	14.985
577.31	14.485
577.65	14.447
577.98	14.753
578.32	14.691
578.66	15.003
578.99	15.070
579.33	14.718
579.67	15.046
580.00	14.609
580.34	15.124
580.67	14.625
581.01	14.366
581.35	14.548
581.68	14.367
582.02	14.468
582.35	14.664
582.69	14.628
583.02	14.702
583.36	14.935
583.70	14.524
584.03	14.856
584.37	14.536
584.70	14.594
585.04	14.510
585.37	14.289
585.71	14.592
586.04	14.336
586.38	14.154
586.72	14.639
587.05	14.777
587.39	14.526
587.72	14.495
588.06	14.118
588.39	14.358
588.73	14.561
589.06	14.096
589.40	14.757
589.73	14.229
590.07	14.801
590.40	15.070
590.73	14.911
591.07	14.542
591.40	14.478
591.74	14.984
592.07	15.062
592.41	14.629
592.74	14.120
593.08	14.188
593.41	14.194
593.75	14.018
594.08	13.817
594.41	14.004
594.75	14.843
595.08	14.526
595.42	13.994
595.75	14.895
596.09	14.819
596.42	13.930
596.75	14.129
597.09	14.877
597.42	14.895
597.75	14.667
598.09	14.481
598.42	14.676
598.76	13.812
599.09	14.726
599.42	14.313
599.76	14.382
600.09	14.119
600.42	13.936
600.76	13.821
601.09	13.898
601.42	14.269
601.76	14.054
602.09	14.390
602.42	14.651
602.76	14.513
603.09	14.292
603.42	13.914
603.76	14.302
604.09	14.308
604.42	13.730
604.76	13.880
605.09	14.182
605.42	15.115
605.75	13.747
606.09	13.618
606.42	13.965
606.75	13.680
607.09	13.564
607.42	14.054
607.75	13.260
608.08	14.337
608.42	14.011
608.75	14.047
609.08	14.454
609.41	13.860
609.75	13.817
610.08	13.856
610.41	13.848
610.74	14.148
611.07	13.727
611.41	15.251
611.74	14.389
612.07	13.966
612.40	15.135
612.73	13.337
613.07	14.412
613.40	14.317
613.73	14.897
614.06	13.875
614.39	13.785
614.72	15.491
615.06	13.056
615.39	13.852
615.72	13.283
616.05	13.570
616.38	14.376
616.71	13.977
617.05	14.251
617.38	13.432
617.71	13.297
618.04	13.772
618.37	14.322
618.70	13.777
619.03	13.333
619.36	14.021
619.69	13.304
620.03	14.205
620.36	14.196
620.69	13.776
621.02	15.000
621.35	13.737
621.68	13.610
622.01	13.511
622.34	14.036
622.67	14.252
623.00	14.742
623.33	14.660
623.66	13.606
623.99	13.203
624.32	13.940
624.65	13.501
624.99	14.034
625.32	14.190
625.65	14.651
625.98	13.744
626.31	14.694
626.64	14.101
626.97	13.668
627.30	14.029
627.63	13.322
627.96	13.506
628.29	14.884
628.62	15.474
628.95	13.026
629.28	14.483
629.61	15.120
629.94	14.120
630.26	15.172
630.59	14.785
630.92	13.554
631.25	13.697
631.58	14.454
631.91	12.725
632.24	12.843
632.57	12.333
632.90	14.819
633.23	13.789
633.56	12.950
633.89	15.550
634.22	14.959
634.55	14.129
634.88	13.848
635.20	15.500
635.53	13.307
635.86	13.974
636.19	15.261
636.52	13.902
636.85	13.631
637.18	12.789
637.51	14.107
637.83	16.580
638.16	14.267
638.49	13.218
638.82	13.333
639.15	13.697
639.48	15.374
639.81	15.278
640.13	13.944
640.46	14.689
640.79	14.532
641.12	12.870
641.45	14.265
641.77	13.255
642.10	13.162
642.43	13.836
642.76	13.565
643.09	12.780
643.41	13.238
643.74	14.378
644.07	13.916
644.40	15.423
644.73	11.525
645.05	13.089
645.38	13.621
645.71	13.946
646.04	12.626
646.36	15.451
646.69	13.811
647.02	14.936
647.35	14.260
647.67	15.342
648.00	11.775
648.33	13.390
648.66	13.189
648.98	12.422
649.31	12.883
649.64	13.146
649.96	14.060
650.29	11.928
650.62	13.509
650.94	13.966
651.27	12.544
651.60	13.811
651.92	15.591
652.25	13.568
652.58	15.017
652.90	12.963
653.23	10.017
653.56	11.240
653.88	11.604
654.21	11.263
654.54	12.791
654.86	12.195
655.19	10.784
655.52	13.088
655.84	11.525
656.17	13.863
656.49	18.548
656.82	18.715
657.15	14.411
657.47	10.540
657.80	7.970
658.13	8.480
658.45	12.470
658.78	12.757
659.10	12.564
659.43	11.993
659.75	12.861
660.08	12.483
660.41	12.475
660.73	12.259
661.06	12.755
661.38	14.535
661.71	11.680
662.03	13.531
662.36	12.832
662.68	17.204
663.01	16.737
663.33	11.015
663.66	9.313
663.98	15.056
664.31	12.747
664.63	13.063
664.96	14.223
665.28	17.597
665.61	12.311
665.93	12.634
666.26	15.401
666.58	11.991
666.91	13.229
667.23	15.207
667.56	14.023
667.88	11.916
668.21	13.393
668.53	15.632
668.86	14.149
669.18	14.421
669.50	11.982
669.83	13.604
670.15	11.905
670.48	13.333
670.80	17.505
671.13	14.416
671.45	13.927
671.77	13.578
672.10	11.306
672.42	11.832
672.75	11.071
673.07	10.727
673.39	13.433
673.72	12.575
674.04	13.730
674.37	16.260
674.69	11.523
675.01	14.103
675.34	12.254
675.66	13.725
675.98	11.726
676.31	11.765
676.63	14.059
676.95	11.059
677.28	11.697
677.60	10.784
677.92	13.525
678.25	13.666
678.57	16.090
678.89	14.925
679.22	12.629
679.54	11.429
679.86	14.453
680.18	11.346
680.51	11.923
680.83	10.526
681.15	13.360
681.48	13.427
681.80	11.452
682.12	11.250
682.44	10.664
682.77	9.895
683.09	11.384
683.41	11.628
683.73	12.054
684.06	10.398
684.38	11.325
684.70	11.405
685.02	11.157
685.34	13.307
685.67	11.632
685.99	11.922
686.31	14.310
686.63	11.581
686.96	12.430
687.28	12.176
687.60	14.934
687.92	12.840
688.24	11.000
688.56	14.035
688.89	10.022
689.21	11.211
689.53	8.784
689.85	11.685
690.17	12.527
690.49	10.628
690.82	8.353
691.14	9.903
691.46	12.529
691.78	12.088
692.10	12.951
692.42	12.747
692.74	13.261
693.06	11.685
693.39	10.304
693.71	13.778
694.03	14.318
694.35	11.937
694.67	11.000
694.99	13.402
695.31	12.661
695.63	14.878
695.95	11.959
696.27	12.055
696.59	10.484
696.91	11.453
697.23	10.406
697.56	12.710
697.88	13.098
698.20	15.119
698.52	11.682
698.84	14.833
699.16	11.820
699.48	13.333
699.80	13.695
700.12	10.992
700.44	10.986
700.76	10.674
701.08	14.199
701.40	16.168
701.72	9.538
702.04	11.635
702.36	8.841
702.68	10.671
703.00	13.158
703.32	11.978
703.64	11.446
703.96	11.437
704.28	10.843
704.60	11.585
704.91	11.285
705.23	15.190
705.55	7.586
705.87	15.493
706.19	12.454
706.51	11.268
706.83	10.510
707.15	11.280
707.47	9.366
707.79	11.675
708.11	10.540
708.43	12.690
708.74	9.840
709.06	11.765
709.38	10.951
709.70	10.511
710.02	12.461
710.34	9.000
710.66	12.704
710.98	12.384
711.29	12.987
711.61	14.194
711.93	10.968
712.25	10.140
712.57	5.263
712.89	9.890
713.20	15.248
713.52	12.044
713.84	14.516
714.16	11.650
714.48	10.443
714.80	9.265
715.11	12.791
715.43	7.764
715.75	13.043
716.07	13.253
716.39	11.111
716.70	17.626
717.02	6.667
717.34	13.258
717.66	11.207
717.97	10.317
718.29	12.992
718.61	9.871
718.93	10.853
719.24	14.022
719.56	12.360
719.88	10.448
720.20	11.462
720.51	12.891
720.83	15.175
721.15	5.285
721.46	11.832
721.78	12.351
722.10	13.944
722.42	10.081
722.73	12.355
723.05	11.837
723.37	12.605
723.68	12.000
724.00	8.085
724.32	10.042
724.63	11.934
724.95	8.974
725.27	16.034
725.58	11.111
725.90	13.389
726.22	8.696
726.53	3.529
726.85	13.139
727.16	12.593
727.48	12.644
727.80	11.328
728.11	10.246
728.43	9.375
728.74	9.921
729.06	12.400
729.38	12.253
729.69	10.676
730.01	9.294
730.32	12.177
730.64	5.682
730.96	13.287
731.27	10.368
731.59	13.968
731.90	8.091
732.22	7.692
732.53	6.757
732.85	8.725
733.16	12.211
733.48	12.500
733.80	11.824
734.11	13.514
734.43	11.146
734.74	12.012
735.06	8.646
735.37	8.815
735.69	11.650
736.00	11.221
736.32	9.929
736.63	10.000
736.95	9.589
737.26	7.241
737.58	10.764
737.89	11.684
738.21	9.253
738.52	9.125
738.83	8.571
739.15	13.080
739.46	7.004
739.78	9.507
740.09	8.562
740.41	7.143
740.72	8.511
741.04	6.000
741.35	9.211
741.66	15.111
741.98	10.096
742.29	17.327
742.61	4.878
742.92	10.965
743.23	11.792
743.55	12.613
743.86	7.623
744.18	11.275
744.49	11.675
744.80	10.204
745.12	10.748
745.43	7.109
745.74	14.414
746.06	12.150
746.37	5.963
746.68	7.212
747.00	11.483
747.31	12.019
747.62	15.596
747.94	9.607
748.25	12.385
748.56	17.778
748.88	15.493
749.19	14.762
749.50	7.767
749.82	7.512
750.13	7.500
750.44	6.538
750.75	9.225
751.07	12.456
751.38	11.702
751.69	6.950
752.01	10.547
752.32	6.154
752.63	10.821
752.94	11.200
753.26	12.134
753.57	11.250
753.88	9.717
754.19	4.382
754.51	5.639
754.82	9.524
755.13	7.391
755.44	13.008
755.75	7.600
756.07	9.594
756.38	10.432
756.69	9.556
757.00	9.034
757.31	8.091
757.63	4.630
757.94	11.864
758.25	11.376
758.56	8.424
758.87	11.607
759.18	13.880
759.50	9.428
759.81	9.699
760.12	10.462
760.43	7.738
760.74	10.452
761.05	8.287
761.36	7.450
761.67	7.855
761.99	3.093
762.30	7.299
762.61	7.819
762.92	8.974
763.23	12.705
763.54	9.957
763.85	8.980
764.16	6.504
764.47	9.600
764.78	8.214
765.10	10.492
765.41	9.422
765.72	6.522
766.03	10.231
766.34	11.923
766.65	5.439
766.96	3.286
767.27	10.396
767.58	1.685
767.89	10.494
768.20	2.210
768.51	10.553
768.82	12.981
769.13	10.177
769.44	17.155
769.75	1.709
770.06	6.278
770.37	4.902
770.68	9.709
770.99	7.282
771.30	10.504
771.61	11.020
771.92	14.938
772.23	12.613
772.54	9.392
772.85	15.698
773.16	12.169
773.47	4.142
773.78	13.793
774.09	7.500
774.39	11.801
774.70	9.524
775.01	2.759
775.32	8.571
775.63	6.015
775.94	3.008
776.25	7.200
776.56	4.132
776.87	19.048
777.18	11.712
777.48	8.108
777.79	4.724
778.10	15.596
778.41	3.509
778.72	2.521
779.03	-2.113
779.34	16.892
779.65	6.338
779.95	9.272
780.26	11.511
780.57	7.914
780.88	5.634
781.19	4.202
781.50	9.396
781.80	7.018
782.11	1.163
782.42	11.321
782.73	15.033
783.04	7.586
783.34	1.527
783.65	6.711
783.96	10.000
784.27	17.857
784.57	9.220
784.88	1.923
785.19	24.545
785.50	-1.818
785.81	2.857
786.11	10.924
786.42	7.965
786.73	0.000
787.04	1.835
787.34	1.980
787.65	5.833
787.96	14.050
788.26	13.768
788.57	3.175
788.88	7.317
789.19	7.200
789.49	6.107
789.80	15.909
790.11	-3.774
790.41	19.802
790.72	4.255
791.03	11.957
791.33	9.412
791.64	-6.173
791.95	3.261
792.25	22.727
792.56	15.385
792.87	10.256
793.17	1.282
793.48	2.381
793.79	10.000
794.09	18.269
794.40	9.375
794.70	9.910
795.01	5.469
795.32	0.870
795.62	-16.304
795.93	8.491
796.23	10.101
796.54	6.098
796.85	14.286
797.15	3.030
797.46	1.449
797.76	2.632
798.07	12.500
798.37	-4.878
798.68	-8.065
798.99	0.000
799.29	15.663
799.60	3.846
799.90	12.308
800.21	12.121
800.51	12.000
800.82	8.000
801.12	-27.083
801.43	-20.000
801.73	8.108
802.04	27.143
802.34	-6.557
802.65	-1.493
802.95	-5.455
803.26	-8.621
803.56	12.308
803.87	13.208
804.17	22.581
804.48	4.412
804.78	-7.317
805.09	20.290
805.39	13.235
805.70	-29.787
806.00	17.544
806.30	17.949
806.61	13.158
806.91	2.703
807.22	-7.895
807.52	17.045
807.83	-1.695
808.13	-10.606
808.43	11.667
808.74	-24.138
809.04	4.762
809.35	2.041
809.65	-6.667
809.95	-6.122
810.26	12.676
810.56	31.250
810.86	12.245
811.17	21.154
811.47	2.128
811.77	-8.333
812.08	1.887
812.38	-9.375
812.69	-3.636
812.99	4.878
813.29	5.405
813.59	21.622
813.90	-1.818
814.20	5.455
814.50	6.667
814.81	9.091
815.11	5.263
815.41	16.279
815.72	15.000
816.02	11.429
816.32	5.405
816.62	10.417
816.93	0.000
817.23	8.889
817.53	-27.778
817.84	-8.108
818.14	19.512
818.44	8.000
818.74	10.204
819.04	17.073
819.35	8.333
819.65	-11.364
819.95	-38.889
820.25	-9.091
820.56	-2.381
820.86	19.444
821.16	-27.273
821.46	8.696
821.76	5.172
822.07	17.391
822.37	27.273
822.67	26.829
822.97	5.405
823.27	-14.286
823.57	41.379
823.88	-20.588
824.18	11.111
824.48	2.857
824.78	-23.810
825.08	-3.571
825.38	-14.815
825.69	32.258
825.99	4.878
826.29	0.000
826.59	18.750
826.89	-22.581
827.19	-13.043
827.49	-22.222
827.79	-17.391
828.09	12.903
828.39	10.417
828.70	-6.250
829.00	-17.241
829.30	5.405
829.60	-20.833
829.90	18.519
830.20	3.125
830.50	36.364
830.80	-58.824
831.10	-36.364
831.40	-14.706
831.70	-3.846
832.00	42.424
832.30	11.765
832.60	37.838
832.90	-300.000
833.20	17.857
833.50	-25.000
833.80	21.053
834.10	-70.833
834.40	-36.364
834.70	-26.667
835.00	-10.000
835.30	-33.333
835.60	-33.333
835.90	23.810
836.20	-16.000
836.50	25.000
836.80	-57.895
837.10	8.108
837.40	36.667
837.70	13.043
838.00	58.333
838.30	-5.263
838.60	-110.000
838.90	-80.000
839.19	-83.333
839.49	-76.923
839.79	-5.263
840.09	-183.333
840.39	-70.000
840.69	-31.818
840.99	23.810
841.29	0.000
841.59	-53.846
841.88	-60.000
842.18	50.000
842.48	36.667
842.78	-242.857
843.08	64.286
843.38	-75.000
843.68	-56.250
843.97	64.286
844.27	-111.111
844.57	-9.091
844.87	-60.000
845.17	4.545
845.47	533.333
845.76	-20.000
846.06	-91.667
846.36	-1100.000
846.66	-73.684
846.96	-13.636
847.25	-88.889
847.55	-133.333
847.85	-42.857
848.15	0.000
848.44	-216.667
848.74	-75.000
849.04	15.385
849.34	-200.000
849.63	-145.455
849.93	-78.571
850.23	30.000
850.53	-75.000
850.82	38.889
851.12	33.333
851.42	29.412
851.71	-37.500
852.01	23.529
852.31	-69.231
852.61	500.000
852.90	29.412
853.20	26.667
853.50	43.750
853.79	-92.857
854.09	-225.000
854.39	-5.000
854.68	2.500
854.98	19.048
855.28	4.000
855.57	33.333
855.87	54.167
856.17	-8.000
856.46	18.750
856.76	-35.000
857.05	28.000
857.35	-66.667
857.65	-5.882
857.94	-100.000
858.24	-25.000
858.53	50.000
858.83	-72.727
859.13	0.000
859.42	-21.429
859.72	-25.000
860.01	25.000
860.31	-175.000
860.60	-6.250
860.90	-166.667
861.20	-83.333
861.49	-20.000
861.79	-18.750
862.08	300.000
862.38	0.000
862.67	242.857
862.97	175.000
863.26	-72.727
863.56	-54.545
863.85	-5.263
864.15	58.824
864.44	-100.000
864.74	-150.000
865.03	-66.667
865.33	7.143
865.62	121.429
865.92	-5.263
866.21	-5.556
866.51	-9.091
866.80	11.111
867.10	-87.500
867.39	25.000
867.69	0.000
867.98	-10.000
868.27	35.294
868.57	0.000
868.86	650.000
869.16	-50.000
869.45	-128.571
869.75	50.000
870.04	20.000
870.33	-100.000
870.63	15.789
870.92	-16.667
871.22	-900.000
871.51	-128.571
871.80	-166.667
872.10	-300.000
>>>>>End Processed Spectral Data<<<<<
