SpectraSuite Data File
++++++++++++++++++++++++++++++++++++
Date: Wed May 13 20:41:07 PDT 2015
User: schluterlab
Dark Spectrum Present: Yes
Reference Spectrum Present: Yes
Number of Sampled Component Spectra: 1
Spectrometers: USB2E3373
Integration Time (usec): 3000 (USB2E3373)
Spectra Averaged: 3 (USB2E3373)
Boxcar Smoothing: 0 (USB2E3373)
Correct for Electrical Dark: No (USB2E3373)
Strobe/Lamp Enabled: No (USB2E3373)
Correct for Detector Non-linearity: No (USB2E3373)
Correct for Stray Light: No (USB2E3373)
Number of Pixels in Processed Spectrum: 2048
>>>>>Begin Processed Spectral Data<<<<<
178.53	0.000
178.91	-1025.000
179.29	-875.000
179.67	-177.778
180.04	-650.000
180.42	2050.000
180.80	800.000
181.18	-500.000
181.56	500.000
181.94	0.000
182.31	-428.571
182.69	1000.000
183.07	-437.500
183.45	-300.000
183.83	372.727
184.20	-290.000
184.58	1900.000
184.96	4200.000
185.34	-660.000
185.72	-287.500
186.09	-1900.000
186.47	2050.000
186.85	1350.000
187.23	3500.000
187.61	-1166.667
187.98	1050.000
188.36	427.273
188.74	372.727
189.12	-640.000
189.49	420.000
189.87	-3600.000
190.25	-725.000
190.63	264.286
191.00	284.615
191.38	566.667
191.76	-475.000
192.14	850.000
192.51	475.000
192.89	716.667
193.27	337.500
193.65	-800.000
194.02	360.000
194.40	580.000
194.78	510.000
195.15	366.667
195.53	430.000
195.91	-1050.000
196.29	262.500
196.66	231.579
197.04	-190.000
197.42	0.000
197.79	480.000
198.17	-4200.000
198.55	442.857
198.92	550.000
199.30	680.000
199.68	0.000
200.05	244.444
200.43	628.571
200.81	2700.000
201.18	1300.000
201.56	-633.333
201.94	311.111
202.31	411.111
202.69	300.000
203.07	440.000
203.44	0.000
203.82	725.000
204.19	557.143
204.57	328.571
204.95	425.000
205.32	1133.333
205.70	390.909
206.08	342.857
206.45	2100.000
206.83	287.500
207.20	666.667
207.58	360.000
207.96	233.333
208.33	525.000
208.71	-516.667
209.08	528.571
209.46	400.000
209.84	381.818
210.21	-1100.000
210.59	1100.000
210.96	-250.000
211.34	1700.000
211.71	430.000
212.09	500.000
212.46	0.000
212.84	1233.333
213.22	1075.000
213.59	-2800.000
213.97	533.333
214.34	600.000
214.72	363.636
215.09	540.000
215.47	-1650.000
215.84	-1800.000
216.22	1166.667
216.59	314.286
216.97	875.000
217.34	381.818
217.72	-350.000
218.09	0.000
218.47	-3200.000
218.84	511.111
219.22	485.714
219.59	1233.333
219.97	-414.286
220.34	640.000
220.72	-1033.333
221.09	278.571
221.47	1000.000
221.84	-383.333
222.22	0.000
222.59	975.000
222.97	-1700.000
223.34	820.000
223.72	292.308
224.09	780.000
224.46	1950.000
224.84	-2600.000
225.21	-740.000
225.59	-2800.000
225.96	380.000
226.34	220.000
226.71	2050.000
227.08	525.000
227.46	390.000
227.83	-950.000
228.21	-2100.000
228.58	477.778
228.95	-1500.000
229.33	-1650.000
229.70	1200.000
230.08	557.143
230.45	-500.000
230.82	291.667
231.20	583.333
231.57	500.000
231.95	341.667
232.32	209.091
232.69	345.455
233.07	285.714
233.44	176.923
233.81	-1400.000
234.19	247.368
234.56	283.333
234.93	283.333
235.31	272.727
235.68	276.923
236.05	242.857
236.43	133.333
236.80	173.684
237.17	2700.000
237.55	109.524
237.92	157.143
238.29	157.143
238.67	106.452
239.04	124.138
239.41	97.222
239.79	67.391
240.16	104.762
240.53	75.000
240.91	58.824
241.28	74.000
241.65	66.000
242.02	57.971
242.40	46.774
242.77	45.000
243.14	45.161
243.51	47.191
243.89	55.294
244.26	38.889
244.63	48.387
245.00	32.979
245.38	40.594
245.75	37.383
246.12	19.266
246.49	38.686
246.87	43.200
247.24	30.000
247.61	25.714
247.98	22.222
248.36	14.189
248.73	21.019
249.10	24.841
249.47	26.554
249.84	25.668
250.22	17.647
250.59	21.893
250.96	17.677
251.33	23.697
251.70	24.752
252.08	15.238
252.45	17.937
252.82	19.130
253.19	21.277
253.56	16.078
253.94	19.917
254.31	17.969
254.68	17.308
255.05	16.236
255.42	15.041
255.79	16.912
256.16	16.606
256.54	14.841
256.91	14.235
257.28	11.871
257.65	14.851
258.02	18.323
258.39	13.249
258.76	13.043
259.14	14.583
259.51	13.982
259.88	11.180
260.25	13.595
260.62	13.006
260.99	10.870
261.36	12.312
261.73	11.461
262.10	9.884
262.47	9.577
262.85	11.699
263.22	10.541
263.59	11.396
263.96	13.462
264.33	11.227
264.70	12.105
265.07	12.276
265.44	12.879
265.81	11.436
266.18	13.317
266.55	11.951
266.92	11.794
267.29	12.269
267.66	12.385
268.03	9.091
268.40	9.346
268.77	8.353
269.14	8.559
269.51	12.415
269.88	9.324
270.25	11.738
270.62	9.888
270.99	13.548
271.36	10.300
271.73	8.645
272.10	9.130
272.47	10.538
272.84	11.472
273.21	11.950
273.58	7.424
273.95	10.273
274.32	8.471
274.69	8.994
275.06	8.071
275.43	8.723
275.80	10.421
276.17	10.387
276.54	11.435
276.91	9.881
277.28	10.547
277.65	11.605
278.02	9.110
278.39	10.547
278.76	10.727
279.13	10.189
279.50	10.987
279.87	8.566
280.23	8.782
280.60	7.544
280.97	8.318
281.34	10.265
281.71	11.273
282.08	9.597
282.45	8.000
282.82	9.591
283.19	7.487
283.56	10.000
283.92	9.306
284.29	9.700
284.66	8.711
285.03	8.318
285.40	8.451
285.77	7.407
286.14	7.081
286.51	8.500
286.87	8.376
287.24	9.609
287.61	9.952
287.98	8.442
288.35	8.241
288.72	8.879
289.08	9.077
289.45	7.578
289.82	9.268
290.19	5.965
290.56	8.270
290.93	7.251
291.29	7.822
291.66	7.080
292.03	9.448
292.40	7.636
292.77	6.065
293.13	8.507
293.50	8.017
293.87	7.407
294.24	6.519
294.60	5.386
294.97	7.849
295.34	8.604
295.71	7.102
296.08	6.695
296.44	5.777
296.81	5.945
297.18	9.485
297.55	5.673
297.91	7.256
298.28	8.300
298.65	7.441
299.02	5.929
299.38	6.375
299.75	4.178
300.12	5.236
300.48	6.250
300.85	6.412
301.22	4.459
301.59	5.303
301.95	6.423
302.32	5.392
302.69	6.452
303.05	7.394
303.42	6.173
303.79	6.455
304.15	6.061
304.52	4.867
304.89	4.762
305.25	6.381
305.62	6.229
305.99	6.730
306.35	6.823
306.72	6.166
307.09	8.546
307.45	6.869
307.82	5.357
308.19	6.954
308.55	7.335
308.92	6.552
309.29	5.385
309.65	5.938
310.02	7.400
310.38	8.387
310.75	6.019
311.12	8.086
311.48	7.106
311.85	9.434
312.22	7.388
312.58	7.173
312.95	6.441
313.31	7.379
313.68	7.692
314.05	9.763
314.41	9.246
314.78	9.063
315.14	8.739
315.51	8.857
315.87	10.099
316.24	9.037
316.61	9.454
316.97	10.861
317.34	10.372
317.70	11.855
318.07	11.646
318.43	12.133
318.80	12.371
319.16	12.994
319.53	13.133
319.89	15.429
320.26	16.000
320.62	14.782
320.99	16.768
321.35	17.071
321.72	18.172
322.08	18.855
322.45	19.204
322.81	19.186
323.18	20.039
323.54	20.501
323.91	20.000
324.27	21.893
324.64	21.808
325.00	21.551
325.37	24.386
325.73	26.122
326.10	25.419
326.46	25.179
326.83	28.041
327.19	26.046
327.56	27.352
327.92	28.346
328.29	29.104
328.65	29.650
329.01	29.603
329.38	29.325
329.74	30.563
330.11	31.574
330.47	30.946
330.84	31.710
331.20	32.787
331.56	31.743
331.93	33.241
332.29	32.476
332.66	33.451
333.02	32.815
333.38	32.791
333.75	34.670
334.11	33.719
334.48	34.161
334.84	36.029
335.20	35.727
335.57	34.905
335.93	34.554
336.29	36.081
336.66	36.339
337.02	34.480
337.38	36.111
337.75	35.829
338.11	35.094
338.47	35.175
338.84	36.205
339.20	36.239
339.56	38.321
339.93	36.182
340.29	35.779
340.65	36.096
341.02	37.086
341.38	37.811
341.74	36.842
342.11	36.681
342.47	38.767
342.83	37.158
343.20	37.576
343.56	37.405
343.92	38.246
344.28	38.946
344.65	37.747
345.01	37.290
345.37	36.535
345.73	38.071
346.10	38.107
346.46	38.559
346.82	37.315
347.19	37.594
347.55	37.274
347.91	37.379
348.27	38.784
348.63	38.043
349.00	37.379
349.36	39.655
349.72	38.332
350.08	37.439
350.45	39.870
350.81	38.830
351.17	38.250
351.53	39.230
351.89	36.469
352.26	40.016
352.62	38.412
352.98	37.763
353.34	38.373
353.70	38.134
354.07	37.823
354.43	37.937
354.79	36.846
355.15	37.909
355.51	39.728
355.87	38.612
356.24	38.518
356.60	37.530
356.96	38.697
357.32	38.348
357.68	38.189
358.04	38.955
358.40	38.876
358.77	37.872
359.13	38.200
359.49	37.098
359.85	36.587
360.21	38.915
360.57	38.366
360.93	38.769
361.29	37.415
361.66	37.771
362.02	38.060
362.38	39.620
362.74	38.839
363.10	37.232
363.46	37.491
363.82	36.659
364.18	36.931
364.54	38.484
364.90	38.173
365.26	37.868
365.62	38.130
365.98	37.546
366.35	36.605
366.71	37.889
367.07	38.237
367.43	38.099
367.79	38.116
368.15	37.787
368.51	37.209
368.87	36.688
369.23	38.332
369.59	37.654
369.95	38.088
370.31	36.895
370.67	37.899
371.03	37.603
371.39	38.192
371.75	37.353
372.11	36.344
372.47	38.343
372.83	37.536
373.19	35.766
373.55	38.285
373.91	37.408
374.27	36.289
374.63	37.018
374.99	36.935
375.35	36.497
375.71	36.326
376.07	36.077
376.42	37.276
376.78	37.111
377.14	36.296
377.50	36.225
377.86	35.106
378.22	36.346
378.58	34.586
378.94	36.015
379.30	36.450
379.66	36.865
380.02	35.872
380.38	36.126
380.74	36.375
381.09	36.064
381.45	35.710
381.81	34.705
382.17	34.904
382.53	35.220
382.89	35.988
383.25	36.210
383.61	36.679
383.97	35.272
384.32	35.621
384.68	35.564
385.04	36.447
385.40	34.923
385.76	34.951
386.12	35.427
386.48	34.865
386.83	36.754
387.19	35.622
387.55	34.694
387.91	35.187
388.27	34.641
388.62	35.648
388.98	33.907
389.34	34.668
389.70	33.844
390.06	35.108
390.42	34.955
390.77	34.415
391.13	34.907
391.49	33.820
391.85	33.418
392.20	33.060
392.56	34.280
392.92	33.726
393.28	33.432
393.64	33.153
393.99	33.720
394.35	33.375
394.71	33.124
395.07	32.336
395.42	33.251
395.78	33.969
396.14	33.271
396.50	33.709
396.85	33.503
397.21	32.306
397.57	31.556
397.92	32.873
398.28	32.231
398.64	31.123
399.00	33.352
399.35	31.585
399.71	32.292
400.07	31.106
400.42	31.963
400.78	31.604
401.14	32.439
401.49	31.642
401.85	30.974
402.21	30.898
402.57	31.154
402.92	32.156
403.28	30.918
403.63	31.312
403.99	31.529
404.35	30.909
404.70	30.096
405.06	29.703
405.42	30.381
405.77	29.886
406.13	29.571
406.49	30.455
406.84	30.715
407.20	29.728
407.55	30.057
407.91	29.667
408.27	29.675
408.62	29.320
408.98	29.596
409.34	29.397
409.69	29.548
410.05	29.740
410.40	29.174
410.76	28.614
411.11	28.287
411.47	28.115
411.83	28.406
412.18	27.953
412.54	28.643
412.89	27.892
413.25	27.922
413.60	27.918
413.96	27.505
414.31	27.339
414.67	27.440
415.03	28.146
415.38	28.544
415.74	26.881
416.09	28.347
416.45	28.246
416.80	27.958
417.16	27.346
417.51	27.273
417.87	26.397
418.22	27.066
418.58	26.727
418.93	26.720
419.29	26.544
419.64	26.637
420.00	26.524
420.35	26.667
420.71	25.702
421.06	26.611
421.42	26.023
421.77	25.504
422.12	25.435
422.48	25.634
422.83	25.510
423.19	24.972
423.54	25.131
423.90	25.623
424.25	25.014
424.61	24.821
424.96	25.364
425.31	25.138
425.67	24.494
426.02	24.000
426.38	25.824
426.73	23.932
427.09	25.046
427.44	24.324
427.79	24.382
428.15	24.821
428.50	24.108
428.85	24.732
429.21	23.081
429.56	24.572
429.92	23.201
430.27	24.032
430.62	22.837
430.98	23.404
431.33	24.021
431.68	23.508
432.04	22.950
432.39	23.587
432.74	22.920
433.10	23.147
433.45	23.324
433.80	23.004
434.16	22.543
434.51	22.947
434.86	22.919
435.22	22.513
435.57	22.857
435.92	21.299
436.28	21.945
436.63	22.572
436.98	22.324
437.34	23.017
437.69	23.221
438.04	22.597
438.39	21.254
438.75	22.313
439.10	22.235
439.45	21.606
439.81	21.511
440.16	21.796
440.51	21.851
440.86	22.061
441.22	21.468
441.57	21.497
441.92	22.313
442.27	20.452
442.63	21.801
442.98	21.690
443.33	21.250
443.68	21.270
444.03	21.035
444.39	20.253
444.74	20.671
445.09	20.485
445.44	20.284
445.79	20.534
446.15	20.646
446.50	20.679
446.85	20.504
447.20	21.214
447.55	20.715
447.91	20.298
448.26	20.423
448.61	20.633
448.96	20.487
449.31	20.866
449.66	20.709
450.02	20.279
450.37	20.635
450.72	20.079
451.07	19.805
451.42	19.027
451.77	20.728
452.12	20.035
452.47	19.216
452.83	20.047
453.18	19.010
453.53	20.161
453.88	19.551
454.23	19.785
454.58	20.715
454.93	19.708
455.28	19.264
455.63	18.811
455.98	20.000
456.34	18.970
456.69	19.599
457.04	18.947
457.39	18.819
457.74	18.804
458.09	18.574
458.44	18.928
458.79	18.221
459.14	19.470
459.49	19.031
459.84	18.172
460.19	17.737
460.54	18.403
460.89	18.486
461.24	18.397
461.59	19.524
461.94	18.496
462.29	18.516
462.64	17.932
462.99	17.892
463.34	18.800
463.69	17.886
464.04	18.087
464.39	18.435
464.74	18.004
465.09	17.370
465.44	17.285
465.79	18.289
466.14	16.913
466.49	17.186
466.84	18.039
467.19	16.777
467.54	17.813
467.89	17.527
468.24	17.568
468.59	17.705
468.94	17.288
469.29	17.545
469.64	18.206
469.99	16.644
470.34	16.182
470.68	17.313
471.03	17.211
471.38	17.373
471.73	16.722
472.08	18.092
472.43	16.834
472.78	15.339
473.13	16.175
473.48	16.916
473.83	16.890
474.17	16.677
474.52	16.935
474.87	16.521
475.22	16.367
475.57	15.637
475.92	15.082
476.27	15.558
476.61	16.327
476.96	15.723
477.31	16.013
477.66	16.193
478.01	15.578
478.36	16.235
478.70	15.472
479.05	15.335
479.40	15.302
479.75	15.404
480.10	14.861
480.45	14.850
480.79	14.381
481.14	14.677
481.49	15.662
481.84	14.723
482.19	15.220
482.53	15.688
482.88	14.425
483.23	15.514
483.58	15.105
483.92	15.558
484.27	13.769
484.62	14.957
484.97	14.111
485.31	14.178
485.66	13.324
486.01	13.265
486.36	13.068
486.70	13.214
487.05	13.509
487.40	13.177
487.75	13.417
488.09	13.861
488.44	13.943
488.79	14.033
489.13	14.018
489.48	13.377
489.83	14.372
490.17	14.292
490.52	13.950
490.87	13.388
491.22	13.961
491.56	13.394
491.91	13.774
492.26	13.505
492.60	13.917
492.95	13.050
493.30	13.505
493.64	13.346
493.99	12.953
494.34	14.339
494.68	13.324
495.03	14.239
495.37	13.588
495.72	12.963
496.07	13.689
496.41	13.097
496.76	13.281
497.11	13.462
497.45	13.367
497.80	13.484
498.14	13.478
498.49	13.171
498.84	13.039
499.18	13.429
499.53	12.393
499.87	13.420
500.22	12.435
500.56	14.078
500.91	13.029
501.26	13.514
501.60	13.811
501.95	12.878
502.29	13.308
502.64	13.408
502.98	13.043
503.33	12.980
503.67	12.297
504.02	13.096
504.36	12.962
504.71	12.360
505.06	13.012
505.40	13.029
505.75	12.440
506.09	12.245
506.44	12.778
506.78	12.226
507.13	12.620
507.47	13.030
507.82	13.526
508.16	12.715
508.51	12.481
508.85	12.115
509.19	12.653
509.54	12.296
509.88	12.107
510.23	12.596
510.57	12.745
510.92	12.791
511.26	11.973
511.61	12.707
511.95	12.109
512.30	11.612
512.64	11.822
512.98	13.183
513.33	12.901
513.67	12.166
514.02	12.013
514.36	13.162
514.70	12.230
515.05	11.768
515.39	12.787
515.74	12.725
516.08	12.912
516.42	12.209
516.77	12.821
517.11	12.375
517.46	12.810
517.80	12.427
518.14	12.391
518.49	11.960
518.83	12.159
519.17	12.067
519.52	12.394
519.86	12.835
520.20	12.543
520.55	12.687
520.89	12.713
521.23	13.209
521.58	12.785
521.92	12.492
522.26	12.081
522.61	12.523
522.95	12.093
523.29	12.234
523.64	11.951
523.98	12.446
524.32	12.364
524.66	12.447
525.01	13.051
525.35	11.834
525.69	11.515
526.04	12.586
526.38	12.630
526.72	12.147
527.06	12.116
527.41	11.881
527.75	12.605
528.09	12.524
528.43	11.918
528.78	11.494
529.12	11.939
529.46	12.676
529.80	12.438
530.15	12.523
530.49	10.892
530.83	12.468
531.17	12.533
531.51	12.451
531.86	12.581
532.20	12.060
532.54	11.980
532.88	11.617
533.22	11.181
533.57	11.790
533.91	11.921
534.25	12.151
534.59	11.287
534.93	11.541
535.27	10.863
535.62	12.393
535.96	11.739
536.30	11.252
536.64	12.492
536.98	12.210
537.32	11.784
537.66	11.667
538.01	11.192
538.35	10.795
538.69	12.189
539.03	11.241
539.37	11.054
539.71	9.981
540.05	11.699
540.39	11.296
540.73	11.190
541.07	12.459
541.42	11.676
541.76	11.742
542.10	11.384
542.44	10.927
542.78	12.319
543.12	9.917
543.46	11.279
543.80	11.451
544.14	11.040
544.48	11.238
544.82	11.161
545.16	11.386
545.50	11.183
545.84	11.358
546.18	11.785
546.52	11.425
546.86	11.271
547.20	11.531
547.54	11.289
547.88	11.671
548.22	10.399
548.56	11.069
548.90	11.076
549.24	11.717
549.58	12.005
549.92	11.676
550.26	11.151
550.60	11.618
550.94	11.056
551.28	10.388
551.62	11.215
551.96	11.649
552.30	11.877
552.64	11.291
552.98	11.525
553.32	11.935
553.66	11.247
554.00	11.325
554.34	10.835
554.68	11.445
555.02	11.566
555.36	11.343
555.69	10.149
556.03	11.306
556.37	10.300
556.71	10.095
557.05	9.944
557.39	10.427
557.73	11.009
558.07	10.587
558.41	10.709
558.75	11.389
559.08	11.931
559.42	10.506
559.76	10.882
560.10	10.350
560.44	10.482
560.78	10.379
561.12	11.082
561.45	11.343
561.79	10.547
562.13	10.597
562.47	11.202
562.81	10.600
563.15	11.304
563.48	11.273
563.82	9.850
564.16	10.399
564.50	10.352
564.84	10.114
565.17	10.232
565.51	10.671
565.85	10.723
566.19	9.831
566.52	10.830
566.86	10.609
567.20	10.790
567.54	9.703
567.88	9.343
568.21	9.947
568.55	10.364
568.89	9.922
569.23	9.135
569.56	9.433
569.90	9.623
570.24	9.114
570.57	9.249
570.91	8.824
571.25	8.586
571.59	8.954
571.92	8.669
572.26	8.723
572.60	8.438
572.93	8.636
573.27	8.666
573.61	8.571
573.95	8.889
574.28	8.141
574.62	8.285
574.96	8.363
575.29	8.560
575.63	8.460
575.97	8.227
576.30	8.736
576.64	8.390
576.98	8.629
577.31	8.526
577.65	8.382
577.98	8.203
578.32	8.102
578.66	8.302
578.99	8.194
579.33	8.013
579.67	7.906
580.00	8.343
580.34	8.234
580.67	8.414
581.01	8.500
581.35	7.916
581.68	7.978
582.02	7.994
582.35	8.101
582.69	8.111
583.02	8.349
583.36	8.231
583.70	8.467
584.03	8.464
584.37	8.696
584.70	8.307
585.04	8.195
585.37	8.667
585.71	8.247
586.04	8.190
586.38	8.177
586.72	8.644
587.05	8.286
587.39	8.311
587.72	8.245
588.06	8.164
588.39	8.176
588.73	8.360
589.06	8.570
589.40	8.485
589.73	8.976
590.07	8.399
590.40	8.221
590.73	8.626
591.07	8.751
591.40	9.363
591.74	9.004
592.07	9.075
592.41	8.888
592.74	8.277
593.08	8.661
593.41	8.447
593.75	8.370
594.08	8.649
594.41	8.731
594.75	8.392
595.08	8.769
595.42	8.336
595.75	8.547
596.09	9.275
596.42	9.155
596.75	8.822
597.09	9.307
597.42	8.811
597.75	8.452
598.09	8.565
598.42	8.806
598.76	8.310
599.09	8.704
599.42	8.552
599.76	8.858
600.09	8.306
600.42	8.364
600.76	8.643
601.09	8.634
601.42	7.953
601.76	8.463
602.09	8.063
602.42	8.917
602.76	8.746
603.09	8.301
603.42	8.981
603.76	8.422
604.09	8.647
604.42	9.009
604.76	8.899
605.09	8.475
605.42	8.508
605.75	9.023
606.09	7.767
606.42	8.582
606.75	8.627
607.09	9.041
607.42	8.216
607.75	7.722
608.08	8.597
608.42	9.278
608.75	8.972
609.08	8.834
609.41	8.567
609.75	9.195
610.08	8.671
610.41	8.892
610.74	8.325
611.07	8.745
611.41	8.930
611.74	9.502
612.07	9.420
612.40	9.077
612.73	9.211
613.07	9.267
613.40	9.426
613.73	8.495
614.06	9.032
614.39	8.705
614.72	9.000
615.06	8.718
615.39	8.174
615.72	8.538
616.05	8.719
616.38	9.950
616.71	9.264
617.05	9.305
617.38	9.441
617.71	8.949
618.04	9.375
618.37	9.225
618.70	9.832
619.03	9.539
619.36	10.115
619.69	9.085
620.03	9.753
620.36	9.893
620.69	10.205
621.02	10.693
621.35	9.867
621.68	9.579
622.01	9.752
622.34	10.590
622.67	9.202
623.00	9.244
623.33	9.149
623.66	9.793
623.99	9.573
624.32	10.200
624.65	8.969
624.99	9.703
625.32	9.341
625.65	9.692
625.98	9.454
626.31	9.953
626.64	10.449
626.97	9.975
627.30	8.811
627.63	10.911
627.96	10.765
628.29	10.499
628.62	11.162
628.95	11.509
629.28	11.496
629.61	11.091
629.94	9.714
630.26	10.296
630.59	10.010
630.92	11.303
631.25	9.872
631.58	11.011
631.91	10.142
632.24	10.759
632.57	10.913
632.90	10.855
633.23	9.732
633.56	11.186
633.89	12.118
634.22	11.351
634.55	11.124
634.88	10.539
635.20	11.470
635.53	12.530
635.86	11.510
636.19	10.588
636.52	10.611
636.85	12.142
637.18	10.369
637.51	12.884
637.83	10.111
638.16	12.020
638.49	11.839
638.82	12.516
639.15	10.500
639.48	13.342
639.81	13.673
640.13	15.104
640.46	11.812
640.79	13.474
641.12	10.316
641.45	10.754
641.77	11.782
642.10	12.865
642.43	11.261
642.76	12.074
643.09	13.344
643.41	11.836
643.74	12.500
644.07	12.500
644.40	12.883
644.73	15.433
645.05	12.837
645.38	11.532
645.71	12.721
646.04	12.791
646.36	13.356
646.69	13.712
647.02	10.374
647.35	12.027
647.67	12.389
648.00	14.146
648.33	12.376
648.66	11.061
648.98	12.894
649.31	12.407
649.64	12.556
649.96	11.773
650.29	11.690
650.62	13.754
650.94	12.642
651.27	13.514
651.60	12.646
651.92	12.620
652.25	12.378
652.58	12.461
652.90	13.428
653.23	10.632
653.56	13.386
653.88	13.154
654.21	13.902
654.54	12.376
654.86	12.773
655.19	9.865
655.52	7.292
655.84	5.932
656.17	7.302
656.49	9.775
656.82	9.956
657.15	7.726
657.47	6.000
657.80	4.640
658.13	4.592
658.45	7.010
658.78	7.182
659.10	7.743
659.43	7.862
659.75	8.173
660.08	8.418
660.41	9.404
660.73	13.215
661.06	11.624
661.38	14.000
661.71	13.846
662.03	13.609
662.36	12.326
662.68	13.454
663.01	14.747
663.33	14.225
663.66	14.286
663.98	14.039
664.31	11.345
664.63	13.360
664.96	13.078
665.28	13.320
665.61	11.501
665.93	11.469
666.26	15.416
666.58	15.063
666.91	14.376
667.23	14.607
667.56	12.311
667.88	16.026
668.21	16.418
668.53	13.449
668.86	14.935
669.18	15.991
669.50	16.304
669.83	17.865
670.15	13.333
670.48	11.983
670.80	15.086
671.13	15.287
671.45	12.979
671.77	15.071
672.10	13.678
672.42	13.604
672.75	11.940
673.07	12.676
673.39	12.297
673.72	12.109
674.04	13.922
674.37	12.233
674.69	12.270
675.01	12.971
675.34	16.016
675.66	15.368
675.98	14.257
676.31	14.706
676.63	14.013
676.95	14.465
677.28	13.318
677.60	15.165
677.92	16.667
678.25	14.168
678.57	13.147
678.89	12.425
679.22	12.770
679.54	13.550
679.86	13.578
680.18	11.449
680.51	13.652
680.83	14.057
681.15	13.208
681.48	15.501
681.80	13.153
682.12	13.027
682.44	10.832
682.77	13.646
683.09	13.090
683.41	15.965
683.73	14.349
684.06	15.496
684.38	13.307
684.70	12.984
685.02	16.886
685.34	14.103
685.67	11.364
685.99	13.574
686.31	11.433
686.63	10.601
686.96	11.786
687.28	14.260
687.60	13.406
687.92	13.346
688.24	11.407
688.56	15.261
688.89	15.975
689.21	13.974
689.53	16.493
689.85	16.186
690.17	13.458
690.49	16.348
690.82	14.019
691.14	11.830
691.46	10.759
691.78	14.659
692.10	12.397
692.42	15.170
692.74	9.959
693.06	12.340
693.39	14.990
693.71	12.445
694.03	15.789
694.35	12.987
694.67	14.416
694.99	13.659
695.31	12.990
695.63	14.115
695.95	13.203
696.27	13.959
696.59	14.249
696.91	14.508
697.23	12.676
697.56	13.646
697.88	10.225
698.20	13.750
698.52	14.839
698.84	14.477
699.16	12.673
699.48	16.390
699.80	14.734
700.12	16.623
700.44	14.854
700.76	15.193
701.08	13.793
701.40	16.760
701.72	17.201
702.04	23.580
702.36	10.765
702.68	17.280
703.00	13.573
703.32	15.426
703.64	14.209
703.96	13.092
704.28	13.663
704.60	18.182
704.91	18.694
705.23	14.663
705.55	16.611
705.87	17.940
706.19	18.728
706.51	16.511
706.83	22.727
707.15	15.966
707.47	14.646
707.79	16.953
708.11	14.840
708.43	15.714
708.74	11.480
709.06	16.104
709.38	14.961
709.70	15.988
710.02	16.914
710.34	15.152
710.66	21.194
710.98	17.898
711.29	17.442
711.61	21.239
711.93	17.628
712.25	21.543
712.57	16.176
712.89	16.263
713.20	19.149
713.52	17.105
713.84	16.456
714.16	17.683
714.48	16.092
714.80	18.845
715.11	15.562
715.43	15.134
715.75	16.232
716.07	14.696
716.39	17.555
716.70	15.947
717.02	18.345
717.34	17.314
717.66	21.642
717.97	21.912
718.29	21.481
718.61	16.788
718.93	22.426
719.24	19.723
719.56	16.610
719.88	18.983
720.20	22.635
720.51	18.467
720.83	22.305
721.15	14.179
721.46	19.858
721.78	17.563
722.10	19.623
722.42	20.677
722.73	20.599
723.05	17.213
723.37	17.004
723.68	19.305
724.00	16.260
724.32	22.177
724.63	23.984
724.95	20.084
725.27	21.862
725.58	21.875
725.90	22.993
726.22	16.981
726.53	19.097
726.85	20.819
727.16	16.370
727.48	16.667
727.80	19.697
728.11	18.116
728.43	17.692
728.74	17.921
729.06	26.642
729.38	19.853
729.69	18.861
730.01	19.113
730.32	18.056
730.64	16.722
730.96	14.521
731.27	17.550
731.59	15.291
731.90	18.367
732.22	20.186
732.53	13.313
732.85	18.269
733.16	15.113
733.48	17.608
733.80	17.857
734.11	17.516
734.43	17.160
734.74	13.714
735.06	14.040
735.37	23.121
735.69	14.013
736.00	16.993
736.32	17.134
736.63	15.974
736.95	16.294
737.26	11.224
737.58	17.097
737.89	22.408
738.21	19.113
738.52	15.357
738.83	16.226
739.15	16.154
739.46	19.708
739.78	17.361
740.09	16.000
740.41	19.032
740.72	18.467
741.04	15.556
741.35	21.667
741.66	25.778
741.98	19.811
742.29	22.488
742.61	24.138
742.92	19.910
743.23	23.504
743.55	22.000
743.86	23.246
744.18	26.549
744.49	22.967
744.80	21.596
745.12	20.455
745.43	22.026
745.74	23.423
746.06	22.018
746.37	21.525
746.68	16.742
747.00	21.296
747.31	24.286
747.62	15.929
747.94	20.705
748.25	16.596
748.56	22.467
748.88	16.337
749.19	26.000
749.50	25.116
749.82	25.610
750.13	16.735
750.44	18.613
750.75	18.947
751.07	20.900
751.38	18.467
751.69	18.051
752.01	19.173
752.32	19.134
752.63	18.440
752.94	19.672
753.26	22.000
753.57	14.634
753.88	28.516
754.19	18.214
754.51	21.181
754.82	16.245
755.13	19.623
755.44	19.173
755.75	16.423
756.07	15.957
756.38	14.599
756.69	19.128
757.00	17.964
757.31	19.585
757.63	17.251
757.94	16.086
758.25	14.706
758.56	14.321
758.87	15.591
759.18	15.152
759.50	14.420
759.81	14.953
760.12	14.687
760.43	16.905
760.74	13.315
761.05	18.927
761.36	14.439
761.67	16.761
761.99	14.596
762.30	15.278
762.61	17.557
762.92	19.922
763.23	16.387
763.54	25.600
763.85	17.187
764.16	20.385
764.47	17.110
764.78	15.901
765.10	14.873
765.41	19.764
765.72	17.365
766.03	19.122
766.34	15.333
766.65	18.298
766.96	15.812
767.27	25.381
767.58	19.271
767.89	24.737
768.20	26.437
768.51	27.919
768.82	24.312
769.13	18.293
769.44	18.219
769.75	20.172
770.06	15.138
770.37	21.267
770.68	21.296
770.99	21.778
771.30	19.262
771.61	24.664
771.92	20.082
772.23	22.689
772.54	25.128
772.85	30.366
773.16	29.787
773.47	27.717
773.78	28.934
774.09	22.024
774.39	28.655
774.70	26.543
775.01	33.333
775.32	33.333
775.63	25.658
775.94	25.180
776.25	40.945
776.56	32.836
776.87	25.410
777.18	25.781
777.48	45.038
777.79	32.576
778.10	31.111
778.41	37.500
778.72	35.036
779.03	30.872
779.34	34.228
779.65	29.730
779.95	25.153
780.26	35.948
780.57	35.172
780.88	41.406
781.19	31.579
781.50	35.811
781.80	29.560
782.11	24.859
782.42	25.949
782.73	24.540
783.04	31.757
783.34	28.169
783.65	34.247
783.96	31.343
784.27	30.070
784.57	22.302
784.88	19.444
785.19	38.889
785.50	37.736
785.81	39.552
786.11	31.148
786.42	34.884
786.73	28.319
787.04	37.736
787.34	45.536
787.65	44.000
787.96	39.640
788.26	30.579
788.57	39.831
788.88	38.843
789.19	36.806
789.49	42.424
789.80	29.771
790.11	42.857
790.41	47.525
790.72	38.554
791.03	46.739
791.33	38.372
791.64	44.330
791.95	47.525
792.25	50.000
792.56	54.545
792.87	53.846
793.17	68.354
793.48	49.425
793.79	55.172
794.09	46.591
794.40	36.975
794.70	42.647
795.01	35.556
795.32	33.094
795.62	33.071
795.93	41.379
796.23	43.363
796.54	38.824
796.85	54.054
797.15	70.423
797.46	62.121
797.76	57.831
798.07	51.899
798.37	53.846
798.68	57.576
798.99	39.437
799.29	50.649
799.60	50.000
799.90	61.644
800.21	73.134
800.51	72.414
800.82	61.404
801.12	50.820
801.43	71.212
801.73	59.459
802.04	57.143
802.34	70.370
802.65	70.312
802.95	66.102
803.26	67.187
803.56	54.286
803.87	52.308
804.17	61.765
804.48	77.778
804.78	46.552
805.09	67.647
805.39	46.154
805.70	58.929
806.00	77.049
806.30	60.606
806.61	60.976
806.91	32.911
807.22	48.684
807.52	38.806
807.83	61.972
808.13	56.250
808.43	68.333
808.74	50.000
809.04	65.217
809.35	62.687
809.65	53.947
809.95	70.968
810.26	64.407
810.56	60.317
810.86	81.818
811.17	88.095
811.47	71.667
811.77	61.111
812.08	60.000
812.38	76.000
812.69	86.111
812.99	109.091
813.29	71.429
813.59	64.286
813.90	77.551
814.20	52.727
814.50	52.308
814.81	63.235
815.11	67.347
815.41	81.967
815.72	80.952
816.02	69.091
816.32	95.238
816.62	80.000
816.93	63.415
817.23	80.952
817.53	81.818
817.84	109.091
818.14	71.739
818.44	108.889
818.74	120.588
819.04	92.500
819.35	114.286
819.65	100.000
819.95	114.286
820.25	135.000
820.56	102.564
820.86	109.091
821.16	95.349
821.46	69.231
821.76	92.000
822.07	100.000
822.37	112.500
822.67	139.394
822.97	88.235
823.27	146.429
823.57	116.216
823.88	112.500
824.18	103.333
824.48	107.143
824.78	148.000
825.08	62.500
825.38	105.405
825.69	100.000
825.99	158.333
826.29	110.345
826.59	102.632
826.89	94.737
827.19	108.824
827.49	132.258
827.79	113.636
828.09	77.273
828.39	82.979
828.70	81.633
829.00	88.889
829.30	116.129
829.60	92.500
829.90	100.000
830.20	117.857
830.50	130.435
830.80	126.087
831.10	133.333
831.40	130.000
831.70	73.913
832.00	161.538
832.30	111.111
832.60	231.250
832.90	143.333
833.20	257.143
833.50	132.258
833.80	127.586
834.10	134.375
834.40	157.692
834.70	244.444
835.00	180.952
835.30	105.714
835.60	161.538
835.90	131.034
836.20	192.857
836.50	137.931
836.80	148.000
837.10	100.000
837.40	142.857
837.70	217.647
838.00	125.926
838.30	147.619
838.60	214.286
838.90	161.538
839.19	200.000
839.49	307.143
839.79	220.000
840.09	205.000
840.39	171.429
840.69	165.217
840.99	200.000
841.29	260.000
841.59	200.000
841.88	237.500
842.18	117.241
842.48	223.810
842.78	136.667
843.08	169.565
843.38	134.375
843.68	550.000
843.97	150.000
844.27	127.586
844.57	219.048
844.87	225.000
845.17	162.963
845.47	1366.667
845.76	322.222
846.06	200.000
846.36	375.000
846.66	235.714
846.96	200.000
847.25	181.818
847.55	272.727
847.85	186.957
848.15	270.000
848.44	235.714
848.74	222.222
849.04	211.765
849.34	450.000
849.63	115.789
849.93	336.364
850.23	720.000
850.53	235.714
850.82	1250.000
851.12	-3100.000
851.42	3000.000
851.71	220.000
852.01	-833.333
852.31	162.500
852.61	1233.333
852.90	176.190
853.20	172.000
853.50	235.294
853.79	166.667
854.09	129.167
854.39	243.750
854.68	137.838
854.98	132.258
855.28	110.000
855.57	186.207
855.87	100.000
856.17	163.158
856.46	106.667
856.76	200.000
857.05	172.414
857.35	133.333
857.65	266.667
857.94	130.435
858.24	176.923
858.53	225.000
858.83	200.000
859.13	246.667
859.42	0.000
859.72	255.556
860.01	227.273
860.31	145.455
860.60	189.474
860.90	156.522
861.20	344.444
861.49	300.000
861.79	-3400.000
862.08	475.000
862.38	200.000
862.67	215.385
862.97	258.824
863.26	311.111
863.56	261.111
863.85	391.667
864.15	437.500
864.44	253.333
864.74	583.333
865.03	462.500
865.33	226.316
865.62	300.000
865.92	330.769
866.21	258.333
866.51	0.000
866.80	290.909
867.10	920.000
867.39	300.000
867.69	381.818
867.98	168.421
868.27	381.818
868.57	194.737
868.86	-3400.000
869.16	225.000
869.45	850.000
869.75	-2900.000
870.04	283.333
870.33	471.429
870.63	375.000
870.92	1650.000
871.22	500.000
871.51	211.765
871.80	157.143
872.10	242.857
>>>>>End Processed Spectral Data<<<<<
