SpectraSuite Data File
++++++++++++++++++++++++++++++++++++
Date: Wed May 13 21:05:25 PDT 2015
User: schluterlab
Dark Spectrum Present: Yes
Reference Spectrum Present: Yes
Number of Sampled Component Spectra: 1
Spectrometers: USB2E3373
Integration Time (usec): 3000 (USB2E3373)
Spectra Averaged: 3 (USB2E3373)
Boxcar Smoothing: 0 (USB2E3373)
Correct for Electrical Dark: No (USB2E3373)
Strobe/Lamp Enabled: No (USB2E3373)
Correct for Detector Non-linearity: No (USB2E3373)
Correct for Stray Light: No (USB2E3373)
Number of Pixels in Processed Spectrum: 2048
>>>>>Begin Processed Spectral Data<<<<<
178.53	0.000
178.91	250.000
179.29	175.000
179.67	-500.000
180.04	-166.667
180.42	200.000
180.80	1800.000
181.18	316.667
181.56	-200.000
181.94	-75.000
182.31	-18.182
182.69	123.077
183.07	-200.000
183.45	133.333
183.83	133.333
184.20	85.714
184.58	-33.333
184.96	300.000
185.34	14.286
185.72	0.000
186.09	300.000
186.47	-160.000
186.85	20.000
187.23	400.000
187.61	400.000
187.98	1900.000
188.36	-12.500
188.74	0.000
189.12	-90.909
189.49	-30.000
189.87	175.000
190.25	180.000
190.63	700.000
191.00	60.000
191.38	140.000
191.76	225.000
192.14	133.333
192.51	26.316
192.89	300.000
193.27	250.000
193.65	20.000
194.02	190.909
194.40	220.000
194.78	0.000
195.15	100.000
195.53	-200.000
195.91	25.000
196.29	0.000
196.66	0.000
197.04	300.000
197.42	60.000
197.79	70.000
198.17	-175.000
198.55	-333.333
198.92	50.000
199.30	66.667
199.68	20.000
200.05	400.000
200.43	116.667
200.81	-100.000
201.18	-180.000
201.56	-133.333
201.94	525.000
202.31	30.435
202.69	-128.571
203.07	-400.000
203.44	-80.000
203.82	-100.000
204.19	-20.000
204.57	0.000
204.95	-100.000
205.32	0.000
205.70	-200.000
206.08	-125.000
206.45	-83.333
206.83	175.000
207.20	-233.333
207.58	-40.000
207.96	-900.000
208.33	-185.714
208.71	-1200.000
209.08	162.500
209.46	500.000
209.84	0.000
210.21	180.000
210.59	1100.000
210.96	260.000
211.34	1200.000
211.71	-800.000
212.09	-83.333
212.46	-150.000
212.84	100.000
213.22	50.000
213.59	-900.000
213.97	-50.000
214.34	-550.000
214.72	46.154
215.09	150.000
215.47	55.556
215.84	400.000
216.22	-137.500
216.59	50.000
216.97	333.333
217.34	133.333
217.72	0.000
218.09	300.000
218.47	-200.000
218.84	-114.286
219.22	-100.000
219.59	-400.000
219.97	-250.000
220.34	-87.500
220.72	-20.000
221.09	0.000
221.47	0.000
221.84	200.000
222.22	0.000
222.59	300.000
222.97	100.000
223.34	-8.333
223.72	-1100.000
224.09	-600.000
224.46	-81.818
224.84	-25.000
225.21	-57.143
225.59	-50.000
225.96	16.667
226.34	-20.000
226.71	-42.857
227.08	350.000
227.46	-87.500
227.83	100.000
228.21	-25.000
228.58	-400.000
228.95	41.176
229.33	18.750
229.70	-50.000
230.08	0.000
230.45	-100.000
230.82	-108.333
231.20	114.286
231.57	-400.000
231.95	1200.000
232.32	83.333
232.69	-11.765
233.07	-900.000
233.44	-13.043
233.81	-350.000
234.19	0.000
234.56	-13.333
234.93	73.333
235.31	21.053
235.68	-76.923
236.05	-61.538
236.43	-27.778
236.80	6.061
237.17	-40.000
237.55	-76.471
237.92	-31.034
238.29	-40.741
238.67	2.778
239.04	-9.677
239.41	0.000
239.79	6.383
240.16	-6.977
240.53	-17.857
240.91	0.000
241.28	26.786
241.65	8.065
242.02	-6.579
242.40	-4.348
242.77	4.348
243.14	-5.128
243.51	-2.128
243.89	5.769
244.26	16.981
244.63	-0.962
245.00	12.500
245.38	8.403
245.75	-0.820
246.12	12.782
246.49	2.439
246.87	-4.202
247.24	14.865
247.61	3.311
247.98	5.128
248.36	9.467
248.73	5.618
249.10	10.606
249.47	10.215
249.84	12.105
250.22	11.443
250.59	4.673
250.96	11.364
251.33	1.914
251.70	14.644
252.08	6.276
252.45	8.230
252.82	12.928
253.19	6.226
253.56	6.475
253.94	14.591
254.31	11.972
254.68	13.758
255.05	11.551
255.42	8.392
255.79	9.816
256.16	12.618
256.54	11.429
256.91	8.228
257.28	10.063
257.65	7.962
258.02	5.572
258.39	12.281
258.76	9.302
259.14	9.091
259.51	10.112
259.88	10.027
260.25	8.611
260.62	10.674
260.99	12.997
261.36	12.953
261.73	10.370
262.10	10.941
262.47	10.864
262.85	10.199
263.22	9.744
263.59	8.571
263.96	10.462
264.33	8.654
264.70	10.698
265.07	12.269
265.44	14.713
265.81	10.526
266.18	13.895
266.55	9.825
266.92	12.288
267.29	11.934
267.66	9.979
268.03	12.551
268.40	10.381
268.77	11.157
269.14	11.837
269.51	13.758
269.88	9.776
270.25	11.653
270.62	10.451
270.99	12.598
271.36	13.294
271.73	10.643
272.10	10.286
272.47	12.092
272.84	10.827
273.21	10.568
273.58	9.631
273.95	10.377
274.32	11.754
274.69	10.200
275.06	11.661
275.43	8.851
275.80	11.525
276.17	10.681
276.54	10.124
276.91	11.150
277.28	7.942
277.65	12.413
278.02	11.429
278.39	9.769
278.76	10.870
279.13	10.978
279.50	11.034
279.87	10.688
280.23	10.270
280.60	10.208
280.97	8.929
281.34	13.091
281.71	11.220
282.08	10.427
282.45	10.820
282.82	10.383
283.19	10.823
283.56	10.469
283.92	11.468
284.29	10.764
284.66	9.885
285.03	9.772
285.40	9.668
285.77	10.961
286.14	10.790
286.51	12.594
286.87	10.462
287.24	9.882
287.61	10.994
287.98	11.618
288.35	8.048
288.72	10.617
289.08	11.254
289.45	9.251
289.82	10.439
290.19	11.220
290.56	9.517
290.93	9.392
291.29	8.892
291.66	9.290
292.03	10.082
292.40	7.941
292.77	8.969
293.13	9.066
293.50	11.373
293.87	8.933
294.24	10.185
294.60	10.013
294.97	9.524
295.34	7.784
295.71	8.541
296.08	8.639
296.44	9.566
296.81	9.622
297.18	9.750
297.55	8.491
297.91	10.062
298.28	8.959
298.65	7.020
299.02	8.669
299.38	8.834
299.75	8.774
300.12	8.721
300.48	8.070
300.85	7.852
301.22	8.479
301.59	7.394
301.95	8.130
302.32	8.168
302.69	7.119
303.05	7.641
303.42	8.182
303.79	9.569
304.15	8.762
304.52	8.710
304.89	8.306
305.25	6.476
305.62	7.918
305.99	9.576
306.35	8.673
306.72	9.563
307.09	8.655
307.45	8.520
307.82	7.579
308.19	7.524
308.55	7.779
308.92	9.136
309.29	7.808
309.65	8.192
310.02	7.555
310.38	7.825
310.75	7.396
311.12	7.094
311.48	7.913
311.85	8.760
312.22	8.317
312.58	7.633
312.95	7.960
313.31	8.264
313.68	8.683
314.05	9.168
314.41	8.453
314.78	9.962
315.14	9.352
315.51	9.324
315.87	9.546
316.24	8.999
316.61	9.406
316.97	8.333
317.34	8.111
317.70	10.526
318.07	10.382
318.43	9.395
318.80	10.384
319.16	9.284
319.53	9.409
319.89	9.846
320.26	10.536
320.62	9.917
320.99	9.981
321.35	10.103
321.72	11.453
322.08	11.439
322.45	12.488
322.81	12.200
323.18	12.612
323.54	12.726
323.91	12.737
324.27	13.501
324.64	12.369
325.00	12.686
325.37	13.993
325.73	13.131
326.10	14.718
326.46	13.963
326.83	14.078
327.19	15.203
327.56	15.068
327.92	15.125
328.29	16.277
328.65	15.337
329.01	14.336
329.38	16.087
329.74	16.738
330.11	15.149
330.47	15.972
330.84	15.253
331.20	16.311
331.56	15.127
331.93	17.399
332.29	16.334
332.66	17.458
333.02	16.507
333.38	18.070
333.75	16.212
334.11	17.795
334.48	16.303
334.84	17.138
335.20	16.724
335.57	16.710
335.93	16.495
336.29	16.900
336.66	17.179
337.02	17.130
337.38	17.406
337.75	17.227
338.11	16.311
338.47	17.723
338.84	16.495
339.20	17.637
339.56	17.491
339.93	17.545
340.29	17.506
340.65	16.168
341.02	17.055
341.38	17.061
341.74	17.059
342.11	17.258
342.47	17.071
342.83	16.095
343.20	17.343
343.56	17.498
343.92	18.034
344.28	17.776
344.65	17.143
345.01	17.030
345.37	16.530
345.73	18.056
346.10	17.817
346.46	17.236
346.82	16.132
347.19	17.801
347.55	18.336
347.91	18.161
348.27	17.114
348.63	18.269
349.00	17.217
349.36	17.818
349.72	17.247
350.08	18.175
350.45	17.384
350.81	18.153
351.17	19.015
351.53	17.675
351.89	17.554
352.26	17.375
352.62	17.984
352.98	17.891
353.34	17.955
353.70	17.757
354.07	18.118
354.43	18.740
354.79	18.189
355.15	18.634
355.51	18.375
355.87	16.966
356.24	18.058
356.60	18.374
356.96	19.110
357.32	17.957
357.68	17.800
358.04	18.231
358.40	19.922
358.77	18.884
359.13	18.988
359.49	18.622
359.85	19.864
360.21	18.890
360.57	18.555
360.93	18.285
361.29	19.245
361.66	19.590
362.02	18.829
362.38	18.833
362.74	19.652
363.10	18.727
363.46	20.317
363.82	18.921
364.18	18.564
364.54	19.767
364.90	18.746
365.26	19.038
365.62	19.176
365.98	19.502
366.35	20.213
366.71	20.613
367.07	20.482
367.43	19.512
367.79	20.500
368.15	19.269
368.51	19.620
368.87	21.075
369.23	19.502
369.59	19.803
369.95	20.247
370.31	19.456
370.67	19.696
371.03	21.529
371.39	20.724
371.75	20.357
372.11	21.083
372.47	20.187
372.83	21.082
373.19	20.216
373.55	20.954
373.91	21.287
374.27	20.124
374.63	19.630
374.99	20.543
375.35	20.548
375.71	21.399
376.07	22.413
376.42	22.126
376.78	21.731
377.14	22.983
377.50	21.773
377.86	21.780
378.22	21.745
378.58	22.005
378.94	22.813
379.30	22.174
379.66	22.811
380.02	22.181
380.38	22.470
380.74	22.295
381.09	22.919
381.45	22.249
381.81	22.243
382.17	23.062
382.53	22.954
382.89	22.316
383.25	23.210
383.61	23.426
383.97	23.062
384.32	22.495
384.68	22.517
385.04	22.541
385.40	22.852
385.76	23.358
386.12	23.241
386.48	22.382
386.83	23.404
387.19	23.381
387.55	23.850
387.91	23.616
388.27	23.305
388.62	23.346
388.98	23.217
389.34	23.120
389.70	23.810
390.06	24.125
390.42	24.613
390.77	24.215
391.13	24.621
391.49	23.403
391.85	23.962
392.20	24.436
392.56	24.317
392.92	24.049
393.28	24.288
393.64	23.547
393.99	23.317
394.35	23.519
394.71	24.038
395.07	22.642
395.42	24.314
395.78	23.938
396.14	24.857
396.50	24.096
396.85	24.474
397.21	24.719
397.57	24.161
397.92	24.072
398.28	24.027
398.64	24.529
399.00	23.996
399.35	24.631
399.71	24.054
400.07	24.277
400.42	24.138
400.78	23.867
401.14	23.973
401.49	24.206
401.85	24.263
402.21	24.396
402.57	24.034
402.92	25.031
403.28	24.265
403.63	24.241
403.99	24.440
404.35	23.317
404.70	23.323
405.06	25.367
405.42	24.435
405.77	25.173
406.13	24.171
406.49	23.068
406.84	23.993
407.20	23.564
407.55	24.416
407.91	23.693
408.27	23.144
408.62	24.371
408.98	24.106
409.34	25.000
409.69	24.626
410.05	23.756
410.40	22.520
410.76	22.984
411.11	23.881
411.47	23.889
411.83	23.893
412.18	23.929
412.54	24.687
412.89	23.448
413.25	23.658
413.60	23.197
413.96	23.221
414.31	23.428
414.67	23.238
415.03	23.884
415.38	22.589
415.74	23.847
416.09	23.728
416.45	24.744
416.80	24.295
417.16	23.684
417.51	23.711
417.87	23.347
418.22	23.335
418.58	23.587
418.93	23.415
419.29	23.564
419.64	23.410
420.00	23.175
420.35	22.773
420.71	23.096
421.06	23.309
421.42	23.540
421.77	23.468
422.12	23.782
422.48	22.901
422.83	23.568
423.19	23.059
423.54	22.674
423.90	23.456
424.25	24.552
424.61	23.906
424.96	23.122
425.31	22.827
425.67	23.222
426.02	23.322
426.38	23.321
426.73	23.885
427.09	23.452
427.44	22.666
427.79	22.981
428.15	23.425
428.50	21.450
428.85	23.124
429.21	22.228
429.56	22.901
429.92	22.957
430.27	23.211
430.62	23.033
430.98	22.792
431.33	22.837
431.68	22.417
432.04	23.211
432.39	22.921
432.74	21.521
433.10	22.603
433.45	22.485
433.80	22.586
434.16	22.993
434.51	22.011
434.86	23.322
435.22	22.241
435.57	21.990
435.92	22.859
436.28	21.742
436.63	22.286
436.98	22.738
437.34	22.527
437.69	21.901
438.04	21.279
438.39	22.914
438.75	22.288
439.10	23.193
439.45	22.337
439.81	22.968
440.16	22.377
440.51	22.533
440.86	22.940
441.22	22.490
441.57	22.939
441.92	21.773
442.27	21.861
442.63	22.551
442.98	21.586
443.33	21.445
443.68	22.088
444.03	21.361
444.39	22.657
444.74	22.308
445.09	22.081
445.44	23.324
445.79	22.303
446.15	23.017
446.50	21.971
446.85	23.303
447.20	22.321
447.55	22.999
447.91	22.247
448.26	21.727
448.61	21.807
448.96	22.722
449.31	22.387
449.66	22.499
450.02	22.342
450.37	22.150
450.72	21.929
451.07	22.382
451.42	22.396
451.77	21.424
452.12	21.628
452.47	22.208
452.83	21.580
453.18	21.515
453.53	22.194
453.88	21.928
454.23	20.705
454.58	21.814
454.93	20.654
455.28	21.002
455.63	20.524
455.98	21.911
456.34	20.725
456.69	21.214
457.04	20.433
457.39	20.565
457.74	20.407
458.09	20.794
458.44	21.328
458.79	20.868
459.14	20.000
459.49	21.037
459.84	19.673
460.19	20.108
460.54	20.134
460.89	20.045
461.24	20.715
461.59	20.471
461.94	20.164
462.29	20.221
462.64	19.921
462.99	20.322
463.34	20.442
463.69	21.070
464.04	19.148
464.39	19.158
464.74	19.902
465.09	19.591
465.44	19.865
465.79	20.414
466.14	19.669
466.49	20.587
466.84	20.263
467.19	20.000
467.54	19.767
467.89	20.113
468.24	19.791
468.59	19.758
468.94	19.413
469.29	19.167
469.64	19.526
469.99	19.724
470.34	18.746
470.68	17.621
471.03	20.099
471.38	18.985
471.73	18.999
472.08	18.694
472.43	20.053
472.78	19.405
473.13	17.810
473.48	18.721
473.83	18.519
474.17	17.839
474.52	18.964
474.87	18.335
475.22	18.841
475.57	19.297
475.92	17.939
476.27	18.648
476.61	18.120
476.96	19.475
477.31	17.907
477.66	18.305
478.01	17.143
478.36	17.439
478.70	17.991
479.05	17.647
479.40	17.733
479.75	18.013
480.10	18.409
480.45	17.018
480.79	18.467
481.14	18.896
481.49	17.760
481.84	17.295
482.19	18.388
482.53	17.143
482.88	17.881
483.23	17.372
483.58	18.006
483.92	17.996
484.27	17.155
484.62	16.955
484.97	17.835
485.31	17.339
485.66	17.366
486.01	17.970
486.36	17.868
486.70	18.133
487.05	17.754
487.40	17.630
487.75	18.059
488.09	16.703
488.44	17.455
488.79	16.881
489.13	16.501
489.48	16.588
489.83	16.123
490.17	16.750
490.52	17.064
490.87	16.226
491.22	16.486
491.56	16.004
491.91	15.843
492.26	16.151
492.60	16.210
492.95	16.181
493.30	16.279
493.64	15.540
493.99	16.377
494.34	15.992
494.68	15.704
495.03	15.514
495.37	15.718
495.72	16.391
496.07	16.025
496.41	15.302
496.76	16.225
497.11	15.681
497.45	15.078
497.80	16.355
498.14	15.819
498.49	14.876
498.84	15.182
499.18	15.431
499.53	15.313
499.87	14.265
500.22	15.580
500.56	14.995
500.91	15.594
501.26	15.714
501.60	14.314
501.95	14.854
502.29	14.757
502.64	15.140
502.98	14.451
503.33	14.063
503.67	15.093
504.02	14.951
504.36	14.413
504.71	14.634
505.06	15.334
505.40	14.742
505.75	14.496
506.09	14.870
506.44	15.323
506.78	14.373
507.13	15.748
507.47	14.634
507.82	15.071
508.16	15.040
508.51	14.308
508.85	14.152
509.19	13.862
509.54	14.906
509.88	14.570
510.23	15.105
510.57	14.407
510.92	14.494
511.26	14.686
511.61	13.776
511.95	13.671
512.30	14.436
512.64	14.586
512.98	13.075
513.33	13.972
513.67	13.118
514.02	14.880
514.36	13.652
514.70	14.492
515.05	13.985
515.39	13.738
515.74	13.677
516.08	12.625
516.42	13.249
516.77	12.771
517.11	13.639
517.46	14.646
517.80	14.407
518.14	13.166
518.49	13.502
518.83	12.768
519.17	14.337
519.52	13.209
519.86	13.175
520.20	13.038
520.55	12.251
520.89	13.599
521.23	13.269
521.58	13.906
521.92	12.759
522.26	12.167
522.61	12.993
522.95	13.018
523.29	12.698
523.64	13.032
523.98	13.850
524.32	13.233
524.66	12.987
525.01	12.779
525.35	12.969
525.69	12.459
526.04	12.964
526.38	12.683
526.72	12.886
527.06	12.830
527.41	12.641
527.75	12.016
528.09	13.002
528.43	13.161
528.78	12.791
529.12	13.325
529.46	12.988
529.80	12.621
530.15	12.033
530.49	12.803
530.83	13.067
531.17	12.671
531.51	12.272
531.86	11.924
532.20	12.888
532.54	12.069
532.88	12.321
533.22	11.717
533.57	13.046
533.91	14.129
534.25	12.760
534.59	12.033
534.93	13.584
535.27	12.739
535.62	12.368
535.96	12.622
536.30	13.298
536.64	12.303
536.98	11.142
537.32	12.171
537.66	11.989
538.01	12.067
538.35	11.809
538.69	12.107
539.03	12.685
539.37	11.536
539.71	12.210
540.05	12.146
540.39	12.319
540.73	10.894
541.07	11.361
541.42	12.929
541.76	13.870
542.10	11.510
542.44	11.781
542.78	11.797
543.12	12.938
543.46	11.956
543.80	12.288
544.14	12.182
544.48	10.949
544.82	11.500
545.16	11.156
545.50	12.897
545.84	11.360
546.18	11.641
546.52	10.797
546.86	11.590
547.20	11.008
547.54	11.723
547.88	12.551
548.22	11.857
548.56	12.675
548.90	11.367
549.24	12.639
549.58	11.388
549.92	11.519
550.26	11.956
550.60	11.787
550.94	10.970
551.28	11.961
551.62	10.602
551.96	11.567
552.30	10.553
552.64	11.229
552.98	11.435
553.32	11.319
553.66	12.546
554.00	10.151
554.34	10.916
554.68	11.559
555.02	11.677
555.36	10.061
555.69	11.143
556.03	12.009
556.37	10.882
556.71	11.843
557.05	11.587
557.39	10.023
557.73	11.876
558.07	10.399
558.41	11.128
558.75	10.778
559.08	9.383
559.42	11.408
559.76	10.474
560.10	10.530
560.44	11.422
560.78	10.863
561.12	11.352
561.45	10.680
561.79	11.967
562.13	11.392
562.47	11.286
562.81	11.039
563.15	10.907
563.48	10.668
563.82	11.012
564.16	11.307
564.50	11.533
564.84	10.000
565.17	12.053
565.51	11.163
565.85	9.927
566.19	10.927
566.52	10.878
566.86	10.619
567.20	11.301
567.54	10.823
567.88	10.358
568.21	10.864
568.55	11.372
568.89	11.366
569.23	11.274
569.56	11.973
569.90	12.002
570.24	11.264
570.57	11.634
570.91	12.184
571.25	10.860
571.59	11.305
571.92	11.440
572.26	11.642
572.60	11.395
572.93	11.434
573.27	11.570
573.61	11.863
573.95	11.528
574.28	11.859
574.62	11.602
574.96	12.106
575.29	11.610
575.63	11.433
575.97	11.929
576.30	11.619
576.64	11.292
576.98	11.958
577.31	11.842
577.65	11.973
577.98	11.463
578.32	11.729
578.66	11.770
578.99	11.502
579.33	11.394
579.67	11.253
580.00	11.379
580.34	11.779
580.67	11.244
581.01	11.194
581.35	11.668
581.68	11.584
582.02	11.928
582.35	11.797
582.69	11.826
583.02	11.495
583.36	11.190
583.70	11.573
584.03	11.566
584.37	11.011
584.70	11.638
585.04	11.629
585.37	11.349
585.71	11.240
586.04	11.404
586.38	10.892
586.72	11.014
587.05	11.534
587.39	11.485
587.72	10.957
588.06	10.752
588.39	11.363
588.73	10.740
589.06	10.217
589.40	11.180
589.73	10.708
590.07	10.791
590.40	10.829
590.73	11.102
591.07	11.116
591.40	10.826
591.74	10.671
592.07	11.182
592.41	11.111
592.74	11.034
593.08	10.667
593.41	11.721
593.75	10.982
594.08	10.915
594.41	10.786
594.75	10.982
595.08	10.717
595.42	10.451
595.75	10.882
596.09	11.316
596.42	10.948
596.75	10.180
597.09	11.192
597.42	10.722
597.75	11.022
598.09	10.610
598.42	10.962
598.76	10.202
599.09	11.285
599.42	11.027
599.76	10.627
600.09	10.806
600.42	11.036
600.76	10.717
601.09	10.847
601.42	10.466
601.76	10.888
602.09	11.431
602.42	11.102
602.76	10.361
603.09	11.294
603.42	11.036
603.76	10.990
604.09	10.791
604.42	10.506
604.76	10.432
605.09	10.739
605.42	11.246
605.75	9.936
606.09	10.844
606.42	10.515
606.75	10.130
607.09	10.195
607.42	10.727
607.75	9.540
608.08	10.505
608.42	10.169
608.75	10.129
609.08	10.191
609.41	10.929
609.75	10.287
610.08	10.010
610.41	10.641
610.74	11.020
611.07	10.721
611.41	11.003
611.74	10.404
612.07	10.266
612.40	10.054
612.73	11.142
613.07	10.089
613.40	10.132
613.73	10.401
614.06	9.563
614.39	9.950
614.72	11.105
615.06	10.333
615.39	10.320
615.72	9.827
616.05	9.685
616.38	9.393
616.71	9.178
617.05	10.197
617.38	9.242
617.71	9.559
618.04	9.933
618.37	9.527
618.70	9.832
619.03	9.278
619.36	9.466
619.69	9.795
620.03	9.541
620.36	8.003
620.69	8.351
621.02	9.615
621.35	9.321
621.68	9.046
622.01	10.599
622.34	9.120
622.67	10.258
623.00	10.562
623.33	9.200
623.66	8.699
623.99	9.752
624.32	10.271
624.65	9.125
624.99	10.066
625.32	9.709
625.65	9.922
625.98	9.242
626.31	9.959
626.64	8.856
626.97	9.170
627.30	9.324
627.63	9.343
627.96	7.706
628.29	8.837
628.62	10.445
628.95	8.417
629.28	7.488
629.61	10.144
629.94	8.994
630.26	8.966
630.59	8.492
630.92	9.237
631.25	8.651
631.58	9.529
631.91	7.741
632.24	8.562
632.57	8.000
632.90	9.218
633.23	7.434
633.56	10.552
633.89	9.569
634.22	9.187
634.55	9.379
634.88	9.069
635.20	9.750
635.53	7.494
635.86	8.333
636.19	7.444
636.52	8.049
636.85	8.685
637.18	7.430
637.51	7.990
637.83	8.747
638.16	6.667
638.49	8.011
638.82	7.582
639.15	7.580
639.48	8.289
639.81	8.194
640.13	8.310
640.46	8.333
640.79	7.770
641.12	7.988
641.45	8.006
641.77	8.542
642.10	8.169
642.43	9.591
642.76	7.413
643.09	7.827
643.41	8.772
643.74	7.431
644.07	7.443
644.40	6.633
644.73	6.441
645.05	6.632
645.38	8.140
645.71	9.354
646.04	6.061
646.36	8.507
646.69	7.517
647.02	7.832
647.35	8.410
647.67	6.654
648.00	6.522
648.33	8.305
648.66	7.179
648.98	8.385
649.31	7.975
649.64	5.321
649.96	8.847
650.29	6.209
650.62	7.414
650.94	7.414
651.27	6.007
651.60	8.392
651.92	6.989
652.25	10.218
652.58	6.601
652.90	7.071
653.23	6.452
653.56	6.612
653.88	6.655
654.21	6.655
654.54	7.973
654.86	7.317
655.19	7.143
655.52	10.703
655.84	11.298
656.17	13.260
656.49	17.510
656.82	16.962
657.15	12.437
657.47	8.984
657.80	6.516
658.13	6.741
658.45	9.880
658.78	9.468
659.10	9.217
659.43	9.336
659.75	8.949
660.08	9.310
660.41	8.519
660.73	7.163
661.06	7.143
661.38	5.814
661.71	7.377
662.03	8.879
662.36	5.973
662.68	7.312
663.01	8.051
663.33	7.343
663.66	3.769
663.98	7.416
664.31	5.934
664.63	2.477
664.96	7.221
665.28	8.584
665.61	4.968
665.93	7.923
666.26	9.283
666.58	7.923
666.91	8.969
667.23	7.143
667.56	6.437
667.88	7.710
668.21	6.473
668.53	5.747
668.86	11.031
669.18	8.511
669.50	7.373
669.83	4.773
670.15	5.476
670.48	5.747
670.80	8.753
671.13	7.323
671.45	7.078
671.77	5.388
672.10	7.797
672.42	8.206
672.75	6.607
673.07	7.091
673.39	7.276
673.72	7.186
674.04	7.787
674.37	8.333
674.69	6.173
675.01	8.974
675.34	5.689
675.66	7.625
675.98	7.080
676.31	5.430
676.63	9.977
676.95	6.588
677.28	4.587
677.60	8.088
677.92	7.317
678.25	8.243
678.57	9.165
678.89	7.463
679.22	6.211
679.54	6.735
679.86	8.984
680.18	7.500
680.51	6.923
680.83	4.483
681.15	9.823
681.48	6.814
681.80	5.317
682.12	7.292
682.44	5.231
682.77	6.316
683.09	5.804
683.41	6.977
683.73	4.688
684.06	7.080
684.38	6.838
684.70	4.481
685.02	7.645
685.34	7.436
685.67	7.692
685.99	8.719
686.31	9.655
686.63	6.434
686.96	6.865
687.28	5.988
687.60	10.208
687.92	8.171
688.24	8.400
688.56	6.798
688.89	4.677
689.21	6.951
689.53	4.054
689.85	8.315
690.17	9.890
690.49	8.454
690.82	7.876
691.14	3.865
691.46	7.193
691.78	6.154
692.10	7.219
692.42	5.714
692.74	10.217
693.06	6.742
693.39	4.215
693.71	9.111
694.03	8.182
694.35	9.685
694.67	7.250
694.99	6.701
695.31	6.460
695.63	9.024
695.95	5.598
696.27	1.096
696.59	6.452
696.91	4.749
697.23	4.315
697.56	9.113
697.88	10.395
698.20	8.855
698.52	6.308
698.84	8.373
699.16	6.619
699.48	9.383
699.80	5.685
700.12	10.188
700.44	5.352
700.76	3.933
701.08	5.740
701.40	7.485
701.72	5.231
702.04	4.403
702.36	7.317
702.68	4.573
703.00	10.526
703.32	7.242
703.64	4.819
703.96	8.211
704.28	5.120
704.60	7.012
704.91	3.448
705.23	5.696
705.55	5.172
705.87	8.451
706.19	4.762
706.51	3.521
706.83	4.459
707.15	4.878
707.47	7.438
707.79	7.614
708.11	3.599
708.43	7.360
708.74	7.713
709.06	5.615
709.38	6.340
709.70	6.607
710.02	5.607
710.34	2.000
710.66	6.840
710.98	8.359
711.29	6.818
711.61	5.806
711.93	7.742
712.25	2.797
712.57	0.351
712.89	4.029
713.20	3.901
713.52	5.109
713.84	7.742
714.16	5.178
714.48	7.278
714.80	7.668
715.11	10.465
715.43	6.211
715.75	8.696
716.07	8.133
716.39	4.377
716.70	8.633
717.02	1.569
717.34	9.470
717.66	4.310
717.97	0.000
718.29	8.661
718.61	4.721
718.93	2.713
719.24	7.380
719.56	5.618
719.88	5.970
720.20	3.953
720.51	6.641
720.83	5.447
721.15	0.407
721.46	4.198
721.78	6.375
722.10	9.163
722.42	1.210
722.73	6.950
723.05	11.429
723.37	7.563
723.68	4.800
724.00	2.128
724.32	2.929
724.63	5.761
724.95	-0.427
725.27	9.705
725.58	4.938
725.90	7.113
726.22	7.971
726.53	-0.392
726.85	8.759
727.16	3.333
727.48	6.897
727.80	9.375
728.11	9.016
728.43	2.734
728.74	2.778
729.06	8.800
729.38	9.091
729.69	8.897
730.01	4.089
730.32	5.535
730.64	6.818
730.96	11.538
731.27	5.686
731.59	10.159
731.90	5.502
732.22	6.731
732.53	1.689
732.85	5.369
733.16	8.581
733.48	7.095
733.80	1.351
734.11	7.770
734.43	7.121
734.74	10.511
735.06	7.493
735.37	5.471
735.69	6.472
736.00	8.581
736.32	4.610
736.63	7.586
736.95	4.452
737.26	5.172
737.58	6.944
737.89	6.873
738.21	7.117
738.52	5.703
738.83	7.347
739.15	4.219
739.46	4.280
739.78	7.042
740.09	4.110
740.41	2.500
740.72	6.028
741.04	2.800
741.35	0.439
741.66	3.556
741.98	5.288
742.29	6.931
742.61	6.829
742.92	6.579
743.23	1.887
743.55	8.559
743.86	4.484
744.18	5.882
744.49	6.599
744.80	5.612
745.12	7.477
745.43	7.109
745.74	8.108
746.06	3.738
746.37	6.422
746.68	0.962
747.00	9.569
747.31	7.692
747.62	5.505
747.94	10.917
748.25	9.174
748.56	9.333
748.88	7.981
749.19	10.952
749.50	4.369
749.82	4.695
750.13	1.667
750.44	7.308
750.75	8.118
751.07	9.609
751.38	7.801
751.69	5.792
752.01	9.375
752.32	5.769
752.63	7.836
752.94	7.600
753.26	3.766
753.57	5.000
753.88	6.073
754.19	7.171
754.51	7.143
754.82	4.396
755.13	-3.043
755.44	1.220
755.75	4.000
756.07	4.059
756.38	8.993
756.69	3.413
757.00	5.607
757.31	4.207
757.63	4.321
757.94	7.910
758.25	6.349
758.56	6.250
758.87	6.250
759.18	8.202
759.50	7.407
759.81	8.027
760.12	9.538
760.43	5.952
760.74	6.497
761.05	7.459
761.36	6.304
761.67	5.136
761.99	7.216
762.30	3.650
762.61	4.527
762.92	8.974
763.23	14.344
763.54	9.957
763.85	7.755
764.16	2.846
764.47	8.000
764.78	7.857
765.10	5.574
765.41	6.383
765.72	10.248
766.03	9.571
766.34	10.000
766.65	4.184
766.96	3.286
767.27	8.416
767.58	-4.494
767.89	7.407
768.20	4.420
768.51	14.070
768.82	8.173
769.13	0.885
769.44	6.276
769.75	0.855
770.06	4.933
770.37	0.000
770.68	10.194
770.99	7.767
771.30	5.882
771.61	6.939
771.92	9.959
772.23	7.207
772.54	7.735
772.85	2.326
773.16	8.466
773.47	0.000
773.78	6.322
774.09	5.625
774.39	4.348
774.70	4.762
775.01	-2.069
775.32	2.143
775.63	3.008
775.94	3.008
776.25	-1.600
776.56	11.570
776.87	11.111
777.18	-7.207
777.48	-2.703
777.79	8.661
778.10	5.505
778.41	3.509
778.72	-1.681
779.03	4.225
779.34	3.378
779.65	6.338
779.95	11.258
780.26	-3.597
780.57	11.511
780.88	3.521
781.19	-0.840
781.50	10.738
781.80	7.602
782.11	-0.581
782.42	8.176
782.73	9.150
783.04	-2.069
783.34	11.450
783.65	4.698
783.96	9.231
784.27	12.857
784.57	3.546
784.88	-10.577
785.19	10.909
785.50	5.455
785.81	-0.952
786.11	-2.521
786.42	3.540
786.73	-4.717
787.04	-6.422
787.34	-8.911
787.65	10.833
787.96	5.785
788.26	5.797
788.57	1.587
788.88	8.943
789.19	-3.200
789.49	6.107
789.80	13.636
790.11	0.000
790.41	7.921
790.72	17.021
791.03	0.000
791.33	-14.118
791.64	0.000
791.95	-2.174
792.25	5.682
792.56	14.103
792.87	-1.282
793.17	-15.385
793.48	-4.762
793.79	-3.750
794.09	13.462
794.40	8.333
794.70	1.802
795.01	-3.906
795.32	-2.609
795.62	-7.609
795.93	1.887
796.23	2.020
796.54	-7.317
796.85	-1.190
797.15	-15.152
797.46	13.043
797.76	7.895
798.07	3.409
798.37	8.537
798.68	-12.903
798.99	-1.351
799.29	6.024
799.60	-3.846
799.90	-1.538
800.21	10.606
800.51	-5.333
800.82	2.667
801.12	-20.833
801.43	-28.333
801.73	0.000
802.04	12.857
802.34	-14.754
802.65	13.433
802.95	0.000
803.26	0.000
803.56	9.231
803.87	-1.887
804.17	9.677
804.48	4.412
804.78	-19.512
805.09	5.797
805.39	-4.412
805.70	-34.043
806.00	-7.018
806.30	7.692
806.61	2.632
806.91	6.757
807.22	0.000
807.52	12.500
807.83	-10.169
808.13	-12.121
808.43	3.333
808.74	-31.034
809.04	-7.937
809.35	-6.122
809.65	-10.000
809.95	-16.327
810.26	28.169
810.56	-29.167
810.86	-14.286
811.17	17.308
811.47	-6.383
811.77	-4.167
812.08	-11.321
812.38	-3.125
812.69	-12.727
812.99	4.878
813.29	-10.811
813.59	-35.135
813.90	-1.818
814.20	-16.364
814.50	-16.667
814.81	1.818
815.11	-8.772
815.41	32.558
815.72	-5.000
816.02	17.143
816.32	-16.216
816.62	-14.583
816.93	-8.889
817.23	-17.778
817.53	-13.889
817.84	-13.514
818.14	9.756
818.44	16.000
818.74	-2.041
819.04	17.073
819.35	-5.556
819.65	-9.091
819.95	-77.778
820.25	-33.333
820.56	-11.905
820.86	-44.444
821.16	-20.455
821.46	-10.870
821.76	0.000
822.07	2.174
822.37	-3.030
822.67	19.512
822.97	-8.108
823.27	-22.857
823.57	0.000
823.88	-14.706
824.18	-27.778
824.48	11.429
824.78	-52.381
825.08	-17.857
825.38	-3.704
825.69	-9.677
825.99	12.195
826.29	-29.630
826.59	-9.375
826.89	-3.226
827.19	-34.783
827.49	-2.778
827.79	-60.870
828.09	12.903
828.39	-14.583
828.70	-40.625
829.00	-6.897
829.30	-16.216
829.60	-83.333
829.90	-11.111
830.20	-15.625
830.50	-13.636
830.80	-94.118
831.10	-27.273
831.40	-38.235
831.70	-34.615
832.00	6.061
832.30	11.765
832.60	-10.811
832.90	-200.000
833.20	-32.143
833.50	-100.000
833.80	-23.684
834.10	-58.333
834.40	-18.182
834.70	-53.333
835.00	-70.000
835.30	-33.333
835.60	-57.143
835.90	-23.810
836.20	-52.000
836.50	-45.833
836.80	-26.316
837.10	24.324
837.40	16.667
837.70	39.130
838.00	33.333
838.30	-31.579
838.60	-170.000
838.90	-70.000
839.19	-58.333
839.49	-100.000
839.79	0.000
840.09	-283.333
840.39	-120.000
840.69	-45.455
840.99	33.333
841.29	-8.333
841.59	-61.538
841.88	-106.667
842.18	-78.571
842.48	36.667
842.78	-128.571
843.08	-28.571
843.38	-87.500
843.68	-75.000
843.97	28.571
844.27	-155.556
844.57	-90.909
844.87	-140.000
845.17	-9.091
845.47	633.333
845.76	-26.667
846.06	-58.333
846.36	-1150.000
846.66	-21.053
846.96	-54.545
847.25	-61.111
847.55	-100.000
847.85	-47.619
848.15	7.692
848.44	-433.333
848.74	16.667
849.04	-7.692
849.34	-125.000
849.63	-109.091
849.93	-64.286
850.23	-5.000
850.53	-75.000
850.82	-27.778
851.12	20.000
851.42	5.882
851.71	-100.000
852.01	0.000
852.31	-23.077
852.61	500.000
852.90	5.882
853.20	0.000
853.50	-75.000
853.79	-107.143
854.09	25.000
854.39	-40.000
854.68	7.500
854.98	-57.143
855.28	-4.000
855.57	16.667
855.87	-41.667
856.17	-32.000
856.46	-18.750
856.76	15.000
857.05	20.000
857.35	-83.333
857.65	-23.529
857.94	-116.667
858.24	-83.333
858.53	-30.000
858.83	-145.455
859.13	-8.000
859.42	-71.429
859.72	-162.500
860.01	4.167
860.31	-150.000
860.60	-43.750
860.90	0.000
861.20	-83.333
861.49	0.000
861.79	0.000
862.08	350.000
862.38	-16.667
862.67	371.429
862.97	250.000
863.26	-109.091
863.56	36.364
863.85	15.789
864.15	11.765
864.44	-320.000
864.74	-70.000
865.03	-33.333
865.33	0.000
865.62	85.714
865.92	-26.316
866.21	-44.444
866.51	-18.182
866.80	55.556
867.10	-187.500
867.39	31.250
867.69	-60.000
867.98	-80.000
868.27	11.765
868.57	0.000
868.86	650.000
869.16	-425.000
869.45	-128.571
869.75	400.000
870.04	0.000
870.33	-1700.000
870.63	-31.579
870.92	-116.667
871.22	-1000.000
871.51	-28.571
871.80	-100.000
872.10	-250.000
>>>>>End Processed Spectral Data<<<<<
