SpectraSuite Data File
++++++++++++++++++++++++++++++++++++
Date: Wed May 13 21:03:44 PDT 2015
User: schluterlab
Dark Spectrum Present: Yes
Reference Spectrum Present: Yes
Number of Sampled Component Spectra: 1
Spectrometers: USB2E3373
Integration Time (usec): 3000 (USB2E3373)
Spectra Averaged: 3 (USB2E3373)
Boxcar Smoothing: 0 (USB2E3373)
Correct for Electrical Dark: No (USB2E3373)
Strobe/Lamp Enabled: No (USB2E3373)
Correct for Detector Non-linearity: No (USB2E3373)
Correct for Stray Light: No (USB2E3373)
Number of Pixels in Processed Spectrum: 2048
>>>>>Begin Processed Spectral Data<<<<<
178.53	0.000
178.91	-300.000
179.29	133.333
179.67	-650.000
180.04	-166.667
180.42	100.000
180.80	-500.000
181.18	133.333
181.56	-275.000
181.94	-50.000
182.31	27.273
182.69	146.154
183.07	-40.000
183.45	216.667
183.83	88.889
184.20	57.143
184.58	166.667
184.96	233.333
185.34	171.429
185.72	0.000
186.09	-900.000
186.47	-180.000
186.85	100.000
187.23	-350.000
187.61	550.000
187.98	900.000
188.36	75.000
188.74	0.000
189.12	-63.636
189.49	30.000
189.87	50.000
190.25	160.000
190.63	1000.000
191.00	-220.000
191.38	180.000
191.76	175.000
192.14	75.000
192.51	10.526
192.89	300.000
193.27	350.000
193.65	-140.000
194.02	100.000
194.40	70.000
194.78	500.000
195.15	120.000
195.53	100.000
195.91	100.000
196.29	33.333
196.66	0.000
197.04	400.000
197.42	200.000
197.79	-10.000
198.17	-75.000
198.55	-500.000
198.92	50.000
199.30	-300.000
199.68	-110.000
200.05	-0.000
200.43	83.333
200.81	-900.000
201.18	-40.000
201.56	-116.667
201.94	325.000
202.31	47.826
202.69	-28.571
203.07	-400.000
203.44	-60.000
203.82	0.000
204.19	-40.000
204.57	0.000
204.95	116.667
205.32	0.000
205.70	0.000
206.08	-50.000
206.45	0.000
206.83	-75.000
207.20	-300.000
207.58	60.000
207.96	-1200.000
208.33	-128.571
208.71	-1500.000
209.08	150.000
209.46	275.000
209.84	0.000
210.21	30.000
210.59	1400.000
210.96	200.000
211.34	1300.000
211.71	-450.000
212.09	133.333
212.46	-100.000
212.84	0.000
213.22	0.000
213.59	-1200.000
213.97	300.000
214.34	-350.000
214.72	0.000
215.09	137.500
215.47	144.444
215.84	350.000
216.22	-75.000
216.59	150.000
216.97	533.333
217.34	100.000
217.72	0.000
218.09	33.333
218.47	0.000
218.84	42.857
219.22	-87.500
219.59	-100.000
219.97	-100.000
220.34	-62.500
220.72	-40.000
221.09	0.000
221.47	0.000
221.84	100.000
222.22	0.000
222.59	500.000
222.97	-100.000
223.34	8.333
223.72	-500.000
224.09	-250.000
224.46	18.182
224.84	12.500
225.21	71.429
225.59	-125.000
225.96	66.667
226.34	20.000
226.71	-85.714
227.08	-50.000
227.46	-12.500
227.83	500.000
228.21	25.000
228.58	-125.000
228.95	-23.529
229.33	-25.000
229.70	25.000
230.08	-15.385
230.45	12.500
230.82	8.333
231.20	42.857
231.57	-75.000
231.95	300.000
232.32	41.667
232.69	-17.647
233.07	-1100.000
233.44	13.043
233.81	150.000
234.19	29.167
234.56	-33.333
234.93	-6.667
235.31	36.842
235.68	-53.846
236.05	69.231
236.43	44.444
236.80	36.364
237.17	0.000
237.55	-5.882
237.92	-3.448
238.29	-22.222
238.67	5.556
239.04	-12.903
239.41	0.000
239.79	29.787
240.16	16.279
240.53	14.286
240.91	42.857
241.28	23.214
241.65	27.419
242.02	28.947
242.40	21.739
242.77	20.290
243.14	16.667
243.51	20.213
243.89	23.077
244.26	40.566
244.63	14.423
245.00	19.792
245.38	21.849
245.75	29.508
246.12	20.301
246.49	18.699
246.87	13.445
247.24	23.649
247.61	25.166
247.98	19.872
248.36	18.343
248.73	25.281
249.10	28.283
249.47	19.355
249.84	30.000
250.22	25.373
250.59	25.234
250.96	24.091
251.33	19.139
251.70	24.268
252.08	24.686
252.45	22.634
252.82	26.996
253.19	25.681
253.56	23.022
253.94	24.199
254.31	23.239
254.68	22.483
255.05	22.772
255.42	24.476
255.79	23.926
256.16	23.028
256.54	23.810
256.91	23.101
257.28	23.585
257.65	23.248
258.02	23.167
258.39	22.515
258.76	20.930
259.14	22.159
259.51	23.596
259.88	22.493
260.25	24.722
260.62	22.472
260.99	22.281
261.36	24.870
261.73	24.691
262.10	23.664
262.47	21.481
262.85	23.383
263.22	23.333
263.59	22.597
263.96	20.925
264.33	20.433
264.70	23.953
265.07	22.917
265.44	22.989
265.81	22.426
266.18	24.146
266.55	20.742
266.92	23.941
267.29	21.605
267.66	21.231
268.03	23.868
268.40	19.068
268.77	24.174
269.14	22.653
269.51	25.873
269.88	20.367
270.25	23.941
270.62	21.311
270.99	21.457
271.36	22.619
271.73	21.084
272.10	21.714
272.47	22.457
272.84	22.835
273.21	21.331
273.58	21.721
273.95	20.755
274.32	22.761
274.69	23.315
275.06	22.438
275.43	21.657
275.80	21.986
276.17	21.363
276.54	19.716
276.91	21.951
277.28	19.675
277.65	22.552
278.02	21.786
278.39	20.249
278.76	22.241
279.13	21.955
279.50	19.310
279.87	24.819
280.23	22.883
280.60	21.626
280.97	21.429
281.34	23.186
281.71	20.163
282.08	20.342
282.45	21.311
282.82	21.086
283.19	22.409
283.56	20.469
283.92	21.101
284.29	20.593
284.66	19.605
285.03	21.498
285.40	19.637
285.77	21.171
286.14	20.517
286.51	20.840
286.87	19.692
287.24	19.764
287.61	21.536
287.98	19.706
288.35	19.225
288.72	20.086
289.08	20.940
289.45	20.411
289.82	19.970
290.19	19.215
290.56	17.472
290.93	17.956
291.29	19.152
291.66	18.989
292.03	20.981
292.40	19.919
292.77	19.411
293.13	17.992
293.50	20.523
293.87	21.733
294.24	19.312
294.60	18.466
294.97	21.429
295.34	18.734
295.71	16.820
296.08	17.277
296.44	16.454
296.81	17.661
297.18	17.625
297.55	17.099
297.91	17.516
298.28	18.644
298.65	18.350
299.02	18.071
299.38	17.669
299.75	17.548
300.12	17.791
300.48	16.842
300.85	18.591
301.22	16.144
301.59	16.549
301.95	17.305
302.32	16.803
302.69	16.949
303.05	18.937
303.42	18.750
303.79	18.086
304.15	18.620
304.52	19.892
304.89	17.608
305.25	16.905
305.62	17.354
305.99	17.084
306.35	20.063
306.72	17.599
307.09	18.040
307.45	17.252
307.82	16.947
308.19	17.659
308.55	17.810
308.92	19.646
309.29	18.218
309.65	19.580
310.02	19.185
310.38	18.191
310.75	20.020
311.12	20.019
311.48	19.486
311.85	20.079
312.22	20.503
312.58	19.903
312.95	21.194
313.31	21.304
313.68	20.802
314.05	21.834
314.41	22.382
314.78	22.865
315.14	23.519
315.51	23.026
315.87	24.930
316.24	23.783
316.61	24.658
316.97	25.370
317.34	24.332
317.70	28.189
318.07	27.063
318.43	27.462
318.80	27.836
319.16	28.382
319.53	29.749
319.89	30.172
320.26	30.776
320.62	31.418
320.99	30.717
321.35	32.180
321.72	33.590
322.08	34.594
322.45	37.558
322.81	36.691
323.18	37.388
323.54	38.809
323.91	40.741
324.27	40.234
324.64	40.157
325.00	42.432
325.37	44.539
325.73	42.003
326.10	44.743
326.46	44.732
326.83	47.816
327.19	48.130
327.56	49.718
327.92	49.075
328.29	52.170
328.65	53.812
329.01	51.187
329.38	54.435
329.74	53.133
330.11	55.005
330.47	53.299
330.84	55.686
331.20	56.618
331.56	57.790
331.93	57.020
332.29	58.992
332.66	57.966
333.02	58.905
333.38	61.053
333.75	58.788
334.11	59.896
334.48	61.639
334.84	59.011
335.20	58.919
335.57	60.487
335.93	59.794
336.29	60.771
336.66	61.282
337.02	62.957
337.38	62.576
337.75	61.843
338.11	61.401
338.47	60.360
338.84	62.285
339.20	63.845
339.56	62.799
339.93	62.835
340.29	62.511
340.65	63.045
341.02	61.314
341.38	63.514
341.74	63.445
342.11	63.336
342.47	64.435
342.83	64.216
343.20	63.875
343.56	64.922
343.92	60.926
344.28	63.555
344.65	65.714
345.01	64.649
345.37	64.720
345.73	64.379
346.10	62.841
346.46	63.740
346.82	65.409
347.19	64.241
347.55	64.943
347.91	64.302
348.27	64.905
348.63	63.862
349.00	65.959
349.36	64.364
349.72	64.501
350.08	63.417
350.45	64.135
350.81	65.571
351.17	65.281
351.53	65.593
351.89	65.210
352.26	64.402
352.62	65.736
352.98	64.217
353.34	66.103
353.70	64.174
354.07	64.314
354.43	64.930
354.79	67.147
355.15	63.898
355.51	65.300
355.87	66.224
356.24	65.008
356.60	65.598
356.96	65.311
357.32	65.248
357.68	66.310
358.04	67.184
358.40	66.202
358.77	65.826
359.13	66.537
359.49	65.405
359.85	65.732
360.21	67.001
360.57	66.236
360.93	67.147
361.29	65.285
361.66	65.831
362.02	65.975
362.38	66.174
362.74	64.685
363.10	64.497
363.46	66.210
363.82	66.814
364.18	65.917
364.54	65.354
364.90	65.645
365.26	65.817
365.62	66.051
365.98	65.338
366.35	67.376
366.71	66.049
367.07	65.202
367.43	65.366
367.79	66.713
368.15	65.682
368.51	63.924
368.87	66.085
369.23	66.762
369.59	65.610
369.95	66.763
370.31	65.900
370.67	66.039
371.03	66.592
371.39	65.720
371.75	66.000
372.11	66.667
372.47	65.321
372.83	64.979
373.19	65.540
373.55	65.029
373.91	65.347
374.27	65.422
374.63	65.363
374.99	64.554
375.35	65.274
375.71	65.149
376.07	65.387
376.42	64.906
376.78	66.711
377.14	66.373
377.50	65.124
377.86	66.799
378.22	64.855
378.58	65.763
378.94	65.625
379.30	65.334
379.66	64.858
380.02	64.522
380.38	64.819
380.74	65.870
381.09	64.958
381.45	64.813
381.81	64.079
382.17	64.776
382.53	64.062
382.89	64.536
383.25	65.679
383.61	64.891
383.97	64.312
384.32	64.650
384.68	64.590
385.04	64.692
385.40	65.380
385.76	63.869
386.12	65.268
386.48	64.514
386.83	65.144
387.19	66.749
387.55	64.623
387.91	65.621
388.27	63.995
388.62	63.733
388.98	65.019
389.34	64.411
389.70	64.225
390.06	63.500
390.42	63.918
390.77	63.677
391.13	63.321
391.49	62.366
391.85	63.834
392.20	63.158
392.56	63.619
392.92	63.429
393.28	63.510
393.64	63.058
393.99	62.179
394.35	62.407
394.71	62.564
395.07	61.950
395.42	63.315
395.78	62.162
396.14	63.348
396.50	61.446
396.85	61.950
397.21	61.735
397.57	61.801
397.92	61.377
398.28	61.647
398.64	61.506
399.00	60.938
399.35	63.053
399.71	60.920
400.07	61.627
400.42	61.567
400.78	60.060
401.14	61.864
401.49	61.234
401.85	61.364
402.21	61.115
402.57	60.392
402.92	60.200
403.28	60.288
403.63	59.764
403.99	60.845
404.35	59.539
404.70	58.792
405.06	58.896
405.42	59.296
405.77	59.101
406.13	58.286
406.49	59.077
406.84	59.280
407.20	58.259
407.55	59.481
407.91	58.637
408.27	56.457
408.62	58.195
408.98	58.076
409.34	57.364
409.69	59.584
410.05	57.276
410.40	56.604
410.76	57.401
411.11	57.400
411.47	57.731
411.83	57.392
412.18	57.809
412.54	56.767
412.89	57.179
413.25	54.926
413.60	57.931
413.96	55.993
414.31	56.843
414.67	55.873
415.03	57.240
415.38	55.812
415.74	56.725
416.09	55.321
416.45	57.075
416.80	54.832
417.16	56.140
417.51	55.593
417.87	54.563
418.22	56.303
418.58	56.242
418.93	56.246
419.29	56.502
419.64	53.562
420.00	55.746
420.35	54.334
420.71	55.698
421.06	55.904
421.42	55.414
421.77	54.393
422.12	55.530
422.48	54.744
422.83	56.350
423.19	55.492
423.54	55.654
423.90	54.929
424.25	55.575
424.61	54.467
424.96	54.642
425.31	54.010
425.67	55.497
426.02	54.653
426.38	54.104
426.73	56.323
427.09	55.097
427.44	54.433
427.79	53.563
428.15	54.251
428.50	54.622
428.85	55.474
429.21	54.080
429.56	54.623
429.92	54.295
430.27	54.550
430.62	53.148
430.98	54.204
431.33	53.466
431.68	54.313
432.04	55.493
432.39	53.118
432.74	53.403
433.10	53.922
433.45	53.905
433.80	54.655
434.16	52.922
434.51	53.804
434.86	54.240
435.22	54.499
435.57	53.010
435.92	54.644
436.28	53.453
436.63	53.406
436.98	53.349
437.34	54.029
437.69	52.420
438.04	52.066
438.39	53.923
438.75	52.980
439.10	53.962
439.45	53.511
439.81	54.557
440.16	52.754
440.51	52.675
440.86	54.772
441.22	52.840
441.57	52.766
441.92	52.514
442.27	52.652
442.63	53.014
442.98	52.488
443.33	52.935
443.68	52.504
444.03	52.260
444.39	53.247
444.74	52.071
445.09	52.148
445.44	52.620
445.79	52.814
446.15	53.134
446.50	52.423
446.85	53.287
447.20	52.744
447.55	51.875
447.91	51.742
448.26	52.601
448.61	51.554
448.96	52.790
449.31	52.713
449.66	52.400
450.02	51.904
450.37	51.351
450.72	51.148
451.07	52.790
451.42	51.341
451.77	51.856
452.12	50.505
452.47	51.388
452.83	51.356
453.18	51.687
453.53	51.387
453.88	52.048
454.23	51.545
454.58	50.551
454.93	50.609
455.28	51.895
455.63	51.029
455.98	51.856
456.34	50.540
456.69	52.971
457.04	51.022
457.39	51.233
457.74	51.466
458.09	51.481
458.44	50.881
458.79	50.302
459.14	49.607
459.49	51.951
459.84	49.605
460.19	48.739
460.54	50.243
460.89	50.394
461.24	49.938
461.59	50.845
461.94	51.896
462.29	50.980
462.64	50.198
462.99	50.168
463.34	49.793
463.69	51.353
464.04	49.760
464.39	49.603
464.74	48.771
465.09	48.667
465.44	49.214
465.79	50.201
466.14	49.259
466.49	50.264
466.84	49.671
467.19	48.854
467.54	49.644
467.89	49.843
468.24	49.969
468.59	49.649
468.94	49.936
469.29	48.711
469.64	49.582
469.99	49.586
470.34	49.562
470.68	50.335
471.03	49.647
471.38	48.122
471.73	48.765
472.08	49.210
472.43	50.594
472.78	48.276
473.13	47.691
473.48	48.467
473.83	48.085
474.17	48.307
474.52	49.773
474.87	47.587
475.22	48.007
475.57	47.072
475.92	47.492
476.27	48.310
476.61	46.772
476.96	48.544
477.31	48.112
477.66	48.079
478.01	46.538
478.36	46.866
478.70	48.335
479.05	48.446
479.40	47.842
479.75	46.546
480.10	47.272
480.45	46.935
480.79	47.984
481.14	47.416
481.49	46.917
481.84	46.748
482.19	45.994
482.53	46.810
482.88	46.596
483.23	46.006
483.58	46.030
483.92	45.574
484.27	45.883
484.62	45.362
484.97	45.956
485.31	45.665
485.66	43.327
486.01	43.233
486.36	43.518
486.70	44.235
487.05	45.544
487.40	45.428
487.75	45.535
488.09	45.730
488.44	45.391
488.79	46.821
489.13	45.845
489.48	45.276
489.83	45.556
490.17	45.529
490.52	46.283
490.87	44.784
491.22	44.560
491.56	46.287
491.91	44.551
492.26	46.228
492.60	45.310
492.95	45.967
493.30	44.380
493.64	45.276
493.99	45.556
494.34	45.617
494.68	45.394
495.03	45.702
495.37	44.720
495.72	46.065
496.07	45.446
496.41	43.893
496.76	44.790
497.11	45.258
497.45	44.358
497.80	46.239
498.14	45.693
498.49	44.327
498.84	45.243
499.18	44.450
499.53	44.067
499.87	44.250
500.22	44.102
500.56	45.236
500.91	44.970
501.26	43.793
501.60	43.480
501.95	44.370
502.29	44.417
502.64	45.082
502.98	43.545
503.33	43.990
503.67	43.281
504.02	44.412
504.36	42.942
504.71	43.242
505.06	45.186
505.40	44.485
505.75	44.049
506.09	43.996
506.44	43.095
506.78	42.864
507.13	44.127
507.47	42.683
507.82	43.276
508.16	43.325
508.51	43.337
508.85	43.442
509.19	43.175
509.54	43.110
509.88	43.710
510.23	43.211
510.57	43.750
510.92	43.804
511.26	43.069
511.61	42.591
511.95	42.889
512.30	43.198
512.64	44.268
512.98	43.546
513.33	43.549
513.67	43.271
514.02	42.987
514.36	43.427
514.70	43.476
515.05	43.768
515.39	43.278
515.74	43.339
516.08	43.363
516.42	42.166
516.77	43.878
517.11	43.915
517.46	43.637
517.80	43.705
518.14	42.070
518.49	42.616
518.83	42.959
519.17	42.470
519.52	42.220
519.86	43.230
520.20	42.329
520.55	42.475
520.89	42.694
521.23	43.910
521.58	44.185
521.92	42.112
522.26	41.705
522.61	42.081
522.95	42.617
523.29	42.222
523.64	41.894
523.98	42.376
524.32	41.777
524.66	42.143
525.01	43.644
525.35	43.713
525.69	42.545
526.04	42.801
526.38	42.256
526.72	40.237
527.06	41.199
527.41	41.297
527.75	41.589
528.09	41.933
528.43	42.741
528.78	42.571
529.12	41.268
529.46	40.819
529.80	41.165
530.15	40.798
530.49	41.577
530.83	42.654
531.17	41.849
531.51	40.189
531.86	39.973
532.20	41.075
532.54	41.655
532.88	41.116
533.22	41.279
533.57	41.060
533.91	41.355
534.25	41.536
534.59	40.798
534.93	41.390
535.27	40.510
535.62	40.395
535.96	40.338
536.30	40.160
536.64	41.080
536.98	40.505
537.32	40.285
537.66	40.621
538.01	40.361
538.35	40.884
538.69	40.134
539.03	39.664
539.37	38.967
539.71	39.291
540.05	39.136
540.39	39.504
540.73	40.573
541.07	40.612
541.42	39.461
541.76	39.648
542.10	39.540
542.44	40.194
542.78	40.180
543.12	40.364
543.46	39.599
543.80	38.493
544.14	40.537
544.48	39.350
544.82	39.072
545.16	38.945
545.50	39.298
545.84	38.359
546.18	38.990
546.52	39.944
546.86	39.364
547.20	39.028
547.54	38.242
547.88	39.474
548.22	38.697
548.56	38.626
548.90	38.633
549.24	39.861
549.58	38.434
549.92	39.105
550.26	41.107
550.60	38.514
550.94	38.507
551.28	38.607
551.62	38.872
551.96	39.092
552.30	38.355
552.64	38.277
552.98	38.707
553.32	38.572
553.66	39.325
554.00	37.797
554.34	37.875
554.68	38.255
555.02	38.997
555.36	39.183
555.69	39.330
556.03	38.027
556.37	38.620
556.71	38.052
557.05	38.598
557.39	38.809
557.73	39.032
558.07	37.830
558.41	38.607
558.75	38.876
559.08	38.893
559.42	39.024
559.76	37.997
560.10	37.433
560.44	38.467
560.78	38.201
561.12	38.192
561.45	37.075
561.79	37.483
562.13	37.693
562.47	38.500
562.81	37.085
563.15	37.323
563.48	37.509
563.82	38.304
564.16	37.576
564.50	37.856
564.84	37.095
565.17	37.351
565.51	37.166
565.85	37.508
566.19	38.079
566.52	34.928
566.86	36.915
567.20	36.652
567.54	35.809
567.88	35.330
568.21	35.850
568.55	35.994
568.89	35.194
569.23	35.839
569.56	35.461
569.90	35.046
570.24	34.188
570.57	34.732
570.91	34.887
571.25	35.191
571.59	34.035
571.92	34.732
572.26	34.185
572.60	34.863
572.93	34.458
573.27	34.315
573.61	34.725
573.95	34.506
574.28	34.029
574.62	33.597
574.96	34.154
575.29	34.303
575.63	33.772
575.97	34.864
576.30	34.279
576.64	34.242
576.98	34.435
577.31	33.569
577.65	33.400
577.98	33.685
578.32	33.470
578.66	33.520
578.99	34.085
579.33	33.658
579.67	33.656
580.00	33.665
580.34	33.689
580.67	34.174
581.01	33.512
581.35	33.229
581.68	32.879
582.02	33.045
582.35	33.462
582.69	33.971
583.02	33.453
583.36	34.016
583.70	34.437
584.03	34.376
584.37	34.317
584.70	33.768
585.04	34.139
585.37	33.730
585.71	33.454
586.04	33.333
586.38	32.833
586.72	33.183
587.05	34.123
587.39	34.021
587.72	33.457
588.06	33.817
588.39	33.613
588.73	34.055
589.06	33.495
589.40	34.331
589.73	33.238
590.07	34.233
590.40	33.321
590.73	35.211
591.07	34.225
591.40	33.696
591.74	34.682
592.07	34.322
592.41	34.106
592.74	33.488
593.08	32.991
593.41	33.173
593.75	32.913
594.08	33.472
594.41	33.455
594.75	33.433
595.08	33.458
595.42	33.142
595.75	33.839
596.09	33.872
596.42	33.456
596.75	33.831
597.09	34.122
597.42	34.634
597.75	33.467
598.09	33.789
598.42	34.139
598.76	33.459
599.09	33.533
599.42	33.082
599.76	33.383
600.09	32.907
600.42	33.183
600.76	32.705
601.09	33.070
601.42	33.516
601.76	33.475
602.09	33.279
602.42	33.553
602.76	33.263
603.09	33.634
603.42	33.866
603.76	32.307
604.09	32.727
604.42	33.571
604.76	32.519
605.09	33.530
605.42	34.188
605.75	32.163
606.09	32.243
606.42	33.167
606.75	32.857
607.09	33.422
607.42	33.406
607.75	31.685
608.08	33.093
608.42	33.411
608.75	33.493
609.08	33.219
609.41	33.383
609.75	33.283
610.08	33.383
610.41	33.285
610.74	32.916
611.07	33.768
611.41	32.549
611.74	33.126
612.07	33.246
612.40	33.297
612.73	32.876
613.07	33.481
613.40	32.764
613.73	31.636
614.06	33.167
614.39	32.963
614.72	33.093
615.06	32.500
615.39	33.278
615.72	33.045
616.05	32.770
616.38	33.620
616.71	32.693
617.05	34.091
617.38	34.073
617.71	33.333
618.04	33.090
618.37	32.366
618.70	33.247
619.03	32.852
619.36	34.235
619.69	32.675
620.03	33.710
620.36	32.985
620.69	32.263
621.02	33.538
621.35	33.361
621.68	33.170
622.01	33.414
622.34	32.117
622.67	33.359
623.00	34.043
623.33	33.283
623.66	33.755
623.99	33.458
624.32	32.722
624.65	33.531
624.99	32.550
625.32	33.010
625.65	33.411
625.98	33.175
626.31	33.714
626.64	34.308
626.97	34.516
627.30	33.276
627.63	34.170
627.96	33.074
628.29	34.698
628.62	34.526
628.95	35.170
629.28	34.286
629.61	33.971
629.94	34.236
630.26	33.202
630.59	34.066
630.92	33.735
631.25	33.574
631.58	35.118
631.91	32.874
632.24	33.480
632.57	34.778
632.90	35.473
633.23	34.532
633.56	35.372
633.89	35.167
634.22	34.511
634.55	36.663
634.88	33.088
635.20	34.500
635.53	34.367
635.86	33.846
636.19	34.864
636.52	34.268
636.85	32.690
637.18	32.156
637.51	33.333
637.83	35.509
638.16	32.667
638.49	32.443
638.82	34.641
639.15	33.644
639.48	32.353
639.81	34.167
640.13	34.085
640.46	35.452
640.79	34.820
641.12	31.657
641.45	32.606
641.77	34.315
642.10	36.157
642.43	35.535
642.76	33.281
643.09	36.262
643.41	36.204
643.74	34.572
644.07	34.304
644.40	36.816
644.73	33.390
645.05	32.984
645.38	32.060
645.71	36.565
646.04	33.333
646.36	35.243
646.69	34.091
647.02	34.791
647.35	35.283
647.67	33.087
648.00	34.601
648.33	34.576
648.66	33.890
648.98	32.453
649.31	33.129
649.64	34.585
649.96	36.177
650.29	32.190
650.62	33.443
650.94	33.276
651.27	32.509
651.60	33.741
651.92	33.871
652.25	35.008
652.58	33.828
652.90	34.007
653.23	33.277
653.56	31.405
653.88	32.765
654.21	30.375
654.54	33.555
654.86	31.382
655.19	31.793
655.52	31.335
655.84	28.753
656.17	34.178
656.49	45.308
656.82	45.770
657.15	34.700
657.47	26.035
657.80	19.513
658.13	20.830
658.45	31.414
658.78	31.623
659.10	32.473
659.43	33.063
659.75	32.910
660.08	33.862
660.41	31.744
660.73	31.267
661.06	31.973
661.38	34.690
661.71	34.631
662.03	32.981
662.36	33.407
662.68	34.409
663.01	33.475
663.33	36.933
663.66	32.594
663.98	35.056
664.31	33.187
664.63	27.252
664.96	32.385
665.28	36.910
665.61	29.806
665.93	33.833
666.26	36.287
666.58	32.762
666.91	34.081
667.23	36.406
667.56	32.644
667.88	32.710
668.21	32.589
668.53	34.713
668.86	32.614
669.18	32.861
669.50	35.253
669.83	32.458
670.15	33.810
670.48	34.483
670.80	36.105
671.13	32.037
671.45	31.963
671.77	33.621
672.10	30.019
672.42	33.969
672.75	33.214
673.07	33.091
673.39	33.769
673.72	34.930
674.04	34.836
674.37	31.911
674.69	31.276
675.01	32.051
675.34	33.479
675.66	30.501
675.98	30.973
676.31	32.805
676.63	31.973
676.95	32.706
677.28	31.193
677.60	31.618
677.92	33.259
678.25	34.273
678.57	34.420
678.89	31.130
679.22	32.505
679.54	32.041
679.86	33.984
680.18	34.038
680.51	30.192
680.83	29.045
681.15	33.792
681.48	30.862
681.80	32.515
682.12	30.625
682.44	30.181
682.77	29.263
683.09	31.027
683.41	31.860
683.73	29.018
684.06	34.071
684.38	29.915
684.70	31.772
685.02	34.091
685.34	33.464
685.67	32.458
685.99	31.495
686.31	31.379
686.63	30.147
686.96	33.581
687.28	30.339
687.60	32.136
687.92	32.296
688.24	31.200
688.56	32.456
688.89	29.176
689.21	32.960
689.53	27.252
689.85	32.360
690.17	31.868
690.49	33.092
690.82	28.401
691.14	32.367
691.46	30.626
691.78	31.648
692.10	31.635
692.42	27.692
692.74	34.130
693.06	29.888
693.39	28.806
693.71	32.889
694.03	31.818
694.35	33.333
694.67	32.250
694.99	30.670
695.31	31.266
695.63	30.732
695.95	31.552
696.27	26.301
696.59	29.570
696.91	31.006
697.23	29.442
697.56	31.655
697.88	31.185
698.20	33.477
698.52	31.776
698.84	31.100
699.16	31.206
699.48	31.358
699.80	33.850
700.12	32.440
700.44	29.296
700.76	28.652
701.08	33.535
701.40	32.335
701.72	31.077
702.04	26.415
702.36	30.183
702.68	29.268
703.00	32.456
703.32	31.476
703.64	31.325
703.96	31.965
704.28	29.819
704.60	28.963
704.91	30.721
705.23	30.380
705.55	27.931
705.87	33.451
706.19	25.641
706.51	30.282
706.83	30.573
707.15	25.305
707.47	29.477
707.79	27.411
708.11	27.763
708.43	30.711
708.74	32.713
709.06	29.412
709.38	31.124
709.70	32.132
710.02	30.218
710.34	31.667
710.66	31.596
710.98	28.173
711.29	33.442
711.61	27.097
711.93	31.935
712.25	26.923
712.57	28.421
712.89	27.106
713.20	28.723
713.52	31.387
713.84	26.129
714.16	30.744
714.48	34.177
714.80	27.796
715.11	33.140
715.43	26.398
715.75	28.882
716.07	29.217
716.39	31.313
716.70	32.014
717.02	31.373
717.34	31.061
717.66	31.466
717.97	30.159
718.29	33.858
718.61	30.472
718.93	32.946
719.24	31.365
719.56	31.835
719.88	29.478
720.20	32.806
720.51	30.078
720.83	34.241
721.15	22.358
721.46	26.718
721.78	29.880
722.10	27.888
722.42	27.016
722.73	27.027
723.05	32.653
723.37	32.773
723.68	25.600
724.00	25.532
724.32	28.033
724.63	32.510
724.95	26.923
725.27	35.021
725.58	30.864
725.90	29.707
726.22	30.435
726.53	30.196
726.85	27.737
727.16	26.667
727.48	30.268
727.80	32.422
728.11	29.508
728.43	30.078
728.74	30.556
729.06	30.400
729.38	31.225
729.69	33.096
730.01	29.740
730.32	25.830
730.64	25.379
730.96	31.818
731.27	28.428
731.59	29.841
731.90	29.773
732.22	27.564
732.53	25.676
732.85	26.174
733.16	27.723
733.48	30.743
733.80	27.027
734.11	28.716
734.43	28.793
734.74	30.631
735.06	29.107
735.37	26.748
735.69	29.773
736.00	28.383
736.32	26.950
736.63	28.276
736.95	29.795
737.26	28.276
737.58	26.736
737.89	29.897
738.21	27.046
738.52	27.376
738.83	33.061
739.15	24.051
739.46	25.292
739.78	25.000
740.09	32.534
740.41	24.643
740.72	25.177
741.04	22.000
741.35	25.877
741.66	32.444
741.98	26.442
742.29	36.139
742.61	33.171
742.92	32.456
743.23	26.887
743.55	27.477
743.86	26.009
744.18	26.471
744.49	28.426
744.80	23.980
745.12	28.972
745.43	27.488
745.74	27.477
746.06	28.972
746.37	26.147
746.68	26.923
747.00	30.144
747.31	23.558
747.62	31.193
747.94	31.441
748.25	27.064
748.56	30.667
748.88	35.211
749.19	27.619
749.50	28.155
749.82	26.291
750.13	24.583
750.44	27.308
750.75	25.461
751.07	29.181
751.38	30.142
751.69	26.255
752.01	30.078
752.32	24.231
752.63	33.955
752.94	26.400
753.26	28.452
753.57	28.750
753.88	31.174
754.19	27.092
754.51	28.947
754.82	22.711
755.13	27.391
755.44	29.675
755.75	24.800
756.07	26.937
756.38	31.655
756.69	28.669
757.00	26.480
757.31	23.301
757.63	25.309
757.94	25.989
758.25	28.307
758.56	26.359
758.87	27.381
759.18	28.076
759.50	26.936
759.81	27.759
760.12	27.692
760.43	24.107
760.74	27.119
761.05	24.586
761.36	24.642
761.67	27.190
761.99	24.742
762.30	26.642
762.61	27.984
762.92	28.632
763.23	29.098
763.54	29.870
763.85	24.082
764.16	23.171
764.47	29.600
764.78	26.786
765.10	25.246
765.41	26.748
765.72	29.814
766.03	23.432
766.34	27.692
766.65	25.941
766.96	27.230
767.27	31.683
767.58	19.101
767.89	26.543
768.20	19.337
768.51	32.663
768.82	27.404
769.13	30.973
769.44	29.289
769.75	21.368
770.06	30.942
770.37	21.569
770.68	29.612
770.99	23.301
771.30	28.571
771.61	26.122
771.92	32.365
772.23	25.225
772.54	23.204
772.85	24.419
773.16	30.688
773.47	22.485
773.78	31.034
774.09	27.500
774.39	29.814
774.70	35.374
775.01	19.310
775.32	30.000
775.63	27.068
775.94	21.053
776.25	25.600
776.56	32.231
776.87	27.778
777.18	34.234
777.48	29.730
777.79	24.409
778.10	33.028
778.41	34.211
778.72	18.487
779.03	21.831
779.34	28.378
779.65	28.169
779.95	23.179
780.26	31.655
780.57	26.619
780.88	17.606
781.19	20.168
781.50	30.201
781.80	26.316
782.11	27.326
782.42	25.157
782.73	30.719
783.04	24.138
783.34	22.901
783.65	21.477
783.96	28.462
784.27	23.571
784.57	32.624
784.88	22.115
785.19	30.909
785.50	23.636
785.81	24.762
786.11	34.454
786.42	30.088
786.73	17.925
787.04	15.596
787.34	26.733
787.65	27.500
787.96	20.661
788.26	27.536
788.57	20.635
788.88	20.325
789.19	27.200
789.49	24.427
789.80	28.030
790.11	18.868
790.41	28.713
790.72	28.723
791.03	15.217
791.33	22.353
791.64	19.753
791.95	21.739
792.25	20.455
792.56	32.051
792.87	25.641
793.17	19.231
793.48	25.000
793.79	18.750
794.09	36.538
794.40	32.292
794.70	20.721
795.01	21.094
795.32	27.826
795.62	10.870
795.93	19.811
796.23	16.162
796.54	28.049
796.85	28.571
797.15	25.758
797.46	31.884
797.76	36.842
798.07	29.545
798.37	10.976
798.68	19.355
798.99	14.865
799.29	32.530
799.60	32.051
799.90	35.385
800.21	27.273
800.51	14.667
800.82	21.333
801.12	-4.167
801.43	6.667
801.73	16.216
802.04	32.857
802.34	21.311
802.65	32.836
802.95	16.364
803.26	20.690
803.56	38.462
803.87	43.396
804.17	38.710
804.48	17.647
804.78	4.878
805.09	28.986
805.39	22.059
805.70	8.511
806.00	26.316
806.30	33.333
806.61	27.632
806.91	24.324
807.22	17.105
807.52	30.682
807.83	3.390
808.13	4.545
808.43	21.667
808.74	1.724
809.04	7.937
809.35	34.694
809.65	15.000
809.95	4.082
810.26	38.028
810.56	20.833
810.86	14.286
811.17	38.462
811.47	25.532
811.77	8.333
812.08	24.528
812.38	-3.125
812.69	12.727
812.99	26.829
813.29	13.514
813.59	18.919
813.90	25.455
814.20	34.545
814.50	36.667
814.81	29.091
815.11	17.544
815.41	39.535
815.72	20.000
816.02	34.286
816.32	21.622
816.62	50.000
816.93	15.556
817.23	11.111
817.53	-19.444
817.84	2.703
818.14	21.951
818.44	48.000
818.74	30.612
819.04	34.146
819.35	30.556
819.65	43.182
819.95	-66.667
820.25	3.030
820.56	19.048
820.86	30.556
821.16	22.727
821.46	30.435
821.76	8.621
822.07	32.609
822.37	33.333
822.67	34.146
822.97	21.622
823.27	-17.143
823.57	41.379
823.88	14.706
824.18	16.667
824.48	54.286
824.78	-14.286
825.08	35.714
825.38	29.630
825.69	-9.677
825.99	7.317
826.29	-14.815
826.59	3.125
826.89	45.161
827.19	34.783
827.49	-25.000
827.79	4.348
828.09	25.806
828.39	0.000
828.70	12.500
829.00	13.793
829.30	2.703
829.60	0.000
829.90	0.000
830.20	12.500
830.50	-4.545
830.80	-5.882
831.10	-18.182
831.40	-5.882
831.70	-15.385
832.00	54.545
832.30	41.176
832.60	18.919
832.90	1200.000
833.20	28.571
833.50	-55.000
833.80	10.526
834.10	-20.833
834.40	-36.364
834.70	-6.667
835.00	-30.000
835.30	0.000
835.60	19.048
835.90	4.762
836.20	-12.000
836.50	16.667
836.80	31.579
837.10	45.946
837.40	36.667
837.70	17.391
838.00	37.500
838.30	-5.263
838.60	-90.000
838.90	-60.000
839.19	8.333
839.49	-7.692
839.79	10.526
840.09	-116.667
840.39	-90.000
840.69	-9.091
840.99	19.048
841.29	-45.833
841.59	-115.385
841.88	-46.667
842.18	14.286
842.48	0.000
842.78	-71.429
843.08	0.000
843.38	-12.500
843.68	-12.500
843.97	21.429
844.27	-22.222
844.57	-36.364
844.87	-66.667
845.17	36.364
845.47	166.667
845.76	-13.333
846.06	-83.333
846.36	-500.000
846.66	-31.579
846.96	4.545
847.25	-38.889
847.55	-77.778
847.85	4.762
848.15	7.692
848.44	-66.667
848.74	-33.333
849.04	-53.846
849.34	-75.000
849.63	-45.455
849.93	-78.571
850.23	80.000
850.53	-100.000
850.82	38.889
851.12	-6.667
851.42	-11.765
851.71	-37.500
852.01	52.941
852.31	53.846
852.61	-100.000
852.90	11.765
853.20	-13.333
853.50	43.750
853.79	-114.286
854.09	100.000
854.39	45.000
854.68	25.000
854.98	19.048
855.28	12.000
855.57	-12.500
855.87	25.000
856.17	-4.000
856.46	-12.500
856.76	50.000
857.05	28.000
857.35	-25.000
857.65	35.294
857.94	-25.000
858.24	-33.333
858.53	-10.000
858.83	-54.545
859.13	4.000
859.42	-42.857
859.72	12.500
860.01	-12.500
860.31	-212.500
860.60	6.250
860.90	-116.667
861.20	-33.333
861.49	33.333
861.79	-6.250
862.08	-0.000
862.38	-83.333
862.67	271.429
862.97	200.000
863.26	9.091
863.56	9.091
863.85	47.368
864.15	5.882
864.44	-100.000
864.74	70.000
865.03	-100.000
865.33	21.429
865.62	135.714
865.92	31.579
866.21	-50.000
866.51	72.727
866.80	-55.556
867.10	-112.500
867.39	50.000
867.69	-53.333
867.98	-10.000
868.27	35.294
868.57	0.000
868.86	100.000
869.16	-175.000
869.45	-142.857
869.75	-100.000
870.04	30.000
870.33	-600.000
870.63	26.316
870.92	-66.667
871.22	-500.000
871.51	-57.143
871.80	-66.667
872.10	-300.000
>>>>>End Processed Spectral Data<<<<<
