SpectraSuite Data File
++++++++++++++++++++++++++++++++++++
Date: Wed May 13 21:02:23 PDT 2015
User: schluterlab
Dark Spectrum Present: Yes
Reference Spectrum Present: Yes
Number of Sampled Component Spectra: 1
Spectrometers: USB2E3373
Integration Time (usec): 3000 (USB2E3373)
Spectra Averaged: 3 (USB2E3373)
Boxcar Smoothing: 0 (USB2E3373)
Correct for Electrical Dark: No (USB2E3373)
Strobe/Lamp Enabled: No (USB2E3373)
Correct for Detector Non-linearity: No (USB2E3373)
Correct for Stray Light: No (USB2E3373)
Number of Pixels in Processed Spectrum: 2048
>>>>>Begin Processed Spectral Data<<<<<
178.53	0.000
178.91	250.000
179.29	66.667
179.67	-200.000
180.04	-33.333
180.42	-100.000
180.80	1300.000
181.18	233.333
181.56	-275.000
181.94	100.000
182.31	36.364
182.69	107.692
183.07	20.000
183.45	200.000
183.83	66.667
184.20	100.000
184.58	266.667
184.96	166.667
185.34	85.714
185.72	0.000
186.09	0.000
186.47	40.000
186.85	-40.000
187.23	250.000
187.61	150.000
187.98	800.000
188.36	12.500
188.74	0.000
189.12	18.182
189.49	140.000
189.87	8.333
190.25	120.000
190.63	-300.000
191.00	40.000
191.38	140.000
191.76	150.000
192.14	108.333
192.51	-5.263
192.89	466.667
193.27	225.000
193.65	0.000
194.02	100.000
194.40	80.000
194.78	600.000
195.15	300.000
195.53	80.000
195.91	25.000
196.29	-133.333
196.66	0.000
197.04	700.000
197.42	140.000
197.79	20.000
198.17	-50.000
198.55	0.000
198.92	100.000
199.30	-266.667
199.68	0.000
200.05	300.000
200.43	-33.333
200.81	-400.000
201.18	-140.000
201.56	-50.000
201.94	450.000
202.31	21.739
202.69	-114.286
203.07	100.000
203.44	40.000
203.82	-333.333
204.19	10.000
204.57	0.000
204.95	33.333
205.32	0.000
205.70	-200.000
206.08	-225.000
206.45	16.667
206.83	-50.000
207.20	-300.000
207.58	30.000
207.96	-400.000
208.33	42.857
208.71	-200.000
209.08	25.000
209.46	250.000
209.84	0.000
210.21	100.000
210.59	1600.000
210.96	160.000
211.34	400.000
211.71	-250.000
212.09	-150.000
212.46	-50.000
212.84	233.333
213.22	125.000
213.59	0.000
213.97	-350.000
214.34	-650.000
214.72	23.077
215.09	162.500
215.47	66.667
215.84	400.000
216.22	-12.500
216.59	50.000
216.97	300.000
217.34	111.111
217.72	0.000
218.09	-133.333
218.47	1200.000
218.84	157.143
219.22	-37.500
219.59	300.000
219.97	50.000
220.34	37.500
220.72	80.000
221.09	0.000
221.47	16.667
221.84	400.000
222.22	0.000
222.59	-100.000
222.97	-333.333
223.34	33.333
223.72	800.000
224.09	-150.000
224.46	27.273
224.84	62.500
225.21	28.571
225.59	-50.000
225.96	66.667
226.34	-50.000
226.71	-28.571
227.08	150.000
227.46	-125.000
227.83	100.000
228.21	0.000
228.58	-400.000
228.95	29.412
229.33	6.250
229.70	-37.500
230.08	-7.692
230.45	-25.000
230.82	-16.667
231.20	114.286
231.57	50.000
231.95	500.000
232.32	66.667
232.69	-35.294
233.07	-1400.000
233.44	-13.043
233.81	-600.000
234.19	20.833
234.56	-40.000
234.93	-20.000
235.31	68.421
235.68	-53.846
236.05	-7.692
236.43	0.000
236.80	9.091
237.17	6.667
237.55	-23.529
237.92	0.000
238.29	22.222
238.67	2.778
239.04	0.000
239.41	-6.383
239.79	19.149
240.16	16.279
240.53	12.500
240.91	8.929
241.28	28.571
241.65	1.613
242.02	10.526
242.40	26.087
242.77	0.000
243.14	8.974
243.51	17.021
243.89	12.500
244.26	24.528
244.63	6.731
245.00	20.833
245.38	9.244
245.75	20.492
246.12	18.045
246.49	4.878
246.87	4.202
247.24	15.541
247.61	10.596
247.98	18.590
248.36	11.243
248.73	10.674
249.10	17.172
249.47	15.591
249.84	15.789
250.22	13.930
250.59	14.019
250.96	15.455
251.33	11.005
251.70	14.644
252.08	12.971
252.45	13.580
252.82	15.589
253.19	12.451
253.56	11.871
253.94	15.302
254.31	14.085
254.68	14.094
255.05	15.512
255.42	9.441
255.79	16.258
256.16	14.826
256.54	14.603
256.91	12.975
257.28	15.409
257.65	11.465
258.02	12.610
258.39	14.912
258.76	14.535
259.14	14.489
259.51	12.640
259.88	10.569
260.25	14.167
260.62	13.202
260.99	15.119
261.36	15.026
261.73	13.086
262.10	13.740
262.47	11.852
262.85	14.179
263.22	13.590
263.59	13.506
263.96	14.842
264.33	11.779
264.70	14.651
265.07	14.352
265.44	11.034
265.81	13.043
266.18	14.579
266.55	13.319
266.92	9.958
267.29	13.580
267.66	14.225
268.03	15.021
268.40	12.288
268.77	16.736
269.14	12.653
269.51	16.427
269.88	13.442
270.25	13.771
270.62	12.090
270.99	13.583
271.36	13.690
271.73	13.454
272.10	15.810
272.47	12.668
272.84	14.961
273.21	11.937
273.58	11.475
273.95	11.321
274.32	13.246
274.69	14.572
275.06	14.841
275.43	13.936
275.80	12.943
276.17	11.786
276.54	14.210
276.91	11.847
277.28	11.552
277.65	13.811
278.02	13.750
278.39	12.789
278.76	13.880
279.13	11.149
279.50	12.069
279.87	11.413
280.23	12.973
280.60	12.630
280.97	13.149
281.34	14.984
281.71	11.382
282.08	12.479
282.45	14.918
282.82	11.342
283.19	12.348
283.56	14.062
283.92	11.621
284.29	12.949
284.66	13.674
285.03	10.912
285.40	13.293
285.77	12.763
286.14	13.222
286.51	13.643
286.87	11.077
287.24	11.799
287.61	13.102
287.98	12.941
288.35	11.923
288.72	11.765
289.08	12.251
289.45	11.894
289.82	13.162
290.19	13.324
290.56	12.074
290.93	12.155
291.29	11.354
291.66	12.158
292.03	11.989
292.40	12.786
292.77	14.190
293.13	11.437
293.50	10.327
293.87	13.067
294.24	10.847
294.60	12.614
294.97	12.169
295.34	9.894
295.71	11.564
296.08	10.471
296.44	11.607
296.81	9.744
297.18	11.500
297.55	11.439
297.91	10.932
298.28	9.927
298.65	9.975
299.02	11.355
299.38	8.589
299.75	10.577
300.12	10.116
300.48	10.409
300.85	11.201
301.22	10.569
301.59	10.798
301.95	9.756
302.32	10.735
302.69	9.944
303.05	10.410
303.42	11.818
303.79	11.356
304.15	9.967
304.52	11.290
304.89	9.967
305.25	10.209
305.62	11.388
305.99	12.078
306.35	12.121
306.72	10.987
307.09	10.428
307.45	12.780
307.82	10.632
308.19	9.927
308.55	9.519
308.92	12.279
309.29	12.012
309.65	10.989
310.02	10.636
310.38	11.280
310.75	11.834
311.12	12.634
311.48	13.254
311.85	11.220
312.22	12.669
312.58	11.884
312.95	11.741
313.31	12.672
313.68	11.546
314.05	11.815
314.41	13.449
314.78	13.852
315.14	13.148
315.51	14.558
315.87	14.551
316.24	15.978
316.61	13.973
316.97	14.074
317.34	12.745
317.70	14.808
318.07	16.859
318.43	14.724
318.80	15.969
319.16	15.827
319.53	14.875
319.89	16.350
320.26	16.913
320.62	17.146
320.99	17.636
321.35	17.867
321.72	18.479
322.08	18.727
322.45	20.074
322.81	20.610
323.18	19.678
323.54	20.126
323.91	20.777
324.27	21.332
324.64	21.429
325.00	22.485
325.37	23.976
325.73	23.569
326.10	24.306
326.46	25.585
326.83	26.375
327.19	26.098
327.56	26.350
327.92	28.721
328.29	28.464
328.65	29.273
329.01	28.056
329.38	30.348
329.74	30.901
330.11	31.560
330.47	30.469
330.84	32.040
331.20	30.828
331.56	32.880
331.93	32.989
332.29	33.536
332.66	33.220
333.02	33.884
333.38	33.684
333.75	34.215
334.11	34.375
334.48	33.653
334.84	32.862
335.20	33.791
335.57	34.204
335.93	32.474
336.29	35.201
336.66	35.299
337.02	35.043
337.38	34.552
337.75	35.228
338.11	34.415
338.47	33.904
338.84	34.708
339.20	35.273
339.56	34.983
339.93	35.091
340.29	35.440
340.65	35.244
341.02	35.275
341.38	34.882
341.74	34.454
342.11	35.012
342.47	34.895
342.83	34.641
343.20	35.787
343.56	35.405
343.92	34.444
344.28	34.903
344.65	34.449
345.01	34.463
345.37	36.678
345.73	35.948
346.10	36.196
346.46	35.203
346.82	35.795
347.19	35.047
347.55	36.026
347.91	35.698
348.27	35.016
348.63	37.099
349.00	34.827
349.36	35.322
349.72	35.731
350.08	35.023
350.45	35.317
350.81	35.837
351.17	35.797
351.53	35.899
351.89	34.075
352.26	33.591
352.62	35.194
352.98	34.265
353.34	35.266
353.70	36.059
354.07	36.235
354.43	35.925
354.79	36.699
355.15	36.180
355.51	34.852
355.87	36.591
356.24	36.196
356.60	35.653
356.96	35.457
357.32	36.300
357.68	36.516
358.04	35.687
358.40	35.271
358.77	36.239
359.13	36.420
359.49	36.488
359.85	35.330
360.21	36.777
360.57	35.361
360.93	36.343
361.29	36.714
361.66	35.991
362.02	35.285
362.38	35.968
362.74	35.606
363.10	37.383
363.46	36.311
363.82	36.364
364.18	36.041
364.54	37.199
364.90	37.213
365.26	35.598
365.62	36.435
365.98	36.726
366.35	36.170
366.71	36.305
367.07	36.924
367.43	36.237
367.79	36.206
368.15	37.693
368.51	36.639
368.87	36.706
369.23	37.082
369.59	36.575
369.95	36.430
370.31	35.774
370.67	37.002
371.03	37.639
371.39	36.835
371.75	36.500
372.11	36.895
372.47	37.635
372.83	37.656
373.19	36.691
373.55	36.777
373.91	36.563
374.27	36.929
374.63	37.909
374.99	35.306
375.35	36.575
375.71	37.500
376.07	38.314
376.42	38.035
376.78	37.318
377.14	36.881
377.50	38.070
377.86	37.384
378.22	37.105
378.58	37.642
378.94	37.563
379.30	38.226
379.66	38.409
380.02	37.439
380.38	37.651
380.74	38.553
381.09	37.575
381.45	38.392
381.81	37.030
382.17	37.492
382.53	37.785
382.89	37.756
383.25	37.716
383.61	38.015
383.97	37.625
384.32	37.492
384.68	37.261
385.04	37.385
385.40	37.983
385.76	37.774
386.12	37.895
386.48	38.307
386.83	38.235
387.19	37.816
387.55	39.424
387.91	38.868
388.27	37.608
388.62	37.578
388.98	38.110
389.34	37.657
389.70	37.790
390.06	38.563
390.42	37.758
390.77	38.757
391.13	37.374
391.49	38.204
391.85	38.658
392.20	37.782
392.56	38.095
392.92	38.268
393.28	37.885
393.64	39.021
393.99	36.781
394.35	37.963
394.71	38.654
395.07	37.421
395.42	37.843
395.78	37.452
396.14	38.618
396.50	39.062
396.85	38.560
397.21	38.826
397.57	37.453
397.92	37.485
398.28	37.676
398.64	38.251
399.00	37.612
399.35	38.593
399.71	38.672
400.07	38.133
400.42	37.931
400.78	37.583
401.14	37.646
401.49	36.669
401.85	39.189
402.21	38.204
402.57	39.362
402.92	38.360
403.28	36.898
403.63	37.880
403.99	37.876
404.35	38.342
404.70	36.979
405.06	36.935
405.42	37.186
405.77	36.866
406.13	36.229
406.49	38.286
406.84	38.400
407.20	36.767
407.55	39.416
407.91	37.260
408.27	37.367
408.62	38.367
408.98	37.115
409.34	36.448
409.69	38.726
410.05	36.816
410.40	37.249
410.76	37.304
411.11	38.868
411.47	37.558
411.83	36.245
412.18	36.776
412.54	37.343
412.89	38.245
413.25	37.109
413.60	36.552
413.96	37.141
414.31	37.176
414.67	37.460
415.03	37.212
415.38	37.318
415.74	37.752
416.09	37.541
416.45	37.662
416.80	37.383
417.16	37.584
417.51	36.839
417.87	37.963
418.22	38.009
418.58	37.319
418.93	37.790
419.29	38.680
419.64	36.387
420.00	37.460
420.35	37.537
420.71	36.990
421.06	38.499
421.42	37.348
421.77	37.341
422.12	37.307
422.48	36.696
422.83	37.566
423.19	36.343
423.54	38.221
423.90	36.817
424.25	36.915
424.61	36.722
424.96	37.670
425.31	37.128
425.67	38.389
426.02	37.691
426.38	37.811
426.73	36.775
427.09	37.211
427.44	38.109
427.79	38.242
428.15	37.737
428.50	38.187
428.85	38.007
429.21	36.691
429.56	37.620
429.92	38.834
430.27	38.037
430.62	36.831
430.98	38.075
431.33	37.023
431.68	38.818
432.04	38.310
432.39	37.818
432.74	37.400
433.10	38.931
433.45	37.574
433.80	39.080
434.16	37.029
434.51	37.935
434.86	37.691
435.22	38.031
435.57	37.961
435.92	38.480
436.28	36.817
436.63	39.781
436.98	37.955
437.34	39.072
437.69	37.721
438.04	36.389
438.39	38.979
438.75	39.392
439.10	38.693
439.45	38.378
439.81	38.362
440.16	38.667
440.51	37.872
440.86	38.115
441.22	39.931
441.57	38.937
441.92	38.569
442.27	37.933
442.63	37.729
442.98	39.178
443.33	37.302
443.68	37.744
444.03	37.854
444.39	38.671
444.74	37.327
445.09	37.555
445.44	38.761
445.79	38.875
446.15	38.270
446.50	37.610
446.85	39.017
447.20	38.369
447.55	38.332
447.91	38.090
448.26	39.051
448.61	38.205
448.96	38.781
449.31	39.749
449.66	38.751
450.02	39.284
450.37	39.072
450.72	37.830
451.07	39.875
451.42	37.679
451.77	38.892
452.12	39.037
452.47	38.606
452.83	37.323
453.18	38.256
453.53	38.903
453.88	38.675
454.23	39.926
454.58	39.828
454.93	38.871
455.28	38.215
455.63	38.178
455.98	38.405
456.34	37.889
456.69	39.617
457.04	39.381
457.39	38.545
457.74	38.600
458.09	38.389
458.44	40.012
458.79	38.331
459.14	37.978
459.49	38.598
459.84	37.993
460.19	38.415
460.54	38.990
460.89	39.245
461.24	38.779
461.59	38.647
461.94	38.875
462.29	38.787
462.64	39.050
462.99	39.571
463.34	39.019
463.69	39.948
464.04	38.595
464.39	39.536
464.74	38.636
465.09	37.508
465.44	39.338
465.79	39.275
466.14	37.856
466.49	39.179
466.84	39.211
467.19	37.261
467.54	39.598
467.89	38.718
468.24	38.844
468.59	38.942
468.94	39.591
469.29	39.855
469.64	39.888
469.99	39.724
470.34	38.975
470.68	40.223
471.03	38.858
471.38	39.847
471.73	39.986
472.08	40.137
472.43	39.446
472.78	39.757
473.13	37.665
473.48	37.834
473.83	38.669
474.17	40.430
474.52	39.223
474.87	38.540
475.22	38.708
475.57	39.041
475.92	38.986
476.27	38.345
476.61	38.222
476.96	39.920
477.31	39.806
477.66	39.040
478.01	38.297
478.36	39.019
478.70	38.722
479.05	39.456
479.40	39.002
479.75	38.735
480.10	38.450
480.45	38.352
480.79	38.776
481.14	39.007
481.49	39.122
481.84	37.936
482.19	37.101
482.53	38.190
482.88	37.824
483.23	37.680
483.58	39.036
483.92	38.619
484.27	38.060
484.62	37.994
484.97	38.200
485.31	37.995
485.66	36.265
486.01	35.094
486.36	35.160
486.70	35.104
487.05	36.220
487.40	37.677
487.75	37.669
488.09	37.535
488.44	38.030
488.79	38.266
489.13	38.807
489.48	38.136
489.83	38.857
490.17	38.675
490.52	39.738
490.87	37.135
491.22	38.907
491.56	39.866
491.91	38.886
492.26	38.491
492.60	38.817
492.95	39.942
493.30	38.517
493.64	37.458
493.99	38.213
494.34	38.680
494.68	38.854
495.03	38.488
495.37	38.735
495.72	38.897
496.07	39.406
496.41	38.091
496.76	38.483
497.11	39.624
497.45	38.473
497.80	39.273
498.14	39.295
498.49	38.780
498.84	38.006
499.18	38.576
499.53	38.799
499.87	38.574
500.22	38.825
500.56	38.465
500.91	38.632
501.26	38.670
501.60	38.529
501.95	38.716
502.29	38.058
502.64	38.476
502.98	38.825
503.33	38.443
503.67	38.997
504.02	38.235
504.36	39.029
504.71	38.008
505.06	38.563
505.40	38.557
505.75	39.929
506.09	39.142
506.44	38.357
506.78	38.446
507.13	38.410
507.47	38.706
507.82	39.508
508.16	38.997
508.51	37.862
508.85	38.258
509.19	37.460
509.54	39.571
509.88	39.247
510.23	38.158
510.57	39.142
510.92	39.170
511.26	39.219
511.61	40.121
511.95	39.140
512.30	38.145
512.64	38.706
512.98	39.224
513.33	40.000
513.67	39.693
514.02	39.966
514.36	39.157
514.70	38.510
515.05	39.380
515.39	39.210
515.74	38.840
516.08	38.466
516.42	39.113
516.77	39.133
517.11	39.565
517.46	40.036
517.80	40.557
518.14	39.008
518.49	39.060
518.83	39.200
519.17	39.398
519.52	39.445
519.86	39.284
520.20	38.629
520.55	39.241
520.89	41.113
521.23	41.218
521.58	40.518
521.92	39.786
522.26	40.729
522.61	39.690
522.95	40.091
523.29	40.063
523.64	39.479
523.98	37.865
524.32	39.698
524.66	38.636
525.01	39.056
525.35	39.236
525.69	38.701
526.04	39.088
526.38	38.687
526.72	40.237
527.06	39.201
527.41	39.643
527.75	38.518
528.09	41.116
528.43	40.231
528.78	38.889
529.12	40.686
529.46	39.667
529.80	38.706
530.15	38.803
530.49	39.825
530.83	38.863
531.17	40.068
531.51	38.840
531.86	39.837
532.20	39.559
532.54	38.690
532.88	39.483
533.22	38.923
533.57	39.272
533.91	39.355
534.25	39.258
534.59	38.546
534.93	37.819
535.27	38.662
535.62	38.421
535.96	37.996
536.30	39.295
536.64	38.346
536.98	38.542
537.32	39.929
537.66	39.069
538.01	38.003
538.35	38.950
538.69	37.993
539.03	37.181
539.37	37.357
539.71	38.131
540.05	37.314
540.39	37.233
540.73	39.385
541.07	38.027
541.42	38.519
541.76	38.701
542.10	37.982
542.44	38.739
542.78	37.821
543.12	37.668
543.46	37.457
543.80	36.999
544.14	37.715
544.48	38.288
544.82	37.256
545.16	36.376
545.50	38.082
545.84	37.798
546.18	37.938
546.52	36.627
546.86	37.173
547.20	36.955
547.54	36.383
547.88	37.652
548.22	35.961
548.56	36.157
548.90	37.077
549.24	36.806
549.58	36.512
549.92	38.885
550.26	38.967
550.60	36.862
550.94	37.313
551.28	37.472
551.62	37.895
551.96	37.482
552.30	36.972
552.64	35.593
552.98	38.778
553.32	37.563
553.66	36.390
554.00	37.725
554.34	36.777
554.68	37.733
555.02	37.051
555.36	37.443
555.69	36.926
556.03	36.169
556.37	36.344
556.71	36.720
557.05	36.458
557.39	36.699
557.73	37.368
558.07	36.699
558.41	38.002
558.75	38.568
559.08	36.247
559.42	37.687
559.76	36.927
560.10	37.663
560.44	37.509
560.78	36.547
561.12	37.141
561.45	36.122
561.79	36.726
562.13	37.342
562.47	36.857
562.81	36.797
563.15	35.977
563.48	36.201
563.82	35.978
564.16	36.154
564.50	35.414
564.84	35.068
565.17	34.768
565.51	35.829
565.85	35.243
566.19	35.828
566.52	36.042
566.86	34.387
567.20	34.942
567.54	34.082
567.88	33.819
568.21	33.351
568.55	34.690
568.89	32.602
569.23	33.914
569.56	32.874
569.90	32.400
570.24	31.119
570.57	31.934
570.91	31.391
571.25	30.382
571.59	30.728
571.92	31.211
572.26	30.918
572.60	30.890
572.93	31.396
573.27	31.370
573.61	30.579
573.95	30.619
574.28	30.549
574.62	29.622
574.96	30.290
575.29	30.316
575.63	30.348
575.97	30.842
576.30	29.901
576.64	29.971
576.98	29.818
577.31	29.818
577.65	29.357
577.98	29.588
578.32	29.322
578.66	29.942
578.99	30.070
579.33	30.460
579.67	30.321
580.00	30.112
580.34	29.472
580.67	30.132
581.01	28.871
581.35	29.096
581.68	29.226
582.02	28.865
582.35	29.438
582.69	29.469
583.02	29.741
583.36	29.776
583.70	29.946
584.03	29.927
584.37	29.481
584.70	29.827
585.04	29.869
585.37	29.380
585.71	29.571
586.04	29.373
586.38	29.361
586.72	29.756
587.05	30.288
587.39	29.595
587.72	29.388
588.06	29.631
588.39	29.947
588.73	29.783
589.06	30.424
589.40	30.375
589.73	29.896
590.07	30.332
590.40	30.064
590.73	31.402
591.07	31.258
591.40	30.304
591.74	30.369
592.07	30.717
592.41	31.231
592.74	30.054
593.08	29.197
593.41	29.608
593.75	29.522
594.08	30.017
594.41	30.165
594.75	29.948
595.08	30.396
595.42	29.814
595.75	29.465
596.09	30.408
596.42	30.270
596.75	31.022
597.09	30.664
597.42	30.283
597.75	30.578
598.09	31.056
598.42	31.409
598.76	29.975
599.09	30.012
599.42	30.023
599.76	30.079
600.09	29.970
600.42	29.379
600.76	29.970
601.09	29.831
601.42	29.753
601.76	29.653
602.09	30.077
602.42	30.293
602.76	29.488
603.09	30.308
603.42	30.428
603.76	29.150
604.09	29.802
604.42	29.343
604.76	30.423
605.09	30.403
605.42	30.859
605.75	30.193
606.09	29.553
606.42	30.133
606.75	28.485
607.09	30.142
607.42	29.772
607.75	29.015
608.08	29.576
608.42	30.740
608.75	30.913
609.08	30.769
609.41	29.657
609.75	30.308
610.08	30.227
610.41	30.855
610.74	30.606
611.07	29.609
611.41	30.655
611.74	30.849
612.07	30.068
612.40	31.189
612.73	30.681
613.07	31.319
613.40	30.837
613.73	31.311
614.06	31.288
614.39	30.017
614.72	30.483
615.06	30.556
615.39	30.684
615.72	29.212
616.05	30.068
616.38	30.298
616.71	30.834
617.05	31.511
617.38	30.314
617.71	30.576
618.04	30.774
618.37	29.842
618.70	30.466
619.03	31.203
619.36	31.957
619.69	32.237
620.03	30.106
620.36	30.967
620.69	31.192
621.02	30.308
621.35	30.989
621.68	30.644
622.01	31.715
622.34	31.245
622.67	31.402
623.00	31.231
623.33	30.142
623.66	31.078
623.99	31.058
624.32	30.961
624.65	31.083
624.99	30.860
625.32	32.263
625.65	31.395
625.98	31.675
626.31	32.898
626.64	31.556
626.97	32.266
627.30	32.763
627.63	31.142
627.96	31.429
628.29	33.581
628.62	33.946
628.95	32.164
629.28	32.808
629.61	32.727
629.94	31.915
630.26	32.611
630.59	33.566
630.92	32.631
631.25	32.338
631.58	32.548
631.91	32.238
632.24	33.150
632.57	33.667
632.90	33.489
633.23	33.094
633.56	33.693
633.89	33.852
634.22	34.865
634.55	34.836
634.88	33.088
635.20	34.000
635.53	33.850
635.86	33.846
636.19	35.608
636.52	32.805
636.85	33.172
637.18	30.207
637.51	31.710
637.83	34.465
638.16	32.533
638.49	31.108
638.82	33.595
639.15	33.910
639.48	34.626
639.81	33.333
640.13	35.211
640.46	35.311
640.79	34.676
641.12	34.320
641.45	36.681
641.77	32.842
642.10	34.796
642.43	36.792
642.76	33.754
643.09	34.665
643.41	35.885
643.74	34.895
644.07	32.524
644.40	37.645
644.73	35.254
645.05	33.857
645.38	34.884
645.71	35.374
646.04	32.997
646.36	33.854
646.69	35.839
647.02	35.155
647.35	37.294
647.67	34.935
648.00	35.326
648.33	35.085
648.66	35.559
648.98	33.540
649.31	35.123
649.64	32.081
649.96	32.227
650.29	32.516
650.62	33.937
650.94	33.793
651.27	37.456
651.60	34.266
651.92	34.050
652.25	34.171
652.58	32.673
652.90	34.512
653.23	32.088
653.56	32.562
653.88	31.911
654.21	33.276
654.54	34.219
654.86	34.309
655.19	31.513
655.52	27.531
655.84	23.611
656.17	28.296
656.49	37.633
656.82	37.940
657.15	28.796
657.47	21.742
657.80	16.281
658.13	17.543
658.45	25.916
658.78	26.329
659.10	26.489
659.43	26.790
659.75	28.117
660.08	29.172
660.41	30.020
660.73	31.543
661.06	32.653
661.38	32.364
661.71	35.451
662.03	34.038
662.36	35.398
662.68	33.333
663.01	35.805
663.33	34.125
663.66	34.368
663.98	35.506
664.31	33.187
664.63	33.784
664.96	37.199
665.28	36.695
665.61	31.533
665.93	33.619
666.26	34.810
666.58	32.976
666.91	36.323
667.23	35.484
667.56	35.172
667.88	36.215
668.21	32.813
668.53	37.701
668.86	35.492
669.18	36.879
669.50	31.797
669.83	32.697
670.15	32.143
670.48	35.402
670.80	36.324
671.13	31.808
671.45	34.475
671.77	35.129
672.10	31.189
672.42	31.679
672.75	31.250
673.07	31.091
673.39	30.224
673.72	34.331
674.04	31.967
674.37	32.520
674.69	31.070
675.01	32.906
675.34	34.573
675.66	33.551
675.98	32.301
676.31	33.937
676.63	35.601
676.95	35.529
677.28	31.193
677.60	34.314
677.92	35.255
678.25	30.586
678.57	33.401
678.89	32.409
679.22	32.919
679.54	34.490
679.86	31.641
680.18	30.769
680.51	30.385
680.83	29.045
681.15	32.809
681.48	31.062
681.80	31.084
682.12	29.792
682.44	32.193
682.77	28.842
683.09	32.143
683.41	31.860
683.73	31.250
684.06	34.071
684.38	31.838
684.70	29.939
685.02	30.165
685.34	31.115
685.67	31.144
685.99	29.004
686.31	29.655
686.63	29.779
686.96	30.612
687.28	28.743
687.60	32.514
687.92	28.794
688.24	28.800
688.56	31.798
688.89	28.508
689.21	30.269
689.53	31.306
689.85	31.011
690.17	30.549
690.49	33.575
690.82	29.117
691.14	31.401
691.46	30.858
691.78	32.088
692.10	33.758
692.42	29.231
692.74	30.652
693.06	31.011
693.39	28.806
693.71	31.556
694.03	32.273
694.35	31.306
694.67	31.750
694.99	32.474
695.31	33.333
695.63	31.951
695.95	30.789
696.27	29.315
696.59	29.032
696.91	33.799
697.23	27.157
697.56	31.655
697.88	29.938
698.20	31.749
698.52	28.738
698.84	33.014
699.16	27.896
699.48	31.605
699.80	33.075
700.12	31.367
700.44	32.958
700.76	32.303
701.08	32.628
701.40	33.234
701.72	32.615
702.04	29.245
702.36	32.317
702.68	31.098
703.00	33.041
703.32	29.526
703.64	35.542
703.96	34.897
704.28	31.024
704.60	35.366
704.91	30.408
705.23	33.544
705.55	32.759
705.87	33.099
706.19	31.868
706.51	32.042
706.83	26.433
707.15	30.793
707.47	30.579
707.79	27.665
708.11	26.735
708.43	30.964
708.74	28.723
709.06	30.214
709.38	30.259
709.70	32.733
710.02	34.579
710.34	31.000
710.66	34.853
710.98	31.269
711.29	33.766
711.61	28.065
711.93	27.097
712.25	32.517
712.57	25.263
712.89	29.304
713.20	34.397
713.52	32.482
713.84	29.355
714.16	26.214
714.48	30.380
714.80	26.198
715.11	34.884
715.43	29.193
715.75	32.919
716.07	30.723
716.39	30.303
716.70	35.971
717.02	27.451
717.34	32.197
717.66	27.586
717.97	26.984
718.29	32.677
718.61	27.897
718.93	28.682
719.24	32.472
719.56	28.464
719.88	30.970
720.20	28.854
720.51	32.031
720.83	29.572
721.15	25.610
721.46	27.863
721.78	30.677
722.10	29.880
722.42	26.210
722.73	30.116
723.05	34.286
723.37	31.092
723.68	27.200
724.00	24.255
724.32	29.289
724.63	34.568
724.95	28.632
725.27	29.958
725.58	31.687
725.90	31.799
726.22	27.536
726.53	29.020
726.85	31.022
727.16	27.407
727.48	31.418
727.80	26.953
728.11	31.148
728.43	31.250
728.74	26.984
729.06	26.800
729.38	26.482
729.69	25.267
730.01	26.394
730.32	28.413
730.64	24.621
730.96	29.021
731.27	25.418
731.59	28.889
731.90	25.566
732.22	25.321
732.53	27.027
732.85	24.497
733.16	31.023
733.48	26.014
733.80	23.986
734.11	32.770
734.43	28.173
734.74	27.327
735.06	27.666
735.37	29.787
735.69	27.184
736.00	23.432
736.32	29.078
736.63	28.276
736.95	23.973
737.26	21.379
737.58	29.167
737.89	26.460
738.21	28.470
738.52	25.095
738.83	28.571
739.15	31.224
739.46	24.125
739.78	21.127
740.09	27.740
740.41	18.929
740.72	27.305
741.04	24.800
741.35	24.123
741.66	31.556
741.98	37.500
742.29	32.178
742.61	30.732
742.92	34.211
743.23	23.113
743.55	29.730
743.86	28.700
744.18	25.490
744.49	30.457
744.80	27.551
745.12	28.037
745.43	31.280
745.74	28.829
746.06	31.308
746.37	22.018
746.68	27.885
747.00	31.579
747.31	29.808
747.62	30.275
747.94	31.441
748.25	24.771
748.56	34.667
748.88	28.638
749.19	32.857
749.50	24.272
749.82	25.352
750.13	20.417
750.44	24.615
750.75	24.723
751.07	30.605
751.38	29.787
751.69	25.869
752.01	28.516
752.32	26.923
752.63	29.104
752.94	26.000
753.26	26.778
753.57	26.667
753.88	29.150
754.19	25.498
754.51	24.060
754.82	26.007
755.13	26.957
755.44	25.203
755.75	24.400
756.07	21.402
756.38	23.741
756.69	26.621
757.00	26.168
757.31	24.919
757.63	18.210
757.94	25.706
758.25	24.603
758.56	19.837
758.87	27.976
759.18	27.760
759.50	24.916
759.81	26.421
760.12	25.231
760.43	20.536
760.74	22.599
761.05	24.309
761.36	21.203
761.67	23.263
761.99	23.711
762.30	22.993
762.61	23.868
762.92	29.915
763.23	33.607
763.54	28.571
763.85	27.347
764.16	20.732
764.47	22.400
764.78	25.000
765.10	24.590
765.41	24.620
765.72	22.671
766.03	23.762
766.34	23.846
766.65	20.502
766.96	23.005
767.27	28.218
767.58	20.787
767.89	22.222
768.20	24.309
768.51	27.638
768.82	27.404
769.13	27.876
769.44	27.197
769.75	19.231
770.06	21.076
770.37	22.549
770.68	30.583
770.99	21.845
771.30	25.630
771.61	22.449
771.92	26.141
772.23	18.468
772.54	20.442
772.85	24.419
773.16	28.042
773.47	24.852
773.78	27.011
774.09	30.000
774.39	32.298
774.70	26.531
775.01	26.207
775.32	27.143
775.63	30.075
775.94	22.556
776.25	16.000
776.56	23.967
776.87	34.127
777.18	18.018
777.48	28.829
777.79	17.323
778.10	23.853
778.41	17.544
778.72	15.126
779.03	16.197
779.34	26.351
779.65	26.761
779.95	24.503
780.26	25.899
780.57	31.655
780.88	30.986
781.19	20.168
781.50	25.503
781.80	25.731
782.11	16.279
782.42	32.704
782.73	28.758
783.04	22.069
783.34	16.031
783.65	10.067
783.96	26.154
784.27	23.571
784.57	19.858
784.88	9.615
785.19	35.455
785.50	14.545
785.81	20.000
786.11	10.084
786.42	29.204
786.73	25.472
787.04	10.092
787.34	16.832
787.65	19.167
787.96	19.008
788.26	21.739
788.57	23.810
788.88	23.577
789.19	20.000
789.49	16.031
789.80	27.273
790.11	16.981
790.41	21.782
790.72	20.213
791.03	22.826
791.33	20.000
791.64	23.457
791.95	26.087
792.25	28.409
792.56	28.205
792.87	19.231
793.17	8.974
793.48	34.524
793.79	30.000
794.09	28.846
794.40	22.917
794.70	29.730
795.01	25.000
795.32	24.348
795.62	13.043
795.93	17.925
796.23	31.313
796.54	25.610
796.85	28.571
797.15	22.727
797.46	21.739
797.76	11.842
798.07	27.273
798.37	19.512
798.68	19.355
798.99	25.676
799.29	24.096
799.60	21.795
799.90	20.000
800.21	28.788
800.51	29.333
800.82	17.333
801.12	6.250
801.43	10.000
801.73	24.324
802.04	38.571
802.34	8.197
802.65	29.851
802.95	23.636
803.26	29.310
803.56	38.462
803.87	33.962
804.17	20.968
804.48	38.235
804.78	12.195
805.09	14.493
805.39	20.588
805.70	0.000
806.00	26.316
806.30	32.051
806.61	25.000
806.91	20.270
807.22	15.789
807.52	34.091
807.83	10.169
808.13	6.061
808.43	26.667
808.74	-3.448
809.04	17.460
809.35	12.245
809.65	16.667
809.95	0.000
810.26	19.718
810.56	8.333
810.86	28.571
811.17	42.308
811.47	25.532
811.77	6.250
812.08	30.189
812.38	12.500
812.69	10.909
812.99	26.829
813.29	24.324
813.59	32.432
813.90	30.909
814.20	36.364
814.50	31.667
814.81	23.636
815.11	35.088
815.41	44.186
815.72	15.000
816.02	25.714
816.32	35.135
816.62	6.250
816.93	42.222
817.23	-2.222
817.53	2.778
817.84	24.324
818.14	24.390
818.44	24.000
818.74	8.163
819.04	24.390
819.35	8.333
819.65	45.455
819.95	-22.222
820.25	-24.242
820.56	4.762
820.86	-5.556
821.16	-9.091
821.46	13.043
821.76	31.034
822.07	28.261
822.37	60.606
822.67	24.390
822.97	5.405
823.27	-20.000
823.57	55.172
823.88	23.529
824.18	11.111
824.48	34.286
824.78	28.571
825.08	25.000
825.38	33.333
825.69	9.677
825.99	12.195
826.29	3.704
826.59	28.125
826.89	-6.452
827.19	34.783
827.49	11.111
827.79	30.435
828.09	22.581
828.39	16.667
828.70	9.375
829.00	24.138
829.30	27.027
829.60	8.333
829.90	22.222
830.20	9.375
830.50	36.364
830.80	-29.412
831.10	-13.636
831.40	14.706
831.70	23.077
832.00	3.030
832.30	5.882
832.60	16.216
832.90	-500.000
833.20	3.571
833.50	-25.000
833.80	50.000
834.10	0.000
834.40	-18.182
834.70	-20.000
835.00	60.000
835.30	4.167
835.60	-19.048
835.90	47.619
836.20	-20.000
836.50	-20.833
836.80	-42.105
837.10	29.730
837.40	56.667
837.70	17.391
838.00	54.167
838.30	26.316
838.60	-80.000
838.90	-70.000
839.19	-66.667
839.49	53.846
839.79	-10.526
840.09	0.000
840.39	40.000
840.69	9.091
840.99	28.571
841.29	-8.333
841.59	-61.538
841.88	-26.667
842.18	78.571
842.48	40.000
842.78	-128.571
843.08	42.857
843.38	-50.000
843.68	-37.500
843.97	135.714
844.27	0.000
844.57	-90.909
844.87	-13.333
845.17	27.273
845.47	566.667
845.76	-33.333
846.06	16.667
846.36	-350.000
846.66	26.316
846.96	4.545
847.25	-11.111
847.55	22.222
847.85	14.286
848.15	46.154
848.44	-83.333
848.74	41.667
849.04	-38.462
849.34	-400.000
849.63	-81.818
849.93	-64.286
850.23	85.000
850.53	-62.500
850.82	55.556
851.12	20.000
851.42	29.412
851.71	125.000
852.01	35.294
852.31	61.538
852.61	-300.000
852.90	23.529
853.20	6.667
853.50	12.500
853.79	0.000
854.09	175.000
854.39	-15.000
854.68	37.500
854.98	33.333
855.28	16.000
855.57	33.333
855.87	8.333
856.17	-32.000
856.46	-3.125
856.76	45.000
857.05	16.000
857.35	-50.000
857.65	23.529
857.94	-91.667
858.24	8.333
858.53	25.000
858.83	-45.455
859.13	8.000
859.42	-14.286
859.72	-87.500
860.01	41.667
860.31	-162.500
860.60	-25.000
860.90	66.667
861.20	-83.333
861.49	60.000
861.79	37.500
862.08	275.000
862.38	-25.000
862.67	142.857
862.97	150.000
863.26	72.727
863.56	27.273
863.85	63.158
864.15	29.412
864.44	-20.000
864.74	30.000
865.03	-100.000
865.33	57.143
865.62	64.286
865.92	36.842
866.21	-16.667
866.51	-27.273
866.80	44.444
867.10	25.000
867.39	56.250
867.69	-26.667
867.98	-60.000
868.27	70.588
868.57	0.000
868.86	900.000
869.16	-75.000
869.45	57.143
869.75	-0.000
870.04	10.000
870.33	-800.000
870.63	0.000
870.92	-100.000
871.22	-600.000
871.51	-28.571
871.80	-111.111
872.10	-50.000
>>>>>End Processed Spectral Data<<<<<
