SpectraSuite Data File
++++++++++++++++++++++++++++++++++++
Date: Wed May 13 20:47:00 PDT 2015
User: schluterlab
Dark Spectrum Present: Yes
Reference Spectrum Present: Yes
Number of Sampled Component Spectra: 1
Spectrometers: USB2E3373
Integration Time (usec): 3000 (USB2E3373)
Spectra Averaged: 3 (USB2E3373)
Boxcar Smoothing: 0 (USB2E3373)
Correct for Electrical Dark: No (USB2E3373)
Strobe/Lamp Enabled: No (USB2E3373)
Correct for Detector Non-linearity: No (USB2E3373)
Correct for Stray Light: No (USB2E3373)
Number of Pixels in Processed Spectrum: 2048
>>>>>Begin Processed Spectral Data<<<<<
178.53	0.000
178.91	-775.000
179.29	-725.000
179.67	-105.556
180.04	-1000.000
180.42	1650.000
180.80	720.000
181.18	-425.000
181.56	371.429
181.94	0.000
182.31	-214.286
182.69	900.000
183.07	-287.500
183.45	-388.889
183.83	381.818
184.20	-180.000
184.58	1400.000
184.96	3100.000
185.34	-360.000
185.72	-262.500
186.09	-850.000
186.47	1450.000
186.85	1000.000
187.23	3200.000
187.61	-1300.000
187.98	875.000
188.36	318.182
188.74	218.182
189.12	-300.000
189.49	380.000
189.87	-2500.000
190.25	-750.000
190.63	207.143
191.00	261.538
191.38	566.667
191.76	-500.000
192.14	800.000
192.51	337.500
192.89	700.000
193.27	312.500
193.65	-600.000
194.02	320.000
194.40	340.000
194.78	310.000
195.15	358.333
195.53	380.000
195.91	-1500.000
196.29	268.750
196.66	210.526
197.04	-180.000
197.42	0.000
197.79	330.000
198.17	-2400.000
198.55	342.857
198.92	387.500
199.30	360.000
199.68	0.000
200.05	172.222
200.43	485.714
200.81	2100.000
201.18	1000.000
201.56	-966.667
201.94	300.000
202.31	366.667
202.69	191.667
203.07	330.000
203.44	0.000
203.82	675.000
204.19	528.571
204.57	271.429
204.95	487.500
205.32	700.000
205.70	436.364
206.08	250.000
206.45	1750.000
206.83	200.000
207.20	500.000
207.58	380.000
207.96	250.000
208.33	487.500
208.71	-550.000
209.08	457.143
209.46	355.556
209.84	318.182
210.21	-833.333
210.59	925.000
210.96	-237.500
211.34	900.000
211.71	440.000
212.09	400.000
212.46	0.000
212.84	1066.667
213.22	925.000
213.59	-2300.000
213.97	450.000
214.34	471.429
214.72	409.091
215.09	540.000
215.47	-850.000
215.84	-1400.000
216.22	1200.000
216.59	292.857
216.97	650.000
217.34	336.364
217.72	-316.667
218.09	0.000
218.47	-2600.000
218.84	311.111
219.22	514.286
219.59	1066.667
219.97	-300.000
220.34	600.000
220.72	-733.333
221.09	242.857
221.47	950.000
221.84	-533.333
222.22	0.000
222.59	650.000
222.97	-1700.000
223.34	640.000
223.72	215.385
224.09	680.000
224.46	1150.000
224.84	-3100.000
225.21	-640.000
225.59	-2900.000
225.96	410.000
226.34	230.000
226.71	1300.000
227.08	362.500
227.46	420.000
227.83	-450.000
228.21	-1550.000
228.58	288.889
228.95	-1350.000
229.33	-1250.000
229.70	700.000
230.08	585.714
230.45	-640.000
230.82	291.667
231.20	450.000
231.57	400.000
231.95	316.667
232.32	150.000
232.69	181.818
233.07	428.571
233.44	238.462
233.81	-1133.333
234.19	242.105
234.56	266.667
234.93	175.000
235.31	190.909
235.68	169.231
236.05	185.714
236.43	124.242
236.80	157.895
237.17	2500.000
237.55	100.000
237.92	142.857
238.29	166.667
238.67	116.129
239.04	113.793
239.41	97.222
239.79	76.087
240.16	80.952
240.53	90.909
240.91	60.784
241.28	80.000
241.65	62.000
242.02	65.217
242.40	51.613
242.77	51.667
243.14	48.387
243.51	61.798
243.89	49.412
244.26	50.000
244.63	41.935
245.00	31.915
245.38	41.584
245.75	35.514
246.12	35.780
246.49	43.796
246.87	46.400
247.24	39.231
247.61	40.714
247.98	35.948
248.36	31.081
248.73	33.758
249.10	32.484
249.47	31.073
249.84	34.759
250.22	29.947
250.59	32.544
250.96	32.828
251.33	30.806
251.70	36.139
252.08	23.810
252.45	33.184
252.82	33.043
253.19	28.936
253.56	32.157
253.94	29.461
254.31	31.250
254.68	31.154
255.05	29.520
255.42	24.797
255.79	33.824
256.16	25.993
256.54	26.502
256.91	29.893
257.28	24.460
257.65	29.043
258.02	27.640
258.39	27.760
258.76	21.405
259.14	28.571
259.51	24.316
259.88	22.671
260.25	27.190
260.62	23.699
260.99	24.224
261.36	25.826
261.73	23.209
262.10	24.709
262.47	26.479
262.85	23.955
263.22	21.368
263.59	27.350
263.96	24.176
264.33	25.326
264.70	24.737
265.07	24.808
265.44	26.768
265.81	21.898
266.18	23.869
266.55	22.927
266.92	24.079
267.29	25.926
267.66	21.789
268.03	22.727
268.40	22.897
268.77	21.718
269.14	23.649
269.51	23.702
269.88	24.476
270.25	18.736
270.62	21.573
270.99	26.022
271.36	22.747
271.73	22.196
272.10	23.913
272.47	25.161
272.84	22.511
273.21	22.013
273.58	21.834
273.95	23.480
274.32	20.455
274.69	23.769
275.06	21.063
275.43	20.426
275.80	21.443
276.17	20.774
276.54	21.206
276.91	22.925
277.28	21.094
277.65	23.791
278.02	21.532
278.39	23.047
278.76	22.000
279.13	20.755
279.50	22.533
279.87	20.916
280.23	19.361
280.60	20.696
280.97	20.333
281.34	21.062
281.71	22.364
282.08	19.770
282.45	19.455
282.82	22.202
283.19	18.360
283.56	21.404
283.92	21.320
284.29	21.517
284.66	18.693
285.03	20.615
285.40	18.838
285.77	21.212
286.14	20.898
286.51	18.833
286.87	20.342
287.24	21.987
287.61	19.904
287.98	18.669
288.35	19.334
288.72	18.380
289.08	19.092
289.45	19.275
289.82	18.699
290.19	17.896
290.56	20.214
290.93	18.278
291.29	18.712
291.66	17.994
292.03	22.529
292.40	19.236
292.77	17.456
293.13	18.507
293.50	17.784
293.87	18.667
294.24	17.037
294.60	16.157
294.97	17.878
295.34	17.066
295.71	17.187
296.08	16.524
296.44	18.157
296.81	15.852
297.18	16.938
297.55	14.644
297.91	17.282
298.28	17.403
298.65	17.885
299.02	17.787
299.38	16.467
299.75	15.633
300.12	15.581
300.48	16.125
300.85	15.660
301.22	15.159
301.59	15.783
301.95	15.743
302.32	16.945
302.69	16.487
303.05	15.879
303.42	15.432
303.79	15.742
304.15	15.035
304.52	14.368
304.89	15.679
305.25	14.965
305.62	16.421
305.99	17.119
306.35	16.443
306.72	16.256
307.09	15.094
307.45	16.892
307.82	15.179
308.19	16.336
308.55	16.073
308.92	15.575
309.29	16.051
309.65	16.331
310.02	16.173
310.38	16.559
310.75	16.895
311.12	16.888
311.48	15.778
311.85	16.981
312.22	17.794
312.58	16.944
312.95	15.628
313.31	16.796
313.68	17.152
314.05	19.527
314.41	18.894
314.78	16.616
315.14	18.570
315.51	19.156
315.87	19.901
316.24	19.265
316.61	19.103
316.97	19.961
317.34	19.178
317.70	19.790
318.07	20.982
318.43	22.798
318.80	21.368
319.16	23.070
319.53	23.358
319.89	24.095
320.26	25.700
320.62	24.008
320.99	24.949
321.35	25.051
321.72	28.029
322.08	27.443
322.45	27.463
322.81	27.810
323.18	29.480
323.54	29.406
323.91	30.283
324.27	30.115
324.64	31.780
325.00	30.568
325.37	33.303
325.73	33.752
326.10	33.098
326.46	33.781
326.83	35.979
327.19	35.952
327.56	36.672
327.92	37.883
328.29	39.130
328.65	39.134
329.01	39.350
329.38	40.981
329.74	39.889
330.11	40.057
330.47	42.241
330.84	42.647
331.20	41.075
331.56	42.844
331.93	43.241
332.29	43.035
332.66	43.274
333.02	44.698
333.38	44.535
333.75	44.920
334.11	44.128
334.48	43.656
334.84	45.404
335.20	46.000
335.57	44.062
335.93	43.929
336.29	46.062
336.66	45.897
337.02	44.525
337.38	46.204
337.75	45.098
338.11	46.374
338.47	46.041
338.84	46.929
339.20	47.431
339.56	48.814
339.93	46.909
340.29	46.830
340.65	46.613
341.02	47.382
341.38	46.797
341.74	47.895
342.11	47.162
342.47	46.608
342.83	45.976
343.20	47.013
343.56	45.577
343.92	46.842
344.28	46.259
344.65	47.549
345.01	46.801
345.37	46.226
345.73	46.531
346.10	46.547
346.46	47.034
346.82	45.799
347.19	46.032
347.55	46.552
347.91	46.683
348.27	45.686
348.63	46.990
349.00	46.764
349.36	47.701
349.72	45.389
350.08	46.515
350.45	46.216
350.81	46.141
351.17	46.353
351.53	46.355
351.89	45.050
352.26	47.198
352.62	45.630
352.98	45.867
353.34	47.001
353.70	45.908
354.07	45.403
354.43	45.317
354.79	44.489
355.15	44.374
355.51	46.603
355.87	46.694
356.24	46.661
356.60	45.148
356.96	46.822
357.32	46.116
357.68	45.827
358.04	46.239
358.40	46.002
358.77	44.601
359.13	44.515
359.49	45.176
359.85	44.762
360.21	45.136
360.57	46.304
360.93	45.923
361.29	44.293
361.66	45.201
362.02	45.597
362.38	44.715
362.74	45.238
363.10	44.115
363.46	44.828
363.82	44.218
364.18	44.347
364.54	46.434
364.90	44.688
365.26	44.485
365.62	44.485
365.98	43.974
366.35	43.553
366.71	43.890
367.07	44.647
367.43	44.485
367.79	46.181
368.15	45.690
368.51	44.331
368.87	44.897
369.23	44.623
369.59	45.474
369.95	43.824
370.31	44.373
370.67	43.768
371.03	45.318
371.39	43.367
371.75	44.191
372.11	43.314
372.47	44.721
372.83	44.741
373.19	44.220
373.55	45.085
373.91	46.244
374.27	44.124
374.63	45.164
374.99	43.079
375.35	44.592
375.71	43.592
376.07	44.719
376.42	45.461
376.78	44.665
377.14	44.030
377.50	44.371
377.86	44.614
378.22	43.932
378.58	41.980
378.94	44.375
379.30	44.275
379.66	44.226
380.02	42.936
380.38	42.502
380.74	43.818
381.09	44.132
381.45	44.315
381.81	44.533
382.17	44.331
382.53	44.403
382.89	44.815
383.25	44.403
383.61	44.672
383.97	45.278
384.32	43.668
384.68	43.866
385.04	43.516
385.40	43.282
385.76	42.936
386.12	44.171
386.48	45.249
386.83	45.414
387.19	44.898
387.55	44.156
387.91	43.531
388.27	42.918
388.62	44.683
388.98	43.059
389.34	43.930
389.70	43.532
390.06	44.677
390.42	42.802
390.77	42.621
391.13	44.863
391.49	45.114
391.85	43.348
392.20	43.912
392.56	44.255
392.92	44.261
393.28	43.314
393.64	43.585
393.99	43.800
394.35	43.548
394.71	43.538
395.07	43.053
395.42	44.808
395.78	42.684
396.14	43.203
396.50	43.108
396.85	43.484
397.21	42.663
397.57	42.901
397.92	42.728
398.28	42.377
398.64	43.250
399.00	42.865
399.35	42.358
399.71	42.708
400.07	42.401
400.42	42.822
400.78	43.124
401.14	44.146
401.49	42.925
401.85	42.952
402.21	41.916
402.57	42.505
402.92	43.632
403.28	43.223
403.63	43.193
403.99	42.293
404.35	43.273
404.70	42.266
405.06	41.351
405.42	42.545
405.77	43.200
406.13	42.664
406.49	42.756
406.84	42.174
407.20	41.667
407.55	42.502
407.91	42.733
408.27	42.502
408.62	42.685
408.98	42.647
409.34	42.804
409.69	42.387
410.05	41.945
410.40	43.242
410.76	42.055
411.11	42.581
411.47	41.725
411.83	42.761
412.18	41.682
412.54	41.781
412.89	42.289
413.25	42.031
413.60	42.495
413.96	40.862
414.31	41.191
414.67	42.395
415.03	42.318
415.38	41.688
415.74	42.379
416.09	41.411
416.45	40.964
416.80	41.970
417.16	41.354
417.51	42.734
417.87	41.618
418.22	41.514
418.58	42.673
418.93	42.138
419.29	42.266
419.64	43.199
420.00	41.341
420.35	41.333
420.71	42.618
421.06	41.348
421.42	41.930
421.77	42.040
422.12	41.157
422.48	41.824
422.83	42.691
423.19	41.602
423.54	42.136
423.90	42.203
424.25	41.485
424.61	41.488
424.96	41.808
425.31	41.085
425.67	41.236
426.02	41.771
426.38	42.613
426.73	41.077
427.09	41.520
427.44	40.828
427.79	41.461
428.15	41.786
428.50	42.247
428.85	41.418
429.21	41.358
429.56	41.006
429.92	41.520
430.27	40.715
430.62	40.860
430.98	41.100
431.33	41.392
431.68	41.675
432.04	41.214
432.39	41.176
432.74	41.053
433.10	40.125
433.45	41.283
433.80	39.967
434.16	41.132
434.51	41.632
434.86	42.132
435.22	41.968
435.57	40.790
435.92	41.954
436.28	41.518
436.63	41.446
436.98	41.442
437.34	41.682
437.69	42.824
438.04	40.697
438.39	41.194
438.75	41.546
439.10	42.961
439.45	41.677
439.81	41.390
440.16	41.502
440.51	41.828
440.86	42.270
441.22	42.269
441.57	41.507
441.92	40.788
442.27	42.519
442.63	41.180
442.98	42.761
443.33	41.522
443.68	41.559
444.03	42.216
444.39	41.042
444.74	42.154
445.09	40.970
445.44	40.350
445.79	41.267
446.15	40.709
446.50	42.165
446.85	40.802
447.20	41.254
447.55	42.714
447.91	42.030
448.26	42.293
448.61	41.040
448.96	42.027
449.31	41.564
449.66	41.587
450.02	41.170
450.37	42.404
450.72	42.076
451.07	40.890
451.42	41.641
451.77	41.809
452.12	40.185
452.47	41.356
452.83	41.259
453.18	41.381
453.53	41.497
453.88	40.343
454.23	42.439
454.58	40.460
454.93	42.848
455.28	40.773
455.63	42.840
455.98	43.214
456.34	41.143
456.69	41.515
457.04	41.300
457.39	40.561
457.74	41.323
458.09	41.806
458.44	40.821
458.79	39.751
459.14	41.366
459.49	41.331
459.84	40.277
460.19	41.603
460.54	40.509
460.89	40.538
461.24	41.044
461.59	42.475
461.94	40.999
462.29	41.128
462.64	41.161
462.99	40.729
463.34	41.267
463.69	41.151
464.04	40.290
464.39	40.522
464.74	41.652
465.09	40.531
465.44	40.499
465.79	40.996
466.14	40.722
466.49	39.822
466.84	41.740
467.19	40.616
467.54	41.438
467.89	40.756
468.24	41.012
468.59	40.659
468.94	40.929
469.29	41.967
469.64	41.767
469.99	41.137
470.34	40.026
470.68	40.948
471.03	40.680
471.38	41.765
471.73	40.773
472.08	42.763
472.43	41.018
472.78	41.475
473.13	40.886
473.48	40.886
473.83	40.671
474.17	40.510
474.52	40.757
474.87	41.039
475.22	40.569
475.57	40.247
475.92	40.096
476.27	40.586
476.61	41.644
476.96	41.121
477.31	41.078
477.66	40.427
478.01	38.892
478.36	40.825
478.70	39.564
479.05	41.267
479.40	40.993
479.75	40.824
480.10	39.811
480.45	39.695
480.79	39.513
481.14	40.656
481.49	40.057
481.84	40.009
482.19	40.118
482.53	40.642
482.88	40.763
483.23	39.720
483.58	40.309
483.92	39.550
484.27	39.216
484.62	39.181
484.97	39.220
485.31	39.281
485.66	36.799
486.01	37.122
486.36	37.158
486.70	37.958
487.05	38.340
487.40	38.330
487.75	37.733
488.09	38.004
488.44	37.892
488.79	38.553
489.13	38.159
489.48	39.111
489.83	39.016
490.17	39.500
490.52	39.681
490.87	39.168
491.22	39.518
491.56	38.679
491.91	39.600
492.26	39.734
492.60	39.217
492.95	39.710
493.30	39.019
493.64	39.617
493.99	38.904
494.34	39.408
494.68	39.286
495.03	40.461
495.37	39.088
495.72	40.156
496.07	39.629
496.41	38.186
496.76	39.754
497.11	39.532
497.45	39.683
497.80	39.971
498.14	38.647
498.49	39.220
498.84	39.885
499.18	39.381
499.53	38.936
499.87	38.723
500.22	38.672
500.56	39.903
500.91	39.183
501.26	38.786
501.60	40.057
501.95	38.772
502.29	39.269
502.64	38.128
502.98	39.084
503.33	38.346
503.67	38.190
504.02	39.242
504.36	38.793
504.71	38.935
505.06	38.940
505.40	39.037
505.75	38.284
506.09	38.824
506.44	38.826
506.78	39.260
507.13	39.273
507.47	39.242
507.82	39.058
508.16	39.108
508.51	39.523
508.85	38.133
509.19	39.133
509.54	38.418
509.88	39.258
510.23	39.229
510.57	39.577
510.92	38.477
511.26	38.798
511.61	39.367
511.95	38.570
512.30	39.714
512.64	39.011
512.98	38.853
513.33	38.972
513.67	38.687
514.02	38.149
514.36	39.924
514.70	39.402
515.05	38.427
515.39	39.372
515.74	38.007
516.08	39.463
516.42	39.567
516.77	40.301
517.11	38.124
517.46	38.995
517.80	39.431
518.14	38.796
518.49	40.315
518.83	39.489
519.17	37.587
519.52	39.728
519.86	39.133
520.20	39.017
520.55	39.258
520.89	39.781
521.23	39.686
521.58	38.776
521.92	39.253
522.26	38.682
522.61	39.003
522.95	38.981
523.29	39.684
523.64	38.720
523.98	39.063
524.32	38.118
524.66	38.485
525.01	38.848
525.35	38.971
525.69	38.978
526.04	39.564
526.38	39.231
526.72	38.160
527.06	39.799
527.41	37.252
527.75	38.778
528.09	39.756
528.43	39.006
528.78	38.906
529.12	38.364
529.46	38.457
529.80	38.304
530.15	38.069
530.49	37.908
530.83	38.354
531.17	39.817
531.51	39.883
531.86	39.548
532.20	39.700
532.54	39.078
532.88	37.997
533.22	37.726
533.57	38.333
533.91	37.508
534.25	38.214
534.59	38.438
534.93	37.894
535.27	37.296
535.62	38.278
535.96	36.974
536.30	38.080
536.64	38.506
536.98	38.089
537.32	37.525
537.66	39.200
538.01	37.591
538.35	37.815
538.69	37.715
539.03	37.362
539.37	36.486
539.71	36.941
540.05	37.320
540.39	38.405
540.73	36.805
541.07	38.741
541.42	38.160
541.76	38.710
542.10	37.710
542.44	38.079
542.78	39.065
543.12	37.236
543.46	38.033
543.80	38.582
544.14	37.291
544.48	38.222
544.82	38.101
545.16	39.297
545.50	36.954
545.84	37.567
546.18	37.980
546.52	38.403
546.86	38.007
547.20	37.761
547.54	38.009
547.88	37.883
548.22	36.426
548.56	36.918
548.90	36.556
549.24	38.249
549.58	36.835
549.92	37.088
550.26	38.707
550.60	37.275
550.94	36.972
551.28	36.723
551.62	38.102
551.96	37.193
552.30	36.860
552.64	36.511
552.98	36.949
553.32	36.817
553.66	38.105
554.00	38.161
554.34	36.094
554.68	36.624
555.02	36.812
555.36	37.022
555.69	35.859
556.03	36.541
556.37	36.562
556.71	35.744
557.05	37.045
557.39	36.529
557.73	36.909
558.07	37.491
558.41	36.614
558.75	37.693
559.08	37.882
559.42	36.432
559.76	35.956
560.10	36.545
560.44	36.827
560.78	35.263
561.12	35.686
561.45	37.288
561.79	36.981
562.13	36.217
562.47	37.090
562.81	36.611
563.15	36.455
563.48	35.942
563.82	35.486
564.16	35.252
564.50	35.872
564.84	35.019
565.17	35.457
565.51	35.847
565.85	36.294
566.19	34.502
566.52	35.085
566.86	34.961
567.20	35.613
567.54	34.304
567.88	34.221
568.21	35.344
568.55	34.985
568.89	33.804
569.23	34.046
569.56	33.482
569.90	33.283
570.24	34.051
570.57	32.132
570.91	32.127
571.25	31.995
571.59	32.018
571.92	32.402
572.26	32.438
572.60	32.132
572.93	31.724
573.27	32.032
573.61	31.770
573.95	32.145
574.28	31.482
574.62	31.268
574.96	31.183
575.29	30.917
575.63	31.352
575.97	30.929
576.30	31.227
576.64	30.629
576.98	31.113
577.31	31.192
577.65	31.488
577.98	30.860
578.32	30.540
578.66	30.943
578.99	31.157
579.33	30.453
579.67	30.017
580.00	30.544
580.34	30.731
580.67	30.300
581.01	30.560
581.35	31.008
581.68	30.091
582.02	29.911
582.35	30.090
582.69	30.396
583.02	30.571
583.36	30.874
583.70	30.644
584.03	30.068
584.37	31.225
584.70	30.146
585.04	29.941
585.37	29.706
585.71	30.780
586.04	30.321
586.38	31.008
586.72	31.014
587.05	29.693
587.39	30.290
587.72	30.585
588.06	30.470
588.39	30.480
588.73	30.859
589.06	31.069
589.40	30.774
589.73	30.693
590.07	30.641
590.40	31.056
590.73	31.343
591.07	31.827
591.40	31.970
591.74	32.078
592.07	31.850
592.41	30.715
592.74	30.337
593.08	29.980
593.41	30.971
593.75	30.356
594.08	30.506
594.41	30.364
594.75	30.980
595.08	30.243
595.42	30.298
595.75	30.484
596.09	31.018
596.42	30.727
596.75	30.857
597.09	31.732
597.42	29.806
597.75	31.134
598.09	30.391
598.42	30.541
598.76	29.712
599.09	29.723
599.42	29.731
599.76	30.051
600.09	29.982
600.42	28.963
600.76	29.643
601.09	29.690
601.42	29.452
601.76	29.602
602.09	29.881
602.42	30.494
602.76	30.351
603.09	29.386
603.42	29.832
603.76	28.582
604.09	29.663
604.42	30.045
604.76	31.000
605.09	30.144
605.42	29.714
605.75	29.967
606.09	29.890
606.42	29.832
606.75	29.407
607.09	30.054
607.42	29.268
607.75	28.608
608.08	29.440
608.42	29.942
608.75	29.306
609.08	29.186
609.41	30.319
609.75	30.253
610.08	30.537
610.41	29.004
610.74	29.849
611.07	30.830
611.41	30.520
611.74	30.669
612.07	30.797
612.40	31.270
612.73	29.737
613.07	30.172
613.40	30.542
613.73	29.156
614.06	29.946
614.39	29.313
614.72	30.053
615.06	30.147
615.39	29.193
615.72	28.834
616.05	28.868
616.38	29.961
616.71	30.701
617.05	29.859
617.38	30.547
617.71	30.210
618.04	31.010
618.37	29.627
618.70	29.807
619.03	30.789
619.36	30.346
619.69	30.070
620.03	31.250
620.36	30.949
620.69	31.575
621.02	30.973
621.35	29.836
621.68	30.296
622.01	31.037
622.34	30.711
622.67	30.190
623.00	29.787
623.33	29.664
623.66	30.951
623.99	31.149
624.32	29.458
624.65	30.297
624.99	28.966
625.32	29.616
625.65	30.353
625.98	31.053
626.31	30.715
626.64	30.857
626.97	31.671
627.30	29.177
627.63	30.681
627.96	32.380
628.29	30.971
628.62	31.199
628.95	33.491
629.28	31.296
629.61	32.447
629.94	32.000
630.26	30.887
630.59	31.745
630.92	32.280
631.25	30.800
631.58	31.932
631.91	31.542
632.24	30.591
632.57	32.319
632.90	32.018
633.23	32.103
633.56	33.446
633.89	32.729
634.22	33.031
634.55	33.018
634.88	31.377
635.20	32.258
635.53	32.651
635.86	31.807
636.19	31.529
636.52	31.719
636.85	31.386
637.18	31.682
637.51	33.333
637.83	30.949
638.16	33.504
638.49	33.501
638.82	34.260
639.15	31.000
639.48	33.042
639.81	31.769
640.13	33.464
640.46	33.154
640.79	32.629
641.12	31.774
641.45	31.983
641.77	33.579
642.10	32.895
642.43	34.084
642.76	34.056
643.09	31.135
643.41	33.080
643.74	31.481
644.07	32.317
644.40	33.896
644.73	34.016
645.05	35.499
645.38	33.175
645.71	30.596
646.04	33.223
646.36	37.229
646.69	33.946
647.02	32.993
647.35	35.567
647.67	32.389
648.00	33.496
648.33	33.003
648.66	30.909
648.98	32.234
649.31	30.493
649.64	32.586
649.96	33.830
650.29	32.543
650.62	30.906
650.94	34.522
651.27	33.446
651.60	31.448
651.92	32.109
652.25	31.107
652.58	32.087
652.90	33.807
653.23	30.663
653.56	30.709
653.88	33.281
654.21	32.543
654.54	32.508
654.86	31.620
655.19	27.973
655.52	25.105
655.84	22.270
656.17	27.715
656.49	37.013
656.82	36.989
657.15	27.612
657.47	20.630
657.80	15.548
658.13	15.930
658.45	23.594
658.78	24.138
659.10	24.207
659.43	24.711
659.75	25.368
660.08	24.430
660.41	28.492
660.73	28.463
661.06	31.369
661.38	34.000
661.71	33.654
662.03	33.136
662.36	32.406
662.68	34.940
663.01	35.556
663.33	33.333
663.66	33.613
663.98	32.829
664.31	33.613
664.63	31.579
664.96	32.193
665.28	35.451
665.61	32.164
665.93	33.199
666.26	34.686
666.58	34.519
666.91	37.209
667.23	32.360
667.56	31.533
667.88	33.120
668.21	32.623
668.53	32.972
668.86	32.468
669.18	34.755
669.50	32.826
669.83	33.115
670.15	34.667
670.48	34.641
670.80	33.190
671.13	35.669
671.45	31.702
671.77	34.623
672.10	33.826
672.42	32.509
672.75	30.348
673.07	31.514
673.39	28.752
673.72	31.250
674.04	33.922
674.37	31.262
674.69	31.084
675.01	30.753
675.34	32.649
675.66	33.474
675.98	31.976
676.31	30.252
676.63	32.272
676.95	30.398
677.28	32.009
677.60	34.066
677.92	33.966
678.25	35.113
678.57	31.275
678.89	30.060
679.22	31.238
679.54	31.489
679.86	31.376
680.18	30.054
680.51	29.610
680.83	32.028
681.15	30.943
681.48	32.892
681.80	29.981
682.12	30.460
682.44	29.207
682.77	30.754
683.09	35.622
683.41	33.481
683.73	30.684
684.06	31.405
684.38	32.094
684.70	32.752
685.02	33.208
685.34	29.304
685.67	28.671
685.99	29.553
686.31	29.010
686.63	30.035
686.96	27.679
687.28	29.603
687.60	30.254
687.92	30.713
688.24	29.087
688.56	30.522
688.89	29.876
689.21	31.223
689.53	30.271
689.85	31.264
690.17	30.642
690.49	31.210
690.82	34.579
691.14	30.134
691.46	29.747
691.78	34.538
692.10	30.992
692.42	31.936
692.74	29.876
693.06	30.426
693.39	29.774
693.71	30.568
694.03	30.947
694.35	27.489
694.67	28.375
694.99	29.756
695.31	30.392
695.63	32.775
695.95	32.763
696.27	29.695
696.59	30.052
696.91	32.902
697.23	27.700
697.56	30.490
697.88	26.380
698.20	28.542
698.52	31.613
698.84	32.517
699.16	30.415
699.48	28.504
699.80	31.884
700.12	32.208
700.44	29.973
700.76	32.597
701.08	33.333
701.40	33.520
701.72	32.362
702.04	34.943
702.36	30.028
702.68	33.144
703.00	30.748
703.32	30.053
703.64	30.831
703.96	32.312
704.28	28.779
704.60	32.845
704.91	33.531
705.23	35.484
705.55	35.880
705.87	37.209
706.19	34.629
706.51	35.514
706.83	32.424
707.15	32.213
707.47	29.798
707.79	31.204
708.11	31.279
708.43	29.762
708.74	29.592
709.06	33.247
709.38	29.659
709.70	30.523
710.02	34.421
710.34	31.818
710.66	32.836
710.98	30.398
711.29	31.395
711.61	31.563
711.93	34.295
712.25	32.797
712.57	35.662
712.89	32.180
713.20	30.699
713.52	35.855
713.84	31.962
714.16	32.927
714.48	29.310
714.80	32.827
715.11	31.988
715.43	31.454
715.75	31.014
716.07	29.073
716.39	30.094
716.70	33.223
717.02	37.050
717.34	34.276
717.66	34.701
717.97	36.255
718.29	33.704
718.61	37.226
718.93	34.191
719.24	33.910
719.56	33.559
719.88	30.169
720.20	32.095
720.51	33.449
720.83	35.316
721.15	30.597
721.46	34.752
721.78	36.559
722.10	33.962
722.42	36.842
722.73	32.210
723.05	36.885
723.37	34.413
723.68	39.382
724.00	33.740
724.32	33.065
724.63	31.301
724.95	34.310
725.27	36.842
725.58	33.984
725.90	35.766
726.22	35.849
726.53	32.986
726.85	31.741
727.16	32.740
727.48	35.816
727.80	31.818
728.11	31.884
728.43	35.385
728.74	31.541
729.06	32.482
729.38	36.397
729.69	28.826
730.01	34.471
730.32	28.819
730.64	31.104
730.96	30.033
731.27	34.106
731.59	28.440
731.90	28.280
732.22	28.571
732.53	28.793
732.85	29.808
733.16	31.833
733.48	32.226
733.80	36.364
734.11	30.892
734.43	27.219
734.74	29.143
735.06	26.934
735.37	33.237
735.69	30.892
736.00	34.641
736.32	33.333
736.63	30.032
736.95	27.476
737.26	30.952
737.58	27.419
737.89	33.110
738.21	33.447
738.52	31.429
738.83	28.679
739.15	33.846
739.46	29.927
739.78	34.722
740.09	29.538
740.41	30.645
740.72	33.101
741.04	33.333
741.35	35.000
741.66	36.444
741.98	30.189
742.29	37.321
742.61	34.052
742.92	31.674
743.23	34.188
743.55	34.400
743.86	29.386
744.18	36.726
744.49	34.450
744.80	36.150
745.12	43.636
745.43	29.515
745.74	35.586
746.06	36.697
746.37	40.359
746.68	30.317
747.00	41.204
747.31	36.667
747.62	28.761
747.94	34.802
748.25	31.489
748.56	34.802
748.88	35.644
749.19	35.000
749.50	34.884
749.82	29.268
750.13	29.796
750.44	31.387
750.75	34.035
751.07	33.119
751.38	34.495
751.69	33.213
752.01	32.707
752.32	31.047
752.63	33.333
752.94	30.328
753.26	39.200
753.57	32.927
753.88	35.547
754.19	32.857
754.51	34.028
754.82	26.354
755.13	32.830
755.44	31.579
755.75	32.117
756.07	24.113
756.38	29.197
756.69	29.866
757.00	31.138
757.31	28.487
757.63	28.070
757.94	27.346
758.25	28.676
758.56	29.383
758.87	26.882
759.18	27.879
759.50	27.900
759.81	26.480
760.12	26.250
760.43	30.372
760.74	25.272
761.05	29.096
761.36	28.075
761.67	30.966
761.99	29.503
762.30	30.208
762.61	31.298
762.92	34.766
763.23	28.571
763.54	34.400
763.85	28.516
764.16	36.154
764.47	31.939
764.78	31.449
765.10	28.165
765.41	32.743
765.72	27.246
766.03	29.154
766.34	27.333
766.65	29.362
766.96	31.624
767.27	36.041
767.58	35.938
767.89	41.053
768.20	35.057
768.51	37.563
768.82	38.991
769.13	24.797
769.44	28.340
769.75	30.472
770.06	29.358
770.37	34.842
770.68	33.333
770.99	36.444
771.30	28.689
771.61	30.493
771.92	36.066
772.23	32.353
772.54	35.385
772.85	37.696
773.16	37.234
773.47	34.783
773.78	35.025
774.09	39.881
774.39	36.842
774.70	38.889
775.01	45.652
775.32	43.137
775.63	42.105
775.94	39.568
776.25	48.819
776.56	38.806
776.87	46.721
777.18	47.656
777.48	48.855
777.79	39.394
778.10	42.963
778.41	42.857
778.72	32.847
779.03	36.242
779.34	42.282
779.65	34.459
779.95	35.583
780.26	44.444
780.57	40.690
780.88	46.875
781.19	47.368
781.50	45.946
781.80	38.365
782.11	36.723
782.42	31.646
782.73	39.264
783.04	40.541
783.34	38.732
783.65	45.890
783.96	47.015
784.27	40.559
784.57	33.094
784.88	33.333
785.19	44.444
785.50	47.170
785.81	44.776
786.11	51.639
786.42	41.860
786.73	41.593
787.04	51.887
787.34	36.607
787.65	47.000
787.96	50.450
788.26	47.107
788.57	41.525
788.88	48.760
789.19	45.833
789.49	42.424
789.80	43.511
790.11	54.286
790.41	60.396
790.72	51.807
791.03	45.652
791.33	53.488
791.64	46.392
791.95	53.465
792.25	45.556
792.56	49.351
792.87	61.538
793.17	79.747
793.48	57.471
793.79	63.218
794.09	47.727
794.40	42.017
794.70	44.853
795.01	43.704
795.32	38.849
795.62	39.370
795.93	43.103
796.23	49.558
796.54	40.000
796.85	51.351
797.15	77.465
797.46	66.667
797.76	55.422
798.07	49.367
798.37	44.615
798.68	57.576
798.99	47.887
799.29	51.948
799.60	50.000
799.90	60.274
800.21	70.149
800.51	70.690
800.82	82.456
801.12	59.016
801.43	80.303
801.73	52.703
802.04	57.143
802.34	65.432
802.65	67.188
802.95	64.407
803.26	81.250
803.56	52.857
803.87	55.385
804.17	57.353
804.48	75.926
804.78	75.862
805.09	52.941
805.39	71.154
805.70	58.929
806.00	83.607
806.30	59.091
806.61	62.195
806.91	37.975
807.22	40.789
807.52	49.254
807.83	60.563
808.13	57.813
808.43	56.667
808.74	57.895
809.04	69.565
809.35	74.627
809.65	71.053
809.95	75.806
810.26	59.322
810.56	76.190
810.86	77.273
811.17	85.714
811.47	75.000
811.77	81.481
812.08	74.545
812.38	76.000
812.69	77.778
812.99	115.909
813.29	91.837
813.59	57.143
813.90	79.592
814.20	63.636
814.50	43.077
814.81	77.941
815.11	85.714
815.41	73.770
815.72	85.714
816.02	89.091
816.32	71.429
816.62	85.000
816.93	75.610
817.23	76.190
817.53	79.545
817.84	96.970
818.14	97.826
818.44	66.667
818.74	117.647
819.04	87.500
819.35	105.714
819.65	117.647
819.95	110.714
820.25	150.000
820.56	100.000
820.86	75.000
821.16	88.372
821.46	61.538
821.76	78.000
822.07	97.143
822.37	107.500
822.67	109.091
822.97	70.588
823.27	114.286
823.57	89.189
823.88	110.000
824.18	133.333
824.48	95.238
824.78	144.000
825.08	108.333
825.38	97.297
825.69	85.366
825.99	145.833
826.29	96.552
826.59	102.632
826.89	78.947
827.19	117.647
827.49	135.484
827.79	102.273
828.09	90.909
828.39	78.723
828.70	89.796
829.00	88.889
829.30	67.742
829.60	90.000
829.90	146.667
830.20	128.571
830.50	108.696
830.80	147.826
831.10	123.333
831.40	86.667
831.70	117.391
832.00	192.308
832.30	159.259
832.60	162.500
832.90	136.667
833.20	228.571
833.50	145.161
833.80	93.103
834.10	153.125
834.40	173.077
834.70	177.778
835.00	195.238
835.30	111.429
835.60	238.462
835.90	120.690
836.20	178.571
836.50	127.586
836.80	104.000
837.10	100.000
837.40	157.143
837.70	200.000
838.00	151.852
838.30	147.619
838.60	214.286
838.90	134.615
839.19	130.000
839.49	321.429
839.79	220.000
840.09	160.000
840.39	157.143
840.69	173.913
840.99	133.333
841.29	280.000
841.59	141.667
841.88	175.000
842.18	124.138
842.48	161.905
842.78	103.333
843.08	117.391
843.38	90.625
843.68	533.333
843.97	150.000
844.27	117.241
844.57	147.619
844.87	237.500
845.17	140.741
845.47	566.667
845.76	133.333
846.06	88.235
846.36	212.500
846.66	271.429
846.96	168.750
847.25	263.636
847.55	254.545
847.85	182.609
848.15	350.000
848.44	200.000
848.74	161.111
849.04	176.471
849.34	430.000
849.63	136.842
849.93	245.455
850.23	540.000
850.53	250.000
850.82	1500.000
851.12	-2600.000
851.42	3100.000
851.71	155.000
852.01	-400.000
852.31	120.833
852.61	766.667
852.90	180.952
853.20	152.000
853.50	200.000
853.79	190.476
854.09	129.167
854.39	181.250
854.68	132.432
854.98	80.645
855.28	90.000
855.57	158.621
855.87	103.704
856.17	84.211
856.46	113.333
856.76	194.118
857.05	113.793
857.35	120.833
857.65	240.000
857.94	173.913
858.24	153.846
858.53	170.000
858.83	159.091
859.13	240.000
859.42	0.000
859.72	344.444
860.01	236.364
860.31	168.182
860.60	142.105
860.90	173.913
861.20	355.556
861.49	308.333
861.79	-2800.000
862.08	337.500
862.38	176.190
862.67	161.538
862.97	229.412
863.26	300.000
863.56	161.111
863.85	258.333
864.15	275.000
864.44	240.000
864.74	583.333
865.03	262.500
865.33	226.316
865.62	309.091
865.92	284.615
866.21	191.667
866.51	0.000
866.80	345.455
867.10	740.000
867.39	284.615
867.69	272.727
867.98	173.684
868.27	309.091
868.57	242.105
868.86	-2100.000
869.16	206.250
869.45	1000.000
869.75	-1900.000
870.04	266.667
870.33	285.714
870.63	525.000
870.92	1450.000
871.22	300.000
871.51	217.647
871.80	128.571
872.10	235.714
>>>>>End Processed Spectral Data<<<<<
