SpectraSuite Data File
++++++++++++++++++++++++++++++++++++
Date: Wed May 13 21:00:09 PDT 2015
User: schluterlab
Dark Spectrum Present: Yes
Reference Spectrum Present: Yes
Number of Sampled Component Spectra: 1
Spectrometers: USB2E3373
Integration Time (usec): 3000 (USB2E3373)
Spectra Averaged: 3 (USB2E3373)
Boxcar Smoothing: 0 (USB2E3373)
Correct for Electrical Dark: No (USB2E3373)
Strobe/Lamp Enabled: No (USB2E3373)
Correct for Detector Non-linearity: No (USB2E3373)
Correct for Stray Light: No (USB2E3373)
Number of Pixels in Processed Spectrum: 2048
>>>>>Begin Processed Spectral Data<<<<<
178.53	0.000
178.91	-200.000
179.29	50.000
179.67	-600.000
180.04	-33.333
180.42	140.000
180.80	1000.000
181.18	116.667
181.56	-125.000
181.94	-325.000
182.31	127.273
182.69	115.385
183.07	160.000
183.45	300.000
183.83	55.556
184.20	-114.286
184.58	300.000
184.96	400.000
185.34	85.714
185.72	0.000
186.09	100.000
186.47	-20.000
186.85	-140.000
187.23	350.000
187.61	200.000
187.98	400.000
188.36	12.500
188.74	0.000
189.12	-9.091
189.49	90.000
189.87	58.333
190.25	240.000
190.63	400.000
191.00	-20.000
191.38	160.000
191.76	50.000
192.14	91.667
192.51	10.526
192.89	266.667
193.27	175.000
193.65	-160.000
194.02	118.182
194.40	110.000
194.78	900.000
195.15	-0.000
195.53	-40.000
195.91	25.000
196.29	33.333
196.66	0.000
197.04	400.000
197.42	120.000
197.79	40.000
198.17	-125.000
198.55	133.333
198.92	125.000
199.30	-133.333
199.68	40.000
200.05	-200.000
200.43	200.000
200.81	-300.000
201.18	80.000
201.56	-33.333
201.94	100.000
202.31	39.130
202.69	71.429
203.07	-400.000
203.44	0.000
203.82	-233.333
204.19	10.000
204.57	0.000
204.95	100.000
205.32	0.000
205.70	300.000
206.08	50.000
206.45	-116.667
206.83	200.000
207.20	300.000
207.58	20.000
207.96	-1700.000
208.33	-71.429
208.71	-800.000
209.08	137.500
209.46	175.000
209.84	0.000
210.21	100.000
210.59	800.000
210.96	-20.000
211.34	200.000
211.71	-400.000
212.09	-116.667
212.46	-120.000
212.84	100.000
213.22	75.000
213.59	-200.000
213.97	100.000
214.34	-100.000
214.72	53.846
215.09	162.500
215.47	66.667
215.84	200.000
216.22	87.500
216.59	0.000
216.97	333.333
217.34	55.556
217.72	0.000
218.09	66.667
218.47	-500.000
218.84	57.143
219.22	-12.500
219.59	-233.333
219.97	-25.000
220.34	-12.500
220.72	200.000
221.09	0.000
221.47	-66.667
221.84	700.000
222.22	0.000
222.59	-100.000
222.97	-266.667
223.34	41.667
223.72	-300.000
224.09	-350.000
224.46	-36.364
224.84	12.500
225.21	-42.857
225.59	-150.000
225.96	-50.000
226.34	50.000
226.71	57.143
227.08	-250.000
227.46	125.000
227.83	700.000
228.21	18.750
228.58	-125.000
228.95	5.882
229.33	25.000
229.70	87.500
230.08	107.692
230.45	75.000
230.82	-8.333
231.20	142.857
231.57	0.000
231.95	-0.000
232.32	50.000
232.69	47.059
233.07	-200.000
233.44	-39.130
233.81	300.000
234.19	20.833
234.56	-6.667
234.93	13.333
235.31	5.263
235.68	-15.385
236.05	23.077
236.43	-38.889
236.80	21.212
237.17	-60.000
237.55	11.765
237.92	17.241
238.29	-14.815
238.67	0.000
239.04	16.129
239.41	0.000
239.79	42.553
240.16	13.953
240.53	17.857
240.91	26.786
241.28	10.714
241.65	9.677
242.02	1.316
242.40	14.493
242.77	-5.797
243.14	-12.821
243.51	17.021
243.89	6.731
244.26	10.377
244.63	11.538
245.00	7.292
245.38	-1.681
245.75	11.475
246.12	9.023
246.49	-4.878
246.87	2.521
247.24	14.189
247.61	11.258
247.98	5.769
248.36	9.467
248.73	7.865
249.10	4.040
249.47	6.452
249.84	5.789
250.22	4.478
250.59	11.682
250.96	10.000
251.33	-1.914
251.70	11.297
252.08	7.950
252.45	9.465
252.82	7.985
253.19	5.837
253.56	5.755
253.94	13.167
254.31	8.803
254.68	8.054
255.05	9.571
255.42	8.392
255.79	7.669
256.16	7.571
256.54	6.032
256.91	5.696
257.28	8.491
257.65	4.777
258.02	7.038
258.39	7.310
258.76	4.651
259.14	5.398
259.51	5.899
259.88	7.317
260.25	5.000
260.62	4.213
260.99	8.753
261.36	10.881
261.73	4.198
262.10	4.580
262.47	5.926
262.85	7.711
263.22	5.641
263.59	6.753
263.96	7.786
264.33	4.327
264.70	6.977
265.07	7.176
265.44	9.195
265.81	4.805
266.18	5.239
266.55	8.297
266.92	6.780
267.29	5.967
267.66	7.219
268.03	7.613
268.40	4.661
268.77	6.405
269.14	7.347
269.51	9.240
269.88	4.481
270.25	6.356
270.62	4.508
270.99	5.709
271.36	6.746
271.73	6.426
272.10	6.476
272.47	4.798
272.84	9.646
273.21	7.241
273.58	5.123
273.95	6.415
274.32	7.090
274.69	6.557
275.06	8.127
275.43	6.591
275.80	6.206
276.17	5.893
276.54	6.039
276.91	6.620
277.28	5.415
277.65	6.119
278.02	7.143
278.39	5.329
278.76	7.358
279.13	6.690
279.50	5.862
279.87	3.986
280.23	5.766
280.60	2.422
280.97	4.221
281.34	8.517
281.71	5.203
282.08	5.470
282.45	6.393
282.82	5.431
283.19	8.841
283.56	6.562
283.92	5.046
284.29	5.304
284.66	5.766
285.03	4.560
285.40	5.740
285.77	7.958
286.14	6.839
286.51	7.946
286.87	4.615
287.24	5.457
287.61	5.723
287.98	5.735
288.35	4.471
288.72	5.882
289.08	6.980
289.45	6.167
289.82	6.354
290.19	6.171
290.56	3.835
290.93	4.558
291.29	6.430
291.66	5.328
292.03	5.313
292.40	4.845
292.77	5.622
293.13	5.997
293.50	6.144
293.87	5.867
294.24	4.894
294.60	4.811
294.97	6.746
295.34	4.485
295.71	4.862
296.08	3.796
296.44	3.189
296.81	6.456
297.18	6.625
297.55	4.835
297.91	4.596
298.28	5.085
298.65	3.818
299.02	7.082
299.38	3.190
299.75	3.486
300.12	3.837
300.48	4.444
300.85	4.965
301.22	4.994
301.59	4.460
301.95	4.181
302.32	4.551
302.69	2.825
303.05	4.430
303.42	4.659
303.79	5.783
304.15	5.257
304.52	5.161
304.89	3.654
305.25	3.513
305.62	5.531
305.99	5.658
306.35	4.702
306.72	5.493
307.09	3.650
307.45	4.260
307.82	3.579
308.19	3.344
308.55	2.968
308.92	5.599
309.29	4.304
309.65	4.496
310.02	5.567
310.38	4.065
310.75	3.945
311.12	3.984
311.48	3.165
311.85	3.839
312.22	5.126
312.58	4.251
312.95	4.975
313.31	4.408
313.68	3.721
314.05	4.537
314.41	4.131
314.78	3.890
315.14	4.537
315.51	4.853
315.87	4.263
316.24	5.326
316.61	5.023
316.97	4.352
317.34	3.922
317.70	4.817
318.07	4.614
318.43	4.155
318.80	3.578
319.16	4.156
319.53	4.480
319.89	3.794
320.26	3.974
320.62	3.429
320.99	5.039
321.35	3.929
321.72	4.812
322.08	4.982
322.45	5.828
322.81	4.251
323.18	5.009
323.54	5.415
323.91	5.330
324.27	5.401
324.64	4.268
325.00	3.937
325.37	4.437
325.73	5.640
326.10	4.121
326.46	4.599
326.83	4.773
327.19	4.634
327.56	6.044
327.92	5.310
328.29	5.676
328.65	5.346
329.01	5.013
329.38	6.348
329.74	5.751
330.11	5.140
330.47	4.167
330.84	4.603
331.20	4.782
331.56	4.348
331.93	5.168
332.29	5.560
332.66	5.593
333.02	5.995
333.38	5.263
333.75	5.802
334.11	5.990
334.48	5.405
334.84	4.152
335.20	5.746
335.57	4.874
335.93	4.639
336.29	4.378
336.66	4.872
337.02	5.043
337.38	5.657
337.75	4.996
338.11	5.038
338.47	4.452
338.84	5.412
339.20	4.409
339.56	5.461
339.93	4.840
340.29	4.953
340.65	5.475
341.02	6.073
341.38	4.645
341.74	4.118
342.11	5.450
342.47	4.435
342.83	5.310
343.20	4.738
343.56	5.397
343.92	5.361
344.28	4.789
344.65	5.878
345.01	4.843
345.37	5.428
345.73	5.147
346.10	5.698
346.46	4.390
346.82	3.692
347.19	4.747
347.55	5.008
347.91	4.754
348.27	5.205
348.63	4.087
349.00	4.874
349.36	4.788
349.72	5.027
350.08	6.006
350.45	5.247
350.81	5.790
351.17	6.467
351.53	4.635
351.89	4.369
352.26	3.475
352.62	3.876
352.98	4.233
353.34	4.267
353.70	4.517
354.07	4.392
354.43	4.899
354.79	4.487
355.15	4.503
355.51	4.556
355.87	4.535
356.24	4.254
356.60	4.457
356.96	5.756
357.32	5.495
357.68	4.354
358.04	4.655
358.40	5.349
358.77	5.275
359.13	4.903
359.49	4.618
359.85	4.321
360.21	4.472
360.57	5.247
360.93	4.932
361.29	5.181
361.66	4.328
362.02	5.041
362.38	4.801
362.74	3.916
363.10	5.351
363.46	4.539
363.82	5.026
364.18	4.278
364.54	5.252
364.90	4.599
365.26	4.388
365.62	4.119
365.98	4.484
366.35	5.248
366.71	4.208
367.07	4.323
367.43	5.017
367.79	4.309
368.15	5.274
368.51	4.501
368.87	4.885
369.23	4.911
369.59	4.510
369.95	3.193
370.31	4.393
370.67	4.055
371.03	4.454
371.39	4.187
371.75	4.214
372.11	4.202
372.47	3.893
372.83	4.924
373.19	4.388
373.55	4.552
373.91	5.021
374.27	3.873
374.63	4.623
374.99	4.457
375.35	3.904
375.71	4.620
376.07	4.524
376.42	3.676
376.78	4.690
377.14	4.068
377.50	4.563
377.86	4.582
378.22	4.488
378.58	3.972
378.94	5.312
379.30	4.372
379.66	5.055
380.02	3.983
380.38	3.675
380.74	5.380
381.09	4.825
381.45	4.837
381.81	4.498
382.17	4.537
382.53	3.877
382.89	4.463
383.25	4.444
383.61	5.085
383.97	5.250
384.32	3.466
384.68	3.825
385.04	3.665
385.40	4.670
385.76	4.805
386.12	4.454
386.48	4.639
386.83	4.380
387.19	4.380
387.55	4.598
387.91	4.920
388.27	3.514
388.62	4.682
388.98	4.756
389.34	4.386
389.70	4.640
390.06	4.750
390.42	5.477
390.77	4.676
391.13	4.482
391.49	3.732
391.85	4.153
392.20	4.198
392.56	4.825
392.92	4.564
393.28	4.823
393.64	3.853
393.99	4.590
394.35	4.691
394.71	5.192
395.07	3.208
395.42	4.875
395.78	3.732
396.14	4.375
396.50	4.058
396.85	5.163
397.21	4.057
397.57	4.099
397.92	4.072
398.28	4.625
398.64	4.614
399.00	4.520
399.35	4.257
399.71	4.543
400.07	3.916
400.42	4.138
400.78	4.592
401.14	4.169
401.49	4.314
401.85	4.177
402.21	4.025
402.57	4.905
402.92	5.444
403.28	4.941
403.63	5.022
403.99	4.734
404.35	4.800
404.70	3.202
405.06	5.167
405.42	3.580
405.77	4.205
406.13	4.114
406.49	4.374
406.84	4.579
407.20	4.381
407.55	5.455
407.91	4.500
408.27	4.616
408.62	5.218
408.98	4.439
409.34	4.084
409.69	5.848
410.05	4.291
410.40	4.382
410.76	4.813
411.11	5.162
411.47	4.778
411.83	4.679
412.18	4.030
412.54	5.013
412.89	4.201
413.25	4.602
413.60	4.765
413.96	4.744
414.31	4.686
414.67	5.206
415.03	4.871
415.38	4.888
415.74	4.418
416.09	5.221
416.45	4.375
416.80	4.362
417.16	5.803
417.51	4.756
417.87	4.497
418.22	4.783
418.58	4.468
418.93	4.771
419.29	4.686
419.64	4.326
420.00	4.698
420.35	4.065
420.71	4.509
421.06	5.289
421.42	5.170
421.77	4.855
422.12	5.100
422.48	4.089
422.83	5.257
423.19	5.060
423.54	4.476
423.90	4.810
424.25	4.910
424.61	4.868
424.96	3.844
425.31	4.936
425.67	4.644
426.02	5.477
426.38	4.664
426.73	4.826
427.09	4.878
427.44	4.404
427.79	4.691
428.15	4.159
428.50	4.169
428.85	4.551
429.21	4.558
429.56	4.357
429.92	4.789
430.27	5.010
430.62	4.617
430.98	5.182
431.33	5.105
431.68	5.751
432.04	4.901
432.39	4.908
432.74	4.721
433.10	5.869
433.45	5.207
433.80	4.368
434.16	5.025
434.51	5.543
434.86	5.006
435.22	5.376
435.57	4.791
435.92	4.584
436.28	4.805
436.63	5.139
436.98	5.405
437.34	4.457
437.69	4.959
438.04	4.641
438.39	5.293
438.75	4.827
439.10	5.495
439.45	5.085
439.81	5.296
440.16	5.797
440.51	5.113
440.86	5.631
441.22	4.991
441.57	5.206
441.92	4.977
442.27	4.870
442.63	4.898
442.98	4.109
443.33	5.418
443.68	4.850
444.03	5.067
444.39	5.602
444.74	5.025
445.09	4.515
445.44	5.803
445.79	5.576
446.15	5.158
446.50	5.066
446.85	4.703
447.20	5.698
447.55	5.876
447.91	5.169
448.26	5.260
448.61	5.236
448.96	5.809
449.31	5.311
449.66	5.321
450.02	5.912
450.37	5.640
450.72	4.765
451.07	6.144
451.42	4.866
451.77	5.660
452.12	5.882
452.47	5.165
452.83	5.307
453.18	5.283
453.53	5.422
453.88	5.181
454.23	5.562
454.58	5.882
454.93	5.324
455.28	5.845
455.63	4.616
455.98	5.295
456.34	5.213
456.69	5.942
457.04	5.635
457.39	4.871
457.74	5.266
458.09	5.332
458.44	5.229
458.79	5.162
459.14	5.393
459.49	5.854
459.84	5.299
460.19	4.742
460.54	5.596
460.89	5.743
461.24	5.240
461.59	5.797
461.94	5.689
462.29	5.882
462.64	5.541
462.99	5.500
463.34	5.801
463.69	6.121
464.04	4.862
464.39	5.369
464.74	4.545
465.09	5.456
465.44	6.004
465.79	5.635
466.14	6.271
466.49	5.455
466.84	5.559
467.19	5.732
467.54	5.638
467.89	6.034
468.24	5.593
468.59	5.991
468.94	6.960
469.29	5.420
469.64	5.649
469.99	6.552
470.34	5.799
470.68	5.130
471.03	5.924
471.38	6.398
471.73	6.241
472.08	5.704
472.43	6.201
472.78	6.761
473.13	5.409
473.48	4.371
473.83	5.399
474.17	5.599
474.52	5.696
474.87	5.730
475.22	6.099
475.57	5.633
475.92	6.379
476.27	5.828
476.61	5.266
476.96	5.939
477.31	6.095
477.66	5.763
478.01	5.385
478.36	5.504
478.70	5.102
479.05	6.271
479.40	6.240
479.75	5.792
480.10	6.119
480.45	5.248
480.79	5.525
481.14	6.231
481.49	6.068
481.84	5.042
482.19	5.558
482.53	6.048
482.88	6.184
483.23	4.860
483.58	5.907
483.92	5.399
484.27	5.764
484.62	6.081
484.97	5.807
485.31	5.780
485.66	5.353
486.01	4.887
486.36	5.100
486.70	5.018
487.05	5.305
487.40	5.176
487.75	5.771
488.09	5.818
488.44	5.468
488.79	6.359
489.13	6.123
489.48	6.242
489.83	6.342
490.17	5.356
490.52	6.545
490.87	5.331
491.22	6.265
491.56	6.181
491.91	5.953
492.26	5.996
492.60	6.061
492.95	6.560
493.30	5.669
493.64	5.516
493.99	5.990
494.34	5.973
494.68	5.680
495.03	5.781
495.37	5.693
495.72	6.015
496.07	5.748
496.41	5.615
496.76	5.347
497.11	5.493
497.45	5.447
497.80	6.411
498.14	6.650
498.49	6.102
498.84	5.668
499.18	6.421
499.53	5.711
499.87	5.289
500.22	6.222
500.56	6.118
500.91	6.690
501.26	7.094
501.60	5.931
501.95	6.756
502.29	6.408
502.64	6.847
502.98	6.214
503.33	6.569
503.67	6.086
504.02	5.735
504.36	6.191
504.71	5.742
505.06	6.164
505.40	6.186
505.75	6.053
506.09	6.285
506.44	6.452
506.78	6.044
507.13	6.289
507.47	6.204
507.82	6.436
508.16	6.807
508.51	6.457
508.85	6.221
509.19	6.349
509.54	6.756
509.88	6.613
510.23	6.421
510.57	6.091
510.92	6.843
511.26	7.096
511.61	6.037
511.95	6.229
512.30	5.997
512.64	6.527
512.98	7.036
513.33	6.310
513.67	5.906
514.02	7.412
514.36	6.910
514.70	6.524
515.05	7.139
515.39	6.958
515.74	6.631
516.08	6.785
516.42	6.797
516.77	6.561
517.11	6.526
517.46	6.963
517.80	7.869
518.14	5.940
518.49	5.847
518.83	7.518
519.17	6.627
519.52	6.514
519.86	6.922
520.20	5.882
520.55	6.903
520.89	7.147
521.23	6.923
521.58	6.827
521.92	6.662
522.26	6.506
522.61	6.917
522.95	7.448
523.29	6.540
523.64	6.484
523.98	7.243
524.32	7.057
524.66	6.494
525.01	6.815
525.35	6.452
525.69	7.356
526.04	6.775
526.38	8.286
526.72	7.035
527.06	7.221
527.41	6.750
527.75	7.076
528.09	8.101
528.43	7.870
528.78	7.494
529.12	7.633
529.46	6.974
529.80	6.796
530.15	6.499
530.49	7.008
530.83	7.244
531.17	6.918
531.51	6.945
531.86	6.030
532.20	6.961
532.54	5.655
532.88	6.943
533.22	7.205
533.57	6.689
533.91	7.161
534.25	6.966
534.59	6.885
534.93	7.143
535.27	7.197
535.62	7.039
535.96	7.938
536.30	8.045
536.64	7.245
536.98	6.868
537.32	6.975
537.66	7.828
538.01	6.241
538.35	6.837
538.69	7.291
539.03	7.181
539.37	7.378
539.71	6.753
540.05	6.613
540.39	6.882
540.73	7.053
541.07	6.871
541.42	7.407
541.76	7.645
542.10	7.448
542.44	6.514
542.78	6.384
543.12	7.749
543.46	6.704
543.80	7.264
544.14	6.882
544.48	6.967
544.82	6.792
545.16	6.897
545.50	7.900
545.84	6.522
546.18	6.662
546.52	7.622
546.86	6.078
547.20	6.934
547.54	6.505
547.88	7.152
548.22	7.166
548.56	6.805
548.90	6.089
549.24	8.472
549.58	6.548
549.92	7.117
550.26	8.635
550.60	6.757
550.94	6.418
551.28	7.267
551.62	7.669
551.96	7.394
552.30	6.914
552.64	6.638
552.98	7.741
553.32	7.714
553.66	6.823
554.00	6.911
554.34	6.740
554.68	7.308
555.02	7.260
555.36	7.110
555.69	6.482
556.03	7.434
556.37	6.757
556.71	7.919
557.05	6.790
557.39	6.933
557.73	7.186
558.07	6.255
558.41	7.646
558.75	7.082
559.08	5.934
559.42	8.183
559.76	7.263
560.10	7.456
560.44	7.369
560.78	6.475
561.12	6.517
561.45	7.143
561.79	7.359
562.13	6.892
562.47	7.714
562.81	7.504
563.15	6.303
563.48	6.538
563.82	6.635
564.16	6.500
564.50	7.123
564.84	6.149
565.17	7.351
565.51	6.350
565.85	5.463
566.19	7.152
566.52	6.488
566.86	6.131
567.20	6.170
567.54	7.024
567.88	5.711
568.21	7.061
568.55	5.947
568.89	5.882
569.23	6.370
569.56	6.425
569.90	5.790
570.24	5.560
570.57	5.902
570.91	5.626
571.25	5.159
571.59	5.292
571.92	5.779
572.26	5.138
572.60	5.420
572.93	5.717
573.27	5.618
573.61	5.471
573.95	5.579
574.28	5.826
574.62	4.937
574.96	5.684
575.29	5.617
575.63	5.400
575.97	5.516
576.30	5.534
576.64	5.502
576.98	5.045
577.31	5.709
577.65	5.191
577.98	5.276
578.32	5.149
578.66	5.174
578.99	5.446
579.33	5.372
579.67	5.626
580.00	5.168
580.34	5.284
580.67	5.708
581.01	5.527
581.35	5.322
581.68	5.130
582.02	4.811
582.35	5.274
582.69	5.101
583.02	5.611
583.36	5.442
583.70	5.414
584.03	5.797
584.37	5.683
584.70	5.646
585.04	5.454
585.37	5.565
585.71	5.355
586.04	5.439
586.38	5.604
586.72	5.704
587.05	5.753
587.39	5.729
587.72	5.585
588.06	5.417
588.39	5.402
588.73	5.415
589.06	5.464
589.40	5.676
589.73	5.318
590.07	5.505
590.40	6.096
590.73	5.794
591.07	5.725
591.40	5.565
591.74	5.647
592.07	5.888
592.41	6.049
592.74	5.671
593.08	5.060
593.41	5.234
593.75	5.426
594.08	5.250
594.41	5.375
594.75	5.697
595.08	5.863
595.42	5.727
595.75	5.785
596.09	5.928
596.42	5.515
596.75	6.143
597.09	6.142
597.42	5.698
597.75	5.733
598.09	6.148
598.42	6.174
598.76	5.626
599.09	5.802
599.42	5.929
599.76	5.670
600.09	5.911
600.42	5.951
600.76	5.543
601.09	5.687
601.42	5.645
601.76	6.255
602.09	6.161
602.42	6.397
602.76	5.663
603.09	6.242
603.42	5.798
603.76	5.729
604.09	5.692
604.42	5.149
604.76	6.111
605.09	6.072
605.42	6.433
605.75	5.696
606.09	5.422
606.42	5.777
606.75	5.498
607.09	5.496
607.42	5.648
607.75	5.470
608.08	6.492
608.42	5.576
608.75	5.638
609.08	5.879
609.41	6.905
609.75	5.598
610.08	6.213
610.41	5.928
610.74	5.919
611.07	6.413
611.41	6.244
611.74	6.004
612.07	5.941
612.40	6.703
612.73	5.763
613.07	5.987
613.40	5.727
613.73	6.555
614.06	5.970
614.39	5.392
614.72	7.107
615.06	5.778
615.39	6.126
615.72	5.400
616.05	5.743
616.38	6.644
616.71	6.059
617.05	6.695
617.38	6.470
617.71	5.944
618.04	5.911
618.37	7.066
618.70	6.210
619.03	6.460
619.36	7.331
619.69	5.482
620.03	6.996
620.36	6.750
620.69	6.495
621.02	6.462
621.35	5.397
621.68	6.601
622.01	7.282
622.34	6.106
622.67	6.578
623.00	7.523
623.33	6.133
623.66	6.617
623.99	6.977
624.32	6.897
624.65	5.786
624.99	5.952
625.32	7.394
625.65	5.426
625.98	6.714
626.31	7.347
626.64	7.137
626.97	5.623
627.30	7.613
627.63	6.142
627.96	5.714
628.29	7.256
628.62	8.994
628.95	7.114
629.28	7.192
629.61	7.943
629.94	7.640
630.26	6.404
630.59	6.993
630.92	7.631
631.25	7.312
631.58	7.709
631.91	6.681
632.24	6.696
632.57	7.778
632.90	8.518
633.23	6.715
633.56	7.194
633.89	8.014
634.22	9.894
634.55	7.552
634.88	6.740
635.20	7.625
635.53	6.977
635.86	6.410
636.19	7.320
636.52	5.366
636.85	7.720
637.18	7.065
637.51	6.991
637.83	7.180
638.16	7.067
638.49	6.275
638.82	7.451
639.15	6.782
639.48	9.626
639.81	8.750
640.13	7.324
640.46	8.051
640.79	9.928
641.12	9.024
641.45	7.569
641.77	7.806
642.10	8.169
642.43	10.063
642.76	6.782
643.09	8.147
643.41	8.772
643.74	6.947
644.07	6.634
644.40	9.287
644.73	9.661
645.05	7.679
645.38	8.306
645.71	10.204
646.04	4.545
646.36	9.896
646.69	7.343
647.02	6.557
647.35	7.861
647.67	8.503
648.00	6.703
648.33	7.458
648.66	6.344
648.98	8.230
649.31	8.589
649.64	7.355
649.96	7.267
650.29	6.536
650.62	7.908
650.94	7.241
651.27	7.774
651.60	8.042
651.92	7.706
652.25	8.710
652.58	6.766
652.90	7.407
653.23	7.131
653.56	6.777
653.88	6.826
654.21	6.826
654.54	7.309
654.86	3.902
655.19	4.342
655.52	6.061
655.84	4.006
656.17	4.726
656.49	6.407
656.82	6.851
657.15	5.334
657.47	4.292
657.80	3.275
658.13	3.780
658.45	5.936
658.78	5.784
659.10	6.098
659.43	6.384
659.75	6.455
660.08	7.103
660.41	6.998
660.73	7.713
661.06	7.143
661.38	10.465
661.71	7.172
662.03	9.937
662.36	6.637
662.68	8.602
663.01	9.746
663.33	9.071
663.66	5.987
663.98	8.989
664.31	7.692
664.63	3.829
664.96	8.315
665.28	10.300
665.61	6.479
665.93	8.994
666.26	9.494
666.58	6.852
666.91	10.538
667.23	8.525
667.56	6.897
667.88	8.645
668.21	8.482
668.53	10.115
668.86	8.873
669.18	7.565
669.50	10.829
669.83	7.160
670.15	6.429
670.48	7.586
670.80	11.816
671.13	6.865
671.45	9.817
671.77	9.267
672.10	8.577
672.42	6.870
672.75	6.250
673.07	6.000
673.39	8.022
673.72	7.984
674.04	8.607
674.37	7.724
674.69	6.173
675.01	8.333
675.34	7.877
675.66	8.279
675.98	7.965
676.31	6.335
676.63	8.844
676.95	8.235
677.28	8.028
677.60	9.559
677.92	9.313
678.25	10.195
678.57	9.572
678.89	6.823
679.22	7.660
679.54	7.143
679.86	7.227
680.18	6.923
680.51	6.731
680.83	5.653
681.15	6.876
681.48	7.615
681.80	5.112
682.12	6.875
682.44	7.243
682.77	4.421
683.09	7.143
683.41	5.349
683.73	7.143
684.06	6.637
684.38	5.983
684.70	6.314
685.02	9.504
685.34	9.002
685.67	5.816
685.99	7.473
686.31	7.414
686.63	7.169
686.96	8.349
687.28	5.389
687.60	9.074
687.92	7.393
688.24	7.000
688.56	9.430
688.89	5.345
689.21	8.296
689.53	5.856
689.85	6.067
690.17	7.692
690.49	4.589
690.82	7.876
691.14	8.213
691.46	5.336
691.78	5.495
692.10	7.643
692.42	6.374
692.74	8.913
693.06	5.618
693.39	3.044
693.71	7.778
694.03	8.864
694.35	10.135
694.67	8.500
694.99	7.216
695.31	8.269
695.63	7.317
695.95	6.870
696.27	3.836
696.59	4.839
696.91	6.983
697.23	6.091
697.56	7.434
697.88	7.900
698.20	8.207
698.52	2.804
698.84	4.545
699.16	6.619
699.48	8.889
699.80	8.269
700.12	10.992
700.44	7.606
700.76	8.708
701.08	6.949
701.40	8.982
701.72	6.769
702.04	6.604
702.36	8.232
702.68	4.878
703.00	7.602
703.32	5.571
703.64	8.735
703.96	8.798
704.28	6.325
704.60	7.317
704.91	8.150
705.23	7.595
705.55	7.586
705.87	10.563
706.19	5.128
706.51	3.873
706.83	5.096
707.15	10.671
707.47	4.959
707.79	6.599
708.11	4.370
708.43	7.107
708.74	6.383
709.06	5.615
709.38	8.646
709.70	9.009
710.02	6.854
710.34	7.333
710.66	5.863
710.98	7.740
711.29	5.195
711.61	5.806
711.93	7.742
712.25	6.643
712.57	4.211
712.89	6.593
713.20	6.383
713.52	4.015
713.84	7.419
714.16	6.472
714.48	9.494
714.80	6.070
715.11	7.849
715.43	5.901
715.75	7.143
716.07	8.133
716.39	8.081
716.70	12.230
717.02	3.137
717.34	7.197
717.66	3.448
717.97	1.984
718.29	9.449
718.61	4.721
718.93	7.752
719.24	10.332
719.56	4.869
719.88	5.970
720.20	7.115
720.51	8.203
720.83	8.560
721.15	0.813
721.46	6.107
721.78	5.179
722.10	8.367
722.42	1.210
722.73	5.792
723.05	10.204
723.37	7.143
723.68	7.600
724.00	1.702
724.32	6.276
724.63	4.938
724.95	5.556
725.27	6.751
725.58	4.938
725.90	6.276
726.22	8.696
726.53	3.137
726.85	4.015
727.16	5.185
727.48	7.663
727.80	6.641
728.11	7.787
728.43	7.422
728.74	7.143
729.06	1.600
729.38	7.905
729.69	9.964
730.01	4.833
730.32	7.380
730.64	1.894
730.96	11.538
731.27	3.010
731.59	5.397
731.90	3.883
732.22	1.923
732.53	3.378
732.85	4.698
733.16	8.251
733.48	7.432
733.80	6.419
734.11	8.446
734.43	8.359
734.74	6.607
735.06	6.340
735.37	5.775
735.69	7.120
736.00	4.290
736.32	4.610
736.63	5.517
736.95	5.822
737.26	2.414
737.58	6.250
737.89	3.436
738.21	8.541
738.52	5.323
738.83	7.755
739.15	11.392
739.46	4.280
739.78	2.113
740.09	6.164
740.41	1.786
740.72	9.574
741.04	6.800
741.35	7.456
741.66	12.889
741.98	12.019
742.29	9.901
742.61	5.854
742.92	9.211
743.23	8.962
743.55	8.108
743.86	12.108
744.18	4.412
744.49	6.091
744.80	4.592
745.12	6.542
745.43	3.791
745.74	8.108
746.06	8.411
746.37	5.046
746.68	12.981
747.00	8.134
747.31	8.173
747.62	8.716
747.94	10.044
748.25	6.422
748.56	12.444
748.88	11.268
749.19	11.429
749.50	2.427
749.82	4.225
750.13	7.500
750.44	4.615
750.75	2.952
751.07	12.100
751.38	9.929
751.69	5.019
752.01	4.688
752.32	7.692
752.63	7.836
752.94	10.000
753.26	5.858
753.57	3.750
753.88	7.287
754.19	-1.195
754.51	6.015
754.82	4.029
755.13	0.000
755.44	7.317
755.75	7.600
756.07	4.059
756.38	5.036
756.69	6.826
757.00	5.296
757.31	3.883
757.63	2.469
757.94	5.932
758.25	5.820
758.56	4.076
758.87	6.845
759.18	5.047
759.50	6.061
759.81	2.676
760.12	6.154
760.43	5.357
760.74	4.520
761.05	7.459
761.36	6.017
761.67	3.021
761.99	3.780
762.30	2.190
762.61	6.173
762.92	12.821
763.23	14.344
763.54	8.225
763.85	4.898
764.16	5.691
764.47	4.800
764.78	5.357
765.10	5.902
765.41	5.167
765.72	5.901
766.03	8.911
766.34	8.077
766.65	5.021
766.96	8.451
767.27	14.851
767.58	2.809
767.89	6.173
768.20	1.105
768.51	16.583
768.82	13.942
769.13	5.752
769.44	4.603
769.75	3.419
770.06	5.830
770.37	1.471
770.68	6.796
770.99	1.942
771.30	6.723
771.61	4.490
771.92	9.129
772.23	3.604
772.54	1.105
772.85	12.791
773.16	12.169
773.47	0.592
773.78	6.897
774.09	12.500
774.39	7.453
774.70	8.163
775.01	8.276
775.32	2.143
775.63	6.767
775.94	6.015
776.25	4.000
776.56	4.132
776.87	15.873
777.18	0.000
777.48	10.811
777.79	9.449
778.10	13.761
778.41	3.509
778.72	5.042
779.03	4.225
779.34	8.784
779.65	4.225
779.95	3.974
780.26	3.597
780.57	9.353
780.88	4.225
781.19	0.840
781.50	6.040
781.80	4.094
782.11	4.651
782.42	7.547
782.73	7.190
783.04	6.897
783.34	0.763
783.65	6.711
783.96	3.077
784.27	7.143
784.57	3.546
784.88	-5.769
785.19	14.545
785.50	14.545
785.81	4.762
786.11	4.202
786.42	7.080
786.73	5.660
787.04	-1.835
787.34	-1.980
787.65	12.500
787.96	0.000
788.26	11.594
788.57	-1.587
788.88	9.756
789.19	6.400
789.49	6.870
789.80	13.636
790.11	7.547
790.41	6.931
790.72	5.319
791.03	16.304
791.33	7.059
791.64	3.704
791.95	8.696
792.25	17.045
792.56	20.513
792.87	0.000
793.17	-10.256
793.48	-4.762
793.79	12.500
794.09	17.308
794.40	20.833
794.70	5.405
795.01	3.125
795.32	6.087
795.62	-10.870
795.93	9.434
796.23	4.040
796.54	3.659
796.85	14.286
797.15	3.030
797.46	17.391
797.76	15.789
798.07	11.364
798.37	1.220
798.68	-8.065
798.99	-14.865
799.29	16.867
799.60	6.410
799.90	-3.077
800.21	1.515
800.51	-1.333
800.82	12.000
801.12	-4.167
801.43	-21.667
801.73	-1.351
802.04	15.714
802.34	9.836
802.65	10.448
802.95	3.636
803.26	8.621
803.56	-7.692
803.87	9.434
804.17	12.903
804.48	14.706
804.78	-4.878
805.09	4.348
805.39	17.647
805.70	-12.766
806.00	3.509
806.30	1.282
806.61	-13.158
806.91	10.811
807.22	5.263
807.52	13.636
807.83	-8.475
808.13	-22.727
808.43	10.000
808.74	-25.862
809.04	3.175
809.35	-22.449
809.65	6.667
809.95	8.163
810.26	19.718
810.56	6.250
810.86	-2.041
811.17	15.385
811.47	-19.149
811.77	-10.417
812.08	9.434
812.38	0.000
812.69	3.636
812.99	-2.439
813.29	-8.108
813.59	-29.730
813.90	-14.545
814.20	12.727
814.50	-3.333
814.81	14.545
815.11	22.807
815.41	32.558
815.72	2.500
816.02	20.000
816.32	-18.919
816.62	14.583
816.93	24.444
817.23	17.778
817.53	-16.667
817.84	-21.622
818.14	24.390
818.44	14.000
818.74	10.204
819.04	14.634
819.35	19.444
819.65	-2.273
819.95	-5.556
820.25	0.000
820.56	7.143
820.86	-8.333
821.16	-9.091
821.46	19.565
821.76	1.724
822.07	10.870
822.37	42.424
822.67	17.073
822.97	2.703
823.27	-25.714
823.57	41.379
823.88	0.000
824.18	-2.778
824.48	2.857
824.78	38.095
825.08	-32.143
825.38	0.000
825.69	38.710
825.99	19.512
826.29	-14.815
826.59	-9.375
826.89	0.000
827.19	-34.783
827.49	22.222
827.79	-39.130
828.09	-6.452
828.39	0.000
828.70	-3.125
829.00	-20.690
829.30	10.811
829.60	-50.000
829.90	3.704
830.20	12.500
830.50	4.545
830.80	-52.941
831.10	-4.545
831.40	11.765
831.70	11.538
832.00	12.121
832.30	26.471
832.60	5.405
832.90	1200.000
833.20	21.429
833.50	-15.000
833.80	7.895
834.10	-12.500
834.40	-27.273
834.70	-73.333
835.00	30.000
835.30	-4.167
835.60	9.524
835.90	-9.524
836.20	-4.000
836.50	4.167
836.80	-21.053
837.10	40.541
837.40	60.000
837.70	13.043
838.00	54.167
838.30	21.053
838.60	-110.000
838.90	-110.000
839.19	-41.667
839.49	-7.692
839.79	-26.316
840.09	-116.667
840.39	-140.000
840.69	-31.818
840.99	28.571
841.29	12.500
841.59	-30.769
841.88	-60.000
842.18	-28.571
842.48	66.667
842.78	-171.429
843.08	-71.429
843.38	50.000
843.68	-25.000
843.97	-35.714
844.27	-166.667
844.57	-63.636
844.87	-26.667
845.17	54.545
845.47	400.000
845.76	-20.000
846.06	-75.000
846.36	-300.000
846.66	10.526
846.96	-36.364
847.25	-11.111
847.55	-11.111
847.85	4.762
848.15	46.154
848.44	-66.667
848.74	0.000
849.04	-61.538
849.34	0.000
849.63	-27.273
849.93	-7.143
850.23	60.000
850.53	-50.000
850.82	38.889
851.12	-26.667
851.42	5.882
851.71	12.500
852.01	11.765
852.31	53.846
852.61	250.000
852.90	29.412
853.20	-6.667
853.50	0.000
853.79	-100.000
854.09	-150.000
854.39	0.000
854.68	12.500
854.98	28.571
855.28	-8.000
855.57	-4.167
855.87	16.667
856.17	0.000
856.46	40.625
856.76	35.000
857.05	44.000
857.35	-16.667
857.65	29.412
857.94	-16.667
858.24	-25.000
858.53	35.000
858.83	-72.727
859.13	48.000
859.42	21.429
859.72	-50.000
860.01	-4.167
860.31	-75.000
860.60	18.750
860.90	-33.333
861.20	116.667
861.49	66.667
861.79	12.500
862.08	-0.000
862.38	-83.333
862.67	157.143
862.97	150.000
863.26	-81.818
863.56	-27.273
863.85	36.842
864.15	23.529
864.44	-140.000
864.74	-130.000
865.03	44.444
865.33	35.714
865.62	64.286
865.92	68.421
866.21	5.556
866.51	36.364
866.80	-44.444
867.10	-150.000
867.39	-6.250
867.69	-13.333
867.98	20.000
868.27	58.824
868.57	0.000
868.86	-50.000
869.16	125.000
869.45	-100.000
869.75	350.000
870.04	160.000
870.33	-1000.000
870.63	21.053
870.92	-50.000
871.22	-700.000
871.51	-57.143
871.80	-188.889
872.10	-375.000
>>>>>End Processed Spectral Data<<<<<
