SpectraSuite Data File
++++++++++++++++++++++++++++++++++++
Date: Wed May 13 21:00:54 PDT 2015
User: schluterlab
Dark Spectrum Present: Yes
Reference Spectrum Present: Yes
Number of Sampled Component Spectra: 1
Spectrometers: USB2E3373
Integration Time (usec): 3000 (USB2E3373)
Spectra Averaged: 3 (USB2E3373)
Boxcar Smoothing: 0 (USB2E3373)
Correct for Electrical Dark: No (USB2E3373)
Strobe/Lamp Enabled: No (USB2E3373)
Correct for Detector Non-linearity: No (USB2E3373)
Correct for Stray Light: No (USB2E3373)
Number of Pixels in Processed Spectrum: 2048
>>>>>Begin Processed Spectral Data<<<<<
178.53	0.000
178.91	-100.000
179.29	116.667
179.67	-100.000
180.04	100.000
180.42	-60.000
180.80	200.000
181.18	216.667
181.56	-250.000
181.94	50.000
182.31	90.909
182.69	76.923
183.07	-20.000
183.45	100.000
183.83	77.778
184.20	-71.429
184.58	33.333
184.96	133.333
185.34	14.286
185.72	0.000
186.09	-500.000
186.47	60.000
186.85	-20.000
187.23	200.000
187.61	-0.000
187.98	600.000
188.36	50.000
188.74	0.000
189.12	81.818
189.49	50.000
189.87	41.667
190.25	260.000
190.63	600.000
191.00	20.000
191.38	180.000
191.76	-50.000
192.14	66.667
192.51	89.474
192.89	200.000
193.27	175.000
193.65	40.000
194.02	81.818
194.40	110.000
194.78	700.000
195.15	120.000
195.53	-40.000
195.91	-37.500
196.29	133.333
196.66	0.000
197.04	100.000
197.42	240.000
197.79	60.000
198.17	-87.500
198.55	133.333
198.92	50.000
199.30	200.000
199.68	-20.000
200.05	150.000
200.43	66.667
200.81	-100.000
201.18	-180.000
201.56	-83.333
201.94	450.000
202.31	43.478
202.69	57.143
203.07	66.667
203.44	120.000
203.82	200.000
204.19	20.000
204.57	0.000
204.95	-33.333
205.32	0.000
205.70	300.000
206.08	-125.000
206.45	0.000
206.83	125.000
207.20	66.667
207.58	-30.000
207.96	-1400.000
208.33	-171.429
208.71	-900.000
209.08	125.000
209.46	250.000
209.84	0.000
210.21	110.000
210.59	1400.000
210.96	-0.000
211.34	1000.000
211.71	-300.000
212.09	33.333
212.46	-90.000
212.84	-133.333
213.22	175.000
213.59	700.000
213.97	450.000
214.34	-650.000
214.72	38.462
215.09	37.500
215.47	133.333
215.84	150.000
216.22	-50.000
216.59	150.000
216.97	433.333
217.34	88.889
217.72	0.000
218.09	266.667
218.47	200.000
218.84	57.143
219.22	12.500
219.59	33.333
219.97	-125.000
220.34	-12.500
220.72	0.000
221.09	0.000
221.47	-50.000
221.84	700.000
222.22	0.000
222.59	100.000
222.97	-100.000
223.34	8.333
223.72	-300.000
224.09	-850.000
224.46	-18.182
224.84	37.500
225.21	-28.571
225.59	125.000
225.96	-16.667
226.34	-30.000
226.71	-42.857
227.08	350.000
227.46	-75.000
227.83	200.000
228.21	37.500
228.58	-25.000
228.95	17.647
229.33	12.500
229.70	112.500
230.08	53.846
230.45	-37.500
230.82	-8.333
231.20	157.143
231.57	50.000
231.95	700.000
232.32	100.000
232.69	47.059
233.07	-400.000
233.44	13.043
233.81	-500.000
234.19	29.167
234.56	-40.000
234.93	-6.667
235.31	10.526
235.68	30.769
236.05	-23.077
236.43	0.000
236.80	39.394
237.17	-26.667
237.55	17.647
237.92	13.793
238.29	-33.333
238.67	19.444
239.04	16.129
239.41	14.894
239.79	44.681
240.16	27.907
240.53	8.929
240.91	33.929
241.28	33.929
241.65	25.806
242.02	36.842
242.40	31.884
242.77	14.493
243.14	26.923
243.51	24.468
243.89	19.231
244.26	29.245
244.63	5.769
245.00	18.750
245.38	14.286
245.75	23.770
246.12	21.053
246.49	16.260
246.87	17.647
247.24	26.351
247.61	18.543
247.98	22.436
248.36	30.178
248.73	25.281
249.10	20.202
249.47	18.817
249.84	28.421
250.22	24.876
250.59	23.364
250.96	25.455
251.33	20.096
251.70	22.594
252.08	23.013
252.45	26.749
252.82	25.856
253.19	23.346
253.56	16.187
253.94	26.690
254.31	23.239
254.68	24.497
255.05	25.083
255.42	24.476
255.79	23.006
256.16	23.659
256.54	18.730
256.91	19.937
257.28	23.899
257.65	22.930
258.02	20.235
258.39	24.561
258.76	23.547
259.14	21.023
259.51	21.910
259.88	22.764
260.25	24.722
260.62	23.315
260.99	23.342
261.36	23.316
261.73	21.975
262.10	25.191
262.47	20.988
262.85	24.876
263.22	23.590
263.59	22.078
263.96	19.465
264.33	23.317
264.70	24.186
265.07	22.454
265.44	24.368
265.81	21.968
266.18	21.640
266.55	21.397
266.92	21.822
267.29	23.045
267.66	23.992
268.03	21.811
268.40	22.881
268.77	23.554
269.14	22.041
269.51	23.819
269.88	20.163
270.25	23.305
270.62	21.516
270.99	20.866
271.36	23.214
271.73	22.088
272.10	23.429
272.47	21.305
272.84	23.819
273.21	22.309
273.58	22.336
273.95	21.509
274.32	19.590
274.69	22.951
275.06	23.498
275.43	21.281
275.80	21.454
276.17	21.179
276.54	23.091
276.91	20.209
277.28	21.841
277.65	23.252
278.02	23.036
278.39	20.782
278.76	22.575
279.13	22.127
279.50	21.724
279.87	21.014
280.23	23.964
280.60	20.761
280.97	20.130
281.34	23.502
281.71	21.138
282.08	22.051
282.45	22.459
282.82	21.725
283.19	21.951
283.56	18.125
283.92	20.336
284.29	19.033
284.66	20.593
285.03	19.218
285.40	19.335
285.77	21.321
286.14	23.100
286.51	20.990
286.87	19.538
287.24	18.584
287.61	19.880
287.98	19.853
288.35	20.715
288.72	19.512
289.08	20.513
289.45	19.824
289.82	20.272
290.19	20.056
290.56	18.324
290.93	19.199
291.29	20.383
291.66	18.989
292.03	21.798
292.40	17.227
292.77	19.679
293.13	19.107
293.50	20.131
293.87	19.067
294.24	16.931
294.60	18.596
294.97	19.444
295.34	17.150
295.71	17.346
296.08	17.932
296.44	17.985
296.81	16.931
297.18	18.125
297.55	16.038
297.91	16.770
298.28	16.465
298.65	17.118
299.02	19.048
299.38	16.564
299.75	15.865
300.12	16.047
300.48	16.608
300.85	17.090
301.22	15.912
301.59	15.376
301.95	15.679
302.32	16.219
302.69	14.350
303.05	15.836
303.42	16.477
303.79	16.299
304.15	17.306
304.52	16.989
304.89	15.947
305.25	16.575
305.62	15.076
305.99	15.887
306.35	16.928
306.72	15.361
307.09	15.850
307.45	14.803
307.82	15.684
308.19	14.838
308.55	15.251
308.92	17.289
309.29	14.915
309.65	15.884
310.02	15.408
310.38	16.260
310.75	14.990
311.12	15.063
311.48	15.826
311.85	16.831
312.22	15.571
312.58	15.169
312.95	15.522
313.31	16.804
313.68	15.553
314.05	15.690
314.41	16.138
314.78	16.034
315.14	16.111
315.51	17.031
315.87	16.867
316.24	15.886
316.61	17.443
316.97	16.852
317.34	15.865
317.70	16.949
318.07	17.125
318.43	18.157
318.80	17.016
319.16	17.507
319.53	18.011
319.89	16.802
320.26	19.039
320.62	18.165
320.99	18.895
321.35	18.522
321.72	18.383
322.08	18.081
322.45	20.352
322.81	20.333
323.18	20.125
323.54	20.397
323.91	19.964
324.27	20.252
324.64	19.425
325.00	20.385
325.37	22.014
325.73	21.128
326.10	21.783
326.46	21.906
326.83	21.764
327.19	22.358
327.56	23.207
327.92	23.170
328.29	23.372
328.65	23.751
329.01	23.483
329.38	24.435
329.74	23.863
330.11	23.535
330.47	23.090
330.84	23.917
331.20	21.435
331.56	24.094
331.93	23.342
332.29	23.545
332.66	22.966
333.02	23.719
333.38	24.298
333.75	23.891
334.11	23.958
334.48	23.714
334.84	23.940
335.20	24.357
335.57	23.673
335.93	23.110
336.29	23.117
336.66	24.615
337.02	23.130
337.38	24.369
337.75	22.911
338.11	23.143
338.47	23.373
338.84	23.969
339.20	24.250
339.56	24.659
339.93	23.163
340.29	23.057
340.65	23.867
341.02	24.376
341.38	23.733
341.74	23.025
342.11	23.782
342.47	23.013
342.83	24.428
343.20	24.281
343.56	24.857
343.92	23.558
344.28	22.890
344.65	24.653
345.01	23.245
345.37	23.109
345.73	24.346
346.10	23.034
346.46	23.740
346.82	22.953
347.19	23.101
347.55	24.879
347.91	23.305
348.27	23.344
348.63	22.196
349.00	22.642
349.36	22.920
349.72	23.898
350.08	23.635
350.45	24.119
350.81	23.865
351.17	24.018
351.53	23.095
351.89	23.511
352.26	23.166
352.62	23.411
352.98	23.003
353.34	23.188
353.70	23.131
354.07	23.765
354.43	23.250
354.79	22.356
355.15	23.447
355.51	22.627
355.87	23.769
356.24	22.713
356.60	23.221
356.96	24.252
357.32	23.684
357.68	23.529
358.04	22.498
358.40	23.178
358.77	23.547
359.13	23.268
359.49	22.937
359.85	24.185
360.21	23.053
360.57	22.738
360.93	24.279
361.29	22.872
361.66	23.842
362.02	23.054
362.38	24.151
362.74	22.625
363.10	23.283
363.46	23.631
363.82	23.208
364.18	23.495
364.54	23.195
364.90	23.554
365.26	23.567
365.62	22.869
365.98	22.847
366.35	23.546
366.71	22.753
367.07	23.459
367.43	23.693
367.79	23.489
368.15	23.277
368.51	22.785
368.87	23.796
369.23	22.420
369.59	23.326
369.95	21.916
370.31	23.222
370.67	22.158
371.03	23.534
371.39	22.853
371.75	23.643
372.11	22.792
372.47	23.143
372.83	22.469
373.19	23.094
373.55	23.338
373.91	22.489
374.27	21.923
374.63	23.542
374.99	22.841
375.35	23.014
375.71	22.079
376.07	24.058
376.42	22.995
376.78	23.646
377.14	23.458
377.50	23.012
377.86	23.440
378.22	22.377
378.58	22.383
378.94	23.688
379.30	22.736
379.66	23.428
380.02	22.243
380.38	22.651
380.74	22.714
381.09	23.040
381.45	22.551
381.81	22.674
382.17	21.550
382.53	22.031
382.89	22.738
383.25	22.284
383.61	23.366
383.97	23.125
384.32	22.369
384.68	23.257
385.04	22.358
385.40	22.790
385.76	22.993
386.12	23.176
386.48	21.755
386.83	23.029
387.19	21.962
387.55	23.176
387.91	22.694
388.27	22.935
388.62	23.408
388.98	22.841
389.34	22.055
389.70	21.856
390.06	22.188
390.42	22.552
390.77	22.486
391.13	22.601
391.49	22.770
391.85	22.492
392.20	22.306
392.56	22.413
392.92	22.586
393.28	22.719
393.64	22.691
393.99	21.909
394.35	22.716
394.71	22.885
395.07	22.327
395.42	22.852
395.78	21.943
396.14	22.575
396.50	22.257
396.85	22.562
397.21	22.222
397.57	22.484
397.92	23.353
398.28	23.012
398.64	22.101
399.00	22.154
399.35	22.247
399.71	21.957
400.07	21.566
400.42	21.693
400.78	22.477
401.14	22.502
401.49	22.768
401.85	22.297
402.21	21.734
402.57	22.318
402.92	23.404
403.28	22.264
403.63	22.195
403.99	21.817
404.35	22.195
404.70	21.027
405.06	22.607
405.42	22.111
405.77	22.696
406.13	21.771
406.49	21.630
406.84	22.466
407.20	21.788
407.55	21.883
407.91	22.237
408.27	21.896
408.62	22.775
408.98	22.195
409.34	22.153
409.69	23.002
410.05	22.388
410.40	20.694
410.76	20.698
411.11	22.077
411.47	22.097
411.83	22.520
412.18	22.166
412.54	21.429
412.89	21.944
413.25	21.003
413.60	21.505
413.96	22.285
414.31	22.072
414.67	22.095
415.03	22.192
415.38	21.268
415.74	21.507
416.09	21.613
416.45	21.189
416.80	21.409
417.16	22.740
417.51	21.768
417.87	21.627
418.22	20.944
418.58	20.894
418.93	21.469
419.29	20.924
419.64	20.929
420.00	21.714
420.35	21.518
420.71	21.511
421.06	21.587
421.42	21.959
421.77	21.329
422.12	21.261
422.48	21.701
422.83	21.914
423.19	21.392
423.54	21.908
423.90	21.318
424.25	21.548
424.61	21.935
424.96	20.934
425.31	21.368
425.67	21.046
426.02	22.438
426.38	21.331
426.73	21.686
427.09	21.701
427.44	21.726
427.79	21.140
428.15	20.979
428.50	21.813
428.85	21.464
429.21	21.159
429.56	21.307
429.92	21.187
430.27	21.063
430.62	21.826
430.98	21.946
431.33	21.386
431.68	21.353
432.04	21.183
432.39	20.901
432.74	20.478
433.10	21.732
433.45	21.302
433.80	21.437
434.16	21.191
434.51	21.359
434.86	20.848
435.22	21.336
435.57	21.007
435.92	20.688
436.28	21.261
436.63	21.189
436.98	20.917
437.34	20.940
437.69	20.661
438.04	21.166
438.39	22.167
438.75	21.454
439.10	21.110
439.45	20.460
439.81	22.475
440.16	21.101
440.51	20.452
440.86	20.984
441.22	21.113
441.57	21.204
441.92	20.736
442.27	21.212
442.63	20.829
442.98	21.296
443.33	21.106
443.68	19.610
444.03	20.815
444.39	21.269
444.74	20.652
445.09	20.760
445.44	21.746
445.79	20.650
446.15	21.520
446.50	20.760
446.85	21.646
447.20	21.014
447.55	21.544
447.91	20.281
448.26	20.812
448.61	20.656
448.96	20.957
449.31	20.845
449.66	20.532
450.02	21.489
450.37	20.505
450.72	20.149
451.07	21.003
451.42	20.274
451.77	20.268
452.12	21.331
452.47	20.529
452.83	20.696
453.18	21.770
453.53	20.996
453.88	20.663
454.23	21.384
454.58	21.140
454.93	20.718
455.28	21.195
455.63	20.649
455.98	20.146
456.34	19.771
456.69	21.789
457.04	20.805
457.39	20.565
457.74	20.766
458.09	20.675
458.44	19.683
458.79	20.373
459.14	20.562
459.49	20.488
459.84	20.068
460.19	19.868
460.54	21.046
460.89	20.608
461.24	20.222
461.59	21.256
461.94	21.176
462.29	20.466
462.64	20.053
462.99	20.791
463.34	21.409
463.69	21.263
464.04	19.988
464.39	20.622
464.74	21.376
465.09	19.901
465.44	20.651
465.79	20.414
466.14	20.525
466.49	20.059
466.84	20.442
467.19	19.490
467.54	20.544
467.89	20.113
468.24	19.791
468.59	19.885
468.94	21.009
469.29	20.753
469.64	21.060
469.99	21.034
470.34	20.836
470.68	20.074
471.03	20.099
471.38	20.584
471.73	20.302
472.08	20.000
472.43	20.251
472.78	20.284
473.13	19.129
473.48	19.309
473.83	20.151
474.17	19.987
474.52	19.223
474.87	20.084
475.22	20.350
475.57	19.743
475.92	19.520
476.27	19.755
476.61	19.366
476.96	20.674
477.31	19.525
477.66	19.435
478.01	19.725
478.36	19.346
478.70	20.032
479.05	20.311
479.40	19.189
479.75	20.032
480.10	19.480
480.45	19.814
480.79	20.408
481.14	20.162
481.49	19.339
481.84	19.133
482.19	19.639
482.53	19.571
482.88	19.559
483.23	19.682
483.58	19.282
483.92	18.677
484.27	18.939
484.62	18.553
484.97	18.955
485.31	19.051
485.66	18.673
486.01	18.252
486.36	18.641
486.70	18.447
487.05	19.247
487.40	19.207
487.75	19.179
488.09	19.112
488.44	19.348
488.79	19.190
489.13	19.682
489.48	18.769
489.83	19.652
490.17	18.974
490.52	19.168
490.87	18.405
491.22	18.841
491.56	19.262
491.91	19.443
492.26	19.923
492.60	18.470
492.95	19.193
493.30	18.750
493.64	19.041
493.99	19.517
494.34	19.123
494.68	19.284
495.03	19.269
495.37	19.124
495.72	18.997
496.07	18.753
496.41	18.343
496.76	18.739
497.11	19.014
497.45	19.504
497.80	19.182
498.14	19.043
498.49	18.961
498.84	19.383
499.18	18.716
499.53	18.759
499.87	17.904
500.22	19.114
500.56	18.355
500.91	19.064
501.26	19.310
501.60	18.824
501.95	18.687
502.29	19.126
502.64	19.479
502.98	18.834
503.33	19.270
503.67	19.766
504.02	18.284
504.36	18.227
504.71	18.496
505.06	19.103
505.40	18.041
505.75	19.430
506.09	18.396
506.44	19.204
506.78	18.436
507.13	19.231
507.47	18.611
507.82	18.158
508.16	18.839
508.51	18.853
508.85	18.818
509.19	18.095
509.54	19.517
509.88	18.495
510.23	18.368
510.57	18.962
510.92	18.912
511.26	18.482
511.61	18.441
511.95	18.578
512.30	18.490
512.64	18.729
512.98	18.837
513.33	18.479
513.67	18.228
514.02	18.301
514.36	18.708
514.70	18.591
515.05	18.724
515.39	18.514
515.74	18.413
516.08	17.699
516.42	18.376
516.77	17.282
517.11	18.871
517.46	18.187
517.80	19.189
518.14	18.739
518.49	18.807
518.83	17.422
519.17	18.976
519.52	17.370
519.86	17.972
520.20	17.890
520.55	18.657
520.89	18.216
521.23	18.718
521.58	18.521
521.92	19.045
522.26	18.412
522.61	18.940
522.95	18.718
523.29	18.794
523.64	18.245
523.98	18.361
524.32	18.778
524.66	19.026
525.01	19.463
525.35	19.223
525.69	19.152
526.04	18.567
526.38	19.248
526.72	18.869
527.06	18.375
527.41	18.134
527.75	18.358
528.09	19.265
528.43	18.453
528.78	19.380
529.12	17.853
529.46	18.618
529.80	18.706
530.15	18.082
530.49	17.992
530.83	18.416
531.17	17.877
531.51	18.004
531.86	17.954
532.20	18.401
532.54	17.586
532.88	17.835
533.22	18.519
533.57	18.212
533.91	18.258
534.25	18.750
534.59	18.147
534.93	18.878
535.27	18.599
535.62	18.487
535.96	19.388
536.30	17.819
536.64	16.405
536.98	18.010
537.32	17.794
537.66	18.336
538.01	18.239
538.35	18.232
538.69	17.592
539.03	17.047
539.37	16.633
539.71	18.076
540.05	17.814
540.39	17.343
540.73	17.528
541.07	17.891
541.42	18.047
541.76	18.742
542.10	16.723
542.44	17.533
542.78	17.765
543.12	18.666
543.46	17.484
543.80	17.515
544.14	17.275
544.48	16.921
544.82	18.628
545.16	17.647
545.50	17.961
545.84	17.602
546.18	18.654
546.52	17.925
546.86	17.668
547.20	16.941
547.54	17.584
547.88	17.746
548.22	17.199
548.56	18.012
548.90	17.118
549.24	17.847
549.58	17.438
549.92	18.048
550.26	18.893
550.60	17.117
550.94	17.015
551.28	17.033
551.62	18.045
551.96	17.862
552.30	16.303
552.64	16.949
552.98	18.040
553.32	17.376
553.66	17.461
554.00	17.423
554.34	17.436
554.68	17.524
555.02	18.039
555.36	16.415
555.69	16.824
556.03	16.798
556.37	17.425
556.71	17.099
557.05	17.269
557.39	16.503
557.73	18.230
558.07	17.709
558.41	15.670
558.75	17.244
559.08	16.680
559.42	18.017
559.76	17.431
560.10	17.448
560.44	17.907
560.78	17.266
561.12	17.239
561.45	16.871
561.79	17.950
562.13	16.456
562.47	17.786
562.81	16.811
563.15	16.785
563.48	16.724
563.82	16.279
564.16	17.739
564.50	16.893
564.84	17.500
565.17	16.358
565.51	16.845
565.85	16.855
566.19	17.550
566.52	17.497
566.86	16.814
567.20	17.593
567.54	16.062
567.88	16.069
568.21	16.676
568.55	17.371
568.89	16.152
569.23	16.544
569.56	16.521
569.90	16.334
570.24	15.415
570.57	16.615
570.91	16.145
571.25	15.796
571.59	15.815
571.92	15.782
572.26	16.484
572.60	16.477
572.93	16.401
573.27	16.125
573.61	16.643
573.95	16.341
574.28	16.396
574.62	15.527
574.96	15.846
575.29	15.672
575.63	15.701
575.97	16.005
576.30	15.997
576.64	15.693
576.98	16.221
577.31	16.207
577.65	15.684
577.98	15.518
578.32	16.081
578.66	15.801
578.99	16.150
579.33	15.592
579.67	15.504
580.00	15.553
580.34	15.705
580.67	15.948
581.01	15.718
581.35	16.009
581.68	15.408
582.02	15.838
582.35	15.748
582.69	15.749
583.02	15.798
583.36	15.736
583.70	15.448
584.03	16.069
584.37	15.847
584.70	15.553
585.04	16.028
585.37	15.577
585.71	15.388
586.04	15.514
586.38	15.785
586.72	15.285
587.05	16.272
587.39	15.639
587.72	15.505
588.06	15.759
588.39	15.225
588.73	15.493
589.06	15.228
589.40	15.549
589.73	15.667
590.07	16.077
590.40	16.850
590.73	16.248
591.07	15.880
591.40	16.435
591.74	15.696
592.07	15.792
592.41	15.959
592.74	16.088
593.08	15.487
593.41	15.446
593.75	15.149
594.08	15.509
594.41	15.356
594.75	16.079
595.08	15.646
595.42	15.140
595.75	15.727
596.09	15.897
596.42	15.400
596.75	15.665
597.09	16.333
597.42	15.882
597.75	15.822
598.09	15.665
598.42	16.242
598.76	15.491
599.09	16.046
599.42	15.219
599.76	15.546
600.09	15.851
600.42	15.669
600.76	15.041
601.09	15.292
601.42	15.955
601.76	15.946
602.09	15.809
602.42	16.302
602.76	15.227
603.09	16.222
603.42	15.154
603.76	15.199
604.09	15.494
604.42	15.571
604.76	15.015
605.09	15.134
605.42	15.700
605.75	14.647
606.09	15.273
606.42	16.002
606.75	14.935
607.09	14.716
607.42	15.981
607.75	15.230
608.08	15.600
608.42	15.136
608.75	15.241
609.08	15.875
609.41	15.847
609.75	15.431
610.08	15.533
610.41	15.792
610.74	15.688
611.07	15.581
611.41	16.121
611.74	15.787
612.07	15.373
612.40	16.216
612.73	14.984
613.07	14.967
613.40	16.079
613.73	15.655
614.06	15.589
614.39	15.787
614.72	16.324
615.06	15.278
615.39	15.894
615.72	15.335
616.05	15.090
616.38	15.636
616.71	15.357
617.05	15.479
617.38	15.404
617.71	14.767
618.04	15.722
618.37	15.205
618.70	15.912
619.03	15.258
619.36	16.441
619.69	15.132
620.03	15.265
620.36	16.006
620.69	15.346
621.02	15.462
621.35	14.064
621.68	15.974
622.01	16.424
622.34	15.067
622.67	16.053
623.00	15.957
623.33	15.632
623.66	14.796
623.99	15.979
624.32	15.847
624.65	15.356
624.99	15.577
625.32	16.729
625.65	15.814
625.98	15.008
626.31	15.510
626.64	16.165
626.97	16.003
627.30	14.799
627.63	15.830
627.96	15.065
628.29	16.558
628.62	16.344
628.95	16.232
629.28	14.483
629.61	17.129
629.94	15.861
630.26	16.453
630.59	15.684
630.92	15.462
631.25	15.139
631.58	16.809
631.91	13.998
632.24	16.905
632.57	16.222
632.90	16.219
633.23	15.348
633.56	17.026
633.89	18.182
634.22	18.492
634.55	15.834
634.88	16.789
635.20	16.750
635.53	15.375
635.86	16.538
636.19	16.749
636.52	15.488
636.85	14.837
637.18	13.764
637.51	16.479
637.83	18.016
638.16	16.133
638.49	15.487
638.82	15.556
639.15	16.489
639.48	16.578
639.81	15.833
640.13	16.761
640.46	15.113
640.79	16.835
641.12	14.201
641.45	16.157
641.77	15.464
642.10	16.944
642.43	18.239
642.76	14.826
643.09	16.613
643.41	14.035
643.74	15.347
644.07	17.152
644.40	16.584
644.73	16.441
645.05	14.485
645.38	13.953
645.71	15.476
646.04	12.795
646.36	15.972
646.69	16.259
647.02	13.661
647.35	18.464
647.67	15.342
648.00	15.399
648.33	15.424
648.66	15.526
648.98	17.702
649.31	16.411
649.64	15.493
649.96	14.692
650.29	14.216
650.62	14.333
650.94	16.897
651.27	17.138
651.60	16.084
651.92	15.233
652.25	17.253
652.58	16.172
652.90	13.300
653.23	13.243
653.56	16.033
653.88	13.481
654.21	16.894
654.54	15.615
654.86	13.984
655.19	15.126
655.52	16.699
655.84	14.249
656.17	16.830
656.49	22.862
656.82	22.885
657.15	16.767
657.47	12.529
657.80	9.450
658.13	9.714
658.45	14.343
658.78	14.809
659.10	15.173
659.43	15.351
659.75	15.599
660.08	15.034
660.41	14.909
660.73	16.253
661.06	14.116
661.38	16.473
661.71	16.803
662.03	15.856
662.36	17.920
662.68	15.269
663.01	16.525
663.33	16.199
663.66	12.860
663.98	16.854
664.31	18.462
664.63	12.387
664.96	15.974
665.28	18.026
665.61	14.255
665.93	15.846
666.26	20.464
666.58	14.133
666.91	17.713
667.23	15.207
667.56	17.011
667.88	14.486
668.21	15.625
668.53	17.011
668.86	13.909
669.18	15.839
669.50	17.281
669.83	14.797
670.15	16.190
670.48	17.241
670.80	16.630
671.13	16.018
671.45	15.297
671.77	16.164
672.10	15.984
672.42	16.221
672.75	14.107
673.07	12.909
673.39	15.112
673.72	15.569
674.04	17.008
674.37	15.041
674.69	15.844
675.01	16.880
675.34	14.880
675.66	19.608
675.98	14.381
676.31	16.516
676.63	18.141
676.95	16.706
677.28	14.220
677.60	14.706
677.92	15.521
678.25	15.835
678.57	17.719
678.89	15.139
679.22	15.942
679.54	17.755
679.86	18.359
680.18	15.962
680.51	15.000
680.83	13.450
681.15	16.896
681.48	14.429
681.80	14.315
682.12	13.958
682.44	15.091
682.77	11.579
683.09	13.616
683.41	15.349
683.73	14.955
684.06	14.823
684.38	14.530
684.70	14.053
685.02	16.736
685.34	16.634
685.67	15.385
685.99	14.057
686.31	15.517
686.63	15.074
686.96	15.770
687.28	13.972
687.60	14.934
687.92	16.732
688.24	12.800
688.56	16.228
688.89	13.140
689.21	13.453
689.53	14.414
689.85	18.427
690.17	14.505
690.49	15.700
690.82	12.888
691.14	10.628
691.46	15.545
691.78	17.582
692.10	15.924
692.42	13.407
692.74	17.391
693.06	12.584
693.39	13.115
693.71	18.000
694.03	18.409
694.35	14.640
694.67	16.750
694.99	15.206
695.31	16.537
695.63	15.366
695.95	10.433
696.27	11.781
696.59	14.785
696.91	11.173
697.23	15.736
697.56	14.388
697.88	17.048
698.20	17.495
698.52	13.785
698.84	16.986
699.16	13.239
699.48	16.296
699.80	18.863
700.12	16.890
700.44	14.648
700.76	15.169
701.08	18.127
701.40	13.174
701.72	15.692
702.04	16.038
702.36	11.890
702.68	11.890
703.00	17.251
703.32	15.320
703.64	14.157
703.96	15.543
704.28	12.952
704.60	17.683
704.91	11.599
705.23	16.456
705.55	13.103
705.87	16.197
706.19	13.187
706.51	17.958
706.83	13.376
707.15	15.854
707.47	15.152
707.79	14.213
708.11	14.396
708.43	17.005
708.74	15.426
709.06	18.182
709.38	14.409
709.70	16.216
710.02	16.199
710.34	14.667
710.66	16.287
710.98	12.693
711.29	12.338
711.61	18.065
711.93	14.839
712.25	12.937
712.57	13.333
712.89	13.553
713.20	18.440
713.52	16.058
713.84	12.258
714.16	15.858
714.48	14.557
714.80	12.780
715.11	19.477
715.43	11.491
715.75	16.149
716.07	14.157
716.39	18.182
716.70	19.424
717.02	12.941
717.34	12.879
717.66	12.931
717.97	14.683
718.29	14.173
718.61	15.880
718.93	14.341
719.24	12.915
719.56	10.861
719.88	13.806
720.20	18.577
720.51	12.109
720.83	14.008
721.15	10.163
721.46	17.557
721.78	13.546
722.10	13.147
722.42	18.952
722.73	17.761
723.05	17.143
723.37	17.647
723.68	12.400
724.00	11.915
724.32	13.808
724.63	17.695
724.95	11.538
725.27	17.722
725.58	18.930
725.90	16.736
726.22	13.768
726.53	9.412
726.85	19.343
727.16	14.444
727.48	14.559
727.80	16.797
728.11	15.164
728.43	14.844
728.74	14.286
729.06	12.800
729.38	16.206
729.69	17.794
730.01	13.383
730.32	13.284
730.64	14.394
730.96	15.734
731.27	14.381
731.59	13.968
731.90	15.210
732.22	14.423
732.53	12.162
732.85	14.094
733.16	13.861
733.48	15.541
733.80	18.919
734.11	15.878
734.43	18.576
734.74	17.417
735.06	12.104
735.37	13.982
735.69	11.974
736.00	15.512
736.32	15.957
736.63	14.828
736.95	16.781
737.26	16.207
737.58	10.764
737.89	16.495
738.21	13.523
738.52	16.730
738.83	14.694
739.15	14.346
739.46	17.121
739.78	15.845
740.09	14.041
740.41	10.357
740.72	11.702
741.04	14.400
741.35	9.211
741.66	17.333
741.98	14.904
742.29	22.772
742.61	14.634
742.92	23.246
743.23	13.208
743.55	14.414
743.86	10.314
744.18	14.706
744.49	15.736
744.80	13.265
745.12	19.159
745.43	13.270
745.74	22.072
746.06	14.019
746.37	16.055
746.68	16.346
747.00	14.833
747.31	17.788
747.62	20.642
747.94	16.594
748.25	14.679
748.56	20.000
748.88	18.310
749.19	17.619
749.50	11.650
749.82	14.085
750.13	10.417
750.44	10.385
750.75	11.808
751.07	17.794
751.38	16.312
751.69	13.514
752.01	12.891
752.32	11.538
752.63	13.433
752.94	16.400
753.26	12.971
753.57	12.917
753.88	18.623
754.19	14.741
754.51	12.030
754.82	12.454
755.13	10.870
755.44	17.073
755.75	7.600
756.07	11.808
756.38	11.871
756.69	18.089
757.00	16.822
757.31	15.534
757.63	11.111
757.94	17.232
758.25	15.344
758.56	12.228
758.87	17.560
759.18	18.297
759.50	16.498
759.81	18.060
760.12	13.231
760.43	11.905
760.74	10.734
761.05	11.602
761.36	12.321
761.67	13.293
761.99	10.997
762.30	12.044
762.61	15.226
762.92	18.376
763.23	18.852
763.54	16.017
763.85	15.102
764.16	12.602
764.47	12.000
764.78	13.929
765.10	12.131
765.41	13.374
765.72	15.217
766.03	16.502
766.34	14.231
766.65	15.063
766.96	12.207
767.27	22.277
767.58	3.933
767.89	23.457
768.20	14.365
768.51	16.583
768.82	14.904
769.13	19.027
769.44	16.736
769.75	11.538
770.06	16.143
770.37	11.765
770.68	17.476
770.99	10.194
771.30	15.966
771.61	15.102
771.92	17.012
772.23	16.216
772.54	8.840
772.85	18.023
773.16	16.931
773.47	8.284
773.78	18.966
774.09	15.000
774.39	16.770
774.70	16.327
775.01	10.345
775.32	15.000
775.63	12.782
775.94	18.797
776.25	7.200
776.56	21.488
776.87	22.222
777.18	9.910
777.48	17.117
777.79	11.024
778.10	10.092
778.41	20.175
778.72	11.765
779.03	6.338
779.34	22.297
779.65	12.676
779.95	10.596
780.26	10.072
780.57	19.424
780.88	14.789
781.19	12.605
781.50	20.805
781.80	7.602
782.11	6.977
782.42	23.270
782.73	14.379
783.04	9.655
783.34	12.977
783.65	17.450
783.96	11.538
784.27	19.286
784.57	16.312
784.88	0.962
785.19	20.000
785.50	22.727
785.81	8.571
786.11	12.605
786.42	9.735
786.73	12.264
787.04	8.257
787.34	12.871
787.65	21.667
787.96	17.355
788.26	18.116
788.57	10.317
788.88	21.951
789.19	11.200
789.49	12.214
789.80	21.970
790.11	12.264
790.41	20.792
790.72	14.894
791.03	16.304
791.33	25.882
791.64	8.642
791.95	19.565
792.25	20.455
792.56	11.538
792.87	3.846
793.17	5.128
793.48	3.571
793.79	8.750
794.09	13.462
794.40	12.500
794.70	12.613
795.01	13.281
795.32	6.087
795.62	3.261
795.93	10.377
796.23	22.222
796.54	14.634
796.85	13.095
797.15	10.606
797.46	15.942
797.76	10.526
798.07	18.182
798.37	18.293
798.68	-3.226
798.99	4.054
799.29	22.892
799.60	17.949
799.90	15.385
800.21	30.303
800.51	21.333
800.82	29.333
801.12	-39.583
801.43	3.333
801.73	25.676
802.04	17.143
802.34	26.230
802.65	16.418
802.95	21.818
803.26	18.966
803.56	9.231
803.87	16.981
804.17	17.742
804.48	10.294
804.78	2.439
805.09	26.087
805.39	20.588
805.70	-6.383
806.00	26.316
806.30	10.256
806.61	9.211
806.91	18.919
807.22	6.579
807.52	22.727
807.83	-3.390
808.13	7.576
808.43	5.000
808.74	0.000
809.04	6.349
809.35	-18.367
809.65	15.000
809.95	2.041
810.26	28.169
810.56	4.167
810.86	6.122
811.17	32.692
811.47	17.021
811.77	8.333
812.08	18.868
812.38	-12.500
812.69	18.182
812.99	12.195
813.29	16.216
813.59	-8.108
813.90	5.455
814.20	7.273
814.50	10.000
814.81	43.636
815.11	12.281
815.41	37.209
815.72	10.000
816.02	8.571
816.32	0.000
816.62	22.917
816.93	11.111
817.23	8.889
817.53	-13.889
817.84	-10.811
818.14	19.512
818.44	38.000
818.74	28.571
819.04	31.707
819.35	16.667
819.65	13.636
819.95	-77.778
820.25	0.000
820.56	-11.905
820.86	13.889
821.16	-11.364
821.46	30.435
821.76	10.345
822.07	19.565
822.37	27.273
822.67	65.854
822.97	0.000
823.27	-22.857
823.57	10.345
823.88	-5.882
824.18	11.111
824.48	5.714
824.78	-19.048
825.08	17.857
825.38	14.815
825.69	-9.677
825.99	19.512
826.29	18.519
826.59	25.000
826.89	29.032
827.19	-17.391
827.49	2.778
827.79	21.739
828.09	29.032
828.39	14.583
828.70	3.125
829.00	0.000
829.30	32.432
829.60	-50.000
829.90	33.333
830.20	34.375
830.50	-4.545
830.80	-82.353
831.10	9.091
831.40	-5.882
831.70	19.231
832.00	60.606
832.30	23.529
832.60	37.838
832.90	600.000
833.20	-17.857
833.50	-15.000
833.80	21.053
834.10	-16.667
834.40	-18.182
834.70	-13.333
835.00	20.000
835.30	-12.500
835.60	42.857
835.90	4.762
836.20	44.000
836.50	-12.500
836.80	5.263
837.10	27.027
837.40	20.000
837.70	-30.435
838.00	41.667
838.30	5.263
838.60	-80.000
838.90	-150.000
839.19	0.000
839.49	38.462
839.79	-5.263
840.09	-83.333
840.39	-90.000
840.69	31.818
840.99	9.524
841.29	20.833
841.59	-7.692
841.88	13.333
842.18	57.143
842.48	40.000
842.78	-71.429
843.08	-35.714
843.38	-150.000
843.68	-62.500
843.97	50.000
844.27	0.000
844.57	-45.455
844.87	-73.333
845.17	59.091
845.47	433.333
845.76	-20.000
846.06	-8.333
846.36	-50.000
846.66	-26.316
846.96	-18.182
847.25	0.000
847.55	-122.222
847.85	-9.524
848.15	15.385
848.44	-166.667
848.74	-50.000
849.04	-76.923
849.34	-200.000
849.63	-81.818
849.93	-100.000
850.23	35.000
850.53	12.500
850.82	27.778
851.12	33.333
851.42	41.176
851.71	-37.500
852.01	70.588
852.31	30.769
852.61	-100.000
852.90	70.588
853.20	46.667
853.50	-12.500
853.79	-35.714
854.09	-200.000
854.39	-30.000
854.68	20.000
854.98	-4.762
855.28	-16.000
855.57	16.667
855.87	0.000
856.17	32.000
856.46	28.125
856.76	5.000
857.05	72.000
857.35	-66.667
857.65	47.059
857.94	-91.667
858.24	-16.667
858.53	15.000
858.83	0.000
859.13	-8.000
859.42	7.143
859.72	-150.000
860.01	33.333
860.31	-162.500
860.60	-6.250
860.90	-66.667
861.20	33.333
861.49	26.667
861.79	-6.250
862.08	-0.000
862.38	0.000
862.67	242.857
862.97	125.000
863.26	-36.364
863.56	-18.182
863.85	47.368
864.15	41.176
864.44	-120.000
864.74	-20.000
865.03	-33.333
865.33	-14.286
865.62	71.429
865.92	42.105
866.21	-16.667
866.51	54.545
866.80	44.444
867.10	0.000
867.39	-12.500
867.69	-26.667
867.98	-100.000
868.27	23.529
868.57	0.000
868.86	450.000
869.16	-50.000
869.45	-128.571
869.75	300.000
870.04	-50.000
870.33	-1100.000
870.63	42.105
870.92	-8.333
871.22	300.000
871.51	0.000
871.80	-55.556
872.10	-150.000
>>>>>End Processed Spectral Data<<<<<
