SpectraSuite Data File
++++++++++++++++++++++++++++++++++++
Date: Wed May 13 20:48:14 PDT 2015
User: schluterlab
Dark Spectrum Present: Yes
Reference Spectrum Present: Yes
Number of Sampled Component Spectra: 1
Spectrometers: USB2E3373
Integration Time (usec): 3000 (USB2E3373)
Spectra Averaged: 3 (USB2E3373)
Boxcar Smoothing: 0 (USB2E3373)
Correct for Electrical Dark: No (USB2E3373)
Strobe/Lamp Enabled: No (USB2E3373)
Correct for Detector Non-linearity: No (USB2E3373)
Correct for Stray Light: No (USB2E3373)
Number of Pixels in Processed Spectrum: 2048
>>>>>Begin Processed Spectral Data<<<<<
178.53	0.000
178.91	-850.000
179.29	-925.000
179.67	-88.889
180.04	-775.000
180.42	1650.000
180.80	640.000
181.18	-700.000
181.56	442.857
181.94	0.000
182.31	-371.429
182.69	800.000
183.07	-412.500
183.45	-211.111
183.83	309.091
184.20	-180.000
184.58	1150.000
184.96	3700.000
185.34	-380.000
185.72	-387.500
186.09	-950.000
186.47	1600.000
186.85	1550.000
187.23	2500.000
187.61	-1066.667
187.98	1000.000
188.36	300.000
188.74	254.545
189.12	-520.000
189.49	330.000
189.87	-2000.000
190.25	-700.000
190.63	250.000
191.00	230.769
191.38	450.000
191.76	-425.000
192.14	725.000
192.51	187.500
192.89	533.333
193.27	212.500
193.65	-600.000
194.02	300.000
194.40	440.000
194.78	240.000
195.15	383.333
195.53	400.000
195.91	-1050.000
196.29	231.250
196.66	200.000
197.04	-210.000
197.42	0.000
197.79	340.000
198.17	-2000.000
198.55	357.143
198.92	350.000
199.30	520.000
199.68	0.000
200.05	244.444
200.43	471.429
200.81	1400.000
201.18	766.667
201.56	-866.667
201.94	277.778
202.31	455.556
202.69	241.667
203.07	280.000
203.44	0.000
203.82	700.000
204.19	371.429
204.57	321.429
204.95	437.500
205.32	733.333
205.70	254.545
206.08	242.857
206.45	1600.000
206.83	181.250
207.20	300.000
207.58	240.000
207.96	200.000
208.33	362.500
208.71	-383.333
209.08	514.286
209.46	366.667
209.84	300.000
210.21	-700.000
210.59	900.000
210.96	-225.000
211.34	900.000
211.71	360.000
212.09	383.333
212.46	0.000
212.84	833.333
213.22	725.000
213.59	-2200.000
213.97	333.333
214.34	485.714
214.72	409.091
215.09	500.000
215.47	-1300.000
215.84	-1150.000
216.22	900.000
216.59	228.571
216.97	725.000
217.34	254.545
217.72	-333.333
218.09	0.000
218.47	-2600.000
218.84	322.222
219.22	314.286
219.59	866.667
219.97	-257.143
220.34	620.000
220.72	-1066.667
221.09	235.714
221.47	1075.000
221.84	-500.000
222.22	0.000
222.59	950.000
222.97	-950.000
223.34	800.000
223.72	238.462
224.09	480.000
224.46	1350.000
224.84	-2200.000
225.21	-620.000
225.59	-2500.000
225.96	360.000
226.34	145.000
226.71	1300.000
227.08	337.500
227.46	270.000
227.83	-425.000
228.21	-1300.000
228.58	488.889
228.95	-1450.000
229.33	-1150.000
229.70	833.333
230.08	385.714
230.45	-440.000
230.82	250.000
231.20	350.000
231.57	357.143
231.95	208.333
232.32	159.091
232.69	181.818
233.07	400.000
233.44	176.923
233.81	-733.333
234.19	184.211
234.56	183.333
234.93	133.333
235.31	245.455
235.68	138.462
236.05	242.857
236.43	81.818
236.80	89.474
237.17	2400.000
237.55	80.952
237.92	100.000
238.29	128.571
238.67	77.419
239.04	48.276
239.41	52.778
239.79	60.870
240.16	73.810
240.53	54.545
240.91	37.255
241.28	60.000
241.65	54.000
242.02	53.623
242.40	32.258
242.77	33.333
243.14	43.011
243.51	32.584
243.89	34.118
244.26	31.111
244.63	30.108
245.00	24.468
245.38	24.752
245.75	24.299
246.12	23.853
246.49	29.927
246.87	29.600
247.24	32.308
247.61	19.286
247.98	19.608
248.36	9.459
248.73	15.287
249.10	15.287
249.47	19.209
249.84	25.134
250.22	18.182
250.59	11.243
250.96	21.212
251.33	16.114
251.70	20.297
252.08	13.333
252.45	16.143
252.82	11.739
253.19	17.021
253.56	14.118
253.94	16.598
254.31	15.625
254.68	19.231
255.05	13.653
255.42	15.041
255.79	13.235
256.16	14.801
256.54	12.721
256.91	11.388
257.28	7.194
257.65	11.551
258.02	13.354
258.39	9.148
258.76	10.368
259.14	12.202
259.51	9.726
259.88	8.385
260.25	11.480
260.62	13.006
260.99	9.317
261.36	14.715
261.73	10.315
262.10	9.012
262.47	10.141
262.85	10.864
263.22	9.402
263.59	13.390
263.96	10.714
264.33	11.488
264.70	9.737
265.07	10.997
265.44	10.354
265.81	8.029
266.18	7.789
266.55	9.512
266.92	11.302
267.29	9.028
267.66	8.716
268.03	9.091
268.40	10.280
268.77	7.637
269.14	8.784
269.51	12.867
269.88	7.692
270.25	10.158
270.62	8.090
270.99	10.968
271.36	9.227
271.73	7.710
272.10	9.565
272.47	9.032
272.84	11.039
273.21	8.805
273.58	6.769
273.95	9.224
274.32	7.645
274.69	8.779
275.06	6.496
275.43	9.149
275.80	8.617
276.17	9.776
276.54	9.148
276.91	6.917
277.28	8.594
277.65	9.091
278.02	7.867
278.39	9.570
278.76	7.818
279.13	8.302
279.50	7.263
279.87	6.375
280.23	6.387
280.60	5.996
280.97	6.285
281.34	8.673
281.71	8.364
282.08	8.253
282.45	7.636
282.82	8.526
283.19	4.635
283.56	7.719
283.92	9.983
284.29	8.466
284.66	7.078
285.03	4.702
285.40	6.162
285.77	6.397
286.14	7.254
286.51	8.167
286.87	8.034
287.24	7.818
287.61	7.865
287.98	6.331
288.35	5.071
288.72	8.411
289.08	10.016
289.45	7.743
289.82	5.854
290.19	5.808
290.56	6.432
290.93	4.532
291.29	6.135
291.66	8.555
292.03	8.430
292.40	8.370
292.77	5.769
293.13	7.164
293.50	6.560
293.87	3.852
294.24	4.593
294.60	4.512
294.97	5.959
295.34	6.770
295.71	7.528
296.08	5.840
296.44	6.190
296.81	6.209
297.18	7.724
297.55	4.354
297.91	4.617
298.28	6.024
298.65	7.050
299.02	5.270
299.38	4.648
299.75	4.043
300.12	4.598
300.48	4.875
300.85	5.425
301.22	4.713
301.59	4.924
301.95	4.030
302.32	4.621
302.69	5.376
303.05	6.424
303.42	5.802
303.79	5.776
304.15	5.245
304.52	4.171
304.89	4.413
305.25	5.568
305.62	6.229
305.99	6.257
306.35	5.034
306.72	4.709
307.09	5.438
307.45	6.081
307.82	4.911
308.19	4.415
308.55	6.472
308.92	4.834
309.29	3.801
309.65	4.984
310.02	5.285
310.38	5.161
310.75	4.435
311.12	5.732
311.48	5.538
311.85	6.394
312.22	4.787
312.58	5.509
312.95	5.069
313.31	4.078
313.68	5.094
314.05	6.509
314.41	5.226
314.78	5.237
315.14	5.065
315.51	5.355
315.87	4.455
316.24	5.561
316.61	4.288
316.97	4.990
317.34	3.620
317.70	5.736
318.07	4.524
318.43	5.088
318.80	5.248
319.16	5.085
319.53	4.503
319.89	5.714
320.26	5.600
320.62	4.960
320.99	5.253
321.35	5.657
321.72	6.366
322.08	5.232
322.45	5.672
322.81	6.395
323.18	6.262
323.54	5.566
323.91	6.887
324.27	5.163
324.64	4.753
325.00	4.959
325.37	5.551
325.73	5.386
326.10	6.002
326.46	6.093
326.83	5.608
327.19	6.234
327.56	5.226
327.92	5.512
328.29	6.300
328.65	5.985
329.01	5.325
329.38	5.920
329.74	5.633
330.11	3.959
330.47	6.520
330.84	6.801
331.20	6.011
331.56	5.872
331.93	5.926
332.29	6.566
332.66	7.168
333.02	5.759
333.38	6.504
333.75	6.863
334.11	6.050
334.48	7.010
334.84	5.331
335.20	6.091
335.57	5.802
335.93	4.643
336.29	5.678
336.66	5.320
337.02	5.611
337.38	6.481
337.75	5.348
338.11	5.013
338.47	5.249
338.84	5.591
339.20	6.055
339.56	6.296
339.93	4.727
340.29	6.069
340.65	6.239
341.02	6.370
341.38	6.228
341.74	5.614
342.11	6.026
342.47	4.846
342.83	6.507
343.20	6.407
343.56	6.740
343.92	6.053
344.28	6.293
344.65	6.105
345.01	5.387
345.37	4.031
345.73	6.176
346.10	5.797
346.46	6.102
346.82	6.590
347.19	5.681
347.55	5.090
347.91	5.987
348.27	6.574
348.63	5.936
349.00	5.906
349.36	5.583
349.72	5.373
350.08	5.511
350.45	5.289
350.81	5.930
351.17	6.483
351.53	5.242
351.89	4.538
352.26	6.393
352.62	5.613
352.98	5.267
353.34	5.752
353.70	4.419
354.07	5.887
354.43	5.794
354.79	5.390
355.15	5.267
355.51	5.276
355.87	5.633
356.24	5.293
356.60	4.972
356.96	4.988
357.32	5.969
357.68	5.827
358.04	6.097
358.40	5.938
358.77	6.103
359.13	4.815
359.49	4.941
359.85	4.206
360.21	4.705
360.57	5.603
360.93	5.538
361.29	4.837
361.66	5.341
362.02	5.672
362.38	5.171
362.74	5.357
363.10	4.589
363.46	4.916
363.82	4.384
364.18	5.066
364.54	5.572
364.90	5.807
365.26	4.779
365.62	5.478
365.98	4.164
366.35	4.871
366.71	4.555
367.07	5.317
367.43	4.499
367.79	5.425
368.15	6.322
368.51	3.924
368.87	5.425
369.23	4.682
369.59	5.865
369.95	5.147
370.31	4.986
370.67	4.275
371.03	5.918
371.39	4.300
371.75	5.368
372.11	5.050
372.47	5.645
372.83	4.827
373.19	5.564
373.55	4.361
373.91	5.302
374.27	4.399
374.63	4.364
374.99	5.085
375.35	3.350
375.71	4.524
376.07	5.075
376.42	5.021
376.78	4.970
377.14	4.342
377.50	4.768
377.86	3.989
378.22	4.930
378.58	4.449
378.94	4.463
379.30	3.944
379.66	3.871
380.02	4.607
380.38	3.643
380.74	4.502
381.09	4.829
381.45	5.101
381.81	5.344
382.17	4.586
382.53	3.962
382.89	5.123
383.25	3.565
383.61	4.275
383.97	4.941
384.32	4.866
384.68	4.461
385.04	4.548
385.40	3.901
385.76	5.221
386.12	3.433
386.48	4.783
386.83	4.682
387.19	5.009
387.55	4.638
387.91	4.172
388.27	4.292
388.62	4.917
388.98	4.054
389.34	4.506
389.70	4.721
390.06	4.563
390.42	4.086
390.77	4.135
391.13	3.829
391.49	4.315
391.85	3.756
392.20	3.281
392.56	4.104
392.92	4.591
393.28	3.550
393.64	4.916
393.99	5.254
394.35	4.218
394.71	4.329
395.07	4.673
395.42	5.068
395.78	4.453
396.14	3.911
396.50	4.511
396.85	4.577
397.21	5.055
397.57	4.712
397.92	4.387
398.28	3.756
398.64	4.540
399.00	4.197
399.35	4.005
399.71	3.646
400.07	4.967
400.42	4.663
400.78	4.946
401.14	3.902
401.49	4.179
401.85	4.174
402.21	3.892
402.57	4.318
402.92	4.224
403.28	3.998
403.63	4.270
403.99	4.395
404.35	3.818
404.70	4.017
405.06	3.786
405.42	4.180
405.77	3.886
406.13	4.345
406.49	3.962
406.84	4.784
407.20	3.369
407.55	4.020
407.91	4.333
408.27	3.893
408.62	3.913
408.98	4.228
409.34	4.428
409.69	4.645
410.05	4.709
410.40	3.425
410.76	4.182
411.11	4.403
411.47	3.898
411.83	4.459
412.18	4.391
412.54	4.047
412.89	5.060
413.25	4.191
413.60	4.324
413.96	5.039
414.31	4.070
414.67	4.753
415.03	4.570
415.38	4.575
415.74	4.244
416.09	5.160
416.45	4.284
416.80	4.494
417.16	4.357
417.51	4.180
417.87	3.854
418.22	5.300
418.58	5.617
418.93	5.221
419.29	4.456
419.64	4.975
420.00	4.512
420.35	4.638
420.71	4.722
421.06	3.938
421.42	4.269
421.77	4.372
422.12	3.313
422.48	3.400
422.83	4.368
423.19	4.862
423.54	4.237
423.90	4.638
424.25	4.076
424.61	3.869
424.96	3.732
425.31	4.430
425.67	4.157
426.02	4.286
426.38	4.457
426.73	3.745
427.09	3.830
427.44	4.370
427.79	4.428
428.15	5.000
428.50	4.681
428.85	4.708
429.21	4.638
429.56	3.577
429.92	3.976
430.27	4.071
430.62	3.379
430.98	4.203
431.33	4.691
431.68	4.503
432.04	5.112
432.39	4.397
432.74	3.830
433.10	4.358
433.45	4.606
433.80	3.991
434.16	4.434
434.51	4.737
434.86	4.960
435.22	4.169
435.57	4.620
435.92	4.272
436.28	4.923
436.63	5.464
436.98	4.522
437.34	5.307
437.69	4.609
438.04	4.103
438.39	3.582
438.75	4.416
439.10	4.469
439.45	4.014
439.81	4.109
440.16	5.082
440.51	4.042
440.86	4.748
441.22	4.283
441.57	4.565
441.92	4.504
442.27	4.252
442.63	4.581
442.98	5.239
443.33	4.348
443.68	4.388
444.03	4.539
444.39	4.138
444.74	4.870
445.09	4.420
445.44	4.429
445.79	4.750
446.15	4.764
446.50	4.039
446.85	3.443
447.20	4.437
447.55	4.467
447.91	4.744
448.26	4.341
448.61	4.353
448.96	4.319
449.31	4.106
449.66	4.446
450.02	4.457
450.37	4.025
450.72	4.512
451.07	3.534
451.42	3.830
451.77	4.463
452.12	4.619
452.47	4.664
452.83	4.254
453.18	4.829
453.53	4.020
453.88	3.544
454.23	4.244
454.58	4.664
454.93	4.704
455.28	4.800
455.63	4.490
455.98	4.643
456.34	4.962
456.69	5.072
457.04	3.901
457.39	3.916
457.74	4.295
458.09	4.888
458.44	4.333
458.79	4.176
459.14	4.233
459.49	5.079
459.84	3.934
460.19	4.125
460.54	4.398
460.89	4.772
461.24	4.918
461.59	4.997
461.94	4.439
462.29	5.104
462.64	4.467
462.99	4.880
463.34	5.067
463.69	4.816
464.04	4.928
464.39	5.101
464.74	4.337
465.09	4.825
465.44	4.377
465.79	4.418
466.14	4.269
466.49	4.449
466.84	4.320
467.19	4.647
467.54	5.000
467.89	4.802
468.24	4.887
468.59	5.556
468.94	4.337
469.29	5.270
469.64	6.024
469.99	4.736
470.34	4.161
470.68	4.741
471.03	5.034
471.38	4.309
471.73	5.263
472.08	5.395
472.43	4.271
472.78	3.950
473.13	4.172
473.48	5.119
473.83	3.963
474.17	3.796
474.52	5.025
474.87	4.904
475.22	4.527
475.57	5.051
475.92	4.195
476.27	4.961
476.61	4.633
476.96	4.673
477.31	4.500
477.66	4.267
478.01	4.600
478.36	4.707
478.70	4.102
479.05	4.313
479.40	4.555
479.75	4.626
480.10	3.926
480.45	4.236
480.79	3.918
481.14	4.599
481.49	4.461
481.84	4.115
482.19	4.407
482.53	5.000
482.88	4.514
483.23	4.860
483.58	4.914
483.92	3.796
484.27	4.401
484.62	3.922
484.97	4.218
485.31	3.664
485.66	3.343
486.01	3.408
486.36	3.335
486.70	3.496
487.05	3.586
487.40	3.958
487.75	3.916
488.09	4.095
488.44	3.836
488.79	4.231
489.13	4.011
489.48	3.997
489.83	3.798
490.17	4.209
490.52	3.853
490.87	3.709
491.22	4.684
491.56	3.417
491.91	3.537
492.26	4.180
492.60	4.286
492.95	3.976
493.30	4.393
493.64	3.920
493.99	4.039
494.34	4.995
494.68	4.625
495.03	4.746
495.37	4.328
495.72	3.752
496.07	4.408
496.41	4.159
496.76	4.661
497.11	4.187
497.45	4.099
497.80	3.983
498.14	4.300
498.49	4.585
498.84	4.650
499.18	4.000
499.53	3.989
499.87	4.007
500.22	4.616
500.56	4.612
500.91	4.423
501.26	4.362
501.60	4.509
501.95	4.033
502.29	5.014
502.64	4.190
502.98	4.395
503.33	4.845
503.67	4.362
504.02	4.677
504.36	4.960
504.71	4.299
505.06	4.386
505.40	4.716
505.75	4.629
506.09	3.936
506.44	4.637
506.78	4.822
507.13	4.139
507.47	4.596
507.82	4.559
508.16	4.407
508.51	5.023
508.85	4.320
509.19	4.235
509.54	4.439
509.88	4.225
510.23	4.113
510.57	4.902
510.92	4.816
511.26	4.317
511.61	5.031
511.95	4.175
512.30	4.242
512.64	4.299
512.98	5.198
513.33	5.300
513.67	4.696
514.02	4.491
514.36	4.861
514.70	4.815
515.05	4.462
515.39	5.384
515.74	4.786
516.08	5.757
516.42	5.605
516.77	5.574
517.11	4.828
517.46	5.248
517.80	4.704
518.14	4.517
518.49	4.959
518.83	5.511
519.17	4.734
519.52	4.980
519.86	5.191
520.20	5.780
520.55	5.147
520.89	4.866
521.23	5.187
521.58	4.262
521.92	5.634
522.26	5.125
522.61	4.922
522.95	5.648
523.29	4.808
523.64	5.366
523.98	5.484
524.32	5.006
524.66	5.532
525.01	5.331
525.35	4.833
525.69	5.357
526.04	5.171
526.38	4.393
526.72	5.153
527.06	5.022
527.41	4.579
527.75	5.659
528.09	5.588
528.43	5.800
528.78	5.778
529.12	4.909
529.46	5.328
529.80	5.569
530.15	5.483
530.49	4.985
530.83	5.506
531.17	6.136
531.51	5.318
531.86	5.290
532.20	6.128
532.54	4.997
532.88	5.905
533.22	4.809
533.57	5.864
533.91	5.418
534.25	5.164
534.59	4.881
534.93	5.116
535.27	5.009
535.62	5.250
535.96	5.336
536.30	5.022
536.64	5.666
536.98	5.508
537.32	4.542
537.66	3.933
538.01	5.662
538.35	5.947
538.69	5.552
539.03	5.523
539.37	5.112
539.71	4.407
540.05	5.163
540.39	5.249
540.73	4.657
541.07	6.554
541.42	6.001
541.76	6.387
542.10	5.175
542.44	5.430
542.78	6.456
543.12	5.182
543.46	5.443
543.80	6.116
544.14	4.685
544.48	5.524
544.82	4.682
545.16	5.335
545.50	4.884
545.84	5.376
546.18	5.657
546.52	5.299
546.86	5.704
547.20	6.339
547.54	6.279
547.88	5.804
548.22	5.479
548.56	5.535
548.90	4.994
549.24	5.051
549.58	6.003
549.92	5.288
550.26	5.540
550.60	5.947
550.94	5.493
551.28	4.974
551.62	6.254
551.96	5.965
552.30	6.485
552.64	5.747
552.98	5.898
553.32	6.204
553.66	6.339
554.00	5.491
554.34	5.107
554.68	5.937
555.02	5.430
555.36	5.776
555.69	5.480
556.03	5.518
556.37	5.866
556.71	4.775
557.05	5.322
557.39	5.878
557.73	6.140
558.07	5.946
558.41	4.703
558.75	5.584
559.08	6.637
559.42	4.460
559.76	6.324
560.10	5.567
560.44	6.359
560.78	4.790
561.12	5.541
561.45	6.584
561.79	5.867
562.13	5.902
562.47	5.260
562.81	5.439
563.15	5.886
563.48	5.305
563.82	5.284
564.16	5.363
564.50	4.492
564.84	5.120
565.17	5.019
565.51	5.431
565.85	5.584
566.19	5.072
566.52	5.446
566.86	6.028
567.20	5.542
567.54	5.194
567.88	4.834
568.21	6.085
568.55	5.106
568.89	4.718
569.23	4.947
569.56	5.101
569.90	4.491
570.24	4.916
570.57	4.046
570.91	4.331
571.25	4.231
571.59	4.919
571.92	4.637
572.26	4.737
572.60	4.595
572.93	4.648
573.27	4.525
573.61	4.578
573.95	4.341
574.28	4.246
574.62	4.349
574.96	4.229
575.29	4.413
575.63	4.294
575.97	4.374
576.30	4.647
576.64	4.145
576.98	4.011
577.31	4.274
577.65	4.213
577.98	4.101
578.32	4.130
578.66	4.465
578.99	4.086
579.33	4.115
579.67	4.233
580.00	4.220
580.34	4.319
580.67	4.396
581.01	4.610
581.35	4.029
581.68	4.203
582.02	3.971
582.35	4.051
582.69	4.340
583.02	4.122
583.36	4.335
583.70	4.720
584.03	3.997
584.37	4.480
584.70	4.284
585.04	4.501
585.37	4.310
585.71	4.464
586.04	4.397
586.38	4.572
586.72	4.446
587.05	4.374
587.39	4.222
587.72	4.586
588.06	4.242
588.39	4.252
588.73	4.752
589.06	4.550
589.40	4.545
589.73	4.646
590.07	4.947
590.40	4.604
590.73	4.489
591.07	5.128
591.40	5.061
591.74	5.195
592.07	5.148
592.41	4.919
592.74	4.457
593.08	4.930
593.41	4.556
593.75	4.685
594.08	4.894
594.41	4.454
594.75	4.399
595.08	4.868
595.42	4.764
595.75	4.915
596.09	5.107
596.42	5.540
596.75	5.445
597.09	5.628
597.42	5.059
597.75	4.916
598.09	4.913
598.42	4.983
598.76	4.621
599.09	4.637
599.42	4.840
599.76	4.612
600.09	4.481
600.42	4.346
600.76	5.000
601.09	4.335
601.42	4.833
601.76	4.858
602.09	4.783
602.42	5.334
602.76	5.401
603.09	4.917
603.42	4.842
603.76	4.573
604.09	4.653
604.42	5.137
604.76	5.567
605.09	4.849
605.42	5.130
605.75	4.801
606.09	4.392
606.42	4.863
606.75	4.894
607.09	5.107
607.42	5.006
607.75	4.726
608.08	4.342
608.42	5.468
608.75	5.050
609.08	5.227
609.41	5.188
609.75	4.621
610.08	5.514
610.41	4.842
610.74	5.298
611.07	5.089
611.41	5.201
611.74	5.832
612.07	5.901
612.40	5.352
612.73	5.263
613.07	5.172
613.40	5.845
613.73	4.615
614.06	5.269
614.39	5.191
614.72	5.053
615.06	5.567
615.39	5.096
615.72	5.164
616.05	4.997
616.38	5.114
616.71	5.226
617.05	5.654
617.38	4.991
617.71	5.105
618.04	5.469
618.37	5.145
618.70	5.414
619.03	6.579
619.36	5.703
619.69	5.634
620.03	5.838
620.36	6.350
620.69	6.918
621.02	5.973
621.35	6.030
621.68	5.530
622.01	5.031
622.34	6.127
622.67	5.475
623.00	5.356
623.33	4.861
623.66	5.718
623.99	5.817
624.32	5.706
624.65	6.073
624.99	6.020
625.32	5.286
625.65	5.710
625.98	5.995
626.31	7.232
626.64	6.286
626.97	5.653
627.30	5.736
627.63	6.563
627.96	7.149
628.29	6.824
628.62	6.130
628.95	7.264
629.28	5.931
629.61	7.149
629.94	6.857
630.26	6.292
630.59	7.626
630.92	5.843
631.25	7.305
631.58	6.807
631.91	6.592
632.24	6.435
632.57	7.975
632.90	7.237
633.23	7.606
633.56	7.797
633.89	7.475
634.22	7.378
634.55	5.680
634.88	5.988
635.20	6.810
635.53	6.988
635.86	6.807
636.19	7.647
636.52	7.036
636.85	6.758
637.18	5.530
637.51	8.629
637.83	6.165
638.16	8.056
638.49	7.683
638.82	7.459
639.15	7.750
639.48	8.354
639.81	7.775
640.13	8.724
640.46	8.456
640.79	9.379
641.12	6.465
641.45	7.542
641.77	6.775
642.10	9.211
642.43	7.658
642.76	7.276
643.09	9.049
643.41	7.587
643.74	9.259
644.07	7.317
644.40	9.049
644.73	8.819
645.05	10.143
645.38	6.793
645.71	8.213
646.04	8.638
646.36	10.518
646.69	8.863
647.02	9.014
647.35	8.935
647.67	8.319
648.00	9.268
648.33	6.766
648.66	7.879
648.98	9.745
649.31	7.623
649.64	7.922
649.96	8.197
650.29	8.689
650.62	8.414
650.94	10.049
651.27	8.784
651.60	9.151
651.92	9.105
652.25	8.306
652.58	8.411
652.90	8.689
653.23	7.858
653.56	7.402
653.88	9.667
654.21	9.163
654.54	7.756
654.86	7.944
655.19	6.892
655.52	4.124
655.84	3.585
656.17	4.280
656.49	5.643
656.82	5.712
657.15	4.588
657.47	3.505
657.80	2.748
658.13	2.738
658.45	4.312
658.78	4.041
659.10	4.545
659.43	4.493
659.75	5.136
660.08	4.747
660.41	6.518
660.73	8.259
661.06	8.917
661.38	9.091
661.71	8.077
662.03	11.834
662.36	8.549
662.68	8.835
663.01	9.091
663.33	9.554
663.66	8.824
663.98	9.287
664.31	7.773
664.63	7.895
664.96	8.048
665.28	7.992
665.61	10.136
665.93	8.652
666.26	8.925
666.58	10.669
666.91	9.937
667.23	8.989
667.56	9.719
667.88	11.966
668.21	12.154
668.53	9.761
668.86	9.307
669.18	12.154
669.50	11.087
669.83	14.161
670.15	8.222
670.48	8.279
670.80	7.759
671.13	11.465
671.45	9.574
671.77	11.202
672.10	10.721
672.42	10.424
672.75	9.619
673.07	8.803
673.39	8.680
673.72	8.789
674.04	9.608
674.37	9.903
674.69	5.521
675.01	8.368
675.34	12.320
675.66	12.421
675.98	10.183
676.31	11.134
676.63	11.040
676.95	9.224
677.28	8.645
677.60	10.330
677.92	9.705
678.25	10.472
678.57	10.956
678.89	8.216
679.22	9.627
679.54	10.305
679.86	10.092
680.18	8.945
680.51	10.284
680.83	8.897
681.15	10.755
681.48	10.019
681.80	8.704
682.12	6.705
682.44	5.996
682.77	7.739
683.09	11.373
683.41	10.421
683.73	9.051
684.06	10.744
684.38	9.393
684.70	10.465
685.02	9.944
685.34	8.791
685.67	7.867
685.99	8.935
686.31	7.850
686.63	6.714
686.96	8.393
687.28	11.372
687.60	8.152
687.92	8.775
688.24	7.605
688.56	9.639
688.89	9.129
689.21	8.515
689.53	9.395
689.85	9.534
690.17	5.590
690.49	12.527
690.82	8.645
691.14	8.259
691.46	9.072
691.78	8.032
692.10	9.711
692.42	9.581
692.74	7.884
693.06	11.489
693.39	10.472
693.71	6.550
694.03	10.737
694.35	9.524
694.67	10.069
694.99	9.512
695.31	9.559
695.63	9.091
695.95	8.802
696.27	8.376
696.59	9.845
696.91	11.917
697.23	9.390
697.56	12.154
697.88	5.317
698.20	8.542
698.52	9.892
698.84	11.136
699.16	11.751
699.48	9.739
699.80	8.937
700.12	11.688
700.44	12.732
700.76	8.840
701.08	12.931
701.40	10.056
701.72	9.913
702.04	14.205
702.36	9.915
702.68	13.598
703.00	9.695
703.32	8.245
703.64	10.456
703.96	10.864
704.28	11.628
704.60	14.370
704.91	12.463
705.23	14.076
705.55	10.963
705.87	19.269
706.19	11.307
706.51	12.461
706.83	10.303
707.15	11.204
707.47	11.616
707.79	9.091
708.11	9.817
708.43	10.000
708.74	10.204
709.06	10.909
709.38	12.073
709.70	13.081
710.02	13.056
710.34	8.182
710.66	14.030
710.98	14.205
711.29	10.756
711.61	14.749
711.93	10.577
712.25	14.791
712.57	9.926
712.89	12.457
713.20	14.590
713.52	11.513
713.84	12.658
714.16	11.890
714.48	10.920
714.80	13.070
715.11	12.104
715.43	9.199
715.75	9.565
716.07	13.419
716.39	14.734
716.70	13.621
717.02	9.353
717.34	10.954
717.66	14.925
717.97	13.147
718.29	9.630
718.61	10.219
718.93	10.662
719.24	12.111
719.56	12.542
719.88	10.847
720.20	18.243
720.51	17.422
720.83	12.268
721.15	11.940
721.46	13.830
721.78	13.620
722.10	14.717
722.42	12.406
722.73	14.232
723.05	15.574
723.37	10.526
723.68	15.444
724.00	13.008
724.32	12.097
724.63	13.415
724.95	10.879
725.27	16.194
725.58	14.453
725.90	17.518
726.22	13.585
726.53	14.931
726.85	15.017
727.16	12.811
727.48	9.929
727.80	10.985
728.11	16.304
728.43	16.923
728.74	16.846
729.06	14.964
729.38	16.912
729.69	16.726
730.01	10.239
730.32	13.194
730.64	15.385
730.96	11.881
731.27	9.934
731.59	14.067
731.90	15.452
732.22	10.870
732.53	11.146
732.85	13.141
733.16	12.219
733.48	14.286
733.80	12.338
734.11	14.331
734.43	15.680
734.74	9.714
735.06	9.742
735.37	17.341
735.69	10.828
736.00	17.320
736.32	12.773
736.63	10.543
736.95	11.502
737.26	5.102
737.58	11.613
737.89	14.047
738.21	12.969
738.52	15.357
738.83	11.321
739.15	9.231
739.46	12.409
739.78	10.417
740.09	13.231
740.41	16.452
740.72	12.892
741.04	14.815
741.35	9.167
741.66	19.111
741.98	12.264
742.29	17.225
742.61	20.259
742.92	15.385
743.23	19.658
743.55	19.200
743.86	14.912
744.18	19.469
744.49	19.139
744.80	18.779
745.12	19.091
745.43	14.978
745.74	22.523
746.06	15.596
746.37	18.386
746.68	13.575
747.00	14.815
747.31	16.190
747.62	15.487
747.94	17.621
748.25	12.340
748.56	20.705
748.88	14.851
749.19	18.500
749.50	15.814
749.82	14.634
750.13	11.837
750.44	12.409
750.75	12.281
751.07	19.936
751.38	16.725
751.69	13.718
752.01	12.782
752.32	12.996
752.63	15.248
752.94	8.607
753.26	15.600
753.57	13.415
753.88	17.187
754.19	13.214
754.51	17.361
754.82	11.191
755.13	13.585
755.44	13.534
755.75	12.774
756.07	12.057
756.38	5.839
756.69	13.423
757.00	11.078
757.31	11.573
757.63	12.865
757.94	11.260
758.25	12.745
758.56	11.605
758.87	11.022
759.18	14.242
759.50	14.107
759.81	12.461
760.12	5.625
760.43	12.321
760.74	12.500
761.05	11.582
761.36	9.893
761.67	9.375
761.99	11.180
762.30	7.986
762.61	11.832
762.92	16.797
763.23	11.765
763.54	15.200
763.85	9.375
764.16	16.923
764.47	12.548
764.78	12.721
765.10	10.759
765.41	14.454
765.72	12.275
766.03	10.972
766.34	13.667
766.65	13.617
766.96	15.385
767.27	10.660
767.58	18.229
767.89	22.632
768.20	18.391
768.51	15.736
768.82	16.514
769.13	12.195
769.44	12.955
769.75	13.305
770.06	13.303
770.37	18.100
770.68	15.278
770.99	12.444
771.30	10.656
771.61	14.350
771.92	15.574
772.23	17.227
772.54	13.846
772.85	20.419
773.16	19.149
773.47	23.370
773.78	16.751
774.09	19.048
774.39	20.468
774.70	22.222
775.01	26.812
775.32	21.569
775.63	23.026
775.94	14.388
776.25	28.346
776.56	25.373
776.87	22.951
777.18	22.656
777.48	24.427
777.79	29.545
778.10	31.111
778.41	23.214
778.72	13.139
779.03	14.765
779.34	20.805
779.65	25.000
779.95	14.724
780.26	18.301
780.57	21.379
780.88	21.875
781.19	18.045
781.50	26.351
781.80	22.642
782.11	21.469
782.42	20.886
782.73	16.564
783.04	25.676
783.34	24.648
783.65	28.767
783.96	23.881
784.27	15.385
784.57	20.863
784.88	13.889
785.19	30.952
785.50	22.642
785.81	36.567
786.11	24.590
786.42	27.907
786.73	20.354
787.04	25.472
787.34	21.429
787.65	29.000
787.96	27.027
788.26	11.570
788.57	22.881
788.88	37.190
789.19	22.917
789.49	19.697
789.80	25.191
790.11	28.571
790.41	25.743
790.72	30.120
791.03	23.913
791.33	27.907
791.64	29.897
791.95	33.663
792.25	38.889
792.56	32.468
792.87	43.590
793.17	48.101
793.48	47.126
793.79	28.736
794.09	35.227
794.40	25.210
794.70	23.529
795.01	26.667
795.32	21.583
795.62	22.047
795.93	33.621
796.23	23.009
796.54	18.824
796.85	44.595
797.15	50.704
797.46	39.394
797.76	36.145
798.07	37.975
798.37	41.538
798.68	43.939
798.99	36.620
799.29	40.260
799.60	34.091
799.90	47.945
800.21	41.791
800.51	41.379
800.82	71.930
801.12	44.262
801.43	45.455
801.73	32.432
802.04	41.270
802.34	49.383
802.65	43.750
802.95	49.153
803.26	48.437
803.56	42.857
803.87	36.923
804.17	45.588
804.48	50.000
804.78	31.034
805.09	42.647
805.39	40.385
805.70	42.857
806.00	54.098
806.30	48.485
806.61	41.463
806.91	32.911
807.22	40.789
807.52	47.761
807.83	47.887
808.13	51.562
808.43	56.667
808.74	39.474
809.04	39.130
809.35	37.313
809.65	44.737
809.95	75.806
810.26	45.763
810.56	44.444
810.86	68.182
811.17	50.000
811.47	53.333
811.77	51.852
812.08	58.182
812.38	66.000
812.69	52.778
812.99	79.545
813.29	71.429
813.59	33.333
813.90	83.673
814.20	43.636
814.50	41.538
814.81	61.765
815.11	48.980
815.41	49.180
815.72	71.429
816.02	65.455
816.32	59.524
816.62	47.500
816.93	65.854
817.23	80.952
817.53	50.000
817.84	72.727
818.14	86.957
818.44	82.222
818.74	64.706
819.04	45.000
819.35	74.286
819.65	100.000
819.95	103.571
820.25	75.000
820.56	66.667
820.86	47.727
821.16	58.140
821.46	58.974
821.76	86.000
822.07	88.571
822.37	85.000
822.67	57.576
822.97	62.745
823.27	92.857
823.57	59.459
823.88	102.500
824.18	110.000
824.48	102.381
824.78	88.000
825.08	91.667
825.38	67.568
825.69	75.610
825.99	112.500
826.29	72.414
826.59	81.579
826.89	71.053
827.19	76.471
827.49	77.419
827.79	77.273
828.09	75.000
828.39	68.085
828.70	73.469
829.00	44.444
829.30	77.419
829.60	75.000
829.90	120.000
830.20	85.714
830.50	86.957
830.80	65.217
831.10	123.333
831.40	76.667
831.70	69.565
832.00	92.308
832.30	129.630
832.60	150.000
832.90	126.667
833.20	228.571
833.50	135.484
833.80	106.897
834.10	100.000
834.40	126.923
834.70	155.556
835.00	200.000
835.30	74.286
835.60	138.462
835.90	100.000
836.20	135.714
836.50	120.690
836.80	76.000
837.10	111.111
837.40	123.810
837.70	200.000
838.00	107.407
838.30	138.095
838.60	200.000
838.90	130.769
839.19	160.000
839.49	164.286
839.79	160.000
840.09	155.000
840.39	166.667
840.69	100.000
840.99	133.333
841.29	240.000
841.59	191.667
841.88	175.000
842.18	93.103
842.48	128.571
842.78	100.000
843.08	117.391
843.38	115.625
843.68	466.667
843.97	153.846
844.27	86.207
844.57	200.000
844.87	137.500
845.17	103.704
845.47	800.000
845.76	300.000
846.06	141.176
846.36	225.000
846.66	178.571
846.96	137.500
847.25	190.909
847.55	181.818
847.85	113.043
848.15	200.000
848.44	257.143
848.74	177.778
849.04	176.471
849.34	280.000
849.63	89.474
849.93	254.545
850.23	360.000
850.53	221.429
850.82	1000.000
851.12	-2200.000
851.42	1700.000
851.71	100.000
852.01	-400.000
852.31	141.667
852.61	566.667
852.90	133.333
853.20	144.000
853.50	147.059
853.79	176.190
854.09	112.500
854.39	181.250
854.68	100.000
854.98	100.000
855.28	76.667
855.57	144.828
855.87	111.111
856.17	110.526
856.46	153.333
856.76	111.765
857.05	65.517
857.35	108.333
857.65	180.000
857.94	100.000
858.24	157.692
858.53	135.000
858.83	109.091
859.13	160.000
859.42	0.000
859.72	344.444
860.01	209.091
860.31	131.818
860.60	178.947
860.90	121.739
861.20	277.778
861.49	341.667
861.79	-1700.000
862.08	412.500
862.38	161.905
862.67	200.000
862.97	217.647
863.26	300.000
863.56	144.444
863.85	250.000
864.15	350.000
864.44	206.667
864.74	383.333
865.03	375.000
865.33	163.158
865.62	154.545
865.92	200.000
866.21	158.333
866.51	0.000
866.80	227.273
867.10	660.000
867.39	223.077
867.69	236.364
867.98	157.895
868.27	290.909
868.57	152.632
868.86	-1500.000
869.16	218.750
869.45	1050.000
869.75	-2100.000
870.04	233.333
870.33	342.857
870.63	350.000
870.92	850.000
871.22	400.000
871.51	188.235
871.80	133.333
872.10	150.000
>>>>>End Processed Spectral Data<<<<<
