SpectraSuite Data File
++++++++++++++++++++++++++++++++++++
Date: Wed May 13 21:05:13 PDT 2015
User: schluterlab
Dark Spectrum Present: Yes
Reference Spectrum Present: Yes
Number of Sampled Component Spectra: 1
Spectrometers: USB2E3373
Integration Time (usec): 3000 (USB2E3373)
Spectra Averaged: 3 (USB2E3373)
Boxcar Smoothing: 0 (USB2E3373)
Correct for Electrical Dark: No (USB2E3373)
Strobe/Lamp Enabled: No (USB2E3373)
Correct for Detector Non-linearity: No (USB2E3373)
Correct for Stray Light: No (USB2E3373)
Number of Pixels in Processed Spectrum: 2048
>>>>>Begin Processed Spectral Data<<<<<
178.53	0.000
178.91	50.000
179.29	83.333
179.67	-400.000
180.04	-366.667
180.42	-0.000
180.80	1100.000
181.18	283.333
181.56	-425.000
181.94	-200.000
182.31	-63.636
182.69	115.385
183.07	-160.000
183.45	116.667
183.83	200.000
184.20	157.143
184.58	233.333
184.96	300.000
185.34	100.000
185.72	0.000
186.09	-1300.000
186.47	-80.000
186.85	180.000
187.23	200.000
187.61	300.000
187.98	1000.000
188.36	12.500
188.74	0.000
189.12	-18.182
189.49	170.000
189.87	50.000
190.25	140.000
190.63	1200.000
191.00	140.000
191.38	320.000
191.76	25.000
192.14	75.000
192.51	15.789
192.89	33.333
193.27	125.000
193.65	-40.000
194.02	100.000
194.40	250.000
194.78	-1000.000
195.15	220.000
195.53	-200.000
195.91	-37.500
196.29	-200.000
196.66	0.000
197.04	200.000
197.42	120.000
197.79	110.000
198.17	-50.000
198.55	-366.667
198.92	175.000
199.30	-333.333
199.68	-50.000
200.05	700.000
200.43	-0.000
200.81	-800.000
201.18	-60.000
201.56	-66.667
201.94	500.000
202.31	34.783
202.69	-14.286
203.07	-533.333
203.44	20.000
203.82	-300.000
204.19	40.000
204.57	0.000
204.95	-133.333
205.32	0.000
205.70	-150.000
206.08	-50.000
206.45	-16.667
206.83	375.000
207.20	-466.667
207.58	-60.000
207.96	-700.000
208.33	-128.571
208.71	-900.000
209.08	187.500
209.46	350.000
209.84	0.000
210.21	-0.000
210.59	1200.000
210.96	220.000
211.34	600.000
211.71	-650.000
212.09	33.333
212.46	-40.000
212.84	233.333
213.22	-50.000
213.59	-100.000
213.97	-300.000
214.34	-300.000
214.72	15.385
215.09	112.500
215.47	77.778
215.84	250.000
216.22	0.000
216.59	-450.000
216.97	-66.667
217.34	100.000
217.72	0.000
218.09	133.333
218.47	-500.000
218.84	42.857
219.22	-100.000
219.59	-233.333
219.97	-75.000
220.34	50.000
220.72	-220.000
221.09	0.000
221.47	-266.667
221.84	200.000
222.22	0.000
222.59	-400.000
222.97	66.667
223.34	-58.333
223.72	0.000
224.09	-150.000
224.46	9.091
224.84	150.000
225.21	-42.857
225.59	-375.000
225.96	-33.333
226.34	20.000
226.71	-14.286
227.08	450.000
227.46	25.000
227.83	300.000
228.21	6.250
228.58	-25.000
228.95	-5.882
229.33	37.500
229.70	-87.500
230.08	-53.846
230.45	-100.000
230.82	-58.333
231.20	100.000
231.57	-400.000
231.95	700.000
232.32	0.000
232.69	41.176
233.07	-700.000
233.44	17.391
233.81	-200.000
234.19	37.500
234.56	-46.667
234.93	-20.000
235.31	21.053
235.68	-38.462
236.05	-46.154
236.43	-11.111
236.80	9.091
237.17	-66.667
237.55	-58.824
237.92	-27.586
238.29	-66.667
238.67	8.333
239.04	3.226
239.41	-6.383
239.79	8.511
240.16	-11.628
240.53	19.643
240.91	5.357
241.28	1.786
241.65	6.452
242.02	2.632
242.40	13.043
242.77	-13.043
243.14	8.974
243.51	11.702
243.89	0.000
244.26	14.151
244.63	4.808
245.00	16.667
245.38	4.202
245.75	8.197
246.12	8.271
246.49	3.252
246.87	0.000
247.24	20.946
247.61	5.960
247.98	10.256
248.36	11.243
248.73	8.427
249.10	4.545
249.47	7.527
249.84	6.842
250.22	8.458
250.59	9.346
250.96	10.000
251.33	1.435
251.70	11.715
252.08	7.950
252.45	10.700
252.82	15.970
253.19	7.393
253.56	8.993
253.94	9.964
254.31	8.803
254.68	9.732
255.05	8.251
255.42	9.790
255.79	8.282
256.16	10.410
256.54	7.937
256.91	8.861
257.28	11.321
257.65	4.777
258.02	8.798
258.39	7.895
258.76	7.849
259.14	6.818
259.51	6.180
259.88	8.130
260.25	6.389
260.62	6.461
260.99	11.936
261.36	8.031
261.73	9.630
262.10	7.634
262.47	7.901
262.85	7.711
263.22	8.974
263.59	10.130
263.96	8.273
264.33	6.010
264.70	10.233
265.07	8.796
265.44	11.724
265.81	6.178
266.18	8.656
266.55	9.825
266.92	9.534
267.29	8.025
267.66	8.068
268.03	10.288
268.40	4.025
268.77	9.298
269.14	9.796
269.51	13.963
269.88	6.517
270.25	9.322
270.62	6.148
270.99	8.858
271.36	9.325
271.73	7.831
272.10	10.095
272.47	10.365
272.84	10.433
273.21	10.372
273.58	10.246
273.95	9.057
274.32	8.769
274.69	8.197
275.06	9.894
275.43	6.026
275.80	7.270
276.17	7.182
276.54	7.993
276.91	9.233
277.28	6.679
277.65	7.867
278.02	9.643
278.39	6.217
278.76	11.204
279.13	8.233
279.50	8.276
279.87	8.877
280.23	7.207
280.60	8.131
280.97	7.630
281.34	9.779
281.71	6.829
282.08	8.034
282.45	9.344
282.82	7.348
283.19	9.604
283.56	9.531
283.92	7.645
284.29	8.892
284.66	8.567
285.03	7.166
285.40	9.819
285.77	9.760
286.14	10.030
286.51	10.045
286.87	8.769
287.24	8.850
287.61	10.693
287.98	8.676
288.35	7.601
288.72	8.178
289.08	9.829
289.45	8.664
289.82	7.716
290.19	7.854
290.56	8.097
290.93	7.873
291.29	7.661
291.66	9.016
292.03	8.174
292.40	8.614
292.77	8.434
293.13	7.671
293.50	7.451
293.87	9.067
294.24	8.069
294.60	8.843
294.97	8.069
295.34	6.860
295.71	7.227
296.08	7.723
296.44	6.250
296.81	6.943
297.18	7.375
297.55	8.608
297.91	6.584
298.28	7.627
298.65	5.911
299.02	7.570
299.38	5.276
299.75	7.933
300.12	6.628
300.48	6.784
300.85	7.044
301.22	5.110
301.59	5.869
301.95	5.343
302.32	6.884
302.69	7.345
303.05	5.316
303.42	7.614
303.79	7.676
304.15	6.243
304.52	6.774
304.89	5.316
305.25	6.586
305.62	7.918
305.99	7.943
306.35	8.986
306.72	8.647
307.09	6.986
307.45	7.135
307.82	6.632
308.19	5.538
308.55	6.039
308.92	7.957
309.29	7.508
309.65	6.194
310.02	7.256
310.38	7.215
310.75	6.213
311.12	7.289
311.48	6.429
311.85	7.579
312.22	7.060
312.58	6.860
312.95	7.960
313.31	7.713
313.68	7.156
314.05	8.885
314.41	8.261
314.78	9.298
315.14	7.963
315.51	8.849
315.87	8.341
316.24	8.999
316.61	10.502
316.97	10.000
317.34	8.913
317.70	10.259
318.07	10.470
318.43	10.479
318.80	10.820
319.16	10.433
319.53	12.097
319.89	12.195
320.26	13.216
320.62	13.253
320.99	12.888
321.35	13.938
321.72	14.726
322.08	14.852
322.45	14.709
322.81	17.190
323.18	16.190
323.54	16.877
323.91	17.977
324.27	18.272
324.64	18.118
325.00	19.073
325.37	20.904
325.73	21.212
326.10	21.278
326.46	21.990
326.83	22.816
327.19	23.496
327.56	25.383
327.92	25.503
328.29	25.710
328.65	26.643
329.01	26.385
329.38	29.130
329.74	28.412
330.11	28.314
330.47	29.080
330.84	30.957
331.20	29.718
331.56	30.616
331.93	28.768
332.29	31.364
332.66	29.661
333.02	31.712
333.38	31.667
333.75	32.765
334.11	32.899
334.48	33.653
334.84	33.569
335.20	32.933
335.57	32.289
335.93	32.646
336.29	33.100
336.66	32.650
337.02	32.522
337.38	33.507
337.75	34.195
338.11	33.646
338.47	32.877
338.84	32.732
339.20	34.832
339.56	33.788
339.93	33.967
340.29	35.354
340.65	34.987
341.02	34.027
341.38	34.459
341.74	32.017
342.11	33.856
342.47	33.975
342.83	35.458
343.20	35.702
343.56	34.424
343.92	33.306
344.28	34.984
344.65	34.694
345.01	33.656
345.37	35.115
345.73	35.049
346.10	33.628
346.46	34.472
346.82	34.270
347.19	33.623
347.55	34.653
347.91	33.905
348.27	34.069
348.63	33.814
349.00	34.906
349.36	34.694
349.72	33.643
350.08	33.853
350.45	33.516
350.81	34.742
351.17	35.027
351.53	33.150
351.89	33.122
352.26	31.737
352.62	33.566
352.98	34.265
353.34	34.461
353.70	33.801
354.07	34.902
354.43	33.048
354.79	33.734
355.15	33.463
355.51	33.333
355.87	33.620
356.24	32.584
356.60	32.213
356.96	34.536
357.32	34.365
357.68	34.072
358.04	33.514
358.40	33.488
358.77	33.716
359.13	32.840
359.49	33.005
359.85	34.117
360.21	33.770
360.57	33.384
360.93	33.915
361.29	32.791
361.66	32.878
362.02	32.765
362.38	34.269
362.74	32.632
363.10	31.960
363.46	32.925
363.82	33.629
364.18	32.415
364.54	33.552
364.90	33.101
365.26	33.475
365.62	33.523
365.98	32.527
366.35	33.688
366.71	33.738
367.07	33.735
367.43	32.404
367.79	32.523
368.15	33.122
368.51	32.489
368.87	33.775
369.23	33.167
369.59	32.347
369.95	33.309
370.31	33.124
370.67	33.092
371.03	34.298
371.39	33.712
371.75	32.857
372.11	32.977
372.47	32.949
372.83	32.940
373.19	33.237
373.55	34.249
373.91	32.178
374.27	32.849
374.63	33.144
374.99	32.173
375.35	32.740
375.71	32.541
376.07	33.722
376.42	33.757
376.78	33.355
377.14	33.492
377.50	33.442
377.86	33.267
378.22	33.186
378.58	32.913
378.94	33.688
379.30	32.917
379.66	32.922
380.02	33.333
380.38	33.193
380.74	33.413
381.09	33.233
381.45	33.071
381.81	33.703
382.17	33.018
382.53	32.492
382.89	32.207
383.25	32.716
383.61	33.232
383.97	32.562
384.32	32.262
384.68	32.881
385.04	32.743
385.40	34.247
385.76	32.117
386.12	33.247
386.48	32.226
386.83	31.977
387.19	32.819
387.55	32.311
387.91	32.780
388.27	32.737
388.62	32.397
388.98	32.478
389.34	32.143
389.70	32.662
390.06	30.813
390.42	32.345
390.77	32.223
391.13	32.576
391.49	31.246
391.85	32.332
392.20	31.955
392.56	33.079
392.92	32.066
393.28	31.319
393.64	31.131
393.99	31.028
394.35	31.728
394.71	31.859
395.07	31.195
395.42	31.932
395.78	32.947
396.14	31.706
396.50	31.198
396.85	32.250
397.21	31.149
397.57	31.056
397.92	31.377
398.28	31.021
398.64	31.633
399.00	30.915
399.35	30.817
399.71	30.635
400.07	31.928
400.42	30.219
400.78	30.997
401.14	29.736
401.49	30.437
401.85	31.020
402.21	31.022
402.57	30.963
402.92	31.727
403.28	30.081
403.63	30.316
403.99	30.518
404.35	30.798
404.70	29.849
405.06	30.769
405.42	30.151
405.77	30.472
406.13	30.229
406.49	29.838
406.84	30.464
407.20	29.959
407.55	31.234
407.91	29.848
408.27	29.944
408.62	30.694
408.98	29.531
409.34	29.950
409.69	30.604
410.05	30.348
410.40	29.276
410.76	29.483
411.11	29.975
411.47	31.121
411.83	29.320
412.18	29.471
412.54	30.138
412.89	30.470
413.25	29.145
413.60	29.279
413.96	29.026
414.31	30.086
414.67	28.635
415.03	30.244
415.38	28.930
415.74	28.915
416.09	29.280
416.45	30.212
416.80	28.993
417.16	29.420
417.51	28.868
417.87	30.159
418.22	29.735
418.58	29.106
418.93	28.814
419.29	29.571
419.64	27.926
420.00	29.524
420.35	29.109
420.71	29.068
421.06	29.951
421.42	30.231
421.77	29.884
422.12	30.201
422.48	28.571
422.83	29.947
423.19	28.637
423.54	29.329
423.90	28.207
424.25	29.347
424.61	29.575
424.96	30.041
425.31	28.099
425.67	28.748
426.02	31.508
426.38	29.415
426.73	30.055
427.09	28.831
427.44	29.125
427.79	29.394
428.15	29.908
428.50	28.580
428.85	30.504
429.21	29.207
429.56	28.852
429.92	29.776
430.27	28.988
430.62	28.909
430.98	29.402
431.33	29.124
431.68	29.925
432.04	29.408
432.39	29.042
432.74	30.104
433.10	29.634
433.45	30.473
433.80	30.057
434.16	28.782
434.51	28.696
434.86	29.564
435.22	29.202
435.57	30.160
435.92	29.433
436.28	28.889
436.63	29.446
436.98	28.966
437.34	29.670
437.69	28.394
438.04	28.466
438.39	30.075
438.75	29.380
439.10	30.075
439.45	29.298
439.81	29.495
440.16	29.971
440.51	29.786
440.86	29.461
441.22	28.858
441.57	30.477
441.92	29.705
442.27	30.249
442.63	28.687
442.98	29.630
443.33	29.910
443.68	28.782
444.03	29.409
444.39	30.491
444.74	29.100
445.09	29.681
445.44	30.310
445.79	28.653
446.15	29.617
446.50	29.681
446.85	29.663
447.20	29.326
447.55	29.491
447.91	28.933
448.26	30.246
448.61	29.459
448.96	29.157
449.31	29.697
449.66	30.364
450.02	29.449
450.37	29.553
450.72	29.449
451.07	29.718
451.42	29.757
451.77	29.945
452.12	29.471
452.47	29.890
452.83	29.363
453.18	30.426
453.53	30.580
453.88	29.639
454.23	29.419
454.58	29.412
454.93	30.019
455.28	30.700
455.63	28.883
455.98	29.032
456.34	29.053
456.69	30.479
457.04	29.474
457.39	29.104
457.74	29.922
458.09	28.969
458.44	29.730
458.79	29.270
459.14	28.820
459.49	29.146
459.84	29.481
460.19	28.211
460.54	30.170
460.89	29.505
461.24	29.038
461.59	29.771
461.94	29.772
462.29	29.473
462.64	28.958
462.99	29.510
463.34	29.420
463.69	30.219
464.04	27.731
464.39	30.628
464.74	28.440
465.09	29.200
465.44	28.956
465.79	29.327
466.14	29.019
466.49	29.619
466.84	28.870
467.19	29.745
467.54	29.553
467.89	29.353
468.24	29.932
468.59	29.127
468.94	29.630
469.29	29.941
469.64	29.289
469.99	30.000
470.34	29.063
470.68	28.476
471.03	30.113
471.38	29.068
471.73	29.973
472.08	28.866
472.43	29.354
472.78	28.938
473.13	27.902
473.48	28.050
473.83	28.876
474.17	27.799
474.52	28.155
474.87	28.468
475.22	29.710
475.57	29.057
475.92	29.171
476.27	28.205
476.61	29.445
476.96	29.240
477.31	29.288
477.66	28.192
478.01	27.637
478.36	27.629
478.70	28.357
479.05	27.913
479.40	28.289
479.75	28.799
480.10	29.067
480.45	28.200
480.79	29.069
481.14	28.571
481.49	28.762
481.84	27.380
482.19	27.744
482.53	28.286
482.88	27.661
483.23	27.478
483.58	27.836
483.92	27.724
484.27	27.768
484.62	27.874
484.97	27.748
485.31	26.971
485.66	26.539
486.01	26.711
486.36	26.884
486.70	27.172
487.05	27.400
487.40	27.509
487.75	27.792
488.09	27.620
488.44	27.515
488.79	28.085
489.13	27.396
489.48	28.217
489.83	27.870
490.17	26.736
490.52	28.705
490.87	26.750
491.22	28.168
491.56	27.599
491.91	27.652
492.26	28.337
492.60	27.706
492.95	27.551
493.30	27.762
493.64	26.523
493.99	27.536
494.34	27.312
494.68	27.733
495.03	27.520
495.37	26.910
495.72	26.917
496.07	27.764
496.41	26.860
496.76	27.879
497.11	27.371
497.45	27.578
497.80	27.865
498.14	27.103
498.49	26.929
498.84	26.468
499.18	27.128
499.53	27.277
499.87	25.813
500.22	27.427
500.56	27.382
500.91	27.264
501.26	27.143
501.60	26.569
501.95	26.689
502.29	27.136
502.64	27.290
502.98	27.553
503.33	27.105
503.67	27.507
504.02	27.010
504.36	27.538
504.71	26.677
505.06	27.203
505.40	27.423
505.75	27.060
506.09	26.214
506.44	26.966
506.78	26.409
507.13	27.235
507.47	26.988
507.82	27.002
508.16	26.755
508.51	25.981
508.85	25.765
509.19	25.873
509.54	26.863
509.88	26.667
510.23	27.421
510.57	26.695
510.92	26.670
511.26	26.073
511.61	26.070
511.95	26.240
512.30	26.097
512.64	28.547
512.98	26.537
513.33	27.099
513.67	26.689
514.02	27.423
514.36	27.022
514.70	26.617
515.05	26.858
515.39	26.061
515.74	27.117
516.08	25.782
516.42	25.691
516.77	25.718
517.11	26.808
517.46	27.131
517.80	28.087
518.14	26.638
518.49	25.980
518.83	25.895
519.17	26.807
519.52	25.694
519.86	26.290
520.20	25.773
520.55	25.560
520.89	25.933
521.23	26.859
521.58	26.928
521.92	26.461
522.26	26.090
522.61	26.115
522.95	26.425
523.29	26.095
523.64	26.510
523.98	25.794
524.32	25.457
524.66	25.065
525.01	26.409
525.35	26.662
525.69	27.237
526.04	25.603
526.38	25.813
526.72	26.298
527.06	26.112
527.41	24.884
527.75	25.634
528.09	26.072
528.43	26.459
528.78	26.034
529.12	26.520
529.46	26.296
529.80	26.084
530.15	25.354
530.49	26.550
530.83	25.254
531.17	25.685
531.51	24.477
531.86	26.084
532.20	26.396
532.54	25.793
532.88	25.323
533.22	25.522
533.57	25.430
533.91	25.871
534.25	25.651
534.59	24.839
534.93	25.319
535.27	25.414
535.62	25.066
535.96	25.049
536.30	25.665
536.64	24.949
536.98	24.177
537.32	23.843
537.66	25.599
538.01	24.827
538.35	24.102
538.69	24.816
539.03	24.295
539.37	24.816
539.71	25.512
540.05	24.089
540.39	24.501
540.73	25.768
541.07	24.898
541.42	23.838
541.76	25.981
542.10	24.374
542.44	24.809
542.78	24.983
543.12	24.259
543.46	24.948
543.80	24.304
544.14	25.533
544.48	24.552
544.82	24.950
545.16	23.867
545.50	25.928
545.84	24.544
546.18	24.544
546.52	24.559
546.86	24.099
547.20	24.017
547.54	25.018
547.88	24.899
548.22	25.081
548.56	24.149
548.90	24.222
549.24	25.139
549.58	24.840
549.92	24.358
550.26	25.609
550.60	24.775
550.94	24.925
551.28	24.754
551.62	25.038
551.96	24.963
552.30	24.163
552.64	24.364
552.98	24.077
553.32	24.513
553.66	24.798
554.00	23.542
554.34	23.883
554.68	23.937
555.02	24.177
555.36	24.206
555.69	23.816
556.03	23.231
556.37	23.257
556.71	23.616
557.05	22.804
557.39	23.738
557.73	24.281
558.07	23.361
558.41	24.073
558.75	24.634
559.08	23.416
559.42	24.941
559.76	23.471
560.10	24.289
560.44	25.055
560.78	23.309
561.12	23.055
561.45	23.061
561.79	23.453
562.13	23.347
562.47	24.286
562.81	23.232
563.15	23.300
563.48	23.400
563.82	23.803
564.16	22.817
564.50	23.813
564.84	23.243
565.17	23.775
565.51	23.663
565.85	22.185
566.19	23.245
566.52	23.329
566.86	22.819
567.20	22.969
567.54	22.683
567.88	22.004
568.21	22.379
568.55	22.014
568.89	22.283
569.23	22.915
569.56	22.320
569.90	21.894
570.24	22.166
570.57	21.631
570.91	22.037
571.25	21.529
571.59	21.828
571.92	21.795
572.26	22.216
572.60	22.205
572.93	21.774
573.27	21.773
573.61	22.171
573.95	21.893
574.28	21.552
574.62	21.674
574.96	21.506
575.29	21.489
575.63	21.575
575.97	21.984
576.30	21.145
576.64	21.640
576.98	21.670
577.31	21.703
577.65	21.405
577.98	21.312
578.32	21.455
578.66	21.276
578.99	22.254
579.33	21.939
579.67	21.716
580.00	21.665
580.34	21.425
580.67	21.583
581.01	21.432
581.35	21.561
581.68	21.257
582.02	21.207
582.35	21.334
582.69	21.449
583.02	21.451
583.36	21.319
583.70	21.529
584.03	21.623
584.37	21.311
584.70	21.411
585.04	21.430
585.37	21.337
585.71	21.659
586.04	21.378
586.38	21.100
586.72	21.186
587.05	21.799
587.39	21.830
587.72	21.303
588.06	21.642
588.39	21.019
588.73	21.119
589.06	21.694
589.40	21.603
589.73	21.308
590.07	21.145
590.40	21.469
590.73	22.326
591.07	22.399
591.40	21.870
591.74	21.699
592.07	21.588
592.41	22.094
592.74	20.718
593.08	20.547
593.41	21.805
593.75	21.092
594.08	21.036
594.41	21.207
594.75	21.552
595.08	21.173
595.42	20.866
595.75	21.584
596.09	21.555
596.42	21.446
596.75	21.413
597.09	21.383
597.42	21.310
597.75	21.556
598.09	21.630
598.42	21.879
598.76	21.033
599.09	21.208
599.42	21.299
599.76	21.442
600.09	20.745
600.42	21.205
600.76	21.397
601.09	21.243
601.42	21.247
601.76	21.390
602.09	21.240
602.42	21.626
602.76	20.638
603.09	21.478
603.42	20.792
603.76	21.044
604.09	20.870
604.42	20.929
604.76	21.039
605.09	21.296
605.42	21.053
605.75	20.257
606.09	19.743
606.42	21.571
606.75	20.476
607.09	21.587
607.42	20.447
607.75	20.000
608.08	21.371
608.42	20.947
608.75	21.405
609.08	20.284
609.41	20.864
609.75	21.382
610.08	21.893
610.41	21.137
610.74	20.982
611.07	20.992
611.41	21.546
611.74	21.066
612.07	20.636
612.40	20.919
612.73	21.295
613.07	21.286
613.40	21.531
613.73	21.723
614.06	21.061
614.39	20.678
614.72	21.544
615.06	20.500
615.39	20.695
615.72	20.950
616.05	20.833
616.38	20.962
616.71	20.336
617.05	21.867
617.38	21.134
617.71	20.527
618.04	20.475
618.37	20.883
618.70	20.699
619.03	20.825
619.36	21.210
619.69	20.906
620.03	20.919
620.36	21.364
620.69	20.771
621.02	20.308
621.35	21.177
621.68	20.456
622.01	20.631
622.34	21.332
622.67	21.378
623.00	22.112
623.33	20.194
623.66	21.190
623.99	22.731
624.32	20.690
624.65	21.291
624.99	21.161
625.32	20.612
625.65	21.085
625.98	19.273
626.31	21.388
626.64	21.152
626.97	20.761
627.30	21.215
627.63	20.848
627.96	19.481
628.29	21.674
628.62	21.277
628.95	21.743
629.28	21.576
629.61	21.053
629.94	21.083
630.26	20.591
630.59	21.179
630.92	20.382
631.25	21.215
631.58	22.484
631.91	20.573
632.24	19.319
632.57	19.889
632.90	21.470
633.23	20.144
633.56	21.823
633.89	22.368
634.22	22.968
634.55	21.315
634.88	21.078
635.20	21.250
635.53	19.380
635.86	22.179
636.19	21.836
636.52	20.122
636.85	20.989
637.18	19.610
637.51	20.849
637.83	22.715
638.16	18.000
638.49	21.228
638.82	20.654
639.15	21.144
639.48	21.524
639.81	21.250
640.13	22.676
640.46	22.458
640.79	20.144
641.12	20.414
641.45	20.233
641.77	21.502
642.10	21.331
642.43	21.384
642.76	20.820
643.09	19.968
643.41	20.415
643.74	23.748
644.07	21.036
644.40	22.222
644.73	20.678
645.05	20.942
645.38	20.764
645.71	22.109
646.04	17.677
646.36	22.049
646.69	21.329
647.02	22.222
647.35	19.561
647.67	19.409
648.00	20.652
648.33	18.983
648.66	20.200
648.98	20.807
649.31	21.933
649.64	17.997
649.96	22.591
650.29	19.608
650.62	20.264
650.94	21.724
651.27	21.378
651.60	23.601
651.92	21.326
652.25	19.263
652.58	20.297
652.90	20.202
653.23	18.506
653.56	19.669
653.88	17.918
654.21	18.430
654.54	20.100
654.86	18.537
655.19	20.028
655.52	20.503
655.84	18.389
656.17	22.329
656.49	29.482
656.82	29.345
657.15	22.348
657.47	16.515
657.80	12.555
658.13	13.214
658.45	19.562
658.78	19.170
659.10	19.739
659.43	19.373
659.75	19.902
660.08	20.552
660.41	19.371
660.73	18.182
661.06	20.748
661.38	20.736
661.71	21.516
662.03	21.776
662.36	17.257
662.68	19.785
663.01	22.669
663.33	19.438
663.66	19.069
663.98	22.247
664.31	19.121
664.63	14.189
664.96	20.131
665.28	21.674
665.61	21.166
665.93	20.771
666.26	21.941
666.58	16.702
666.91	23.543
667.23	19.816
667.56	22.069
667.88	18.458
668.21	18.973
668.53	19.770
668.86	19.904
669.18	20.331
669.50	20.046
669.83	21.957
670.15	17.857
670.48	20.460
670.80	24.070
671.13	18.307
671.45	23.288
671.77	17.457
672.10	18.324
672.42	17.939
672.75	19.107
673.07	20.000
673.39	18.097
673.72	18.962
674.04	19.467
674.37	19.715
674.69	19.753
675.01	19.872
675.34	18.381
675.66	19.826
675.98	17.699
676.31	18.326
676.63	20.408
676.95	16.706
677.28	17.661
677.60	19.363
677.92	21.508
678.25	20.607
678.57	21.792
678.89	17.484
679.22	17.184
679.54	20.408
679.86	20.508
680.18	21.538
680.51	18.462
680.83	20.078
681.15	19.253
681.48	19.840
681.80	19.632
682.12	20.417
682.44	18.511
682.77	17.895
683.09	16.295
683.41	18.140
683.73	17.188
684.06	19.912
684.38	18.590
684.70	16.090
685.02	21.074
685.34	20.548
685.67	20.263
685.99	17.794
686.31	19.655
686.63	19.669
686.96	19.666
687.28	17.565
687.60	21.928
687.92	18.288
688.24	16.400
688.56	18.860
688.89	20.267
689.21	15.919
689.53	18.243
689.85	19.551
690.17	19.341
690.49	17.150
690.82	17.422
691.14	19.807
691.46	17.633
691.78	19.121
692.10	19.533
692.42	16.484
692.74	19.130
693.06	17.528
693.39	19.672
693.71	18.444
694.03	20.227
694.35	20.946
694.67	19.500
694.99	17.268
695.31	17.313
695.63	22.927
695.95	20.102
696.27	18.630
696.59	16.667
696.91	16.760
697.23	18.782
697.56	18.225
697.88	20.374
698.20	19.222
698.52	18.224
698.84	19.617
699.16	16.076
699.48	21.235
699.80	22.481
700.12	17.962
700.44	16.056
700.76	18.539
701.08	16.012
701.40	18.263
701.72	16.923
702.04	18.553
702.36	14.634
702.68	17.988
703.00	17.544
703.32	16.156
703.64	19.277
703.96	17.302
704.28	17.470
704.60	12.195
704.91	15.047
705.23	17.405
705.55	16.552
705.87	21.479
706.19	17.216
706.51	16.549
706.83	15.605
707.15	21.037
707.47	20.110
707.79	17.513
708.11	18.252
708.43	20.051
708.74	17.287
709.06	18.449
709.38	18.156
709.70	20.120
710.02	16.511
710.34	17.333
710.66	18.567
710.98	15.170
711.29	20.455
711.61	13.548
711.93	15.484
712.25	14.336
712.57	15.088
712.89	13.919
713.20	18.794
713.52	18.248
713.84	18.710
714.16	14.887
714.48	19.937
714.80	15.335
715.11	19.477
715.43	15.528
715.75	19.565
716.07	16.867
716.39	17.508
716.70	19.065
717.02	15.686
717.34	14.394
717.66	16.379
717.97	13.889
718.29	15.354
718.61	19.313
718.93	12.791
719.24	21.771
719.56	14.607
719.88	13.433
720.20	18.182
720.51	21.094
720.83	17.899
721.15	13.008
721.46	17.176
721.78	14.741
722.10	15.139
722.42	12.903
722.73	19.305
723.05	16.735
723.37	23.109
723.68	16.400
724.00	12.766
724.32	17.573
724.63	15.638
724.95	15.385
725.27	23.207
725.58	18.519
725.90	17.573
726.22	15.942
726.53	13.725
726.85	16.788
727.16	14.074
727.48	19.923
727.80	21.875
728.11	14.344
728.43	16.797
728.74	18.254
729.06	18.000
729.38	18.182
729.69	18.149
730.01	14.498
730.32	15.129
730.64	17.424
730.96	20.280
731.27	13.712
731.59	18.730
731.90	17.476
732.22	8.654
732.53	14.527
732.85	16.779
733.16	22.772
733.48	17.905
733.80	16.892
734.11	18.243
734.43	17.028
734.74	20.420
735.06	16.427
735.37	17.629
735.69	15.210
736.00	18.812
736.32	19.858
736.63	15.517
736.95	16.096
737.26	13.793
737.58	13.542
737.89	16.151
738.21	14.591
738.52	17.110
738.83	13.878
739.15	14.346
739.46	17.899
739.78	12.324
740.09	14.726
740.41	11.429
740.72	13.121
741.04	12.400
741.35	13.596
741.66	15.111
741.98	17.788
742.29	20.297
742.61	18.049
742.92	24.561
743.23	16.509
743.55	14.865
743.86	14.798
744.18	12.745
744.49	16.244
744.80	12.245
745.12	14.486
745.43	19.905
745.74	17.568
746.06	15.421
746.37	13.303
746.68	13.942
747.00	21.053
747.31	18.269
747.62	23.394
747.94	20.961
748.25	18.807
748.56	28.444
748.88	21.596
749.19	22.381
749.50	13.592
749.82	12.676
750.13	12.917
750.44	10.769
750.75	17.343
751.07	20.285
751.38	16.312
751.69	15.058
752.01	15.234
752.32	15.769
752.63	19.403
752.94	14.000
753.26	7.950
753.57	12.083
753.88	15.789
754.19	16.733
754.51	15.038
754.82	15.018
755.13	8.261
755.44	15.041
755.75	10.800
756.07	15.129
756.38	15.827
756.69	17.065
757.00	16.199
757.31	16.181
757.63	13.580
757.94	16.949
758.25	15.344
758.56	13.859
758.87	16.071
759.18	13.249
759.50	13.131
759.81	16.388
760.12	16.308
760.43	12.500
760.74	14.407
761.05	15.470
761.36	13.181
761.67	13.595
761.99	10.653
762.30	9.489
762.61	14.815
762.92	15.385
763.23	15.984
763.54	18.615
763.85	12.653
764.16	11.382
764.47	13.600
764.78	17.500
765.10	13.115
765.41	14.894
765.72	15.839
766.03	14.851
766.34	18.077
766.65	9.623
766.96	13.615
767.27	16.832
767.58	2.809
767.89	17.284
768.20	7.182
768.51	21.106
768.82	16.346
769.13	15.487
769.44	15.900
769.75	14.103
770.06	15.247
770.37	7.843
770.68	17.961
770.99	9.223
771.30	23.529
771.61	11.837
771.92	16.183
772.23	13.514
772.54	9.945
772.85	8.721
773.16	14.815
773.47	11.834
773.78	16.667
774.09	16.250
774.39	14.286
774.70	17.687
775.01	15.172
775.32	6.429
775.63	17.293
775.94	8.271
776.25	11.200
776.56	16.529
776.87	16.667
777.18	9.009
777.48	18.919
777.79	9.449
778.10	11.009
778.41	2.632
778.72	10.084
779.03	8.451
779.34	14.189
779.65	7.746
779.95	12.583
780.26	9.353
780.57	16.547
780.88	11.268
781.19	6.723
781.50	20.134
781.80	15.205
782.11	7.558
782.42	20.126
782.73	14.379
783.04	16.552
783.34	7.634
783.65	10.738
783.96	13.077
784.27	13.571
784.57	21.277
784.88	2.885
785.19	20.909
785.50	13.636
785.81	9.524
786.11	10.924
786.42	19.469
786.73	9.434
787.04	-1.835
787.34	-0.990
787.65	10.833
787.96	9.917
788.26	11.594
788.57	12.698
788.88	12.195
789.19	5.600
789.49	1.527
789.80	16.667
790.11	6.604
790.41	16.832
790.72	12.766
791.03	9.783
791.33	11.765
791.64	13.580
791.95	20.652
792.25	15.909
792.56	21.795
792.87	14.103
793.17	-7.692
793.48	9.524
793.79	13.750
794.09	16.346
794.40	9.375
794.70	16.216
795.01	9.375
795.32	7.826
795.62	-2.174
795.93	7.547
796.23	8.081
796.54	7.317
796.85	23.810
797.15	-7.576
797.46	2.899
797.76	14.474
798.07	13.636
798.37	-12.195
798.68	-12.903
798.99	-2.703
799.29	10.843
799.60	12.821
799.90	9.231
800.21	10.606
800.51	2.667
800.82	10.667
801.12	-22.917
801.43	-3.333
801.73	12.162
802.04	30.000
802.34	4.918
802.65	8.955
802.95	20.000
803.26	13.793
803.56	13.846
803.87	18.868
804.17	16.129
804.48	16.176
804.78	-9.756
805.09	4.348
805.39	5.882
805.70	-4.255
806.00	-3.509
806.30	24.359
806.61	19.737
806.91	6.757
807.22	7.895
807.52	19.318
807.83	-10.169
808.13	-3.030
808.43	-8.333
808.74	-27.586
809.04	11.111
809.35	0.000
809.65	-8.333
809.95	4.082
810.26	22.535
810.56	0.000
810.86	-6.122
811.17	9.615
811.47	-8.511
811.77	-18.750
812.08	-1.887
812.38	-28.125
812.69	-1.818
812.99	14.634
813.29	8.108
813.59	-10.811
813.90	-3.636
814.20	23.636
814.50	-3.333
814.81	27.273
815.11	-8.772
815.41	0.000
815.72	7.500
816.02	-14.286
816.32	2.703
816.62	0.000
816.93	15.556
817.23	-2.222
817.53	-36.111
817.84	-5.405
818.14	2.439
818.44	20.000
818.74	24.490
819.04	12.195
819.35	5.556
819.65	9.091
819.95	-77.778
820.25	-54.545
820.56	-7.143
820.86	-38.889
821.16	6.818
821.46	-10.870
821.76	5.172
822.07	28.261
822.37	30.303
822.67	26.829
822.97	10.811
823.27	5.714
823.57	31.034
823.88	5.882
824.18	11.111
824.48	42.857
824.78	-9.524
825.08	-28.571
825.38	25.926
825.69	19.355
825.99	19.512
826.29	33.333
826.59	-21.875
826.89	-16.129
827.19	-39.130
827.49	-30.556
827.79	17.391
828.09	3.226
828.39	8.333
828.70	-18.750
829.00	-10.345
829.30	16.216
829.60	-41.667
829.90	7.407
830.20	0.000
830.50	18.182
830.80	-76.471
831.10	-54.545
831.40	-26.471
831.70	26.923
832.00	9.091
832.30	-20.588
832.60	5.405
832.90	100.000
833.20	14.286
833.50	-50.000
833.80	0.000
834.10	-41.667
834.40	-68.182
834.70	-60.000
835.00	-40.000
835.30	-12.500
835.60	9.524
835.90	-4.762
836.20	-52.000
836.50	0.000
836.80	-47.368
837.10	21.622
837.40	13.333
837.70	-17.391
838.00	12.500
838.30	63.158
838.60	-150.000
838.90	-140.000
839.19	-58.333
839.49	-30.769
839.79	-42.105
840.09	-200.000
840.39	-110.000
840.69	-50.000
840.99	-28.571
841.29	-25.000
841.59	-53.846
841.88	-86.667
842.18	-57.143
842.48	3.333
842.78	-142.857
843.08	-42.857
843.38	-125.000
843.68	-37.500
843.97	-35.714
844.27	-144.444
844.57	-36.364
844.87	-66.667
845.17	36.364
845.47	400.000
845.76	6.667
846.06	-66.667
846.36	-1150.000
846.66	-26.316
846.96	-45.455
847.25	-44.444
847.55	-166.667
847.85	-9.524
848.15	-38.462
848.44	-150.000
848.74	-50.000
849.04	-69.231
849.34	-125.000
849.63	-54.545
849.93	-71.429
850.23	25.000
850.53	-75.000
850.82	-27.778
851.12	-46.667
851.42	-35.294
851.71	25.000
852.01	52.941
852.31	-92.308
852.61	600.000
852.90	17.647
853.20	20.000
853.50	18.750
853.79	-114.286
854.09	-125.000
854.39	-45.000
854.68	-5.000
854.98	-4.762
855.28	-24.000
855.57	-4.167
855.87	8.333
856.17	-32.000
856.46	12.500
856.76	25.000
857.05	32.000
857.35	-41.667
857.65	-76.471
857.94	-75.000
858.24	-66.667
858.53	5.000
858.83	-145.455
859.13	20.000
859.42	-42.857
859.72	-25.000
860.01	-37.500
860.31	-100.000
860.60	-18.750
860.90	-83.333
861.20	-33.333
861.49	20.000
861.79	-31.250
862.08	450.000
862.38	-108.333
862.67	214.286
862.97	100.000
863.26	-45.455
863.56	-9.091
863.85	-10.526
864.15	-23.529
864.44	-300.000
864.74	-80.000
865.03	-33.333
865.33	-64.286
865.62	100.000
865.92	15.789
866.21	0.000
866.51	-100.000
866.80	-33.333
867.10	-150.000
867.39	18.750
867.69	-26.667
867.98	-70.000
868.27	70.588
868.57	0.000
868.86	700.000
869.16	-75.000
869.45	-285.714
869.75	450.000
870.04	0.000
870.33	-100.000
870.63	15.789
870.92	-58.333
871.22	-900.000
871.51	-100.000
871.80	-188.889
872.10	-150.000
>>>>>End Processed Spectral Data<<<<<
