SpectraSuite Data File
++++++++++++++++++++++++++++++++++++
Date: Wed May 13 21:02:21 PDT 2015
User: schluterlab
Dark Spectrum Present: Yes
Reference Spectrum Present: Yes
Number of Sampled Component Spectra: 1
Spectrometers: USB2E3373
Integration Time (usec): 3000 (USB2E3373)
Spectra Averaged: 3 (USB2E3373)
Boxcar Smoothing: 0 (USB2E3373)
Correct for Electrical Dark: No (USB2E3373)
Strobe/Lamp Enabled: No (USB2E3373)
Correct for Detector Non-linearity: No (USB2E3373)
Correct for Stray Light: No (USB2E3373)
Number of Pixels in Processed Spectrum: 2048
>>>>>Begin Processed Spectral Data<<<<<
178.53	0.000
178.91	-100.000
179.29	116.667
179.67	-500.000
180.04	-366.667
180.42	200.000
180.80	800.000
181.18	16.667
181.56	-175.000
181.94	125.000
182.31	27.273
182.69	61.538
183.07	100.000
183.45	116.667
183.83	-11.111
184.20	57.143
184.58	-100.000
184.96	-133.333
185.34	128.571
185.72	0.000
186.09	100.000
186.47	-180.000
186.85	60.000
187.23	200.000
187.61	350.000
187.98	900.000
188.36	50.000
188.74	0.000
189.12	18.182
189.49	50.000
189.87	75.000
190.25	20.000
190.63	900.000
191.00	140.000
191.38	140.000
191.76	325.000
192.14	66.667
192.51	10.526
192.89	333.333
193.27	175.000
193.65	-340.000
194.02	100.000
194.40	80.000
194.78	-500.000
195.15	-60.000
195.53	-220.000
195.91	87.500
196.29	-33.333
196.66	0.000
197.04	250.000
197.42	120.000
197.79	-10.000
198.17	-50.000
198.55	133.333
198.92	-50.000
199.30	-100.000
199.68	90.000
200.05	100.000
200.43	33.333
200.81	-800.000
201.18	-140.000
201.56	-150.000
201.94	325.000
202.31	26.087
202.69	14.286
203.07	-333.333
203.44	-40.000
203.82	133.333
204.19	60.000
204.57	0.000
204.95	-133.333
205.32	0.000
205.70	150.000
206.08	-200.000
206.45	150.000
206.83	150.000
207.20	-333.333
207.58	60.000
207.96	-1700.000
208.33	-157.143
208.71	-400.000
209.08	25.000
209.46	175.000
209.84	0.000
210.21	20.000
210.59	300.000
210.96	120.000
211.34	1600.000
211.71	-500.000
212.09	-133.333
212.46	-110.000
212.84	166.667
213.22	125.000
213.59	100.000
213.97	50.000
214.34	-300.000
214.72	76.923
215.09	62.500
215.47	88.889
215.84	800.000
216.22	37.500
216.59	600.000
216.97	400.000
217.34	122.222
217.72	0.000
218.09	266.667
218.47	300.000
218.84	-71.429
219.22	62.500
219.59	-166.667
219.97	-50.000
220.34	-75.000
220.72	-180.000
221.09	0.000
221.47	0.000
221.84	-100.000
222.22	0.000
222.59	900.000
222.97	-66.667
223.34	16.667
223.72	-300.000
224.09	350.000
224.46	27.273
224.84	-75.000
225.21	14.286
225.59	-25.000
225.96	66.667
226.34	0.000
226.71	-142.857
227.08	200.000
227.46	-62.500
227.83	800.000
228.21	18.750
228.58	25.000
228.95	5.882
229.33	100.000
229.70	75.000
230.08	15.385
230.45	-162.500
230.82	8.333
231.20	114.286
231.57	-150.000
231.95	400.000
232.32	16.667
232.69	70.588
233.07	-100.000
233.44	4.348
233.81	-250.000
234.19	0.000
234.56	-26.667
234.93	33.333
235.31	26.316
235.68	-30.769
236.05	-15.385
236.43	5.556
236.80	3.030
237.17	-66.667
237.55	-23.529
237.92	-3.448
238.29	-22.222
238.67	2.778
239.04	-9.677
239.41	-2.128
239.79	21.277
240.16	0.000
240.53	-1.786
240.91	14.286
241.28	19.643
241.65	-1.613
242.02	5.263
242.40	8.696
242.77	-8.696
243.14	-5.128
243.51	9.574
243.89	0.962
244.26	16.981
244.63	0.000
245.00	5.208
245.38	4.202
245.75	4.098
246.12	4.511
246.49	-8.130
246.87	-11.765
247.24	6.081
247.61	-0.662
247.98	0.000
248.36	0.592
248.73	3.371
249.10	8.586
249.47	-2.151
249.84	0.000
250.22	7.463
250.59	5.607
250.96	5.000
251.33	-5.263
251.70	5.439
252.08	2.092
252.45	4.938
252.82	2.662
253.19	0.000
253.56	3.237
253.94	7.473
254.31	0.000
254.68	4.027
255.05	5.281
255.42	0.699
255.79	0.613
256.16	3.470
256.54	1.270
256.91	3.165
257.28	0.000
257.65	-1.911
258.02	2.346
258.39	2.924
258.76	1.453
259.14	0.568
259.51	1.685
259.88	4.065
260.25	0.278
260.62	0.562
260.99	5.040
261.36	4.922
261.73	1.728
262.10	1.272
262.47	1.728
262.85	3.731
263.22	3.077
263.59	-0.519
263.96	0.730
264.33	1.683
264.70	0.698
265.07	2.083
265.44	5.517
265.81	2.517
266.18	2.733
266.55	1.092
266.92	1.695
267.29	2.881
267.66	2.548
268.03	5.967
268.40	0.424
268.77	3.926
269.14	2.245
269.51	3.901
269.88	-0.407
270.25	2.754
270.62	1.844
270.99	2.559
271.36	1.389
271.73	3.614
272.10	2.286
272.47	3.263
272.84	3.346
273.21	1.761
273.58	2.869
273.95	3.585
274.32	3.172
274.69	3.097
275.06	3.357
275.43	3.955
275.80	2.482
276.17	2.762
276.54	3.908
276.91	1.916
277.28	-0.361
277.65	3.322
278.02	1.786
278.39	3.197
278.76	2.843
279.13	1.201
279.50	1.552
279.87	-0.181
280.23	2.883
280.60	0.865
280.97	1.299
281.34	3.470
281.71	3.902
282.08	2.051
282.45	2.623
282.82	2.556
283.19	2.896
283.56	2.344
283.92	2.446
284.29	3.432
284.66	1.483
285.03	0.651
285.40	2.266
285.77	1.952
286.14	1.976
286.51	3.898
286.87	2.000
287.24	1.770
287.61	2.861
287.98	2.353
288.35	0.596
288.72	3.013
289.08	4.558
289.45	1.175
289.82	2.874
290.19	3.927
290.56	1.420
290.93	0.552
291.29	1.915
291.66	2.732
292.03	3.678
292.40	3.499
292.77	3.481
293.13	4.045
293.50	3.007
293.87	2.933
294.24	3.439
294.60	3.771
294.97	3.307
295.34	2.375
295.71	1.314
296.08	1.832
296.44	2.679
296.81	1.462
297.18	3.250
297.55	2.948
297.91	3.106
298.28	1.937
298.65	2.340
299.02	3.663
299.38	1.718
299.75	2.644
300.12	1.860
300.48	2.222
300.85	3.118
301.22	2.904
301.59	1.761
301.95	1.510
302.32	3.034
302.69	1.469
303.05	3.322
303.42	2.727
303.79	2.839
304.15	2.191
304.52	2.796
304.89	1.993
305.25	1.866
305.62	2.495
305.99	2.285
306.35	4.180
306.72	4.273
307.09	2.503
307.45	3.621
307.82	3.263
308.19	2.717
308.55	2.149
308.92	5.501
309.29	2.703
309.65	4.096
310.02	4.573
310.38	3.252
310.75	4.043
311.12	3.693
311.48	3.066
311.85	4.035
312.22	4.545
312.58	4.638
312.95	5.174
313.31	5.051
313.68	4.198
314.05	5.482
314.41	5.956
314.78	5.977
315.14	6.111
315.51	6.185
315.87	6.858
316.24	8.264
316.61	7.763
316.97	8.241
317.34	7.041
317.70	7.939
318.07	9.228
318.43	8.582
318.80	9.599
319.16	9.195
319.53	9.857
319.89	9.304
320.26	10.351
320.62	9.639
320.99	11.047
321.35	10.290
321.72	11.646
322.08	13.284
322.45	13.691
322.81	13.494
323.18	15.832
323.54	13.989
323.91	16.531
324.27	15.842
324.64	16.812
325.00	15.836
325.37	18.771
325.73	17.845
326.10	18.671
326.46	20.652
326.83	20.388
327.19	20.976
327.56	23.046
327.92	22.848
328.29	24.124
328.65	25.416
329.01	24.802
329.38	25.826
329.74	25.579
330.11	24.076
330.47	25.347
330.84	28.159
331.20	26.558
331.56	28.351
331.93	27.907
332.29	28.323
332.66	27.034
333.02	29.800
333.38	29.825
333.75	29.352
334.11	28.993
334.48	29.904
334.84	29.682
335.20	30.446
335.57	30.026
335.93	28.866
336.29	31.086
336.66	30.940
337.02	31.826
337.38	31.506
337.75	30.749
338.11	30.743
338.47	30.223
338.84	30.498
339.20	31.922
339.56	31.997
339.93	31.893
340.29	32.109
340.65	32.678
341.02	31.614
341.38	32.264
341.74	31.008
342.11	32.122
342.47	30.879
342.83	30.474
343.20	32.234
343.56	32.379
343.92	32.169
344.28	31.981
344.65	33.469
345.01	31.477
345.37	31.743
345.73	32.108
346.10	32.905
346.46	30.650
346.82	31.621
347.19	31.725
347.55	34.087
347.91	32.502
348.27	32.098
348.63	32.131
349.00	33.019
349.36	32.575
349.72	32.173
350.08	31.591
350.45	32.185
350.81	32.160
351.17	32.717
351.53	33.229
351.89	33.042
352.26	30.734
352.62	32.636
352.98	32.907
353.34	32.528
353.70	32.243
354.07	31.373
354.43	32.115
354.79	34.215
355.15	33.075
355.51	34.017
355.87	33.385
356.24	33.066
356.60	33.464
356.96	32.924
357.32	34.288
357.68	32.850
358.04	33.592
358.40	33.643
358.77	33.639
359.13	32.296
359.49	32.778
359.85	34.496
360.21	34.541
360.57	33.232
360.93	33.991
361.29	33.901
361.66	34.244
362.02	33.506
362.38	33.826
362.74	33.793
363.10	34.129
363.46	34.870
363.82	34.885
364.18	34.155
364.54	35.230
364.90	33.449
365.26	33.900
365.62	33.594
365.98	33.665
366.35	34.255
366.71	34.308
367.07	34.231
367.43	33.798
367.79	35.372
368.15	35.021
368.51	34.388
368.87	34.892
369.23	34.662
369.59	35.307
369.95	34.470
370.31	34.031
370.67	34.251
371.03	36.303
371.39	34.989
371.75	34.929
372.11	35.185
372.47	35.616
372.83	34.951
373.19	35.396
373.55	35.116
373.91	35.502
374.27	35.270
374.63	35.420
374.99	35.794
375.35	36.233
375.71	35.462
376.07	35.778
376.42	34.559
376.78	36.262
377.14	35.322
377.50	36.506
377.86	36.454
378.22	36.094
378.58	35.624
378.94	36.250
379.30	35.853
379.66	35.758
380.02	36.029
380.38	35.783
380.74	36.940
381.09	36.309
381.45	35.671
381.81	36.784
382.17	36.106
382.53	36.308
382.89	35.344
383.25	36.049
383.61	37.228
383.97	37.000
384.32	35.287
384.68	35.657
385.04	36.286
385.40	36.986
385.76	36.314
386.12	37.508
386.48	36.928
386.83	37.297
387.19	36.952
387.55	37.216
387.91	36.900
388.27	36.991
388.62	36.205
388.98	37.422
389.34	37.782
389.70	37.546
390.06	37.438
390.42	37.436
390.77	37.220
391.13	36.427
391.49	36.306
391.85	36.869
392.20	37.218
392.56	37.524
392.92	37.507
393.28	37.304
393.64	37.431
393.99	36.536
394.35	37.407
394.71	37.628
395.07	35.849
395.42	37.660
395.78	35.779
396.14	37.666
396.50	37.857
396.85	37.667
397.21	36.579
397.57	36.273
397.92	36.707
398.28	36.887
398.64	36.369
399.00	37.444
399.35	37.798
399.71	37.333
400.07	36.928
400.42	36.489
400.78	36.798
401.14	36.542
401.49	36.549
401.85	36.855
402.21	37.276
402.57	36.665
402.92	37.547
403.28	35.835
403.63	37.508
403.99	37.684
404.35	36.970
404.70	36.979
405.06	37.170
405.42	36.935
405.77	35.196
406.13	36.286
406.49	37.028
406.84	36.386
407.20	36.649
407.55	37.013
407.91	36.466
408.27	35.933
408.62	36.587
408.98	36.806
409.34	36.757
409.69	36.387
410.05	36.878
410.40	36.032
410.76	36.041
411.11	37.251
411.47	37.359
411.83	36.931
412.18	36.713
412.54	36.278
412.89	35.235
413.25	35.634
413.60	36.113
413.96	35.955
414.31	36.252
414.67	36.508
415.03	36.806
415.38	36.790
415.74	36.517
416.09	37.013
416.45	36.705
416.80	36.846
417.16	36.910
417.51	35.834
417.87	36.243
418.22	36.393
418.58	36.071
418.93	35.782
419.29	37.162
419.64	35.687
420.00	37.079
420.35	35.087
420.71	36.137
421.06	36.962
421.42	37.835
421.77	35.665
422.12	37.077
422.48	37.023
422.83	36.858
423.19	36.228
423.54	35.807
423.90	36.580
424.25	36.800
424.61	36.352
424.96	35.719
425.31	36.511
425.67	36.567
426.02	37.574
426.38	36.318
426.73	35.980
427.09	36.398
427.44	36.171
427.79	35.867
428.15	36.086
428.50	35.468
428.85	36.162
429.21	35.115
429.56	36.451
429.92	35.711
430.27	36.350
430.62	35.257
430.98	35.801
431.33	36.378
431.68	35.942
432.04	35.887
432.39	36.143
432.74	36.235
433.10	37.420
433.45	37.041
433.80	36.379
434.16	35.991
434.51	35.598
434.86	36.101
435.22	36.163
435.57	36.057
435.92	36.610
436.28	35.135
436.63	35.912
436.98	37.015
437.34	36.447
437.69	34.829
438.04	35.427
438.39	37.796
438.75	36.234
439.10	37.478
439.45	35.593
439.81	36.515
440.16	36.870
440.51	36.385
440.86	36.218
441.22	36.145
441.57	36.714
441.92	35.666
442.27	35.281
442.63	36.168
442.98	35.648
443.33	36.738
443.68	35.424
444.03	35.768
444.39	35.796
444.74	35.340
445.09	35.132
445.44	36.282
445.79	36.758
446.15	36.217
446.50	35.903
446.85	35.596
447.20	36.696
447.55	35.534
447.91	35.562
448.26	36.021
448.61	35.328
448.96	36.333
449.31	35.637
449.66	35.743
450.02	36.214
450.37	35.429
450.72	35.247
451.07	36.489
451.42	35.434
451.77	35.423
452.12	35.354
452.47	36.669
452.83	35.554
453.18	34.946
453.53	34.994
453.88	35.181
454.23	35.847
454.58	35.294
454.93	35.343
455.28	36.224
455.63	35.621
455.98	35.606
456.34	34.329
456.69	35.527
457.04	35.356
457.39	35.358
457.74	35.308
458.09	35.012
458.44	34.606
458.79	34.267
459.14	35.169
459.49	35.183
459.84	35.006
460.19	34.034
460.54	35.645
460.89	36.149
461.24	34.834
461.59	35.266
461.94	35.019
462.29	35.539
462.64	35.092
462.99	35.412
463.34	35.428
463.69	35.245
464.04	34.574
464.39	35.082
464.74	35.627
465.09	35.090
465.44	34.119
465.79	35.538
466.14	35.861
466.49	35.425
466.84	34.190
467.19	34.904
467.54	34.219
467.89	35.387
468.24	34.849
468.59	34.162
468.94	34.036
469.29	35.294
469.64	35.495
469.99	36.414
470.34	35.536
470.68	34.721
471.03	34.203
471.38	34.423
471.73	34.294
472.08	34.433
472.43	36.412
472.78	35.970
473.13	33.971
473.48	34.508
473.83	34.212
474.17	34.505
474.52	34.822
474.87	33.534
475.22	34.601
475.57	34.412
475.92	35.169
476.27	34.033
476.61	33.352
476.96	34.894
477.31	33.711
477.66	34.407
478.01	34.451
478.36	34.550
478.70	33.298
479.05	34.684
479.40	33.541
479.75	34.857
480.10	33.656
480.45	33.693
480.79	34.246
481.14	34.600
481.49	34.682
481.84	33.223
482.19	32.747
482.53	34.095
482.88	34.180
483.23	33.590
483.58	33.507
483.92	33.512
484.27	33.028
484.62	32.934
484.97	33.181
485.31	33.072
485.66	30.937
486.01	31.466
486.36	31.079
486.70	31.507
487.05	32.430
487.40	32.712
487.75	33.620
488.09	33.031
488.44	33.228
488.79	33.422
489.13	34.314
489.48	34.074
489.83	33.318
490.17	33.046
490.52	34.222
490.87	32.638
491.22	33.019
491.56	33.972
491.91	32.981
492.26	33.801
492.60	32.708
492.95	33.868
493.30	31.783
493.64	32.806
493.99	32.560
494.34	33.622
494.68	33.604
495.03	32.460
495.37	33.187
495.72	33.885
496.07	32.879
496.41	32.756
496.76	32.952
497.11	32.254
497.45	33.366
497.80	33.872
498.14	32.494
498.49	33.031
498.84	33.603
499.18	32.554
499.53	32.644
499.87	32.120
500.22	33.698
500.56	32.347
500.91	32.948
501.26	33.103
501.60	32.059
501.95	32.056
502.29	33.689
502.64	33.414
502.98	32.803
503.33	32.798
503.67	31.889
504.02	32.451
504.36	32.937
504.71	32.317
505.06	32.501
505.40	31.753
505.75	31.740
506.09	32.294
506.44	33.115
506.78	32.351
507.13	32.069
507.47	32.344
507.82	32.130
508.16	32.348
508.51	31.405
508.85	32.504
509.19	32.011
509.54	32.279
509.88	32.258
510.23	31.368
510.57	32.203
510.92	32.166
511.26	32.398
511.61	31.723
511.95	31.808
512.30	31.705
512.64	32.293
512.98	31.967
513.33	32.225
513.67	32.254
514.02	31.756
514.36	32.809
514.70	32.852
515.05	32.300
515.39	31.663
515.74	32.741
516.08	32.212
516.42	30.933
516.77	31.517
517.11	31.922
517.46	32.053
517.80	32.203
518.14	31.843
518.49	32.670
518.83	31.802
519.17	31.265
519.52	31.906
519.86	31.087
520.20	31.231
520.55	32.400
520.89	31.879
521.23	32.885
521.58	32.301
521.92	31.364
522.26	31.425
522.61	31.610
522.95	32.448
523.29	31.429
523.64	32.804
523.98	32.402
524.32	30.876
524.66	32.338
525.01	31.520
525.35	31.666
525.69	31.677
526.04	30.489
526.38	31.485
526.72	32.544
527.06	31.206
527.41	31.105
527.75	31.308
528.09	32.267
528.43	32.225
528.78	31.589
529.12	31.565
529.46	30.838
529.80	32.298
530.15	30.759
530.49	32.075
530.83	31.077
531.17	31.507
531.51	29.939
531.86	30.691
532.20	31.082
532.54	30.897
532.88	31.382
533.22	32.727
533.57	30.861
533.91	31.161
534.25	31.445
534.59	30.051
534.93	30.548
535.27	30.573
535.62	30.395
535.96	31.295
536.30	31.184
536.64	29.802
536.98	29.923
537.32	30.391
537.66	30.395
538.01	29.958
538.35	29.213
538.69	30.234
539.03	29.329
539.37	28.907
539.71	29.604
540.05	29.622
540.39	30.626
540.73	30.656
541.07	30.136
541.42	29.495
541.76	29.567
542.10	29.790
542.44	29.591
542.78	30.881
543.12	30.458
543.46	29.371
543.80	29.871
544.14	29.525
544.48	28.534
544.82	29.792
545.16	29.750
545.50	30.925
545.84	30.084
546.18	29.663
546.52	30.064
546.86	29.117
547.20	29.593
547.54	28.806
547.88	29.217
548.22	29.186
548.56	28.286
548.90	28.958
549.24	30.417
549.58	28.754
549.92	29.787
550.26	30.406
550.60	29.505
550.94	28.433
551.28	28.993
551.62	29.699
551.96	29.209
552.30	27.729
552.64	27.684
552.98	29.403
553.32	29.776
553.66	28.833
554.00	27.574
554.34	27.985
554.68	28.412
555.02	29.042
555.36	29.425
555.69	28.405
556.03	28.377
556.37	27.240
556.71	28.732
557.05	27.232
557.39	29.314
557.73	28.517
558.07	28.410
558.41	28.917
558.75	29.792
559.08	28.148
559.42	29.583
559.76	28.976
560.10	28.824
560.44	29.035
560.78	28.129
561.12	28.101
561.45	27.959
561.79	28.267
562.13	27.426
562.47	28.857
562.81	28.644
563.15	27.195
563.48	26.359
563.82	26.676
564.16	27.624
564.50	27.680
564.84	27.297
565.17	27.417
565.51	27.206
565.85	26.316
566.19	27.020
566.52	25.885
566.86	26.991
567.20	26.756
567.54	26.828
567.88	25.868
568.21	26.344
568.55	25.926
568.89	25.972
569.23	25.665
569.56	26.074
569.90	25.115
570.24	24.549
570.57	24.565
570.91	25.333
571.25	24.554
571.59	24.474
571.92	24.553
572.26	25.156
572.60	24.977
572.93	24.992
573.27	24.780
573.61	24.791
573.95	24.220
574.28	24.233
574.62	23.945
574.96	24.459
575.29	23.521
575.63	24.157
575.97	24.810
576.30	24.146
576.64	23.867
576.98	24.067
577.31	24.275
577.65	23.305
577.98	23.650
578.32	23.539
578.66	23.690
578.99	24.155
579.33	24.238
579.67	23.778
580.00	23.975
580.34	23.800
580.67	24.302
581.01	23.834
581.35	23.628
581.68	23.358
582.02	22.847
582.35	23.502
582.69	23.246
583.02	23.666
583.36	23.746
583.70	23.993
584.03	24.292
584.37	23.716
584.70	23.489
585.04	24.312
585.37	23.281
585.71	23.685
586.04	23.584
586.38	23.678
586.72	23.181
587.05	24.196
587.39	23.785
587.72	23.404
588.06	23.228
588.39	23.790
588.73	23.676
589.06	23.699
589.40	24.183
589.73	24.254
590.07	24.025
590.40	24.195
590.73	24.757
591.07	23.987
591.40	23.826
591.74	24.100
592.07	24.738
592.41	23.423
592.74	23.573
593.08	22.530
593.41	22.993
593.75	22.965
594.08	22.832
594.41	23.254
594.75	23.388
595.08	23.824
595.42	22.799
595.75	23.210
596.09	24.018
596.42	23.856
596.75	23.607
597.09	24.522
597.42	23.598
597.75	24.044
598.09	24.271
598.42	24.161
598.76	23.384
599.09	23.689
599.42	22.432
599.76	23.920
600.09	22.703
600.42	22.825
600.76	22.912
601.09	22.599
601.42	22.815
601.76	23.127
602.09	23.227
602.42	23.690
602.76	23.070
603.09	23.162
603.42	23.191
603.76	22.876
604.09	23.004
604.42	23.483
604.76	22.872
605.09	23.879
605.42	23.932
605.75	22.484
606.09	23.386
606.42	22.735
606.75	22.814
607.09	22.252
607.42	22.898
607.75	23.063
608.08	23.309
608.42	23.336
608.75	23.316
609.08	22.440
609.41	23.199
609.75	23.147
610.08	23.028
610.41	23.372
610.74	23.244
611.07	22.796
611.41	24.207
611.74	23.292
612.07	22.981
612.40	23.838
612.73	23.271
613.07	22.173
613.40	23.128
613.73	22.806
614.06	22.222
614.39	23.402
614.72	24.209
615.06	23.667
615.39	23.124
615.72	23.596
616.05	22.973
616.38	22.852
616.71	22.496
617.05	23.219
617.38	22.674
617.71	23.284
618.04	23.339
618.37	23.470
618.70	24.191
619.03	22.818
619.36	24.484
619.69	22.880
620.03	22.686
620.36	23.521
620.69	22.769
621.02	22.692
621.35	24.203
621.68	23.798
622.01	24.272
622.34	23.077
622.67	24.980
623.00	23.404
623.33	23.635
623.66	22.007
623.99	23.481
624.32	22.964
624.65	22.923
624.99	22.924
625.32	22.928
625.65	22.248
625.98	23.460
626.31	24.571
626.64	22.700
626.97	23.789
627.30	24.123
627.63	23.097
627.96	22.511
628.29	25.209
628.62	25.048
628.95	23.747
629.28	25.616
629.61	26.507
629.94	24.081
630.26	24.729
630.59	23.776
630.92	23.795
631.25	23.378
631.58	25.054
631.91	24.072
632.24	24.149
632.57	24.333
632.90	25.088
633.23	24.460
633.56	24.221
633.89	25.478
634.22	26.973
634.55	24.726
634.88	24.510
635.20	25.000
635.53	23.773
635.86	24.615
636.19	23.573
636.52	23.780
636.85	24.005
637.18	22.655
637.51	25.094
637.83	25.979
638.16	23.467
638.49	23.632
638.82	23.791
639.15	24.601
639.48	24.465
639.81	25.278
640.13	24.789
640.46	25.706
640.79	23.597
641.12	23.817
641.45	23.726
641.77	25.920
642.10	26.021
642.43	26.572
642.76	23.817
643.09	26.837
643.41	24.402
643.74	26.333
644.07	23.948
644.40	25.207
644.73	24.068
645.05	25.480
645.38	22.425
645.71	23.639
646.04	24.242
646.36	25.347
646.69	27.273
647.02	24.408
647.35	27.057
647.67	24.769
648.00	22.645
648.33	24.746
648.66	24.374
648.98	23.758
649.31	25.460
649.64	23.474
649.96	25.592
650.29	23.366
650.62	24.712
650.94	23.448
651.27	25.265
651.60	25.350
651.92	25.627
652.25	24.791
652.58	25.908
652.90	24.916
653.23	22.581
653.56	22.975
653.88	19.625
654.21	22.867
654.54	24.086
654.86	22.602
655.19	23.109
655.52	21.341
655.84	17.254
656.17	21.105
656.49	28.265
656.82	28.800
657.15	22.186
657.47	16.685
657.80	12.564
658.13	13.707
658.45	20.637
658.78	20.662
659.10	21.242
659.43	21.439
659.75	22.396
660.08	22.138
660.41	21.400
660.73	22.314
661.06	23.469
661.38	24.419
661.71	24.385
662.03	26.850
662.36	23.451
662.68	26.667
663.01	25.424
663.33	26.782
663.66	21.064
663.98	26.742
664.31	25.495
664.63	20.946
664.96	24.070
665.28	25.751
665.61	23.326
665.93	24.411
666.26	25.527
666.58	22.912
666.91	26.233
667.23	23.041
667.56	24.598
667.88	21.495
668.21	23.438
668.53	25.057
668.86	23.261
669.18	21.277
669.50	24.194
669.83	23.866
670.15	22.619
670.48	25.287
670.80	26.915
671.13	24.485
671.45	25.342
671.77	24.353
672.10	22.417
672.42	22.137
672.75	22.143
673.07	19.818
673.39	22.201
673.72	24.551
674.04	22.541
674.37	25.813
674.69	23.045
675.01	22.650
675.34	25.602
675.66	25.272
675.98	20.575
676.31	26.244
676.63	25.850
676.95	24.471
677.28	25.917
677.60	23.529
677.92	22.395
678.25	22.343
678.57	23.625
678.89	19.190
679.22	24.017
679.54	23.265
679.86	23.047
680.18	20.385
680.51	22.692
680.83	21.053
681.15	22.593
681.48	20.240
681.80	21.881
682.12	22.292
682.44	21.529
682.77	17.053
683.09	20.759
683.41	22.326
683.73	23.661
684.06	22.345
684.38	21.154
684.70	21.996
685.02	19.835
685.34	20.548
685.67	20.450
685.99	22.064
686.31	21.034
686.63	19.669
686.96	22.635
687.28	19.760
687.60	23.440
687.92	21.206
688.24	19.200
688.56	23.026
688.89	22.272
689.21	20.852
689.53	18.919
689.85	25.169
690.17	21.538
690.49	19.082
690.82	20.525
691.14	20.290
691.46	20.186
691.78	22.637
692.10	21.868
692.42	18.022
692.74	22.609
693.06	20.225
693.39	18.970
693.71	23.333
694.03	26.136
694.35	22.748
694.67	22.500
694.99	23.454
695.31	21.964
695.63	20.488
695.95	21.883
696.27	21.918
696.59	24.462
696.91	19.274
697.23	19.797
697.56	21.583
697.88	22.245
698.20	22.894
698.52	20.561
698.84	19.378
699.16	22.695
699.48	24.938
699.80	24.289
700.12	22.252
700.44	20.000
700.76	17.697
701.08	22.356
701.40	24.850
701.72	22.462
702.04	20.126
702.36	21.037
702.68	21.951
703.00	23.099
703.32	20.056
703.64	18.373
703.96	21.701
704.28	19.578
704.60	22.866
704.91	23.511
705.23	24.367
705.55	22.759
705.87	22.183
706.19	20.513
706.51	19.366
706.83	20.701
707.15	23.171
707.47	20.937
707.79	18.782
708.11	16.967
708.43	22.081
708.74	20.479
709.06	20.053
709.38	21.037
709.70	21.021
710.02	19.626
710.34	19.333
710.66	19.218
710.98	20.433
711.29	21.753
711.61	19.032
711.93	24.194
712.25	20.629
712.57	18.596
712.89	19.780
713.20	23.050
713.52	18.248
713.84	20.968
714.16	18.770
714.48	18.354
714.80	17.891
715.11	19.186
715.43	18.944
715.75	24.534
716.07	19.277
716.39	20.539
716.70	16.187
717.02	18.431
717.34	21.970
717.66	20.259
717.97	16.270
718.29	22.047
718.61	21.030
718.93	20.155
719.24	19.188
719.56	22.472
719.88	19.030
720.20	17.787
720.51	21.875
720.83	22.957
721.15	21.545
721.46	17.557
721.78	19.522
722.10	15.538
722.42	22.177
722.73	22.780
723.05	24.490
723.37	22.689
723.68	20.800
724.00	14.043
724.32	22.176
724.63	23.457
724.95	17.521
725.27	22.785
725.58	19.753
725.90	22.594
726.22	18.116
726.53	16.863
726.85	19.708
727.16	15.556
727.48	16.858
727.80	20.313
728.11	18.033
728.43	23.437
728.74	18.254
729.06	20.000
729.38	19.763
729.69	19.573
730.01	19.703
730.32	18.450
730.64	14.394
730.96	22.028
731.27	19.732
731.59	17.778
731.90	17.799
732.22	14.744
732.53	16.892
732.85	17.114
733.16	16.172
733.48	14.865
733.80	20.608
734.11	19.257
734.43	16.099
734.74	21.321
735.06	19.308
735.37	20.973
735.69	19.417
736.00	16.832
736.32	15.603
736.63	19.655
736.95	20.205
737.26	16.552
737.58	19.444
737.89	17.182
738.21	18.861
738.52	15.209
738.83	18.367
739.15	17.300
739.46	19.455
739.78	13.380
740.09	14.384
740.41	12.857
740.72	14.184
741.04	17.600
741.35	11.404
741.66	16.000
741.98	19.231
742.29	20.297
742.61	21.951
742.92	21.930
743.23	14.623
743.55	15.315
743.86	12.108
744.18	21.078
744.49	15.228
744.80	15.306
745.12	22.430
745.43	16.114
745.74	20.721
746.06	20.093
746.37	12.385
746.68	19.231
747.00	20.574
747.31	23.077
747.62	19.266
747.94	17.904
748.25	19.266
748.56	23.556
748.88	16.432
749.19	20.476
749.50	17.961
749.82	21.127
750.13	14.583
750.44	15.000
750.75	16.236
751.07	17.438
751.38	15.248
751.69	18.533
752.01	14.844
752.32	15.769
752.63	16.791
752.94	18.000
753.26	13.389
753.57	17.917
753.88	21.457
754.19	13.147
754.51	15.038
754.82	14.652
755.13	9.565
755.44	19.919
755.75	15.600
756.07	17.343
756.38	19.065
756.69	19.454
757.00	17.757
757.31	16.505
757.63	12.037
757.94	16.949
758.25	17.460
758.56	14.674
758.87	16.964
759.18	18.297
759.50	14.478
759.81	17.057
760.12	17.231
760.43	12.202
760.74	17.232
761.05	16.022
761.36	12.607
761.67	15.710
761.99	13.746
762.30	12.409
762.61	13.992
762.92	12.393
763.23	21.311
763.54	18.615
763.85	12.245
764.16	12.195
764.47	18.000
764.78	17.500
765.10	15.082
765.41	14.286
765.72	12.112
766.03	15.842
766.34	16.923
766.65	16.736
766.96	17.840
767.27	21.287
767.58	8.989
767.89	22.222
768.20	12.707
768.51	18.090
768.82	13.462
769.13	19.912
769.44	16.736
769.75	17.521
770.06	15.247
770.37	15.686
770.68	15.534
770.99	13.107
771.30	16.387
771.61	14.694
771.92	17.842
772.23	16.216
772.54	11.602
772.85	14.535
773.16	20.106
773.47	12.426
773.78	17.816
774.09	18.750
774.39	24.845
774.70	22.449
775.01	16.552
775.32	19.286
775.63	13.534
775.94	10.526
776.25	8.800
776.56	15.702
776.87	19.048
777.18	11.712
777.48	13.514
777.79	8.661
778.10	11.009
778.41	14.035
778.72	16.807
779.03	7.042
779.34	20.270
779.65	16.901
779.95	14.570
780.26	14.388
780.57	18.705
780.88	19.014
781.19	13.445
781.50	17.450
781.80	14.620
782.11	12.791
782.42	21.384
782.73	17.647
783.04	16.552
783.34	6.870
783.65	18.121
783.96	16.923
784.27	11.429
784.57	19.149
784.88	4.808
785.19	25.455
785.50	16.364
785.81	10.476
786.11	3.361
786.42	2.655
786.73	4.717
787.04	0.917
787.34	2.970
787.65	20.000
787.96	16.529
788.26	13.768
788.57	10.317
788.88	13.008
789.19	8.800
789.49	6.870
789.80	20.455
790.11	5.660
790.41	20.792
790.72	17.021
791.03	9.783
791.33	10.588
791.64	17.284
791.95	14.130
792.25	14.773
792.56	11.538
792.87	14.103
793.17	7.692
793.48	8.333
793.79	2.500
794.09	25.962
794.40	7.292
794.70	15.315
795.01	10.937
795.32	10.435
795.62	3.261
795.93	6.604
796.23	14.141
796.54	9.756
796.85	28.571
797.15	12.121
797.46	10.145
797.76	18.421
798.07	3.409
798.37	15.854
798.68	-1.613
798.99	8.108
799.29	22.892
799.60	20.513
799.90	20.000
800.21	22.727
800.51	6.667
800.82	4.000
801.12	-12.500
801.43	1.667
801.73	-1.351
802.04	32.857
802.34	6.557
802.65	16.418
802.95	36.364
803.26	18.966
803.56	20.000
803.87	26.415
804.17	25.806
804.48	26.471
804.78	-7.317
805.09	34.783
805.39	19.118
805.70	4.255
806.00	10.526
806.30	15.385
806.61	10.526
806.91	21.622
807.22	21.053
807.52	14.773
807.83	3.390
808.13	0.000
808.43	11.667
808.74	-22.414
809.04	19.048
809.35	-18.367
809.65	23.333
809.95	10.204
810.26	25.352
810.56	12.500
810.86	10.204
811.17	15.385
811.47	-4.255
811.77	16.667
812.08	1.887
812.38	28.125
812.69	9.091
812.99	34.146
813.29	2.703
813.59	-2.703
813.90	7.273
814.20	12.727
814.50	20.000
814.81	7.273
815.11	-7.018
815.41	41.860
815.72	22.500
816.02	2.857
816.32	-8.108
816.62	14.583
816.93	-13.333
817.23	-8.889
817.53	0.000
817.84	0.000
818.14	-2.439
818.44	18.000
818.74	28.571
819.04	-7.317
819.35	19.444
819.65	27.273
819.95	-55.556
820.25	21.212
820.56	-16.667
820.86	-11.111
821.16	-6.818
821.46	2.174
821.76	-1.724
822.07	23.913
822.37	36.364
822.67	53.659
822.97	29.730
823.27	-5.714
823.57	20.690
823.88	20.588
824.18	33.333
824.48	25.714
824.78	-33.333
825.08	14.286
825.38	-11.111
825.69	6.452
825.99	14.634
826.29	14.815
826.59	3.125
826.89	16.129
827.19	8.696
827.49	-2.778
827.79	0.000
828.09	6.452
828.39	29.167
828.70	-15.625
829.00	-6.897
829.30	21.622
829.60	-20.833
829.90	22.222
830.20	3.125
830.50	4.545
830.80	-58.824
831.10	-54.545
831.40	-2.941
831.70	11.538
832.00	27.273
832.30	0.000
832.60	24.324
832.90	1200.000
833.20	3.571
833.50	-65.000
833.80	18.421
834.10	-37.500
834.40	-63.636
834.70	-93.333
835.00	-60.000
835.30	-29.167
835.60	-4.762
835.90	66.667
836.20	4.000
836.50	-12.500
836.80	10.526
837.10	10.811
837.40	53.333
837.70	30.435
838.00	12.500
838.30	47.368
838.60	10.000
838.90	-100.000
839.19	-41.667
839.49	61.538
839.79	10.526
840.09	-133.333
840.39	-80.000
840.69	-9.091
840.99	23.810
841.29	-29.167
841.59	-84.615
841.88	-53.333
842.18	0.000
842.48	20.000
842.78	-285.714
843.08	-14.286
843.38	-175.000
843.68	-68.750
843.97	114.286
844.27	-11.111
844.57	-27.273
844.87	-13.333
845.17	50.000
845.47	700.000
845.76	-6.667
846.06	-41.667
846.36	-850.000
846.66	5.263
846.96	22.727
847.25	-16.667
847.55	-155.556
847.85	-14.286
848.15	30.769
848.44	-216.667
848.74	-33.333
849.04	-23.077
849.34	-125.000
849.63	-109.091
849.93	-107.143
850.23	40.000
850.53	-50.000
850.82	22.222
851.12	-40.000
851.42	11.765
851.71	12.500
852.01	11.765
852.31	7.692
852.61	-0.000
852.90	23.529
853.20	-6.667
853.50	-6.250
853.79	-28.571
854.09	-75.000
854.39	-50.000
854.68	-5.000
854.98	9.524
855.28	-8.000
855.57	54.167
855.87	33.333
856.17	-24.000
856.46	34.375
856.76	10.000
857.05	8.000
857.35	-33.333
857.65	0.000
857.94	-100.000
858.24	-100.000
858.53	0.000
858.83	-109.091
859.13	40.000
859.42	28.571
859.72	37.500
860.01	45.833
860.31	-125.000
860.60	37.500
860.90	-150.000
861.20	16.667
861.49	40.000
861.79	-12.500
862.08	275.000
862.38	25.000
862.67	200.000
862.97	100.000
863.26	-81.818
863.56	0.000
863.85	36.842
864.15	-17.647
864.44	-140.000
864.74	-90.000
865.03	-11.111
865.33	21.429
865.62	150.000
865.92	26.316
866.21	27.778
866.51	-36.364
866.80	-122.222
867.10	-137.500
867.39	-6.250
867.69	46.667
867.98	-50.000
868.27	35.294
868.57	0.000
868.86	600.000
869.16	-275.000
869.45	-257.143
869.75	50.000
870.04	50.000
870.33	-900.000
870.63	-26.316
870.92	-16.667
871.22	-100.000
871.51	-114.286
871.80	-88.889
872.10	-200.000
>>>>>End Processed Spectral Data<<<<<
