SpectraSuite Data File
++++++++++++++++++++++++++++++++++++
Date: Wed May 13 20:41:15 PDT 2015
User: schluterlab
Dark Spectrum Present: Yes
Reference Spectrum Present: Yes
Number of Sampled Component Spectra: 1
Spectrometers: USB2E3373
Integration Time (usec): 3000 (USB2E3373)
Spectra Averaged: 3 (USB2E3373)
Boxcar Smoothing: 0 (USB2E3373)
Correct for Electrical Dark: No (USB2E3373)
Strobe/Lamp Enabled: No (USB2E3373)
Correct for Detector Non-linearity: No (USB2E3373)
Correct for Stray Light: No (USB2E3373)
Number of Pixels in Processed Spectrum: 2048
>>>>>Begin Processed Spectral Data<<<<<
178.53	0.000
178.91	-725.000
179.29	-650.000
179.67	-172.222
180.04	-1075.000
180.42	1850.000
180.80	740.000
181.18	-625.000
181.56	500.000
181.94	0.000
182.31	-371.429
182.69	1133.333
183.07	-400.000
183.45	-411.111
183.83	454.545
184.20	-200.000
184.58	1350.000
184.96	3700.000
185.34	-760.000
185.72	-450.000
186.09	-1700.000
186.47	1800.000
186.85	1850.000
187.23	3200.000
187.61	-1366.667
187.98	875.000
188.36	309.091
188.74	400.000
189.12	-540.000
189.49	400.000
189.87	-4400.000
190.25	-900.000
190.63	278.571
191.00	307.692
191.38	600.000
191.76	-850.000
192.14	1075.000
192.51	512.500
192.89	700.000
193.27	387.500
193.65	-925.000
194.02	350.000
194.40	700.000
194.78	380.000
195.15	416.667
195.53	400.000
195.91	-1300.000
196.29	243.750
196.66	226.316
197.04	-270.000
197.42	0.000
197.79	360.000
198.17	-2900.000
198.55	457.143
198.92	512.500
199.30	640.000
199.68	0.000
200.05	255.556
200.43	642.857
200.81	2400.000
201.18	1300.000
201.56	-1066.667
201.94	366.667
202.31	433.333
202.69	383.333
203.07	320.000
203.44	0.000
203.82	950.000
204.19	442.857
204.57	414.286
204.95	500.000
205.32	1033.333
205.70	400.000
206.08	221.429
206.45	1900.000
206.83	237.500
207.20	533.333
207.58	340.000
207.96	233.333
208.33	537.500
208.71	-566.667
209.08	542.857
209.46	444.444
209.84	427.273
210.21	-900.000
210.59	975.000
210.96	-337.500
211.34	2050.000
211.71	490.000
212.09	566.667
212.46	0.000
212.84	1066.667
213.22	1225.000
213.59	-2800.000
213.97	633.333
214.34	400.000
214.72	509.091
215.09	620.000
215.47	-1600.000
215.84	-2050.000
216.22	1166.667
216.59	271.429
216.97	875.000
217.34	327.273
217.72	-416.667
218.09	0.000
218.47	-4200.000
218.84	577.778
219.22	457.143
219.59	1366.667
219.97	-357.143
220.34	680.000
220.72	-1366.667
221.09	350.000
221.47	1175.000
221.84	-650.000
222.22	0.000
222.59	1025.000
222.97	-1450.000
223.34	860.000
223.72	323.077
224.09	680.000
224.46	1500.000
224.84	-2800.000
225.21	-760.000
225.59	-3100.000
225.96	510.000
226.34	160.000
226.71	1900.000
227.08	462.500
227.46	350.000
227.83	-775.000
228.21	-1500.000
228.58	344.444
228.95	-1700.000
229.33	-1850.000
229.70	1133.333
230.08	628.571
230.45	-420.000
230.82	308.333
231.20	733.333
231.57	357.143
231.95	325.000
232.32	145.455
232.69	263.636
233.07	414.286
233.44	192.308
233.81	-1366.667
234.19	205.263
234.56	275.000
234.93	258.333
235.31	272.727
235.68	207.692
236.05	264.286
236.43	109.091
236.80	168.421
237.17	3200.000
237.55	214.286
237.92	110.714
238.29	95.238
238.67	106.452
239.04	137.931
239.41	102.778
239.79	82.609
240.16	90.476
240.53	75.000
240.91	66.667
241.28	78.000
241.65	60.000
242.02	57.971
242.40	51.613
242.77	40.000
243.14	44.086
243.51	55.056
243.89	47.059
244.26	32.222
244.63	38.710
245.00	30.851
245.38	28.713
245.75	28.972
246.12	28.440
246.49	40.876
246.87	36.000
247.24	33.846
247.61	27.143
247.98	24.837
248.36	20.270
248.73	22.293
249.10	24.204
249.47	22.034
249.84	23.529
250.22	20.856
250.59	15.976
250.96	21.717
251.33	20.853
251.70	19.802
252.08	17.143
252.45	12.108
252.82	19.130
253.19	19.149
253.56	14.118
253.94	17.842
254.31	15.625
254.68	18.077
255.05	16.605
255.42	11.789
255.79	13.971
256.16	16.606
256.54	13.074
256.91	16.014
257.28	10.791
257.65	16.172
258.02	12.112
258.39	10.726
258.76	11.706
259.14	13.095
259.51	10.334
259.88	6.832
260.25	10.876
260.62	11.272
260.99	8.696
261.36	13.814
261.73	8.596
262.10	11.628
262.47	8.169
262.85	11.421
263.22	6.838
263.59	10.541
263.96	10.440
264.33	9.399
264.70	11.316
265.07	11.509
265.44	11.616
265.81	8.759
266.18	9.045
266.55	8.537
266.92	7.125
267.29	11.343
267.66	7.339
268.03	9.545
268.40	9.813
268.77	7.160
269.14	8.108
269.51	9.707
269.88	8.392
270.25	8.804
270.62	10.112
270.99	12.473
271.36	10.944
271.73	8.178
272.10	8.696
272.47	11.613
272.84	8.442
273.21	10.901
273.58	5.022
273.95	7.966
274.32	7.438
274.69	7.709
275.06	6.693
275.43	9.787
275.80	8.016
276.17	7.739
276.54	10.603
276.91	8.300
277.28	8.203
277.65	7.350
278.02	5.797
278.39	9.570
278.76	9.091
279.13	6.981
279.50	6.704
279.87	7.171
280.23	6.387
280.60	6.383
280.97	7.209
281.34	8.850
281.71	7.455
282.08	9.021
282.45	5.455
282.82	5.861
283.19	6.595
283.56	7.544
283.92	7.614
284.29	7.231
284.66	6.715
285.03	6.510
285.40	7.218
285.77	6.902
286.14	6.908
286.51	8.000
286.87	5.983
287.24	6.840
287.61	6.581
287.98	6.331
288.35	7.290
288.72	6.698
289.08	8.764
289.45	6.260
289.82	7.480
290.19	5.651
290.56	5.207
290.93	4.381
291.29	6.902
291.66	5.605
292.03	8.721
292.40	6.461
292.77	6.953
293.13	7.015
293.50	6.414
293.87	7.111
294.24	7.407
294.60	5.095
294.97	5.523
295.34	7.193
295.71	5.682
296.08	4.274
296.44	3.714
296.81	5.284
297.18	5.691
297.55	4.222
297.91	4.485
298.28	5.622
298.65	6.397
299.02	5.007
299.38	5.312
299.75	2.426
300.12	3.959
300.48	4.250
300.85	5.179
301.22	4.331
301.59	3.030
301.95	5.793
302.32	5.648
302.69	4.659
303.05	4.000
303.42	4.815
303.79	4.757
304.15	3.846
304.52	4.056
304.89	4.181
305.25	5.336
305.62	5.776
305.99	5.431
306.35	3.915
306.72	5.605
307.09	6.104
307.45	5.518
307.82	2.679
308.19	5.408
308.55	5.178
308.92	5.156
309.29	5.069
309.65	3.818
310.02	5.708
310.38	5.054
310.75	5.385
311.12	4.708
311.48	5.016
311.85	5.660
312.22	5.203
312.58	4.678
312.95	5.702
313.31	4.951
313.68	6.133
314.05	7.890
314.41	7.035
314.78	5.337
315.14	6.356
315.51	7.106
315.87	6.931
316.24	6.356
316.61	6.725
316.97	8.708
317.34	5.871
317.70	8.126
318.07	8.758
318.43	8.708
318.80	9.372
319.16	9.887
319.53	9.662
319.89	10.190
320.26	11.200
320.62	10.813
320.99	11.010
321.35	11.212
321.72	11.499
322.08	12.438
322.45	13.333
322.81	13.953
323.18	14.066
323.54	14.100
323.91	14.623
324.27	14.532
324.64	13.979
325.00	15.239
325.37	16.833
325.73	16.697
326.10	16.946
326.46	16.667
326.83	18.637
327.19	17.763
327.56	18.206
327.92	18.898
328.29	19.698
328.65	19.797
329.01	20.758
329.38	19.889
329.74	19.483
330.11	20.924
330.47	21.947
330.84	22.794
331.20	20.947
331.56	22.018
331.93	21.204
332.29	22.094
332.66	23.274
333.02	21.664
333.38	22.403
333.75	22.638
334.11	21.975
334.48	22.893
334.84	22.702
335.20	25.182
335.57	22.393
335.93	22.411
336.29	23.443
336.66	24.346
337.02	23.620
337.38	24.722
337.75	23.797
338.11	23.366
338.47	23.573
338.84	24.015
339.20	24.220
339.56	25.365
339.93	23.818
340.29	24.185
340.65	24.421
341.02	25.480
341.38	26.335
341.74	23.860
342.11	24.629
342.47	26.167
342.83	23.887
343.20	26.234
343.56	25.274
343.92	24.561
344.28	25.170
344.65	27.257
345.01	24.747
345.37	24.786
345.73	25.550
346.10	26.002
346.46	26.186
346.82	25.700
347.19	25.815
347.55	25.369
347.91	26.456
348.27	26.294
348.63	25.753
349.00	26.780
349.36	25.452
349.72	26.143
350.08	26.256
350.45	26.282
350.81	25.751
351.17	26.013
351.53	26.699
351.89	26.403
352.26	27.466
352.62	26.864
352.98	26.013
353.34	26.952
353.70	26.268
354.07	27.097
354.43	27.222
354.79	27.273
355.15	26.337
355.51	27.578
355.87	27.837
356.24	28.094
356.60	26.544
356.96	28.077
357.32	28.046
357.68	27.323
358.04	27.395
358.40	28.899
358.77	28.091
359.13	27.703
359.49	28.157
359.85	27.540
360.21	27.512
360.57	30.272
360.93	28.538
361.29	28.798
361.66	28.096
362.02	29.104
362.38	29.582
362.74	28.423
363.10	28.423
363.46	29.200
363.82	28.345
364.18	28.708
364.54	28.826
364.90	28.399
365.26	28.676
365.62	28.707
365.98	28.269
366.35	27.650
366.71	29.356
367.07	27.895
367.43	29.173
367.79	29.193
368.15	30.388
368.51	29.651
368.87	30.050
369.23	29.920
369.59	29.109
369.95	28.971
370.31	28.917
370.67	29.130
371.03	30.936
371.39	29.300
371.75	28.603
372.11	29.161
372.47	30.059
372.83	30.836
373.19	28.396
373.55	30.303
373.91	30.633
374.27	29.003
374.63	29.745
374.99	30.085
375.35	28.821
375.71	29.472
376.07	29.835
376.42	29.849
376.78	29.954
377.14	29.240
377.50	29.404
377.86	28.790
378.22	29.709
378.58	30.201
378.94	29.478
379.30	29.453
379.66	30.520
380.02	29.975
380.38	29.630
380.74	29.772
381.09	29.890
381.45	29.564
381.81	30.160
382.17	29.172
382.53	30.377
382.89	29.753
383.25	29.706
383.61	30.173
383.97	29.769
384.32	30.443
384.68	29.926
385.04	29.564
385.40	28.793
385.76	29.361
386.12	29.404
386.48	29.515
386.83	30.404
387.19	30.550
387.55	30.550
387.91	29.262
388.27	28.817
388.62	29.379
388.98	29.238
389.34	30.225
389.70	28.633
390.06	29.658
390.42	28.988
390.77	29.326
391.13	29.930
391.49	29.124
391.85	28.135
392.20	28.770
392.56	28.725
392.92	28.899
393.28	28.284
393.64	28.897
393.99	28.772
394.35	28.102
394.71	27.604
395.07	28.224
395.42	29.357
395.78	28.372
396.14	27.809
396.50	28.822
396.85	28.481
397.21	28.915
397.57	28.704
397.92	27.764
398.28	27.859
398.64	28.076
399.00	27.868
399.35	27.750
399.71	29.398
400.07	28.267
400.42	28.282
400.78	28.528
401.14	27.927
401.49	27.463
401.85	28.010
402.21	27.066
402.57	28.439
402.92	28.310
403.28	28.107
403.63	27.847
403.99	26.688
404.35	26.848
404.70	27.878
405.06	26.558
405.42	27.760
405.77	26.914
406.13	26.862
406.49	26.493
406.84	26.344
407.20	25.827
407.55	26.548
407.91	27.267
408.27	27.505
408.62	26.129
408.98	27.022
409.34	26.445
409.69	27.097
410.05	26.704
410.40	26.667
410.76	26.643
411.11	26.116
411.47	25.112
411.83	26.573
412.18	24.861
412.54	26.775
412.89	25.904
413.25	25.384
413.60	26.313
413.96	25.804
414.31	25.942
414.67	26.679
415.03	25.563
415.38	26.482
415.74	24.952
416.09	26.845
416.45	25.837
416.80	26.834
417.16	27.346
417.51	26.676
417.87	25.755
418.22	25.426
418.58	26.921
418.93	26.106
419.29	26.353
419.64	26.071
420.00	25.610
420.35	25.391
420.71	26.121
421.06	25.537
421.42	25.906
421.77	26.401
422.12	24.930
422.48	24.663
422.83	25.626
423.19	25.470
423.54	26.698
423.90	26.087
424.25	25.963
424.61	25.417
424.96	24.723
425.31	25.471
425.67	24.719
426.02	26.171
426.38	26.190
426.73	24.751
427.09	24.924
427.44	25.014
427.79	25.647
428.15	25.298
428.50	25.161
428.85	25.626
429.21	25.400
429.56	25.246
429.92	25.466
430.27	25.323
430.62	25.397
430.98	25.532
431.33	24.639
431.68	26.073
432.04	25.133
432.39	24.957
432.74	25.853
433.10	25.467
433.45	25.015
433.80	25.665
434.16	25.321
434.51	24.474
434.86	25.884
435.22	25.181
435.57	25.714
435.92	25.102
436.28	25.741
436.63	25.166
436.98	24.556
437.34	25.581
437.69	26.254
438.04	25.576
438.39	25.552
438.75	25.508
439.10	26.034
439.45	24.498
439.81	23.988
440.16	24.732
440.51	24.722
440.86	25.941
441.22	24.472
441.57	25.902
441.92	24.872
442.27	25.727
442.63	24.908
442.98	25.859
443.33	24.728
443.68	25.607
444.03	24.939
444.39	23.515
444.74	25.595
445.09	24.420
445.44	24.822
445.79	24.691
446.15	24.881
446.50	24.771
446.85	24.974
447.20	24.120
447.55	24.958
447.91	23.938
448.26	24.374
448.61	24.986
448.96	25.526
449.31	25.253
449.66	24.536
450.02	24.067
450.37	24.150
450.72	24.027
451.07	23.278
451.42	23.587
451.77	24.486
452.12	23.788
452.47	24.565
452.83	24.359
453.18	24.144
453.53	23.377
453.88	22.859
454.23	23.610
454.58	24.409
454.93	24.476
455.28	23.067
455.63	23.908
455.98	25.238
456.34	22.990
456.69	23.482
457.04	23.529
457.39	23.320
457.74	23.970
458.09	23.634
458.44	23.204
458.79	23.210
459.14	23.081
459.49	23.584
459.84	22.825
460.19	22.864
460.54	22.512
460.89	23.039
461.24	23.983
461.59	23.300
461.94	22.380
462.29	22.433
462.64	22.272
462.99	21.796
463.34	23.400
463.69	21.701
464.04	22.435
464.39	21.855
464.74	22.341
465.09	21.713
465.44	21.163
465.79	21.756
466.14	22.167
466.49	21.635
466.84	21.541
467.19	22.028
467.54	21.500
467.89	21.128
468.24	21.059
468.59	21.306
468.94	20.648
469.29	21.979
469.64	21.954
469.99	22.327
470.34	20.872
470.68	21.480
471.03	21.224
471.38	21.960
471.73	21.186
472.08	22.368
472.43	21.357
472.78	20.606
473.13	20.539
473.48	20.287
473.83	20.610
474.17	20.597
474.52	21.340
474.87	20.315
475.22	20.139
475.57	19.828
475.92	19.968
476.27	19.335
476.61	19.415
476.96	19.241
477.31	19.205
477.66	19.803
478.01	19.237
478.36	19.619
478.70	18.847
479.05	19.755
479.40	19.703
479.75	20.590
480.10	18.340
480.45	19.277
480.79	18.825
481.14	19.374
481.49	18.889
481.84	18.107
482.19	18.991
482.53	18.624
482.88	18.799
483.23	18.458
483.58	18.835
483.92	17.713
484.27	17.691
484.62	18.190
484.97	17.264
485.31	17.466
485.66	17.207
486.01	17.060
486.36	17.000
486.70	16.819
487.05	17.862
487.40	17.109
487.75	16.867
488.09	17.258
488.44	16.945
488.79	16.962
489.13	17.189
489.48	16.884
489.83	16.573
490.17	17.843
490.52	16.696
490.87	17.187
491.22	17.008
491.56	16.811
491.91	17.171
492.26	16.491
492.60	16.959
492.95	16.698
493.30	16.449
493.64	16.986
493.99	16.713
494.34	17.160
494.68	16.941
495.03	16.776
495.37	16.380
495.72	17.154
496.07	17.262
496.41	16.239
496.76	16.579
497.11	16.614
497.45	15.557
497.80	15.883
498.14	15.507
498.49	16.195
498.84	15.964
499.18	15.714
499.53	15.527
499.87	15.610
500.22	15.827
500.56	16.505
500.91	15.433
501.26	15.268
501.60	15.615
501.95	15.353
502.29	15.558
502.64	15.503
502.98	15.194
503.33	15.631
503.67	15.963
504.02	15.529
504.36	14.787
504.71	15.437
505.06	15.181
505.40	15.994
505.75	15.526
506.09	15.063
506.44	14.948
506.78	15.490
507.13	14.891
507.47	15.808
507.82	15.552
508.16	14.691
508.51	14.967
508.85	14.945
509.19	15.306
509.54	15.153
509.88	14.426
510.23	14.704
510.57	15.686
510.92	14.448
511.26	14.337
511.61	14.990
511.95	14.562
512.30	14.263
512.64	14.831
512.98	15.220
513.33	14.775
513.67	13.927
514.02	14.394
514.36	15.401
514.70	14.222
515.05	14.780
515.39	15.031
515.74	14.133
516.08	14.310
516.42	14.539
516.77	15.273
517.11	13.541
517.46	14.729
517.80	14.983
518.14	13.434
518.49	14.061
518.83	14.091
519.17	13.741
519.52	14.318
519.86	14.090
520.20	14.451
520.55	13.585
520.89	14.538
521.23	14.475
521.58	14.766
521.92	13.840
522.26	13.057
522.61	13.645
522.95	13.996
523.29	13.999
523.64	14.390
523.98	14.603
524.32	13.932
524.66	14.432
525.01	14.338
525.35	13.445
525.69	12.746
526.04	13.707
526.38	13.179
526.72	13.620
527.06	14.375
527.41	12.562
527.75	14.148
528.09	13.166
528.43	13.894
528.78	13.522
529.12	13.879
529.46	13.840
529.80	13.428
530.15	13.209
530.49	12.492
530.83	13.354
531.17	14.491
531.51	14.073
531.86	13.032
532.20	14.081
532.54	13.645
532.88	13.286
533.22	12.305
533.57	13.148
533.91	12.944
534.25	13.305
534.59	13.057
534.93	12.790
535.27	12.734
535.62	13.492
535.96	12.555
536.30	12.715
536.64	13.200
536.98	12.541
537.32	12.706
537.66	11.867
538.01	13.232
538.35	13.381
538.69	13.210
539.03	12.801
539.37	12.141
539.71	12.443
540.05	12.484
540.39	12.359
540.73	12.419
541.07	12.654
541.42	12.916
541.76	12.968
542.10	12.613
542.44	12.450
542.78	12.582
543.12	11.900
543.46	12.328
543.80	12.297
544.14	12.003
544.48	11.937
544.82	11.995
545.16	12.167
545.50	11.697
545.84	12.567
546.18	11.987
546.52	12.044
546.86	11.684
547.20	12.138
547.54	12.158
547.88	13.329
548.22	11.146
548.56	12.390
548.90	11.460
549.24	11.246
549.58	12.210
549.92	11.813
550.26	11.861
550.60	11.618
550.94	11.972
551.28	11.631
551.62	12.293
551.96	11.860
552.30	13.106
552.64	12.644
552.98	12.068
553.32	11.935
553.66	12.747
554.00	12.011
554.34	11.387
554.68	12.375
555.02	12.059
555.36	12.804
555.69	11.231
556.03	11.777
556.37	11.255
556.71	11.528
557.05	11.765
557.39	11.756
557.73	11.715
558.07	11.603
558.41	11.143
558.75	12.050
559.08	11.633
559.42	12.094
559.76	11.765
560.10	11.420
560.44	10.901
560.78	10.845
561.12	11.544
561.45	12.060
561.79	10.283
562.13	11.335
562.47	11.954
562.81	11.367
563.15	12.441
563.48	10.942
563.82	11.611
564.16	11.053
564.50	11.393
564.84	11.125
565.17	10.940
565.51	11.757
565.85	11.802
566.19	10.332
566.52	11.146
566.86	10.549
567.20	11.675
567.54	10.959
567.88	10.212
568.21	11.005
568.55	10.566
568.89	10.117
569.23	10.294
569.56	10.162
569.90	10.264
570.24	9.831
570.57	10.065
570.91	9.567
571.25	9.759
571.59	9.956
571.92	9.274
572.26	9.474
572.60	9.880
572.93	9.505
573.27	9.613
573.61	9.743
573.95	9.535
574.28	9.648
574.62	9.524
574.96	9.200
575.29	9.287
575.63	9.451
575.97	9.451
576.30	9.214
576.64	8.795
576.98	9.504
577.31	9.080
577.65	9.381
577.98	9.389
578.32	9.273
578.66	9.476
578.99	9.108
579.33	8.981
579.67	8.733
580.00	8.967
580.34	9.089
580.67	9.123
581.01	9.220
581.35	8.979
581.68	8.964
582.02	8.991
582.35	9.024
582.69	8.944
583.02	8.935
583.36	8.946
583.70	9.241
584.03	9.195
584.37	9.618
584.70	8.804
585.04	9.075
585.37	8.854
585.71	9.352
586.04	9.278
586.38	9.039
586.72	9.334
587.05	8.938
587.39	8.839
587.72	9.044
588.06	8.965
588.39	8.944
588.73	9.299
589.06	9.505
589.40	9.529
589.73	9.293
590.07	9.786
590.40	8.696
590.73	9.368
591.07	10.012
591.40	9.026
591.74	10.000
592.07	9.686
592.41	9.963
592.74	9.888
593.08	9.460
593.41	9.016
593.75	8.526
594.08	9.118
594.41	9.226
594.75	9.131
595.08	9.413
595.42	9.772
595.75	8.832
596.09	9.613
596.42	9.627
596.75	9.455
597.09	10.260
597.42	9.233
597.75	9.357
598.09	9.522
598.42	9.364
598.76	9.080
599.09	9.350
599.42	9.425
599.76	9.553
600.09	9.035
600.42	8.766
600.76	8.821
601.09	9.253
601.42	9.018
601.76	9.184
602.09	9.170
602.42	8.798
602.76	9.270
603.09	9.245
603.42	9.137
603.76	8.880
604.09	8.918
604.42	8.846
604.76	9.532
605.09	8.956
605.42	8.978
605.75	9.023
606.09	9.313
606.42	9.031
606.75	9.249
607.09	9.376
607.42	8.644
607.75	8.608
608.08	9.379
608.42	9.144
608.75	9.197
609.08	9.112
609.41	9.329
609.75	9.004
610.08	8.954
610.41	8.520
610.74	8.893
611.07	8.992
611.41	8.979
611.74	9.703
612.07	9.731
612.40	9.916
612.73	8.684
613.07	9.698
613.40	9.426
613.73	9.229
614.06	8.871
614.39	9.177
614.72	9.579
615.06	9.716
615.39	8.864
615.72	9.151
616.05	8.772
616.38	9.450
616.71	9.264
617.05	10.542
617.38	8.960
617.71	9.429
618.04	9.555
618.37	9.344
618.70	9.334
619.03	9.276
619.36	9.572
619.69	10.211
620.03	9.615
620.36	10.829
620.69	9.932
621.02	10.103
621.35	9.789
621.68	10.125
622.01	9.520
622.34	10.061
622.67	9.886
623.00	10.125
623.33	9.292
623.66	10.150
623.99	10.309
624.32	9.344
624.65	9.887
624.99	9.348
625.32	9.196
625.65	9.166
625.98	9.377
626.31	10.187
626.64	10.449
626.97	10.474
627.30	9.310
627.63	11.321
627.96	9.840
628.29	9.711
628.62	10.796
628.95	11.509
629.28	10.219
629.61	10.632
629.94	10.190
630.26	8.866
630.59	10.105
630.92	9.579
631.25	9.576
631.58	10.611
631.91	10.751
632.24	10.338
632.57	11.228
632.90	10.197
633.23	11.074
633.56	11.299
633.89	10.985
634.22	11.237
634.55	11.716
634.88	9.581
635.20	11.708
635.53	11.807
635.86	10.767
636.19	10.941
636.52	11.534
636.85	10.997
637.18	9.793
637.51	11.229
637.83	9.618
638.16	11.765
638.49	11.209
638.82	11.252
639.15	11.750
639.48	11.222
639.81	10.322
640.13	11.458
640.46	13.020
640.79	10.700
641.12	10.041
641.45	11.173
641.77	10.898
642.10	12.865
642.43	11.261
642.76	9.907
643.09	12.423
643.41	11.988
643.74	12.191
644.07	12.957
644.40	14.417
644.73	13.071
645.05	13.312
645.38	11.690
645.71	11.755
646.04	9.635
646.36	14.190
646.69	12.207
647.02	12.075
647.35	12.543
647.67	10.796
648.00	13.171
648.33	11.056
648.66	11.212
648.98	11.994
649.31	11.659
649.64	11.211
649.96	11.773
650.29	12.796
650.62	11.974
650.94	13.776
651.27	12.838
651.60	13.810
651.92	12.939
652.25	10.261
652.58	12.773
652.90	10.742
653.23	11.094
653.56	11.811
653.88	11.252
654.21	14.850
654.54	11.881
654.86	11.994
655.19	11.216
655.52	7.352
655.84	6.435
656.17	7.863
656.49	10.590
656.82	10.635
657.15	8.107
657.47	5.957
657.80	4.377
658.13	4.645
658.45	6.839
658.78	7.116
659.10	6.977
659.43	7.216
659.75	7.771
660.08	7.975
660.41	9.590
660.73	11.690
661.06	9.873
661.38	12.545
661.71	13.269
662.03	14.201
662.36	10.736
662.68	14.257
663.01	13.131
663.33	13.163
663.66	11.765
663.98	11.015
664.31	10.714
664.63	12.551
664.96	11.670
665.28	13.730
665.61	12.671
665.93	12.072
666.26	12.170
666.58	13.180
666.91	14.376
667.23	12.809
667.56	10.799
667.88	14.103
668.21	14.072
668.53	13.232
668.86	11.039
669.18	15.778
669.50	12.391
669.83	15.686
670.15	14.000
670.48	13.508
670.80	12.500
671.13	11.890
671.45	12.979
671.77	13.442
672.10	13.309
672.42	12.191
672.75	13.599
673.07	11.444
673.39	9.946
673.72	11.133
674.04	11.176
674.37	12.039
674.69	11.861
675.01	9.205
675.34	15.400
675.66	13.895
675.98	14.257
676.31	13.655
676.63	15.499
676.95	15.933
677.28	13.551
677.60	13.846
677.92	16.878
678.25	13.347
678.57	13.546
678.89	13.427
679.22	13.163
679.54	11.260
679.86	12.110
680.18	11.628
680.51	11.525
680.83	13.701
681.15	14.151
681.48	13.800
681.80	11.219
682.12	13.218
682.44	11.412
682.77	12.016
683.09	15.665
683.41	12.417
683.73	14.128
684.06	14.050
684.38	10.959
684.70	13.178
685.02	14.447
685.34	13.736
685.67	9.615
685.99	11.856
686.31	10.751
686.63	10.247
686.96	10.893
687.28	11.552
687.60	10.145
687.92	13.346
688.24	10.646
688.56	12.651
688.89	13.278
689.21	15.939
689.53	13.152
689.85	14.634
690.17	11.180
690.49	14.862
690.82	12.150
691.14	13.170
691.46	10.759
691.78	15.663
692.10	14.050
692.42	14.770
692.74	10.788
693.06	12.128
693.39	13.758
693.71	11.572
694.03	12.421
694.35	10.390
694.67	12.357
694.99	15.854
695.31	13.235
695.63	11.244
695.95	14.425
696.27	10.152
696.59	12.694
696.91	17.358
697.23	13.146
697.56	13.220
697.88	10.634
698.20	12.917
698.52	13.118
698.84	15.145
699.16	10.369
699.48	12.589
699.80	14.251
700.12	14.286
700.44	16.180
700.76	13.536
701.08	16.379
701.40	16.760
701.72	14.286
702.04	20.170
702.36	13.881
702.68	13.314
703.00	13.019
703.32	13.830
703.64	15.818
703.96	16.713
704.28	16.279
704.60	17.009
704.91	15.727
705.23	17.009
705.55	17.276
705.87	21.595
706.19	12.367
706.51	16.199
706.83	16.667
707.15	17.647
707.47	14.899
707.79	15.479
708.11	13.927
708.43	13.333
708.74	13.010
709.06	15.584
709.38	15.748
709.70	17.151
710.02	16.320
710.34	17.576
710.66	16.716
710.98	15.909
711.29	17.151
711.61	18.584
711.93	13.462
712.25	17.363
712.57	17.279
712.89	16.609
713.20	17.933
713.52	17.434
713.84	14.557
714.16	15.854
714.48	14.655
714.80	22.188
715.11	14.697
715.43	13.353
715.75	15.942
716.07	16.613
716.39	15.047
716.70	19.269
717.02	18.705
717.34	15.548
717.66	16.791
717.97	21.514
718.29	20.000
718.61	18.613
718.93	18.015
719.24	14.187
719.56	15.254
719.88	17.966
720.20	19.595
720.51	17.422
720.83	14.870
721.15	13.433
721.46	18.085
721.78	20.072
722.10	18.491
722.42	23.308
722.73	19.476
723.05	19.262
723.37	19.838
723.68	18.533
724.00	17.073
724.32	17.742
724.63	17.886
724.95	15.900
725.27	18.623
725.58	20.312
725.90	20.803
726.22	19.245
726.53	17.361
726.85	17.406
727.16	18.861
727.48	20.567
727.80	17.803
728.11	15.580
728.43	15.000
728.74	17.563
729.06	20.073
729.38	19.853
729.69	20.285
730.01	15.700
730.32	20.486
730.64	18.395
730.96	13.531
731.27	20.861
731.59	17.125
731.90	16.910
732.22	18.634
732.53	17.028
732.85	16.346
733.16	14.791
733.48	16.944
733.80	15.260
734.11	19.745
734.43	17.160
734.74	14.000
735.06	16.046
735.37	15.318
735.69	13.694
736.00	17.320
736.32	17.134
736.63	12.141
736.95	21.406
737.26	10.544
737.58	15.161
737.89	17.391
738.21	19.795
738.52	16.071
738.83	14.340
739.15	15.000
739.46	23.358
739.78	14.236
740.09	16.615
740.41	15.806
740.72	15.679
741.04	17.407
741.35	18.750
741.66	20.889
741.98	18.868
742.29	20.574
742.61	25.862
742.92	18.100
743.23	20.940
743.55	21.200
743.86	20.614
744.18	26.549
744.49	22.488
744.80	25.822
745.12	26.818
745.43	21.145
745.74	23.423
746.06	19.266
746.37	24.215
746.68	22.172
747.00	21.296
747.31	23.810
747.62	16.372
747.94	19.824
748.25	16.170
748.56	24.670
748.88	16.832
749.19	24.500
749.50	24.186
749.82	16.260
750.13	19.592
750.44	19.343
750.75	16.140
751.07	18.971
751.38	20.906
751.69	13.718
752.01	16.541
752.32	18.051
752.63	17.021
752.94	17.213
753.26	22.400
753.57	11.382
753.88	14.844
754.19	17.500
754.51	21.181
754.82	17.690
755.13	20.000
755.44	16.165
755.75	17.883
756.07	15.603
756.38	11.679
756.69	17.785
757.00	18.862
757.31	16.914
757.63	14.912
757.94	15.282
758.25	14.706
758.56	10.864
758.87	15.323
759.18	15.455
759.50	13.793
759.81	18.380
760.12	13.750
760.43	14.613
760.74	12.500
761.05	14.972
761.36	12.567
761.67	13.920
761.99	14.907
762.30	15.278
762.61	15.649
762.92	21.094
763.23	21.008
763.54	21.200
763.85	17.578
764.16	22.308
764.47	17.490
764.78	14.841
765.10	12.658
765.41	15.044
765.72	14.970
766.03	14.734
766.34	15.333
766.65	22.553
766.96	16.667
767.27	24.873
767.58	26.042
767.89	25.263
768.20	22.989
768.51	19.289
768.82	23.853
769.13	18.699
769.44	17.814
769.75	18.455
770.06	14.220
770.37	19.005
770.68	21.296
770.99	19.111
771.30	15.984
771.61	21.525
771.92	20.492
772.23	25.630
772.54	21.538
772.85	26.702
773.16	20.745
773.47	28.261
773.78	28.934
774.09	22.619
774.39	26.901
774.70	24.074
775.01	28.986
775.32	30.719
775.63	28.947
775.94	30.935
776.25	36.220
776.56	31.343
776.87	34.426
777.18	30.469
777.48	35.878
777.79	25.758
778.10	34.815
778.41	16.964
778.72	21.898
779.03	26.846
779.34	32.215
779.65	24.324
779.95	19.632
780.26	32.026
780.57	35.862
780.88	34.375
781.19	30.827
781.50	33.784
781.80	25.157
782.11	21.469
782.42	27.848
782.73	23.313
783.04	31.081
783.34	28.873
783.65	38.356
783.96	35.075
784.27	25.175
784.57	20.863
784.88	25.000
785.19	37.302
785.50	34.906
785.81	44.030
786.11	32.787
786.42	24.031
786.73	31.858
787.04	29.245
787.34	40.179
787.65	26.000
787.96	34.234
788.26	28.926
788.57	34.746
788.88	41.322
789.19	38.194
789.49	37.121
789.80	30.534
790.11	43.810
790.41	49.505
790.72	48.193
791.03	48.913
791.33	41.860
791.64	40.206
791.95	46.535
792.25	42.222
792.56	54.545
792.87	61.538
793.17	46.835
793.48	54.023
793.79	55.172
794.09	32.955
794.40	32.773
794.70	37.500
795.01	25.185
795.32	25.180
795.62	35.433
795.93	37.931
796.23	34.513
796.54	36.471
796.85	54.054
797.15	67.606
797.46	51.515
797.76	45.783
798.07	50.633
798.37	60.000
798.68	59.091
798.99	49.296
799.29	51.948
799.60	47.727
799.90	50.685
800.21	64.179
800.51	48.276
800.82	56.140
801.12	55.738
801.43	59.091
801.73	54.054
802.04	58.730
802.34	59.259
802.65	53.125
802.95	74.576
803.26	68.750
803.56	38.571
803.87	56.923
804.17	52.941
804.48	94.444
804.78	58.621
805.09	57.353
805.39	69.231
805.70	58.929
806.00	59.016
806.30	50.000
806.61	53.659
806.91	41.772
807.22	53.947
807.52	52.239
807.83	61.972
808.13	45.313
808.43	55.000
808.74	47.368
809.04	62.319
809.35	55.224
809.65	69.737
809.95	69.355
810.26	57.627
810.56	61.905
810.86	100.000
811.17	92.857
811.47	78.333
811.77	83.333
812.08	76.364
812.38	88.000
812.69	77.778
812.99	106.818
813.29	95.918
813.59	59.524
813.90	100.000
814.20	54.545
814.50	61.538
814.81	66.176
815.11	63.265
815.41	77.049
815.72	92.857
816.02	78.182
816.32	85.714
816.62	55.000
816.93	73.171
817.23	88.095
817.53	75.000
817.84	100.000
818.14	76.087
818.44	86.667
818.74	108.824
819.04	70.000
819.35	80.000
819.65	108.824
819.95	78.571
820.25	140.000
820.56	115.385
820.86	100.000
821.16	113.953
821.46	79.487
821.76	110.000
822.07	114.286
822.37	120.000
822.67	124.242
822.97	68.627
823.27	132.143
823.57	102.703
823.88	122.500
824.18	96.667
824.48	130.952
824.78	116.000
825.08	104.167
825.38	105.405
825.69	112.195
825.99	137.500
826.29	124.138
826.59	128.947
826.89	81.579
827.19	117.647
827.49	112.903
827.79	109.091
828.09	111.364
828.39	102.128
828.70	104.082
829.00	103.704
829.30	109.677
829.60	107.500
829.90	180.000
830.20	132.143
830.50	95.652
830.80	121.739
831.10	136.667
831.40	103.333
831.70	95.652
832.00	184.615
832.30	159.259
832.60	187.500
832.90	116.667
833.20	285.714
833.50	135.484
833.80	137.931
834.10	137.500
834.40	176.923
834.70	177.778
835.00	219.048
835.30	91.429
835.60	184.615
835.90	137.931
836.20	221.429
836.50	144.828
836.80	108.000
837.10	111.111
837.40	157.143
837.70	200.000
838.00	162.963
838.30	147.619
838.60	195.238
838.90	169.231
839.19	135.000
839.49	278.571
839.79	220.000
840.09	170.000
840.39	147.619
840.69	186.957
840.99	188.889
841.29	280.000
841.59	191.667
841.88	200.000
842.18	117.241
842.48	185.714
842.78	120.000
843.08	191.304
843.38	118.750
843.68	550.000
843.97	180.769
844.27	127.586
844.57	204.762
844.87	231.250
845.17	162.963
845.47	1166.667
845.76	322.222
846.06	217.647
846.36	287.500
846.66	257.143
846.96	225.000
847.25	190.909
847.55	227.273
847.85	178.261
848.15	310.000
848.44	221.429
848.74	144.444
849.04	235.294
849.34	410.000
849.63	131.579
849.93	318.182
850.23	680.000
850.53	342.857
850.82	1750.000
851.12	-2800.000
851.42	1900.000
851.71	210.000
852.01	-933.333
852.31	154.167
852.61	1066.667
852.90	176.190
853.20	180.000
853.50	223.529
853.79	185.714
854.09	120.833
854.39	200.000
854.68	118.919
854.98	129.032
855.28	133.333
855.57	141.379
855.87	148.148
856.17	115.789
856.46	140.000
856.76	164.706
857.05	144.828
857.35	150.000
857.65	246.667
857.94	208.696
858.24	192.308
858.53	230.000
858.83	172.727
859.13	246.667
859.42	0.000
859.72	422.222
860.01	318.182
860.31	163.636
860.60	200.000
860.90	173.913
861.20	411.111
861.49	425.000
861.79	-2100.000
862.08	375.000
862.38	185.714
862.67	246.154
862.97	188.235
863.26	322.222
863.56	155.556
863.85	333.333
864.15	475.000
864.44	266.667
864.74	500.000
865.03	375.000
865.33	178.947
865.62	236.364
865.92	353.846
866.21	233.333
866.51	0.000
866.80	263.636
867.10	880.000
867.39	276.923
867.69	318.182
867.98	147.368
868.27	254.545
868.57	231.579
868.86	-2400.000
869.16	256.250
869.45	1000.000
869.75	-3300.000
870.04	308.333
870.33	342.857
870.63	800.000
870.92	1750.000
871.22	514.286
871.51	241.176
871.80	119.048
872.10	200.000
>>>>>End Processed Spectral Data<<<<<
