SpectraSuite Data File
++++++++++++++++++++++++++++++++++++
Date: Wed May 13 20:45:29 PDT 2015
User: schluterlab
Dark Spectrum Present: Yes
Reference Spectrum Present: Yes
Number of Sampled Component Spectra: 1
Spectrometers: USB2E3373
Integration Time (usec): 3000 (USB2E3373)
Spectra Averaged: 3 (USB2E3373)
Boxcar Smoothing: 0 (USB2E3373)
Correct for Electrical Dark: No (USB2E3373)
Strobe/Lamp Enabled: No (USB2E3373)
Correct for Detector Non-linearity: No (USB2E3373)
Correct for Stray Light: No (USB2E3373)
Number of Pixels in Processed Spectrum: 2048
>>>>>Begin Processed Spectral Data<<<<<
178.53	0.000
178.91	-800.000
179.29	-800.000
179.67	-100.000
180.04	-775.000
180.42	1450.000
180.80	640.000
181.18	-700.000
181.56	300.000
181.94	0.000
182.31	-242.857
182.69	1266.667
183.07	-325.000
183.45	-244.444
183.83	300.000
184.20	-260.000
184.58	1500.000
184.96	3300.000
185.34	-380.000
185.72	-400.000
186.09	-1550.000
186.47	1850.000
186.85	1500.000
187.23	2800.000
187.61	-1133.333
187.98	1100.000
188.36	354.545
188.74	400.000
189.12	-580.000
189.49	340.000
189.87	-2900.000
190.25	-700.000
190.63	314.286
191.00	323.077
191.38	683.333
191.76	-700.000
192.14	1025.000
192.51	312.500
192.89	616.667
193.27	275.000
193.65	-825.000
194.02	350.000
194.40	580.000
194.78	380.000
195.15	375.000
195.53	440.000
195.91	-1400.000
196.29	275.000
196.66	247.368
197.04	-130.000
197.42	0.000
197.79	410.000
198.17	-3500.000
198.55	400.000
198.92	462.500
199.30	460.000
199.68	0.000
200.05	233.333
200.43	514.286
200.81	2200.000
201.18	1033.333
201.56	-966.667
201.94	322.222
202.31	322.222
202.69	291.667
203.07	380.000
203.44	0.000
203.82	700.000
204.19	600.000
204.57	285.714
204.95	362.500
205.32	1300.000
205.70	372.727
206.08	150.000
206.45	1700.000
206.83	256.250
207.20	583.333
207.58	320.000
207.96	227.778
208.33	550.000
208.71	-483.333
209.08	542.857
209.46	388.889
209.84	318.182
210.21	-700.000
210.59	1125.000
210.96	-237.500
211.34	2050.000
211.71	410.000
212.09	533.333
212.46	0.000
212.84	1033.333
213.22	675.000
213.59	-3000.000
213.97	500.000
214.34	528.571
214.72	390.909
215.09	960.000
215.47	-1250.000
215.84	-2000.000
216.22	966.667
216.59	271.429
216.97	725.000
217.34	327.273
217.72	-383.333
218.09	0.000
218.47	-3000.000
218.84	322.222
219.22	557.143
219.59	1066.667
219.97	-371.429
220.34	640.000
220.72	-1233.333
221.09	271.429
221.47	975.000
221.84	-616.667
222.22	0.000
222.59	750.000
222.97	-1550.000
223.34	860.000
223.72	292.308
224.09	740.000
224.46	1250.000
224.84	-3500.000
225.21	-640.000
225.59	-3800.000
225.96	460.000
226.34	215.000
226.71	2000.000
227.08	412.500
227.46	320.000
227.83	-1000.000
228.21	-1800.000
228.58	422.222
228.95	-1350.000
229.33	-1750.000
229.70	1033.333
230.08	500.000
230.45	-580.000
230.82	241.667
231.20	516.667
231.57	385.714
231.95	333.333
232.32	163.636
232.69	272.727
233.07	314.286
233.44	223.077
233.81	-1100.000
234.19	168.421
234.56	300.000
234.93	216.667
235.31	209.091
235.68	261.538
236.05	228.571
236.43	139.394
236.80	173.684
237.17	2900.000
237.55	166.667
237.92	153.571
238.29	204.762
238.67	112.903
239.04	172.414
239.41	100.000
239.79	71.739
240.16	95.238
240.53	86.364
240.91	74.510
241.28	80.000
241.65	64.000
242.02	75.362
242.40	58.065
242.77	63.333
243.14	55.914
243.51	64.045
243.89	51.765
244.26	43.333
244.63	38.710
245.00	48.936
245.38	45.545
245.75	48.598
246.12	42.202
246.49	45.255
246.87	40.000
247.24	46.923
247.61	44.286
247.98	39.869
248.36	41.892
248.73	43.312
249.10	43.312
249.47	37.853
249.84	35.829
250.22	34.225
250.59	34.911
250.96	38.889
251.33	38.863
251.70	38.614
252.08	29.524
252.45	33.632
252.82	31.739
253.19	32.340
253.56	29.020
253.94	33.195
254.31	32.031
254.68	35.385
255.05	28.782
255.42	32.114
255.79	34.926
256.16	32.852
256.54	28.975
256.91	33.452
257.28	30.216
257.65	33.333
258.02	29.814
258.39	28.707
258.76	31.104
259.14	25.595
259.51	30.699
259.88	29.503
260.25	28.701
260.62	27.457
260.99	28.261
261.36	29.730
261.73	28.080
262.10	27.035
262.47	29.296
262.85	27.298
263.22	23.932
263.59	28.490
263.96	29.121
264.33	27.154
264.70	28.947
265.07	27.877
265.44	26.010
265.81	27.007
266.18	30.402
266.55	29.756
266.92	23.587
267.29	26.852
267.66	27.523
268.03	24.318
268.40	25.234
268.77	24.105
269.14	26.802
269.51	24.605
269.88	27.972
270.25	25.282
270.62	25.843
270.99	27.742
271.36	26.609
271.73	23.598
272.10	27.391
272.47	26.882
272.84	24.892
273.21	26.205
273.58	25.983
273.95	24.738
274.32	23.554
274.69	24.625
275.06	24.606
275.43	25.319
275.80	24.048
276.17	24.033
276.54	25.364
276.91	25.692
277.28	23.633
277.65	23.791
278.02	22.360
278.39	24.609
278.76	23.455
279.13	24.717
279.50	22.905
279.87	25.896
280.23	22.954
280.60	22.437
280.97	22.736
281.34	24.956
281.71	24.545
282.08	25.720
282.45	23.091
282.82	24.156
283.19	21.747
283.56	22.456
283.92	23.181
284.29	24.868
284.66	24.501
285.03	20.615
285.40	20.599
285.77	22.559
286.14	23.489
286.51	22.167
286.87	23.590
287.24	24.104
287.61	21.830
287.98	24.513
288.35	22.662
288.72	21.495
289.08	23.005
289.45	20.593
289.82	21.463
290.19	21.821
290.56	22.052
290.93	19.789
291.29	21.626
291.66	20.501
292.03	22.674
292.40	20.999
292.77	20.118
293.13	20.746
293.50	19.825
293.87	20.148
294.24	18.667
294.60	20.378
294.97	18.895
295.34	19.887
295.71	19.176
296.08	18.946
296.44	17.607
296.81	18.098
297.18	19.919
297.55	16.491
297.91	18.074
298.28	20.214
298.65	20.104
299.02	18.577
299.38	16.999
299.75	16.981
300.12	17.241
300.48	18.625
300.85	17.263
301.22	17.197
301.59	16.919
301.95	19.521
302.32	17.587
302.69	16.965
303.05	16.364
303.42	15.802
303.79	16.874
304.15	16.550
304.52	17.149
304.89	17.073
305.25	16.821
305.62	17.554
305.99	17.001
306.35	17.114
306.72	18.610
307.09	17.647
307.45	17.005
307.82	16.295
308.19	16.777
308.55	17.260
308.92	16.971
309.29	17.107
309.65	17.285
310.02	17.019
310.38	17.742
310.75	17.846
311.12	17.298
311.48	18.600
311.85	19.287
312.22	17.586
312.58	16.840
312.95	18.479
313.31	17.573
313.68	18.295
314.05	20.513
314.41	19.095
314.78	17.422
315.14	19.563
315.51	19.258
315.87	20.000
316.24	19.662
316.61	20.273
316.97	19.569
317.34	20.939
317.70	21.893
318.07	20.500
318.43	21.526
318.80	22.680
319.16	23.258
319.53	23.077
319.89	23.429
320.26	24.200
320.62	23.710
320.99	24.545
321.35	24.848
321.72	26.694
322.08	26.357
322.45	27.264
322.81	27.713
323.18	27.457
323.54	28.664
323.91	29.811
324.27	29.924
324.64	29.916
325.00	31.109
325.37	32.484
325.73	33.573
326.10	33.804
326.46	32.527
326.83	34.944
327.19	34.073
327.56	38.153
327.92	36.745
328.29	38.332
328.65	38.122
329.01	39.801
329.38	38.945
329.74	39.889
330.11	41.282
330.47	39.761
330.84	41.452
331.20	41.075
331.56	41.560
331.93	43.056
332.29	43.478
332.66	43.186
333.02	42.596
333.38	43.541
333.75	43.939
334.11	44.039
334.48	44.454
334.84	46.140
335.20	45.364
335.57	44.334
335.93	44.643
336.29	45.879
336.66	46.438
337.02	46.335
337.38	46.759
337.75	45.187
338.11	46.732
338.47	46.501
338.84	47.021
339.20	45.872
339.56	48.814
339.93	46.818
340.29	47.464
340.65	46.524
341.02	48.255
341.38	48.399
341.74	48.947
342.11	49.607
342.47	49.692
342.83	48.801
343.20	50.476
343.56	48.526
343.92	50.175
344.28	49.405
344.65	50.387
345.01	49.074
345.37	50.772
345.73	50.846
346.10	50.469
346.46	50.339
346.82	50.247
347.19	50.794
347.55	50.821
347.91	52.508
348.27	50.698
348.63	51.087
349.00	51.699
349.36	51.806
349.72	53.408
350.08	52.674
350.45	52.807
350.81	53.371
351.17	53.728
351.53	53.317
351.89	52.723
352.26	54.144
352.62	53.408
352.98	52.188
353.34	53.164
353.70	54.010
354.07	54.194
354.43	53.492
354.79	52.212
355.15	52.833
355.51	54.836
355.87	54.041
356.24	54.967
356.60	53.408
356.96	55.109
357.32	54.620
357.68	54.567
358.04	54.949
358.40	55.028
358.77	55.712
359.13	55.485
359.49	54.431
359.85	55.079
360.21	55.502
360.57	54.942
360.93	55.923
361.29	55.556
361.66	54.567
362.02	55.522
362.38	56.730
362.74	56.473
363.10	54.404
363.46	56.346
363.82	56.614
364.18	55.874
364.54	56.686
364.90	56.374
365.26	56.838
365.62	57.706
365.98	55.369
366.35	55.301
366.71	57.195
367.07	56.810
367.43	57.402
367.79	58.030
368.15	56.825
368.51	55.596
368.87	57.530
369.23	57.571
369.59	57.712
369.95	56.912
370.31	56.553
370.67	55.797
371.03	57.903
371.39	57.580
371.75	57.574
372.11	56.899
372.47	59.091
372.83	59.150
373.19	57.948
373.55	58.610
373.91	58.100
374.27	55.808
374.63	58.255
374.99	58.475
375.35	57.711
375.71	57.300
376.07	57.407
376.42	58.803
376.78	57.522
377.14	59.023
377.50	58.278
377.86	57.314
378.22	57.206
378.58	56.266
378.94	56.505
379.30	58.651
379.66	59.327
380.02	59.152
380.38	57.316
380.74	58.523
381.09	58.557
381.45	59.127
381.81	59.705
382.17	58.662
382.53	58.679
382.89	59.321
383.25	58.099
383.61	59.851
383.97	57.036
384.32	57.517
384.68	56.629
385.04	57.591
385.40	59.071
385.76	58.538
386.12	58.744
386.48	59.283
386.83	59.974
387.19	59.864
387.55	59.060
387.91	58.404
388.27	58.553
388.62	57.837
388.98	58.477
389.34	59.011
389.70	59.289
390.06	58.682
390.42	58.949
390.77	58.079
391.13	60.243
391.49	57.424
391.85	58.625
392.20	57.918
392.56	58.207
392.92	57.799
393.28	57.811
393.64	58.813
393.99	58.033
394.35	58.809
394.71	58.469
395.07	56.511
395.42	58.405
395.78	58.015
396.14	56.797
396.50	58.897
396.85	58.169
397.21	56.905
397.57	57.347
397.92	58.714
398.28	57.063
398.64	57.587
399.00	57.527
399.35	56.966
399.71	58.102
400.07	57.836
400.42	57.607
400.78	57.720
401.14	58.598
401.49	58.149
401.85	56.745
402.21	55.928
402.57	57.680
402.92	58.008
403.28	57.839
403.63	57.921
403.99	57.962
404.35	57.697
404.70	57.974
405.06	57.426
405.42	57.767
405.77	55.371
406.13	55.474
406.49	57.422
406.84	55.700
407.20	56.087
407.55	56.541
407.91	56.800
408.27	56.031
408.62	54.726
408.98	56.311
409.34	56.027
409.69	56.000
410.05	56.568
410.40	55.046
410.76	57.168
411.11	54.946
411.47	55.783
411.83	54.918
412.18	54.545
412.54	55.355
412.89	54.819
413.25	55.549
413.60	56.208
413.96	53.673
414.31	54.982
414.67	55.957
415.03	55.629
415.38	54.639
415.74	54.469
416.09	53.886
416.45	53.280
416.80	54.197
417.16	55.697
417.51	55.541
417.87	54.335
418.22	54.511
418.58	53.906
418.93	55.283
419.29	53.660
419.64	53.715
420.00	53.841
420.35	54.609
420.71	54.035
421.06	53.819
421.42	53.450
421.77	52.747
422.12	52.274
422.48	53.319
422.83	53.757
423.19	52.376
423.54	53.743
423.90	52.696
424.25	52.652
424.61	51.607
424.96	53.644
425.31	53.045
425.67	51.292
426.02	52.514
426.38	54.274
426.73	51.375
427.09	53.252
427.44	52.789
427.79	51.811
428.15	52.381
428.50	52.428
428.85	51.847
429.21	51.353
429.56	51.788
429.92	51.434
430.27	51.738
430.62	50.282
430.98	51.946
431.33	50.619
431.68	52.775
432.04	49.840
432.39	51.285
432.74	50.928
433.10	51.783
433.45	51.254
433.80	51.441
434.16	51.229
434.51	50.053
434.86	50.627
435.22	51.140
435.57	51.185
435.92	50.556
436.28	51.246
436.63	49.779
436.98	49.456
437.34	51.044
437.69	50.700
438.04	50.028
438.39	49.493
438.75	50.784
439.10	49.888
439.45	49.410
439.81	50.091
440.16	49.238
440.51	50.088
440.86	50.550
441.22	49.221
441.57	50.212
441.92	49.539
442.27	49.462
442.63	48.920
442.98	50.310
443.33	49.022
443.68	48.735
444.03	48.316
444.39	48.978
444.74	47.998
445.09	48.787
445.44	48.824
445.79	47.600
446.15	47.803
446.50	47.173
446.85	47.379
447.20	48.241
447.55	49.079
447.91	48.097
448.26	48.303
448.61	48.502
448.96	47.896
449.31	48.538
449.66	47.214
450.02	46.797
450.37	46.599
450.72	46.926
451.07	47.044
451.42	47.112
451.77	47.093
452.12	46.767
452.47	46.206
452.83	47.086
453.18	46.760
453.53	45.887
453.88	45.895
454.23	46.503
454.58	46.396
454.93	46.726
455.28	46.446
455.63	46.602
455.98	47.083
456.34	46.796
456.69	46.149
457.04	46.440
457.39	46.289
457.74	44.922
458.09	46.291
458.44	44.755
458.79	44.252
459.14	45.655
459.49	44.542
459.84	44.986
460.19	44.490
460.54	43.924
460.89	44.487
461.24	46.205
461.59	45.555
461.94	44.513
462.29	45.163
462.64	44.288
462.99	43.982
463.34	45.533
463.69	44.590
464.04	44.522
464.39	42.783
464.74	44.385
465.09	43.848
465.44	43.601
465.79	42.897
466.14	42.967
466.49	43.215
466.84	43.724
467.19	43.452
467.54	42.500
467.89	42.497
468.24	42.874
468.59	43.162
468.94	42.395
469.29	43.252
469.64	41.566
469.99	42.760
470.34	41.678
470.68	43.103
471.03	41.905
471.38	42.391
471.73	42.638
472.08	43.026
472.43	41.394
472.78	41.540
473.13	42.555
473.48	41.573
473.83	41.463
474.17	41.008
474.52	41.377
474.87	42.090
475.22	41.149
475.57	41.053
475.92	40.627
476.27	40.530
476.61	41.423
476.96	40.792
477.31	40.345
477.66	40.317
478.01	39.101
478.36	41.142
478.70	39.772
479.05	41.693
479.40	40.379
479.75	40.468
480.10	39.960
480.45	39.791
480.79	39.465
481.14	40.656
481.49	39.962
481.84	38.866
482.19	39.346
482.53	39.495
482.88	39.832
483.23	38.785
483.58	39.581
483.92	39.082
484.27	38.301
484.62	38.534
484.97	38.786
485.31	37.671
485.66	37.070
486.01	37.712
486.36	37.512
486.70	37.610
487.05	37.280
487.40	37.130
487.75	36.637
488.09	36.488
488.44	35.524
488.79	37.288
489.13	36.631
489.48	36.909
489.83	36.901
490.17	37.615
490.52	37.024
490.87	37.042
491.22	37.608
491.56	37.267
491.91	37.134
492.26	37.529
492.60	36.820
492.95	36.763
493.30	37.336
493.64	36.818
493.99	36.490
494.34	36.633
494.68	37.271
495.03	37.218
495.37	36.296
495.72	36.598
496.07	37.216
496.41	34.956
496.76	36.324
497.11	36.515
497.45	36.283
497.80	36.468
498.14	36.280
498.49	36.098
498.84	36.337
499.18	36.190
499.53	36.040
499.87	36.300
500.22	35.139
500.56	36.214
500.91	35.721
501.26	35.514
501.60	36.592
501.95	36.297
502.29	36.785
502.64	36.499
502.98	34.876
503.33	35.740
503.67	35.916
504.02	35.641
504.36	35.049
504.71	35.613
505.06	35.036
505.40	35.002
505.75	34.233
506.09	34.548
506.44	35.274
506.78	35.119
507.13	35.083
507.47	35.707
507.82	35.056
508.16	35.968
508.51	36.327
508.85	35.055
509.19	35.918
509.54	35.051
509.88	34.724
510.23	34.704
510.57	36.068
510.92	34.542
511.26	34.327
511.61	35.218
511.95	34.603
512.30	34.836
512.64	33.530
512.98	34.727
513.33	33.887
513.67	33.885
514.02	33.496
514.36	34.517
514.70	34.532
515.05	34.300
515.39	33.932
515.74	34.347
516.08	34.377
516.42	34.850
516.77	34.950
517.11	33.518
517.46	34.537
517.80	32.869
518.14	33.990
518.49	34.072
518.83	34.716
519.17	34.527
519.52	33.899
519.86	34.170
520.20	33.295
520.55	34.710
520.89	33.455
521.23	34.077
521.58	33.974
521.92	34.538
522.26	33.496
522.61	34.642
522.95	33.763
523.29	33.354
523.64	33.537
523.98	33.888
524.32	33.414
524.66	34.155
525.01	33.395
525.35	32.838
525.69	32.820
526.04	32.960
526.38	33.435
526.72	32.883
527.06	33.522
527.41	31.807
527.75	32.990
528.09	34.168
528.43	33.461
528.78	34.542
529.12	32.303
529.46	33.007
529.80	33.354
530.15	32.648
530.49	31.938
530.83	32.975
531.17	33.355
531.51	33.333
531.86	33.290
532.20	33.898
532.54	33.248
532.88	33.504
533.22	31.855
533.57	32.531
533.91	32.450
534.25	32.564
534.59	32.215
534.93	32.183
535.27	31.986
535.62	32.051
535.96	31.764
536.30	32.231
536.64	31.359
536.98	32.714
537.32	31.863
537.66	31.733
538.01	32.587
538.35	32.062
538.69	32.929
539.03	32.099
539.37	30.288
539.71	30.331
540.05	32.222
540.39	30.631
540.73	31.436
541.07	32.641
541.42	31.181
541.76	32.839
542.10	31.695
542.44	32.119
542.78	31.489
543.12	30.646
543.46	31.672
543.80	32.141
544.14	30.231
544.48	31.302
544.82	31.751
545.16	32.010
545.50	30.077
545.84	31.183
546.18	31.919
546.52	31.315
546.86	31.409
547.20	31.760
547.54	31.329
547.88	32.079
548.22	30.697
548.56	31.132
548.90	30.282
549.24	30.572
549.58	31.173
549.92	31.113
550.26	30.398
550.60	29.876
550.94	31.479
551.28	29.115
551.62	31.129
551.96	30.456
552.30	31.263
552.64	30.967
552.98	31.390
553.32	29.939
553.66	31.629
554.00	30.611
554.34	29.331
554.68	31.688
555.02	29.478
555.36	30.759
555.69	29.635
556.03	29.542
556.37	30.832
556.71	29.400
557.05	30.322
557.39	31.141
557.73	30.416
558.07	30.892
558.41	30.753
558.75	31.080
559.08	30.350
559.42	30.008
559.76	30.294
560.10	30.264
560.44	29.071
560.78	29.607
561.12	29.617
561.45	30.639
561.79	29.334
562.13	28.840
562.47	29.440
562.81	30.265
563.15	29.833
563.48	29.509
563.82	29.419
564.16	29.627
564.50	28.841
564.84	29.962
565.17	29.215
565.51	29.776
565.85	30.330
566.19	28.303
566.52	29.829
566.86	28.451
567.20	29.658
567.54	29.338
567.88	28.300
568.21	28.836
568.55	29.221
568.89	28.891
569.23	27.897
569.56	27.409
569.90	28.377
570.24	28.489
570.57	28.052
570.91	27.117
571.25	27.116
571.59	27.187
571.92	26.959
572.26	27.672
572.60	27.267
572.93	27.166
573.27	27.181
573.61	27.080
573.95	26.977
574.28	26.357
574.62	26.822
574.96	26.547
575.29	26.358
575.63	26.397
575.97	26.295
576.30	26.288
576.64	26.181
576.98	26.446
577.31	26.225
577.65	26.754
577.98	26.578
578.32	25.933
578.66	26.017
578.99	26.227
579.33	26.337
579.67	25.663
580.00	25.941
580.34	26.364
580.67	26.306
581.01	26.085
581.35	25.874
581.68	25.981
582.02	25.713
582.35	26.112
582.69	26.056
583.02	26.177
583.36	26.193
583.70	25.799
584.03	25.470
584.37	26.166
584.70	25.444
585.04	25.342
585.37	25.955
585.71	25.940
586.04	25.997
586.38	26.071
586.72	26.457
587.05	25.727
587.39	25.224
587.72	25.895
588.06	26.067
588.39	25.926
588.73	25.755
589.06	25.615
589.40	26.229
589.73	25.695
590.07	26.762
590.40	25.685
590.73	26.034
591.07	26.618
591.40	26.107
591.74	27.316
592.07	25.524
592.41	26.664
592.74	26.255
593.08	25.583
593.41	26.131
593.75	25.765
594.08	25.947
594.41	25.981
594.75	25.767
595.08	25.913
595.42	25.884
595.75	25.570
596.09	26.173
596.42	26.444
596.75	25.623
597.09	26.320
597.42	25.211
597.75	26.261
598.09	25.478
598.42	26.031
598.76	25.375
599.09	25.010
599.42	25.691
599.76	26.025
600.09	25.537
600.42	25.639
600.76	25.357
601.09	25.392
601.42	25.419
601.76	25.085
602.09	24.625
602.42	25.438
602.76	25.433
603.09	25.413
603.42	25.185
603.76	25.419
604.09	24.932
604.42	25.194
604.76	25.896
605.09	25.513
605.42	25.310
605.75	25.166
606.09	25.132
606.42	24.969
606.75	25.715
607.09	25.241
607.42	24.476
607.75	24.430
608.08	25.749
608.42	25.146
608.75	25.023
609.08	24.792
609.41	24.893
609.75	25.393
610.08	24.694
610.41	24.814
610.74	25.071
611.07	25.889
611.41	25.810
611.74	25.540
612.07	26.346
612.40	25.498
612.73	25.632
613.07	25.269
613.40	24.908
613.73	24.541
614.06	25.591
614.39	25.118
614.72	25.947
615.06	25.630
615.39	24.841
615.72	25.511
616.05	24.402
616.38	25.514
616.71	25.950
617.05	26.266
617.38	25.376
617.71	25.946
618.04	25.481
618.37	25.488
618.70	25.887
619.03	26.053
619.36	25.730
619.69	25.493
620.03	26.511
620.36	25.936
620.69	26.233
621.02	25.885
621.35	25.059
621.68	25.234
622.01	25.077
622.34	25.870
622.67	26.160
623.00	25.092
623.33	25.375
623.66	25.804
623.99	26.510
624.32	25.820
624.65	25.777
624.99	25.567
625.32	24.547
625.65	25.244
625.98	26.287
626.31	26.361
626.64	25.714
626.97	26.434
627.30	25.104
627.63	25.759
627.96	25.988
628.29	26.247
628.62	27.447
628.95	27.358
629.28	26.916
629.61	27.406
629.94	23.905
630.26	25.834
630.59	26.215
630.92	26.245
631.25	26.851
631.58	25.225
631.91	24.949
632.24	26.266
632.57	27.597
632.90	27.083
633.23	26.286
633.56	28.249
633.89	28.426
634.22	26.561
634.55	26.509
634.88	26.707
635.20	26.045
635.53	26.386
635.86	26.856
636.19	25.882
636.52	26.644
636.85	26.460
637.18	25.576
637.51	27.305
637.83	23.674
638.16	26.982
638.49	27.834
638.82	30.215
639.15	28.250
639.48	28.055
639.81	27.480
640.13	27.083
640.46	27.919
640.79	25.892
641.12	26.410
641.45	27.514
641.77	29.455
642.10	28.509
642.43	28.078
642.76	27.245
643.09	26.227
643.41	28.225
643.74	28.549
644.07	26.829
644.40	26.687
644.73	28.976
645.05	29.794
645.38	28.120
645.71	27.214
646.04	27.907
646.36	29.215
646.69	29.766
647.02	26.701
647.35	28.179
647.67	27.611
648.00	29.919
648.33	26.898
648.66	25.606
648.98	28.786
649.31	26.457
649.64	26.308
649.96	26.826
650.29	26.066
650.62	26.214
650.94	27.066
651.27	29.392
651.60	28.952
651.92	27.636
652.25	25.570
652.58	28.505
652.90	27.962
653.23	27.273
653.56	28.976
653.88	26.783
654.21	27.014
654.54	25.908
654.86	26.324
655.19	25.541
655.52	21.817
655.84	21.019
656.17	26.433
656.49	35.316
656.82	35.070
657.15	26.094
657.47	18.949
657.80	13.988
658.13	14.540
658.45	20.973
658.78	20.294
659.10	20.534
659.43	20.762
659.75	20.634
660.08	22.025
660.41	23.464
660.73	25.159
661.06	26.115
661.38	27.818
661.71	27.692
662.03	29.586
662.36	28.032
662.68	27.510
663.01	25.657
663.33	29.087
663.66	30.252
663.98	30.238
664.31	28.571
664.63	28.138
664.96	24.346
665.28	28.689
665.61	25.926
665.93	27.767
666.26	27.789
666.58	24.268
666.91	29.175
667.23	31.011
667.56	25.702
667.88	29.274
668.21	27.292
668.53	27.983
668.86	27.922
669.18	30.917
669.50	25.435
669.83	29.630
670.15	28.667
670.48	28.322
670.80	27.371
671.13	31.210
671.45	29.149
671.77	28.717
672.10	28.835
672.42	28.445
672.75	26.202
673.07	25.176
673.39	26.763
673.72	27.148
674.04	27.059
674.37	26.990
674.69	26.585
675.01	29.707
675.34	30.595
675.66	30.316
675.98	28.921
676.31	30.252
676.63	28.875
676.95	27.044
677.28	26.869
677.60	25.275
677.92	28.692
678.25	27.310
678.57	27.092
678.89	25.852
679.22	26.719
679.54	28.817
679.86	29.908
680.18	28.623
680.51	26.064
680.83	25.623
681.15	25.660
681.48	26.843
681.80	25.145
682.12	26.054
682.44	25.919
682.77	28.921
683.09	32.403
683.41	29.712
683.73	29.581
684.06	27.893
684.38	28.767
684.70	28.682
685.02	28.143
685.34	27.289
685.67	23.427
685.99	26.460
686.31	27.304
686.63	23.675
686.96	25.536
687.28	25.632
687.60	25.362
687.92	27.239
688.24	26.236
688.56	29.920
688.89	28.631
689.21	26.419
689.53	26.931
689.85	31.264
690.17	27.536
690.49	28.450
690.82	28.037
691.14	25.893
691.46	27.637
691.78	27.912
692.10	30.372
692.42	27.745
692.74	24.689
693.06	29.362
693.39	26.078
693.71	27.293
694.03	28.421
694.35	25.108
694.67	26.773
694.99	28.537
695.31	28.676
695.63	27.751
695.95	27.384
696.27	26.396
696.59	27.202
696.91	26.425
697.23	25.587
697.56	27.932
697.88	25.562
698.20	27.500
698.52	27.097
698.84	28.508
699.16	25.346
699.48	28.266
699.80	28.261
700.12	29.870
700.44	29.178
700.76	30.110
701.08	27.586
701.40	28.212
701.72	31.778
702.04	29.830
702.36	23.229
702.68	27.762
703.00	27.978
703.32	28.989
703.64	29.759
703.96	30.084
704.28	30.233
704.60	30.205
704.91	30.267
705.23	26.979
705.55	33.555
705.87	30.233
706.19	30.389
706.51	29.283
706.83	30.909
707.15	30.252
707.47	26.263
707.79	28.256
708.11	28.311
708.43	29.524
708.74	26.786
709.06	30.130
709.38	25.984
709.70	28.779
710.02	33.234
710.34	26.667
710.66	29.851
710.98	25.852
711.29	29.651
711.61	29.499
711.93	28.205
712.25	31.833
712.57	28.309
712.89	28.028
713.20	31.003
713.52	31.908
713.84	28.481
714.16	31.098
714.48	29.023
714.80	28.267
715.11	29.395
715.43	30.861
715.75	26.667
716.07	29.393
716.39	29.467
716.70	32.558
717.02	30.935
717.34	28.975
717.66	35.448
717.97	33.865
718.29	26.296
718.61	30.292
718.93	33.088
719.24	31.488
719.56	30.847
719.88	30.847
720.20	31.419
720.51	27.526
720.83	34.572
721.15	29.478
721.46	28.723
721.78	31.900
722.10	27.547
722.42	31.955
722.73	31.461
723.05	30.328
723.37	27.126
723.68	31.660
724.00	26.829
724.32	33.065
724.63	31.707
724.95	33.054
725.27	33.198
725.58	35.547
725.90	35.036
726.22	29.434
726.53	27.778
726.85	32.082
727.16	29.537
727.48	29.433
727.80	26.894
728.11	34.058
728.43	27.308
728.74	26.882
729.06	30.657
729.38	34.559
729.69	36.299
730.01	27.986
730.32	29.861
730.64	28.094
730.96	27.723
731.27	32.450
731.59	29.358
731.90	27.405
732.22	28.882
732.53	26.935
732.85	28.526
733.16	27.010
733.48	29.236
733.80	30.844
734.11	27.707
734.43	26.923
734.74	26.857
735.06	28.367
735.37	30.925
735.69	29.299
736.00	29.739
736.32	30.218
736.63	26.518
736.95	30.351
737.26	23.129
737.58	30.323
737.89	29.097
738.21	30.034
738.52	27.857
738.83	23.396
739.15	32.692
739.46	33.212
739.78	28.819
740.09	31.385
740.41	30.968
740.72	26.132
741.04	28.519
741.35	30.833
741.66	36.000
741.98	28.774
742.29	31.579
742.61	32.328
742.92	33.032
743.23	28.632
743.55	33.200
743.86	30.702
744.18	37.611
744.49	31.100
744.80	33.333
745.12	35.000
745.43	34.361
745.74	26.577
746.06	31.193
746.37	37.220
746.68	23.982
747.00	31.944
747.31	34.762
747.62	28.761
747.94	29.956
748.25	26.383
748.56	38.326
748.88	33.168
749.19	37.000
749.50	32.558
749.82	28.455
750.13	24.898
750.44	31.022
750.75	29.474
751.07	32.797
751.38	28.571
751.69	28.159
752.01	27.820
752.32	24.910
752.63	28.014
752.94	31.557
753.26	36.400
753.57	28.455
753.88	32.812
754.19	29.286
754.51	34.028
754.82	24.910
755.13	29.057
755.44	25.564
755.75	27.007
756.07	27.660
756.38	27.737
756.69	28.523
757.00	27.545
757.31	28.190
757.63	26.901
757.94	27.078
758.25	27.941
758.56	25.679
758.87	26.344
759.18	32.121
759.50	25.705
759.81	27.103
760.12	25.000
760.43	30.659
760.74	30.163
761.05	29.661
761.36	28.610
761.67	25.568
761.99	29.814
762.30	33.333
762.61	30.153
762.92	34.375
763.23	33.613
763.54	34.000
763.85	30.469
764.16	33.077
764.47	30.798
764.78	28.269
765.10	23.101
765.41	29.204
765.72	27.545
766.03	27.900
766.34	27.000
766.65	33.617
766.96	31.624
767.27	34.010
767.58	31.771
767.89	32.105
768.20	29.885
768.51	34.518
768.82	31.651
769.13	31.301
769.44	26.721
769.75	27.039
770.06	22.936
770.37	31.222
770.68	32.407
770.99	30.222
771.30	27.049
771.61	30.045
771.92	30.738
772.23	36.555
772.54	31.282
772.85	30.890
773.16	34.574
773.47	37.500
773.78	42.132
774.09	27.381
774.39	34.503
774.70	30.864
775.01	37.681
775.32	46.405
775.63	35.526
775.94	33.813
776.25	47.244
776.56	42.537
776.87	40.984
777.18	37.500
777.48	43.511
777.79	38.636
778.10	33.333
778.41	39.286
778.72	37.226
779.03	40.940
779.34	41.611
779.65	32.432
779.95	39.264
780.26	43.791
780.57	43.448
780.88	43.750
781.19	45.113
781.50	47.297
781.80	32.704
782.11	36.723
782.42	34.810
782.73	36.810
783.04	39.865
783.34	42.958
783.65	52.055
783.96	37.313
784.27	32.168
784.57	33.094
784.88	38.889
785.19	45.238
785.50	42.453
785.81	42.537
786.11	47.541
786.42	38.760
786.73	29.204
787.04	53.774
787.34	43.750
787.65	55.000
787.96	45.045
788.26	39.669
788.57	50.847
788.88	50.413
789.19	40.972
789.49	43.182
789.80	48.855
790.11	60.000
790.41	49.505
790.72	39.759
791.03	44.565
791.33	60.465
791.64	59.794
791.95	58.416
792.25	50.000
792.56	53.247
792.87	65.385
793.17	68.354
793.48	57.471
793.79	57.471
794.09	56.818
794.40	47.059
794.70	45.588
795.01	42.222
795.32	36.691
795.62	44.882
795.93	45.690
796.23	38.053
796.54	52.941
796.85	59.459
797.15	64.789
797.46	56.061
797.76	72.289
798.07	53.165
798.37	56.923
798.68	57.576
798.99	35.211
799.29	50.649
799.60	44.318
799.90	65.753
800.21	61.194
800.51	74.138
800.82	84.211
801.12	67.213
801.43	68.182
801.73	50.000
802.04	68.254
802.34	55.556
802.65	65.625
802.95	94.915
803.26	84.375
803.56	62.857
803.87	50.769
804.17	73.529
804.48	83.333
804.78	68.966
805.09	61.765
805.39	51.923
805.70	53.571
806.00	60.656
806.30	60.606
806.61	62.195
806.91	46.835
807.22	56.579
807.52	37.313
807.83	56.338
808.13	62.500
808.43	78.333
808.74	61.842
809.04	81.159
809.35	67.164
809.65	57.895
809.95	85.484
810.26	72.881
810.56	82.540
810.86	97.727
811.17	97.619
811.47	76.667
811.77	59.259
812.08	76.364
812.38	78.000
812.69	100.000
812.99	118.182
813.29	79.592
813.59	54.762
813.90	97.959
814.20	70.909
814.50	69.231
814.81	54.412
815.11	81.633
815.41	62.295
815.72	90.476
816.02	70.909
816.32	92.857
816.62	77.500
816.93	80.488
817.23	107.143
817.53	84.091
817.84	115.152
818.14	89.130
818.44	100.000
818.74	111.765
819.04	85.000
819.35	114.286
819.65	100.000
819.95	92.857
820.25	105.000
820.56	117.949
820.86	77.273
821.16	104.651
821.46	84.615
821.76	96.000
822.07	105.714
822.37	122.500
822.67	96.970
822.97	76.471
823.27	142.857
823.57	94.595
823.88	110.000
824.18	90.000
824.48	109.524
824.78	164.000
825.08	129.167
825.38	94.595
825.69	100.000
825.99	129.167
826.29	100.000
826.59	105.263
826.89	107.895
827.19	117.647
827.49	109.677
827.79	86.364
828.09	90.909
828.39	74.468
828.70	87.755
829.00	77.778
829.30	87.097
829.60	112.500
829.90	186.667
830.20	132.143
830.50	147.826
830.80	143.478
831.10	106.667
831.40	126.667
831.70	73.913
832.00	142.308
832.30	81.481
832.60	156.250
832.90	133.333
833.20	292.857
833.50	119.355
833.80	113.793
834.10	159.375
834.40	180.769
834.70	133.333
835.00	204.762
835.30	120.000
835.60	123.077
835.90	117.241
836.20	135.714
836.50	131.034
836.80	80.000
837.10	119.444
837.40	195.238
837.70	194.118
838.00	177.778
838.30	152.381
838.60	200.000
838.90	169.231
839.19	170.000
839.49	307.143
839.79	220.000
840.09	185.000
840.39	195.238
840.69	191.304
840.99	183.333
841.29	360.000
841.59	200.000
841.88	187.500
842.18	144.828
842.48	161.905
842.78	96.667
843.08	160.870
843.38	125.000
843.68	600.000
843.97	150.000
844.27	124.138
844.57	200.000
844.87	243.750
845.17	174.074
845.47	966.667
845.76	288.889
846.06	247.059
846.36	387.500
846.66	242.857
846.96	162.500
847.25	263.636
847.55	190.909
847.85	178.261
848.15	310.000
848.44	207.143
848.74	122.222
849.04	188.235
849.34	390.000
849.63	136.842
849.93	263.636
850.23	700.000
850.53	271.429
850.82	950.000
851.12	-2600.000
851.42	3000.000
851.71	160.000
852.01	-933.333
852.31	145.833
852.61	1100.000
852.90	190.476
853.20	148.000
853.50	176.471
853.79	185.714
854.09	137.500
854.39	212.500
854.68	137.838
854.98	122.581
855.28	103.333
855.57	141.379
855.87	129.630
856.17	194.737
856.46	153.333
856.76	141.176
857.05	162.069
857.35	141.667
857.65	220.000
857.94	143.478
858.24	142.308
858.53	205.000
858.83	172.727
859.13	273.333
859.42	0.000
859.72	388.889
860.01	390.909
860.31	195.455
860.60	221.053
860.90	173.913
861.20	322.222
861.49	333.333
861.79	-2100.000
862.08	387.500
862.38	214.286
862.67	169.231
862.97	194.118
863.26	266.667
863.56	183.333
863.85	200.000
864.15	387.500
864.44	280.000
864.74	533.333
865.03	425.000
865.33	168.421
865.62	209.091
865.92	238.462
866.21	225.000
866.51	0.000
866.80	327.273
867.10	560.000
867.39	307.692
867.69	272.727
867.98	210.526
868.27	318.182
868.57	210.526
868.86	-3000.000
869.16	243.750
869.45	1300.000
869.75	-2400.000
870.04	283.333
870.33	400.000
870.63	400.000
870.92	1300.000
871.22	428.571
871.51	258.824
871.80	123.810
872.10	242.857
>>>>>End Processed Spectral Data<<<<<
