SpectraSuite Data File
++++++++++++++++++++++++++++++++++++
Date: Wed May 13 21:03:34 PDT 2015
User: schluterlab
Dark Spectrum Present: Yes
Reference Spectrum Present: Yes
Number of Sampled Component Spectra: 1
Spectrometers: USB2E3373
Integration Time (usec): 3000 (USB2E3373)
Spectra Averaged: 3 (USB2E3373)
Boxcar Smoothing: 0 (USB2E3373)
Correct for Electrical Dark: No (USB2E3373)
Strobe/Lamp Enabled: No (USB2E3373)
Correct for Detector Non-linearity: No (USB2E3373)
Correct for Stray Light: No (USB2E3373)
Number of Pixels in Processed Spectrum: 2048
>>>>>Begin Processed Spectral Data<<<<<
178.53	0.000
178.91	300.000
179.29	116.667
179.67	-550.000
180.04	-133.333
180.42	60.000
180.80	700.000
181.18	216.667
181.56	-225.000
181.94	175.000
182.31	-27.273
182.69	30.769
183.07	-140.000
183.45	150.000
183.83	100.000
184.20	142.857
184.58	166.667
184.96	-33.333
185.34	28.571
185.72	0.000
186.09	500.000
186.47	-180.000
186.85	-20.000
187.23	-250.000
187.61	100.000
187.98	600.000
188.36	12.500
188.74	0.000
189.12	54.545
189.49	150.000
189.87	83.333
190.25	180.000
190.63	1000.000
191.00	200.000
191.38	120.000
191.76	250.000
192.14	58.333
192.51	-42.105
192.89	266.667
193.27	275.000
193.65	-100.000
194.02	218.182
194.40	100.000
194.78	-200.000
195.15	80.000
195.53	-60.000
195.91	50.000
196.29	-166.667
196.66	0.000
197.04	200.000
197.42	-20.000
197.79	50.000
198.17	-37.500
198.55	-33.333
198.92	175.000
199.30	-166.667
199.68	20.000
200.05	900.000
200.43	33.333
200.81	0.000
201.18	0.000
201.56	33.333
201.94	525.000
202.31	26.087
202.69	-85.714
203.07	-33.333
203.44	-100.000
203.82	0.000
204.19	-10.000
204.57	0.000
204.95	-83.333
205.32	0.000
205.70	-50.000
206.08	50.000
206.45	66.667
206.83	525.000
207.20	-333.333
207.58	-10.000
207.96	-300.000
208.33	-71.429
208.71	-900.000
209.08	137.500
209.46	275.000
209.84	0.000
210.21	90.000
210.59	1000.000
210.96	200.000
211.34	1400.000
211.71	-900.000
212.09	-300.000
212.46	-130.000
212.84	-66.667
213.22	100.000
213.59	-800.000
213.97	-50.000
214.34	-800.000
214.72	84.615
215.09	175.000
215.47	111.111
215.84	500.000
216.22	-50.000
216.59	-550.000
216.97	400.000
217.34	55.556
217.72	0.000
218.09	200.000
218.47	300.000
218.84	14.286
219.22	-62.500
219.59	-133.333
219.97	300.000
220.34	-25.000
220.72	0.000
221.09	0.000
221.47	116.667
221.84	-600.000
222.22	0.000
222.59	400.000
222.97	200.000
223.34	58.333
223.72	-600.000
224.09	300.000
224.46	72.727
224.84	-50.000
225.21	-100.000
225.59	-250.000
225.96	-100.000
226.34	40.000
226.71	-157.143
227.08	400.000
227.46	-62.500
227.83	600.000
228.21	43.750
228.58	-200.000
228.95	-5.882
229.33	37.500
229.70	-50.000
230.08	-7.692
230.45	-25.000
230.82	-16.667
231.20	214.286
231.57	-75.000
231.95	-100.000
232.32	0.000
232.69	-11.765
233.07	-200.000
233.44	-8.696
233.81	-500.000
234.19	29.167
234.56	-60.000
234.93	-40.000
235.31	36.842
235.68	-23.077
236.05	92.308
236.43	5.556
236.80	6.061
237.17	6.667
237.55	52.941
237.92	-17.241
238.29	-7.407
238.67	22.222
239.04	32.258
239.41	34.043
239.79	40.426
240.16	27.907
240.53	37.500
240.91	19.643
241.28	30.357
241.65	0.000
242.02	13.158
242.40	40.580
242.77	17.391
243.14	7.692
243.51	22.340
243.89	27.885
244.26	36.792
244.63	18.269
245.00	25.000
245.38	29.412
245.75	28.689
246.12	29.323
246.49	15.447
246.87	15.126
247.24	29.054
247.61	20.530
247.98	25.641
248.36	20.118
248.73	24.157
249.10	25.758
249.47	19.355
249.84	27.368
250.22	25.871
250.59	21.495
250.96	24.545
251.33	15.789
251.70	23.849
252.08	19.247
252.45	24.691
252.82	24.715
253.19	26.848
253.56	25.540
253.94	26.335
254.31	27.817
254.68	29.195
255.05	26.403
255.42	26.573
255.79	25.153
256.16	29.653
256.54	23.492
256.91	24.367
257.28	22.956
257.65	24.522
258.02	22.874
258.39	27.778
258.76	22.093
259.14	24.148
259.51	24.438
259.88	25.474
260.25	26.667
260.62	26.685
260.99	26.260
261.36	26.425
261.73	23.457
262.10	25.191
262.47	24.938
262.85	24.129
263.22	32.308
263.59	24.416
263.96	23.844
264.33	25.240
264.70	27.209
265.07	24.537
265.44	25.747
265.81	24.943
266.18	26.424
266.55	23.581
266.92	25.000
267.29	26.749
267.66	25.053
268.03	26.955
268.40	23.305
268.77	27.066
269.14	25.714
269.51	28.542
269.88	23.625
270.25	25.000
270.62	23.770
270.99	24.606
271.36	25.000
271.73	24.096
272.10	24.190
272.47	26.679
272.84	26.969
273.21	24.853
273.58	24.385
273.95	21.887
274.32	27.985
274.69	23.497
275.06	26.325
275.43	24.859
275.80	25.532
276.17	25.967
276.54	24.867
276.91	24.390
277.28	24.549
277.65	26.573
278.02	25.714
278.39	22.558
278.76	26.254
279.13	25.901
279.50	25.345
279.87	25.000
280.23	25.225
280.60	22.837
280.97	23.214
281.34	26.814
281.71	22.764
282.08	25.299
282.45	27.869
282.82	24.760
283.19	25.000
283.56	23.906
283.92	23.547
284.29	23.557
284.66	23.723
285.03	23.127
285.40	23.867
285.77	23.123
286.14	24.164
286.51	24.588
286.87	23.692
287.24	22.124
287.61	24.096
287.98	26.029
288.35	22.057
288.72	22.525
289.08	24.217
289.45	23.201
289.82	22.239
290.19	23.562
290.56	20.312
290.93	21.685
291.29	19.836
291.66	21.175
292.03	21.935
292.40	22.611
292.77	21.419
293.13	22.455
293.50	21.699
293.87	21.733
294.24	19.312
294.60	22.237
294.97	22.751
295.34	19.393
295.71	18.528
296.08	19.503
296.44	19.260
296.81	19.854
297.18	20.375
297.55	20.165
297.91	22.360
298.28	20.944
298.65	19.458
299.02	20.757
299.38	19.755
299.75	19.351
300.12	18.488
300.48	18.947
300.85	19.284
301.22	18.002
301.59	18.427
301.95	16.841
302.32	20.187
302.69	18.192
303.05	18.605
303.42	19.091
303.79	19.558
304.15	19.058
304.52	20.108
304.89	17.608
305.25	18.222
305.62	18.113
305.99	18.390
306.35	19.645
306.72	18.413
307.09	19.499
307.45	20.554
307.82	18.105
308.19	17.450
308.55	16.888
308.92	19.057
309.29	17.017
309.65	18.881
310.02	18.290
310.38	18.394
310.75	18.935
311.12	18.659
311.48	17.409
311.85	18.012
312.22	18.956
312.58	18.164
312.95	19.204
313.31	19.467
313.68	19.084
314.05	18.336
314.41	19.116
314.78	19.450
315.14	19.722
315.51	19.410
315.87	18.999
316.24	19.376
316.61	20.913
316.97	20.185
317.34	19.697
317.70	20.963
318.07	20.674
318.43	20.054
318.80	20.244
319.16	19.717
319.53	20.341
319.89	21.590
320.26	21.996
320.62	20.760
320.99	21.318
321.35	20.206
321.72	21.752
322.08	22.232
322.45	23.497
322.81	23.198
323.18	23.256
323.54	23.466
323.91	23.577
324.27	22.952
324.64	23.084
325.00	23.447
325.37	24.659
325.73	25.337
326.10	25.568
326.46	25.334
326.83	25.243
327.19	25.691
327.56	26.672
327.92	26.710
328.29	27.796
328.65	28.922
329.01	27.265
329.38	29.043
329.74	27.639
330.11	28.314
330.47	27.604
330.84	28.610
331.20	28.608
331.56	28.351
331.93	28.338
332.29	30.235
332.66	28.475
333.02	30.582
333.38	30.175
333.75	29.010
334.11	28.906
334.48	29.991
334.84	29.770
335.20	29.417
335.57	30.200
335.93	28.780
336.29	29.335
336.66	29.658
337.02	30.261
337.38	29.678
337.75	30.060
338.11	29.804
338.47	30.223
338.84	29.811
339.20	31.041
339.56	30.034
339.93	30.596
340.29	30.231
340.65	30.368
341.02	29.451
341.38	30.912
341.74	30.000
342.11	31.131
342.47	30.209
342.83	29.820
343.20	30.711
343.56	30.172
343.92	30.707
344.28	30.763
344.65	30.694
345.01	30.024
345.37	31.497
345.73	31.536
346.10	31.461
346.46	31.301
346.82	30.658
347.19	30.775
347.55	31.179
347.91	31.021
348.27	31.625
348.63	30.929
349.00	30.975
349.36	31.868
349.72	31.864
350.08	31.357
350.45	32.341
350.81	31.847
351.17	33.256
351.53	31.972
351.89	30.659
352.26	31.660
352.62	30.775
352.98	32.588
353.34	31.804
353.70	32.944
354.07	32.314
354.43	32.815
354.79	34.615
355.15	32.686
355.51	32.270
355.87	33.151
356.24	33.788
356.60	32.760
356.96	32.694
357.32	32.972
357.68	33.690
358.04	32.583
358.40	32.868
358.77	34.786
359.13	33.774
359.49	33.157
359.85	34.041
360.21	34.310
360.57	34.221
360.93	34.446
361.29	34.419
361.66	33.941
362.02	34.248
362.38	34.712
362.74	33.648
363.10	34.490
363.46	33.934
363.82	34.885
364.18	35.243
364.54	36.397
364.90	34.983
365.26	34.324
365.62	35.653
365.98	35.516
366.35	36.525
366.71	35.235
367.07	35.011
367.43	36.167
367.79	36.484
368.15	36.006
368.51	35.584
368.87	37.055
369.23	36.299
369.59	36.011
369.95	35.849
370.31	35.704
370.67	36.640
371.03	38.085
371.39	36.338
371.75	37.286
372.11	36.895
372.47	36.410
372.83	38.211
373.19	38.273
373.55	38.801
373.91	36.846
374.27	37.552
374.63	37.553
374.99	36.978
375.35	37.877
375.71	37.568
376.07	39.136
376.42	38.369
376.78	39.498
377.14	39.390
377.50	38.462
377.86	39.044
378.22	38.116
378.58	39.912
378.94	39.750
379.30	39.975
379.66	38.903
380.02	38.603
380.38	39.518
380.74	39.629
381.09	40.290
381.45	40.326
381.81	40.049
382.17	40.895
382.53	39.938
382.89	39.928
383.25	40.123
383.61	40.678
383.97	40.312
384.32	40.265
384.68	40.654
385.04	40.318
385.40	41.345
385.76	42.822
386.12	42.156
386.48	40.376
386.83	40.801
387.19	41.703
387.55	41.876
387.91	42.066
388.27	42.232
388.62	42.010
388.98	42.491
389.34	42.607
389.70	42.247
390.06	42.125
390.42	42.139
390.77	42.345
391.13	42.551
391.49	41.746
391.85	42.812
392.20	42.043
392.56	42.095
392.92	42.247
393.28	42.998
393.64	42.813
393.99	42.105
394.35	42.222
394.71	43.910
395.07	43.145
395.42	44.059
395.78	43.179
396.14	42.359
396.50	44.071
396.85	43.658
397.21	43.009
397.57	42.981
397.92	43.174
398.28	43.937
398.64	42.987
399.00	43.136
399.35	43.814
399.71	43.331
400.07	43.313
400.42	44.263
400.78	43.565
401.14	44.574
401.49	42.840
401.85	44.779
402.21	43.220
402.57	44.390
402.92	44.180
403.28	44.090
403.63	44.017
403.99	43.506
404.35	44.763
404.70	43.505
405.06	44.979
405.42	44.975
405.77	43.952
406.13	44.686
406.49	43.619
406.84	45.421
407.20	44.050
407.55	45.195
407.91	44.143
408.27	43.731
408.62	43.462
408.98	44.205
409.34	43.936
409.69	45.029
410.05	45.087
410.40	43.944
410.76	44.465
411.11	44.838
411.47	45.123
411.83	44.853
412.18	45.088
412.54	44.925
412.89	44.263
413.25	43.481
413.60	46.082
413.96	44.507
414.31	44.883
414.67	44.571
415.03	44.993
415.38	45.575
415.74	44.769
416.09	45.539
416.45	45.181
416.80	45.302
417.16	45.344
417.51	45.479
417.87	45.040
418.22	45.831
418.58	44.678
418.93	45.888
419.29	45.875
419.64	45.611
420.00	44.698
420.35	46.085
420.71	44.729
421.06	46.125
421.42	46.046
421.77	44.971
422.12	46.246
422.48	44.656
422.83	46.072
423.19	45.371
423.54	45.406
423.90	44.834
424.25	45.465
424.61	45.841
424.96	45.476
425.31	44.027
425.67	45.385
426.02	45.642
426.38	45.585
426.73	46.732
427.09	45.904
427.44	45.567
427.79	45.368
428.15	46.116
428.50	45.378
428.85	46.310
429.21	44.963
429.56	45.271
429.92	45.757
430.27	44.683
430.62	46.013
430.98	45.902
431.33	45.889
431.68	45.527
432.04	45.634
432.39	45.785
432.74	45.187
433.10	45.439
433.45	45.148
433.80	44.828
434.16	45.385
434.51	45.707
434.86	46.879
435.22	46.067
435.57	45.393
435.92	46.140
436.28	46.366
436.63	45.035
436.98	46.827
437.34	46.215
437.69	44.687
438.04	45.218
438.39	48.443
438.75	46.365
439.10	47.658
439.45	45.823
439.81	46.305
440.16	46.377
440.51	46.076
440.86	45.169
441.22	46.242
441.57	45.174
441.92	46.449
442.27	45.292
442.63	45.318
442.98	45.370
443.33	45.880
443.68	44.649
444.03	45.802
444.39	46.753
444.74	46.107
445.09	45.760
445.44	46.366
445.79	46.205
446.15	46.145
446.50	46.586
446.85	46.232
447.20	45.687
447.55	44.936
447.91	46.461
448.26	46.083
448.61	45.627
448.96	45.843
449.31	46.488
449.66	45.749
450.02	46.163
450.37	46.592
450.72	45.637
451.07	47.085
451.42	46.039
451.77	47.231
452.12	44.920
452.47	47.902
452.83	46.344
453.18	46.722
453.53	45.460
453.88	46.024
454.23	46.724
454.58	45.711
454.93	47.017
455.28	48.170
455.63	45.602
455.98	46.926
456.34	45.327
456.69	47.348
457.04	45.944
457.39	46.422
457.74	46.499
458.09	45.498
458.44	47.532
458.79	46.074
459.14	44.326
459.49	46.159
459.84	45.941
460.19	45.018
460.54	46.350
460.89	46.678
461.24	46.178
461.59	45.652
461.94	45.259
462.29	45.343
462.64	45.778
462.99	46.144
463.34	46.271
463.69	46.714
464.04	43.878
464.39	46.065
464.74	45.823
465.09	44.947
465.44	45.398
465.79	46.406
466.14	45.952
466.49	45.337
466.84	45.607
467.19	44.968
467.54	45.172
467.89	45.255
468.24	46.773
468.59	45.698
468.94	46.232
469.29	46.266
469.64	46.304
469.99	47.241
470.34	44.437
470.68	45.948
471.03	47.320
471.38	44.506
471.73	46.433
472.08	45.979
472.43	47.296
472.78	44.895
473.13	44.591
473.48	45.597
473.83	45.888
474.17	45.703
474.52	46.667
474.87	45.235
475.22	45.350
475.57	44.897
475.92	45.529
476.27	44.872
476.61	45.243
476.96	46.088
477.31	44.660
477.66	45.763
478.01	45.055
478.36	44.414
478.70	44.468
479.05	46.004
479.40	44.930
479.75	45.696
480.10	45.487
480.45	44.728
480.79	45.346
481.14	45.491
481.49	45.634
481.84	44.486
482.19	45.021
482.53	44.524
482.88	44.631
483.23	44.370
483.58	45.085
483.92	45.185
484.27	43.047
484.62	44.296
484.97	43.758
485.31	43.311
485.66	40.990
486.01	40.526
486.36	41.099
486.70	40.823
487.05	41.847
487.40	42.433
487.75	43.440
488.09	43.510
488.44	43.708
488.79	43.982
489.13	43.936
489.48	43.224
489.83	43.591
490.17	43.350
490.52	44.834
490.87	43.533
491.22	43.994
491.56	44.753
491.91	44.983
492.26	44.778
492.60	44.156
492.95	44.509
493.30	43.895
493.64	43.645
493.99	43.575
494.34	44.268
494.68	44.296
495.03	43.429
495.37	44.234
495.72	44.361
496.07	43.838
496.41	42.770
496.76	43.967
497.11	44.413
497.45	44.018
497.80	43.463
498.14	45.038
498.49	43.520
498.84	44.737
499.18	44.052
499.53	43.378
499.87	42.310
500.22	44.898
500.56	44.634
500.91	44.165
501.26	44.089
501.60	43.775
501.95	43.220
502.29	44.175
502.64	43.250
502.98	43.256
503.33	43.796
503.67	43.379
504.02	43.284
504.36	43.289
504.71	42.886
505.06	43.607
505.40	44.536
505.75	44.557
506.09	44.200
506.44	43.901
506.78	44.744
507.13	43.347
507.47	45.175
507.82	43.642
508.16	44.749
508.51	43.079
508.85	44.479
509.19	43.704
509.54	44.021
509.88	43.925
510.23	43.789
510.57	44.386
510.92	44.289
511.26	44.169
511.61	43.304
511.95	43.826
512.30	43.087
512.64	44.722
512.98	43.380
513.33	44.563
513.67	44.407
514.02	44.299
514.36	44.438
514.70	44.573
515.05	43.944
515.39	44.222
515.74	44.523
516.08	44.779
516.42	43.433
516.77	44.815
517.11	44.327
517.46	45.438
517.80	45.339
518.14	44.642
518.49	44.123
518.83	43.735
519.17	44.096
519.52	45.175
519.86	43.898
520.20	44.148
520.55	43.657
520.89	46.300
521.23	45.449
521.58	44.185
521.92	45.129
522.26	45.478
522.61	44.473
522.95	44.301
523.29	45.206
523.64	45.772
523.98	44.473
524.32	43.793
524.66	45.519
525.01	46.068
525.35	45.425
525.69	44.732
526.04	44.104
526.38	44.551
526.72	44.576
527.06	44.423
527.41	43.614
527.75	44.126
528.09	47.039
528.43	45.183
528.78	44.509
529.12	43.726
529.46	44.978
529.80	44.595
530.15	43.436
530.49	45.283
530.83	43.263
531.17	44.795
531.51	43.628
531.86	43.564
532.20	45.899
532.54	43.103
532.88	44.248
533.22	44.444
533.57	42.583
533.91	43.613
534.25	44.987
534.59	42.664
534.93	42.921
535.27	42.930
535.62	44.079
535.96	44.502
536.30	44.880
536.64	43.404
536.98	43.167
537.32	44.342
537.66	43.724
538.01	43.620
538.35	43.232
538.69	41.806
539.03	42.081
539.37	41.583
539.71	42.838
540.05	43.522
540.39	42.602
540.73	42.877
541.07	41.837
541.42	43.704
541.76	42.152
542.10	41.706
542.44	43.936
542.78	42.193
543.12	42.453
543.46	41.880
543.80	43.109
544.14	43.427
544.48	41.473
544.82	41.493
545.16	41.244
545.50	42.269
545.84	42.146
546.18	43.268
546.52	43.190
546.86	41.413
547.20	42.387
547.54	41.673
547.88	41.228
548.22	40.521
548.56	41.828
548.90	40.866
549.24	41.319
549.58	42.135
549.92	43.507
550.26	43.469
550.60	42.417
550.94	41.940
551.28	41.862
551.62	43.008
551.96	40.630
552.30	40.757
552.64	40.325
552.98	42.045
553.32	42.394
553.66	42.406
554.00	41.109
554.34	40.659
554.68	42.729
555.02	41.766
555.36	42.511
555.69	40.568
556.03	41.172
556.37	40.754
556.71	40.434
557.05	40.517
557.39	41.221
557.73	42.209
558.07	43.180
558.41	41.408
558.75	41.339
559.08	41.860
559.42	42.250
559.76	40.291
560.10	42.121
560.44	41.268
560.78	41.079
561.12	41.135
561.45	40.884
561.79	41.747
562.13	41.280
562.47	40.286
562.81	40.548
563.15	40.864
563.48	40.055
563.82	41.792
564.16	40.149
564.50	40.366
564.84	40.000
565.17	39.470
565.51	39.572
565.85	38.907
566.19	39.536
566.52	39.581
566.86	38.938
567.20	38.424
567.54	38.860
567.88	37.458
568.21	38.403
568.55	37.037
568.89	37.139
569.23	36.434
569.56	36.212
569.90	36.005
570.24	35.090
570.57	35.039
570.91	34.421
571.25	34.299
571.59	33.674
571.92	33.881
572.26	34.927
572.60	35.048
572.93	35.239
573.27	34.254
573.61	33.948
573.95	33.792
574.28	33.978
574.62	33.350
574.96	33.219
575.29	33.450
575.63	33.825
575.97	34.103
576.30	33.398
576.64	33.298
576.98	33.325
577.31	33.168
577.65	32.406
577.98	33.023
578.32	32.693
578.66	32.636
578.99	32.840
579.33	33.008
579.67	32.816
580.00	32.547
580.34	32.792
580.67	33.244
581.01	32.556
581.35	32.164
581.68	31.933
582.02	32.108
582.35	32.543
582.69	32.367
583.02	32.715
583.36	32.226
583.70	33.282
584.03	33.432
584.37	33.033
584.70	32.996
585.04	33.239
585.37	32.783
585.71	32.127
586.04	32.882
586.38	32.097
586.72	32.790
587.05	32.967
587.39	33.424
587.72	32.500
588.06	32.941
588.39	33.165
588.73	32.852
589.06	33.333
589.40	33.643
589.73	33.561
590.07	33.576
590.40	34.192
590.73	34.765
591.07	34.225
591.40	33.130
591.74	33.926
592.07	34.048
592.41	34.363
592.74	32.793
593.08	32.786
593.41	32.017
593.75	32.655
594.08	33.022
594.41	33.346
594.75	33.321
595.08	33.010
595.42	33.107
595.75	32.357
596.09	34.065
596.42	33.170
596.75	34.006
597.09	34.531
597.42	33.961
597.75	33.644
598.09	33.607
598.42	33.826
598.76	33.333
599.09	32.893
599.42	32.779
599.76	33.346
600.09	32.492
600.42	32.090
600.76	32.631
601.09	32.128
601.42	33.203
601.76	32.162
602.09	33.685
602.42	33.595
602.76	33.641
603.09	33.018
603.42	32.867
603.76	32.658
604.09	33.162
604.42	32.692
604.76	33.392
605.09	33.258
605.42	33.648
605.75	32.505
606.09	32.161
606.42	32.128
606.75	31.472
607.09	31.339
607.42	32.968
607.75	32.473
608.08	33.093
608.42	32.052
608.75	32.871
609.08	33.023
609.41	32.787
609.75	33.182
610.08	33.876
610.41	33.188
610.74	33.061
611.07	33.517
611.41	33.521
611.74	33.126
612.07	32.777
612.40	34.108
612.73	33.589
613.07	33.204
613.40	33.315
613.73	32.882
614.06	33.167
614.39	32.685
614.72	33.759
615.06	31.722
615.39	32.174
615.72	32.235
616.05	33.108
616.38	33.562
616.71	32.753
617.05	34.644
617.38	33.457
617.71	33.088
618.04	32.358
618.37	33.438
618.70	34.476
619.03	33.608
619.36	33.665
619.69	34.284
620.03	34.205
620.36	33.612
620.69	31.977
621.02	34.769
621.35	33.851
621.68	34.719
622.01	34.951
622.34	34.021
622.67	34.377
623.00	35.182
623.33	35.153
623.66	32.639
623.99	34.059
624.32	33.309
624.65	35.163
624.99	33.431
625.32	34.130
625.65	32.713
625.98	33.333
626.31	34.776
626.64	35.082
626.97	35.035
627.30	35.073
627.63	34.862
627.96	34.199
628.29	35.721
628.62	36.654
628.95	34.970
629.28	36.453
629.61	34.928
629.94	35.106
630.26	35.074
630.59	35.764
630.92	34.237
631.25	34.192
631.58	36.617
631.91	34.783
632.24	35.456
632.57	34.889
632.90	36.989
633.23	36.091
633.56	38.489
633.89	37.440
634.22	38.163
634.55	37.759
634.88	35.784
635.20	36.750
635.53	37.726
635.86	36.923
636.19	37.345
636.52	35.732
636.85	37.033
637.18	34.470
637.51	37.453
637.83	38.512
638.16	34.533
638.49	35.648
638.82	35.948
639.15	37.234
639.48	37.834
639.81	36.111
640.13	36.479
640.46	38.983
640.79	38.417
641.12	35.947
641.45	34.789
641.77	37.850
642.10	37.973
642.43	38.522
642.76	37.382
643.09	37.380
643.41	37.321
643.74	36.672
644.07	36.731
644.40	37.148
644.73	37.288
645.05	39.092
645.38	37.542
645.71	39.286
646.04	35.185
646.36	39.757
646.69	39.685
647.02	37.341
647.35	37.294
647.67	38.447
648.00	40.399
648.33	35.254
648.66	37.062
648.98	36.801
649.31	35.736
649.64	35.994
649.96	38.547
650.29	34.150
650.62	36.573
650.94	37.414
651.27	38.339
651.60	37.937
651.92	38.172
652.25	36.516
652.58	36.469
652.90	36.532
653.23	37.521
653.56	35.537
653.88	34.642
654.21	36.177
654.54	34.551
654.86	34.472
655.19	33.193
655.52	31.077
655.84	26.122
656.17	31.262
656.49	41.351
656.82	41.166
657.15	31.238
657.47	23.255
657.80	17.651
658.13	18.452
658.45	27.849
658.78	27.612
659.10	28.106
659.43	28.229
659.75	29.487
660.08	29.724
660.41	30.629
660.73	32.094
661.06	36.905
661.38	36.434
661.71	37.705
662.03	38.055
662.36	36.504
662.68	36.129
663.01	38.347
663.33	36.501
663.66	33.703
663.98	36.180
664.31	37.802
664.63	32.658
664.96	36.761
665.28	39.914
665.61	35.205
665.93	36.617
666.26	36.498
666.58	35.546
666.91	39.686
667.23	35.253
667.56	37.011
667.88	39.019
668.21	35.491
668.53	37.471
668.86	37.170
669.18	37.116
669.50	36.406
669.83	39.141
670.15	35.476
670.48	36.322
670.80	38.731
671.13	35.927
671.45	36.758
671.77	36.422
672.10	33.333
672.42	33.206
672.75	32.857
673.07	33.818
673.39	34.328
673.72	36.727
674.04	34.426
674.37	35.569
674.69	34.156
675.01	35.256
675.34	38.512
675.66	37.473
675.98	34.292
676.31	34.842
676.63	37.868
676.95	34.588
677.28	34.404
677.60	35.539
677.92	34.368
678.25	35.792
678.57	34.827
678.89	34.755
679.22	36.025
679.54	33.061
679.86	33.789
680.18	32.885
680.51	30.577
680.83	32.359
681.15	32.809
681.48	32.064
681.80	34.356
682.12	32.083
682.44	32.193
682.77	29.474
683.09	33.036
683.41	33.721
683.73	30.804
684.06	33.186
684.38	33.333
684.70	30.346
685.02	35.124
685.34	32.485
685.67	33.396
685.99	30.961
686.31	30.172
686.63	30.331
686.96	31.540
687.28	32.535
687.60	34.026
687.92	31.323
688.24	29.600
688.56	34.211
688.89	31.403
689.21	32.511
689.53	29.955
689.85	29.438
690.17	32.967
690.49	33.333
690.82	29.594
691.14	33.816
691.46	31.555
691.78	33.407
692.10	33.758
692.42	30.330
692.74	32.826
693.06	29.213
693.39	31.382
693.71	31.111
694.03	31.364
694.35	32.432
694.67	35.000
694.99	31.959
695.31	36.176
695.63	33.171
695.95	32.570
696.27	33.425
696.59	29.570
696.91	30.726
697.23	29.695
697.56	31.415
697.88	31.601
698.20	30.022
698.52	34.112
698.84	30.622
699.16	30.260
699.48	31.111
699.80	33.850
700.12	31.099
700.44	32.113
700.76	29.775
701.08	32.628
701.40	31.737
701.72	29.231
702.04	28.616
702.36	34.756
702.68	31.707
703.00	34.503
703.32	29.805
703.64	32.229
703.96	31.378
704.28	29.217
704.60	33.537
704.91	31.661
705.23	31.329
705.55	32.069
705.87	35.211
706.19	30.769
706.51	32.746
706.83	28.025
707.15	29.268
707.47	28.926
707.79	28.173
708.11	27.249
708.43	31.218
708.74	30.851
709.06	29.947
709.38	30.259
709.70	33.934
710.02	29.283
710.34	26.667
710.66	28.664
710.98	31.269
711.29	31.494
711.61	29.355
711.93	29.677
712.25	29.371
712.57	23.860
712.89	32.601
713.20	34.752
713.52	30.657
713.84	30.000
714.16	27.832
714.48	32.595
714.80	30.990
715.11	30.523
715.43	28.882
715.75	29.814
716.07	31.325
716.39	30.303
716.70	29.856
717.02	31.373
717.34	37.500
717.66	34.052
717.97	27.381
718.29	31.496
718.61	32.618
718.93	30.233
719.24	28.782
719.56	26.966
719.88	28.731
720.20	32.411
720.51	28.516
720.83	31.128
721.15	29.268
721.46	30.534
721.78	29.084
722.10	27.092
722.42	26.210
722.73	31.274
723.05	31.020
723.37	28.992
723.68	31.200
724.00	28.511
724.32	31.381
724.63	34.979
724.95	29.060
725.27	34.177
725.58	32.510
725.90	28.870
726.22	30.797
726.53	29.020
726.85	32.117
727.16	31.111
727.48	32.184
727.80	27.734
728.11	27.869
728.43	28.906
728.74	29.762
729.06	26.800
729.38	27.273
729.69	28.114
730.01	31.599
730.32	30.627
730.64	32.197
730.96	33.566
731.27	28.094
731.59	27.302
731.90	26.537
732.22	26.603
732.53	26.689
732.85	25.168
733.16	28.713
733.48	27.027
733.80	27.365
734.11	32.095
734.43	28.173
734.74	27.327
735.06	26.801
735.37	27.356
735.69	26.861
736.00	24.752
736.32	26.241
736.63	20.345
736.95	28.425
737.26	25.862
737.58	29.514
737.89	28.866
738.21	28.114
738.52	26.996
738.83	31.837
739.15	27.004
739.46	27.626
739.78	24.296
740.09	24.658
740.41	25.000
740.72	24.113
741.04	24.400
741.35	26.316
741.66	31.111
741.98	32.692
742.29	32.178
742.61	23.902
742.92	29.386
743.23	35.849
743.55	28.829
743.86	30.942
744.18	27.451
744.49	27.919
744.80	26.020
745.12	24.766
745.43	27.488
745.74	22.973
746.06	26.168
746.37	26.147
746.68	29.327
747.00	24.880
747.31	32.212
747.62	27.064
747.94	29.694
748.25	27.064
748.56	35.111
748.88	29.108
749.19	34.286
749.50	19.903
749.82	25.822
750.13	21.250
750.44	23.462
750.75	23.247
751.07	28.114
751.38	26.950
751.69	24.324
752.01	25.000
752.32	26.538
752.63	30.597
752.94	27.600
753.26	26.360
753.57	27.083
753.88	26.721
754.19	20.717
754.51	25.564
754.82	25.275
755.13	23.913
755.44	25.203
755.75	23.600
756.07	23.247
756.38	27.698
756.69	23.549
757.00	24.922
757.31	25.243
757.63	26.235
757.94	25.706
758.25	25.397
758.56	22.826
758.87	27.083
759.18	24.606
759.50	26.599
759.81	23.746
760.12	23.077
760.43	23.214
760.74	24.011
761.05	24.862
761.36	22.636
761.67	23.263
761.99	22.680
762.30	27.007
762.61	23.868
762.92	34.188
763.23	27.049
763.54	29.437
763.85	24.898
764.16	22.764
764.47	24.400
764.78	22.500
765.10	24.262
765.41	22.188
765.72	23.913
766.03	23.432
766.34	28.846
766.65	21.757
766.96	23.474
767.27	31.188
767.58	25.843
767.89	26.543
768.20	27.624
768.51	22.111
768.82	27.404
769.13	26.106
769.44	23.849
769.75	20.085
770.06	21.076
770.37	24.510
770.68	24.757
770.99	23.786
771.30	23.529
771.61	18.367
771.92	26.141
772.23	26.577
772.54	20.442
772.85	17.442
773.16	29.101
773.47	24.260
773.78	30.460
774.09	26.875
774.39	31.677
774.70	28.571
775.01	24.828
775.32	30.714
775.63	22.556
775.94	23.308
776.25	17.600
776.56	25.620
776.87	34.127
777.18	19.820
777.48	18.919
777.79	21.260
778.10	26.606
778.41	17.544
778.72	26.050
779.03	16.197
779.34	27.027
779.65	19.718
779.95	17.881
780.26	17.986
780.57	18.705
780.88	23.944
781.19	25.210
781.50	26.846
781.80	26.901
782.11	16.860
782.42	30.189
782.73	20.915
783.04	20.000
783.34	12.214
783.65	30.201
783.96	25.385
784.27	21.429
784.57	23.404
784.88	15.385
785.19	33.636
785.50	25.455
785.81	12.381
786.11	25.210
786.42	23.894
786.73	15.094
787.04	11.927
787.34	18.812
787.65	34.167
787.96	14.876
788.26	27.536
788.57	20.635
788.88	18.699
789.19	14.400
789.49	20.611
789.80	31.818
790.11	16.038
790.41	28.713
790.72	22.340
791.03	16.304
791.33	22.353
791.64	20.988
791.95	26.087
792.25	35.227
792.56	32.051
792.87	14.103
793.17	21.795
793.48	10.714
793.79	27.500
794.09	30.769
794.40	26.042
794.70	26.126
795.01	22.656
795.32	26.957
795.62	17.391
795.93	17.925
796.23	26.263
796.54	21.951
796.85	28.571
797.15	18.182
797.46	24.638
797.76	10.526
798.07	35.227
798.37	19.512
798.68	16.129
798.99	20.270
799.29	21.687
799.60	16.667
799.90	10.769
800.21	22.727
800.51	17.333
800.82	24.000
801.12	-12.500
801.43	13.333
801.73	17.568
802.04	32.857
802.34	8.197
802.65	16.418
802.95	12.727
803.26	15.517
803.56	23.077
803.87	22.642
804.17	32.258
804.48	-1.471
804.78	17.073
805.09	23.188
805.39	27.941
805.70	27.660
806.00	21.053
806.30	24.359
806.61	9.211
806.91	36.486
807.22	17.105
807.52	17.045
807.83	6.780
808.13	4.545
808.43	13.333
808.74	-3.448
809.04	19.048
809.35	18.367
809.65	13.333
809.95	4.082
810.26	36.620
810.56	14.583
810.86	-8.163
811.17	26.923
811.47	6.383
811.77	8.333
812.08	30.189
812.38	-9.375
812.69	14.545
812.99	29.268
813.29	5.405
813.59	-35.135
813.90	12.727
814.20	32.727
814.50	15.000
814.81	21.818
815.11	19.298
815.41	51.163
815.72	22.500
816.02	8.571
816.32	5.405
816.62	22.917
816.93	11.111
817.23	24.444
817.53	-13.889
817.84	-16.216
818.14	9.756
818.44	20.000
818.74	10.204
819.04	21.951
819.35	13.889
819.65	18.182
819.95	-44.444
820.25	0.000
820.56	16.667
820.86	16.667
821.16	-4.545
821.46	15.217
821.76	10.345
822.07	39.130
822.37	27.273
822.67	48.780
822.97	5.405
823.27	-22.857
823.57	27.586
823.88	5.882
824.18	27.778
824.48	34.286
824.78	19.048
825.08	0.000
825.38	51.852
825.69	32.258
825.99	19.512
826.29	14.815
826.59	-18.750
826.89	-9.677
827.19	-26.087
827.49	-2.778
827.79	-34.783
828.09	29.032
828.39	4.167
828.70	12.500
829.00	34.483
829.30	13.514
829.60	8.333
829.90	3.704
830.20	-3.125
830.50	-18.182
830.80	-70.588
831.10	-18.182
831.40	8.824
831.70	11.538
832.00	30.303
832.30	17.647
832.60	10.811
832.90	500.000
833.20	25.000
833.50	10.000
833.80	18.421
834.10	8.333
834.40	-31.818
834.70	-20.000
835.00	-110.000
835.30	20.833
835.60	14.286
835.90	23.810
836.20	32.000
836.50	-16.667
836.80	0.000
837.10	16.216
837.40	13.333
837.70	17.391
838.00	37.500
838.30	10.526
838.60	-100.000
838.90	-150.000
839.19	25.000
839.49	69.231
839.79	26.316
840.09	-66.667
840.39	40.000
840.69	18.182
840.99	57.143
841.29	-25.000
841.59	7.692
841.88	-66.667
842.18	-50.000
842.48	26.667
842.78	-171.429
843.08	-35.714
843.38	-12.500
843.68	56.250
843.97	57.143
844.27	-133.333
844.57	-72.727
844.87	-20.000
845.17	63.636
845.47	433.333
845.76	6.667
846.06	16.667
846.36	-350.000
846.66	-15.789
846.96	-13.636
847.25	16.667
847.55	-88.889
847.85	-4.762
848.15	115.385
848.44	-50.000
848.74	25.000
849.04	-61.538
849.34	-200.000
849.63	-72.727
849.93	-107.143
850.23	40.000
850.53	-75.000
850.82	16.667
851.12	-46.667
851.42	5.882
851.71	-62.500
852.01	29.412
852.31	-46.154
852.61	50.000
852.90	5.882
853.20	26.667
853.50	-18.750
853.79	-92.857
854.09	0.000
854.39	-5.000
854.68	-2.500
854.98	28.571
855.28	40.000
855.57	-16.667
855.87	-16.667
856.17	-4.000
856.46	21.875
856.76	-35.000
857.05	-4.000
857.35	-33.333
857.65	23.529
857.94	-75.000
858.24	-83.333
858.53	-15.000
858.83	-100.000
859.13	36.000
859.42	64.286
859.72	-125.000
860.01	16.667
860.31	-112.500
860.60	-62.500
860.90	-100.000
861.20	-33.333
861.49	86.667
861.79	-50.000
862.08	175.000
862.38	-58.333
862.67	271.429
862.97	300.000
863.26	-72.727
863.56	-9.091
863.85	0.000
864.15	5.882
864.44	-60.000
864.74	0.000
865.03	-22.222
865.33	-7.143
865.62	64.286
865.92	68.421
866.21	-33.333
866.51	-72.727
866.80	-44.444
867.10	-150.000
867.39	25.000
867.69	-26.667
867.98	30.000
868.27	5.882
868.57	0.000
868.86	700.000
869.16	-250.000
869.45	-257.143
869.75	500.000
870.04	10.000
870.33	-1100.000
870.63	15.789
870.92	16.667
871.22	-800.000
871.51	42.857
871.80	-155.556
872.10	25.000
>>>>>End Processed Spectral Data<<<<<
