SpectraSuite Data File
++++++++++++++++++++++++++++++++++++
Date: Wed May 13 21:03:32 PDT 2015
User: schluterlab
Dark Spectrum Present: Yes
Reference Spectrum Present: Yes
Number of Sampled Component Spectra: 1
Spectrometers: USB2E3373
Integration Time (usec): 3000 (USB2E3373)
Spectra Averaged: 3 (USB2E3373)
Boxcar Smoothing: 0 (USB2E3373)
Correct for Electrical Dark: No (USB2E3373)
Strobe/Lamp Enabled: No (USB2E3373)
Correct for Detector Non-linearity: No (USB2E3373)
Correct for Stray Light: No (USB2E3373)
Number of Pixels in Processed Spectrum: 2048
>>>>>Begin Processed Spectral Data<<<<<
178.53	0.000
178.91	200.000
179.29	150.000
179.67	0.000
180.04	-233.333
180.42	60.000
180.80	500.000
181.18	316.667
181.56	-175.000
181.94	0.000
182.31	-45.455
182.69	15.385
183.07	20.000
183.45	250.000
183.83	111.111
184.20	100.000
184.58	-100.000
184.96	66.667
185.34	200.000
185.72	0.000
186.09	-800.000
186.47	-200.000
186.85	80.000
187.23	600.000
187.61	200.000
187.98	800.000
188.36	-37.500
188.74	0.000
189.12	81.818
189.49	130.000
189.87	25.000
190.25	120.000
190.63	800.000
191.00	20.000
191.38	200.000
191.76	-0.000
192.14	66.667
192.51	26.316
192.89	300.000
193.27	200.000
193.65	-140.000
194.02	136.364
194.40	100.000
194.78	800.000
195.15	300.000
195.53	-40.000
195.91	87.500
196.29	266.667
196.66	0.000
197.04	100.000
197.42	20.000
197.79	10.000
198.17	-62.500
198.55	-66.667
198.92	125.000
199.30	-100.000
199.68	-20.000
200.05	-150.000
200.43	-0.000
200.81	-100.000
201.18	-140.000
201.56	100.000
201.94	175.000
202.31	34.783
202.69	-57.143
203.07	-233.333
203.44	-60.000
203.82	-200.000
204.19	-30.000
204.57	0.000
204.95	166.667
205.32	0.000
205.70	0.000
206.08	-125.000
206.45	16.667
206.83	350.000
207.20	-200.000
207.58	-110.000
207.96	-700.000
208.33	-85.714
208.71	-1100.000
209.08	150.000
209.46	200.000
209.84	0.000
210.21	130.000
210.59	1300.000
210.96	-140.000
211.34	700.000
211.71	-550.000
212.09	0.000
212.46	-60.000
212.84	66.667
213.22	-25.000
213.59	0.000
213.97	-450.000
214.34	-450.000
214.72	61.538
215.09	100.000
215.47	66.667
215.84	650.000
216.22	-125.000
216.59	150.000
216.97	133.333
217.34	100.000
217.72	0.000
218.09	66.667
218.47	400.000
218.84	-128.571
219.22	-100.000
219.59	-166.667
219.97	-325.000
220.34	-112.500
220.72	-20.000
221.09	0.000
221.47	-133.333
221.84	100.000
222.22	0.000
222.59	600.000
222.97	-33.333
223.34	-25.000
223.72	-200.000
224.09	0.000
224.46	-63.636
224.84	25.000
225.21	-71.429
225.59	-50.000
225.96	150.000
226.34	-20.000
226.71	85.714
227.08	-300.000
227.46	-112.500
227.83	200.000
228.21	18.750
228.58	-100.000
228.95	0.000
229.33	18.750
229.70	-25.000
230.08	53.846
230.45	-12.500
230.82	-83.333
231.20	57.143
231.57	-25.000
231.95	800.000
232.32	8.333
232.69	17.647
233.07	-1500.000
233.44	4.348
233.81	-400.000
234.19	41.667
234.56	-33.333
234.93	-26.667
235.31	36.842
235.68	30.769
236.05	-53.846
236.43	11.111
236.80	-3.030
237.17	-40.000
237.55	-11.765
237.92	-17.241
238.29	-14.815
238.67	13.889
239.04	12.903
239.41	4.255
239.79	19.149
240.16	4.651
240.53	7.143
240.91	19.643
241.28	8.929
241.65	9.677
242.02	11.842
242.40	23.188
242.77	0.000
243.14	6.410
243.51	6.383
243.89	3.846
244.26	16.038
244.63	12.500
245.00	8.333
245.38	6.723
245.75	13.934
246.12	7.519
246.49	-4.878
246.87	-0.840
247.24	6.757
247.61	7.947
247.98	10.897
248.36	3.550
248.73	3.933
249.10	8.081
249.47	4.301
249.84	11.579
250.22	6.965
250.59	13.084
250.96	11.818
251.33	-0.478
251.70	11.297
252.08	7.950
252.45	8.230
252.82	18.251
253.19	6.226
253.56	6.835
253.94	13.523
254.31	9.507
254.68	13.423
255.05	15.182
255.42	12.587
255.79	11.350
256.16	11.987
256.54	10.794
256.91	9.494
257.28	14.780
257.65	7.006
258.02	10.850
258.39	10.234
258.76	7.849
259.14	9.943
259.51	10.674
259.88	12.195
260.25	9.722
260.62	8.427
260.99	10.345
261.36	11.917
261.73	6.914
262.10	7.125
262.47	9.877
262.85	8.706
263.22	12.564
263.59	9.351
263.96	9.489
264.33	9.615
264.70	9.767
265.07	9.954
265.44	11.494
265.81	10.526
266.18	7.973
266.55	8.297
266.92	8.475
267.29	8.848
267.66	9.130
268.03	10.905
268.40	7.415
268.77	11.777
269.14	10.000
269.51	12.115
269.88	8.758
270.25	7.839
270.62	7.377
270.99	11.024
271.36	9.325
271.73	7.430
272.10	8.381
272.47	10.173
272.84	10.039
273.21	11.350
273.58	9.016
273.95	10.566
274.32	11.381
274.69	8.197
275.06	11.837
275.43	10.169
275.80	9.752
276.17	8.840
276.54	9.414
276.91	10.801
277.28	8.303
277.65	8.741
278.02	10.179
278.39	8.526
278.76	8.696
279.13	9.949
279.50	8.103
279.87	8.696
280.23	9.009
280.60	7.266
280.97	10.390
281.34	9.779
281.71	8.130
282.08	7.863
282.45	9.672
282.82	9.585
283.19	10.213
283.56	10.625
283.92	8.869
284.29	9.672
284.66	8.402
285.03	8.632
285.40	9.517
285.77	9.009
286.14	8.663
286.51	10.495
286.87	8.923
287.24	8.997
287.61	8.886
287.98	9.853
288.35	9.091
288.72	9.756
289.08	10.684
289.45	8.223
289.82	7.867
290.19	9.257
290.56	7.670
290.93	7.182
291.29	8.892
291.66	7.923
292.03	9.128
292.40	8.748
292.77	8.969
293.13	7.252
293.50	7.451
293.87	8.933
294.24	8.730
294.60	8.843
294.97	9.921
295.34	6.596
295.71	7.096
296.08	6.414
296.44	6.633
296.81	7.065
297.18	10.000
297.55	7.547
297.91	8.075
298.28	8.838
298.65	7.635
299.02	6.960
299.38	8.221
299.75	9.255
300.12	6.977
300.48	6.901
300.85	7.506
301.22	6.620
301.59	6.925
301.95	5.575
302.32	7.701
302.69	6.102
303.05	7.752
303.42	7.500
303.79	8.307
304.15	7.010
304.52	8.710
304.89	5.759
305.25	6.147
305.62	6.941
305.99	6.420
306.35	8.255
306.72	7.325
307.09	7.612
307.45	8.413
307.82	7.895
308.19	6.061
308.55	5.015
308.92	8.743
309.29	6.907
309.65	6.394
310.02	7.952
310.38	6.809
310.75	6.903
311.12	7.483
311.48	6.924
311.85	6.988
312.22	8.027
312.58	7.343
312.95	7.065
313.31	7.346
313.68	7.538
314.05	7.750
314.41	7.781
314.78	8.254
315.14	8.333
315.51	8.373
315.87	7.785
316.24	9.275
316.61	8.950
316.97	8.241
317.34	8.467
317.70	8.921
318.07	9.583
318.43	7.949
318.80	8.551
319.16	8.842
319.53	9.409
319.89	8.762
320.26	9.982
320.62	9.731
320.99	9.884
321.35	9.167
321.72	8.373
322.08	9.963
322.45	10.916
322.81	11.275
323.18	9.481
323.54	9.838
323.91	11.743
324.27	10.531
324.64	10.366
325.00	10.586
325.37	12.031
325.73	11.279
326.10	12.027
326.46	11.957
326.83	11.974
327.19	12.764
327.56	13.215
327.92	12.631
328.29	12.521
328.65	12.971
329.01	11.873
329.38	13.913
329.74	13.820
330.11	12.985
330.47	11.979
330.84	13.628
331.20	14.518
331.56	12.953
331.93	13.006
332.29	14.422
332.66	13.051
333.02	13.553
333.38	14.123
333.75	12.969
334.11	14.757
334.48	14.647
334.84	13.958
335.20	14.237
335.57	13.229
335.93	13.230
336.29	14.273
336.66	13.333
337.02	15.391
337.38	14.621
337.75	14.212
338.11	13.834
338.47	14.640
338.84	13.918
339.20	14.286
339.56	14.420
339.93	14.952
340.29	14.091
340.65	14.628
341.02	14.725
341.38	13.936
341.74	14.370
342.11	14.533
342.47	14.477
342.83	14.379
343.20	14.213
343.56	14.718
343.92	15.678
344.28	14.205
344.65	15.265
345.01	14.528
345.37	15.543
345.73	15.523
346.10	15.169
346.46	15.122
346.82	14.928
347.19	15.032
347.55	14.782
347.91	14.419
348.27	14.590
348.63	15.144
349.00	15.330
349.36	15.228
349.72	15.623
350.08	14.899
350.45	15.505
350.81	15.571
351.17	16.474
351.53	15.004
351.89	15.250
352.26	13.822
352.62	15.039
352.98	15.495
353.34	15.942
353.70	16.121
354.07	15.373
354.43	15.397
354.79	14.984
355.15	14.907
355.51	16.097
355.87	15.950
356.24	15.409
356.60	15.012
356.96	16.731
357.32	16.873
357.68	16.043
358.04	16.137
358.40	16.279
358.77	16.514
359.13	15.486
359.49	16.276
359.85	16.831
360.21	16.345
360.57	16.046
360.93	15.630
361.29	17.321
361.66	16.401
362.02	16.605
362.38	16.987
362.74	15.809
363.10	17.209
363.46	15.778
363.82	16.851
364.18	16.679
364.54	17.068
364.90	16.376
365.26	16.773
365.62	16.406
365.98	17.722
366.35	17.589
366.71	16.191
367.07	16.655
367.43	17.352
367.79	17.443
368.15	18.495
368.51	17.159
368.87	17.306
369.23	17.438
369.59	17.477
369.95	17.562
370.31	18.061
370.67	18.103
371.03	17.446
371.39	18.240
371.75	17.500
372.11	16.809
372.47	17.952
372.83	18.447
373.19	18.129
373.55	17.702
373.91	18.883
374.27	17.566
374.63	18.421
374.99	19.081
375.35	17.808
375.71	18.410
376.07	18.574
376.42	19.051
376.78	18.956
377.14	19.051
377.50	18.840
377.86	19.256
378.22	18.521
378.58	18.852
378.94	20.062
379.30	18.613
379.66	19.236
380.02	18.689
380.38	17.831
380.74	19.187
381.09	19.964
381.45	19.407
381.81	19.963
382.17	18.084
382.53	19.385
382.89	18.818
383.25	19.568
383.61	20.339
383.97	19.750
384.32	18.904
384.68	19.432
385.04	19.059
385.40	19.988
385.76	20.255
386.12	20.336
386.48	19.248
386.83	20.025
387.19	20.543
387.55	19.742
387.91	20.357
388.27	20.345
388.62	19.663
388.98	19.962
389.34	19.987
389.70	19.963
390.06	20.250
390.42	20.747
390.77	21.140
391.13	20.518
391.49	20.114
391.85	20.000
392.20	20.301
392.56	19.873
392.92	20.597
393.28	20.337
393.64	20.612
393.99	19.523
394.35	20.617
394.71	20.769
395.07	20.063
395.42	21.268
395.78	20.656
396.14	20.926
396.50	20.545
396.85	21.670
397.21	20.662
397.57	20.559
397.92	20.060
398.28	20.699
398.64	21.311
399.00	20.368
399.35	20.829
399.71	21.491
400.07	20.723
400.42	20.815
400.78	21.088
401.14	20.294
401.49	21.031
401.85	20.823
402.21	21.300
402.57	20.907
402.92	22.090
403.28	21.263
403.63	21.203
403.99	21.689
404.35	20.823
404.70	20.906
405.06	21.785
405.42	20.917
405.77	20.853
406.13	20.457
406.49	21.630
406.84	20.452
407.20	21.078
407.55	21.429
407.91	21.112
408.27	20.711
408.62	21.854
408.98	21.763
409.34	20.606
409.69	22.222
410.05	20.958
410.40	21.607
410.76	21.721
411.11	22.015
411.47	21.831
411.83	20.212
412.18	21.977
412.54	21.805
412.89	21.442
413.25	20.295
413.60	20.940
413.96	20.662
414.31	21.270
414.67	21.460
415.03	21.922
415.38	21.202
415.74	21.378
416.09	21.613
416.45	21.463
416.80	20.805
417.16	21.390
417.51	21.500
417.87	21.892
418.22	21.719
418.58	21.091
418.93	20.716
419.29	21.650
419.64	20.992
420.00	21.397
420.35	21.458
420.71	21.450
421.06	21.341
421.42	21.533
421.77	21.618
422.12	21.089
422.48	20.284
422.83	22.032
423.19	21.162
423.54	21.849
423.90	21.675
424.25	21.722
424.61	21.935
424.96	21.230
425.31	20.752
425.67	21.928
426.02	22.792
426.38	21.828
426.73	22.358
427.09	21.826
427.44	21.550
427.79	21.318
428.15	21.468
428.50	22.236
428.85	22.263
429.21	20.878
429.56	22.051
429.92	22.176
430.27	21.421
430.62	21.773
430.98	20.518
431.33	21.601
431.68	22.045
432.04	22.141
432.39	20.554
432.74	21.153
433.10	22.603
433.45	22.130
433.80	20.977
434.16	21.901
434.51	21.522
434.86	21.849
435.22	21.279
435.57	21.867
435.92	21.834
436.28	22.342
436.63	21.363
436.98	22.209
437.34	21.978
437.69	20.897
438.04	20.996
438.39	22.790
438.75	21.692
439.10	22.672
439.45	21.610
439.81	21.736
440.16	22.377
440.51	22.652
440.86	22.466
441.22	21.916
441.57	22.289
441.92	21.669
442.27	21.753
442.63	21.529
442.98	20.949
443.33	21.783
443.68	20.717
444.03	21.808
444.39	21.765
444.74	21.204
445.09	20.485
445.44	22.197
445.79	21.270
446.15	23.017
446.50	21.751
446.85	22.394
447.20	22.582
447.55	22.552
447.91	22.697
448.26	22.470
448.61	21.864
448.96	22.722
449.31	22.844
449.66	22.499
450.02	22.115
450.37	22.385
450.72	22.618
451.07	22.445
451.42	21.647
451.77	22.094
452.12	21.925
452.47	22.595
452.83	22.052
453.18	22.151
453.53	22.446
453.88	22.470
454.23	22.497
454.58	21.875
454.93	22.194
455.28	21.965
455.63	22.208
455.98	21.972
456.34	21.297
456.69	23.259
457.04	21.424
457.39	22.008
457.74	22.142
458.09	22.275
458.44	21.504
458.79	21.911
459.14	20.787
459.49	22.439
459.84	21.308
460.19	21.549
460.54	22.384
460.89	21.678
461.24	22.688
461.59	21.981
461.94	22.061
462.29	22.059
462.64	22.361
462.99	21.865
463.34	22.859
463.69	22.938
464.04	21.369
464.39	20.683
464.74	21.929
465.09	22.071
465.44	22.391
465.79	22.427
466.14	21.437
466.49	22.639
466.84	22.236
467.19	21.274
467.54	22.748
467.89	22.187
468.24	22.004
468.59	21.861
468.94	22.542
469.29	21.414
469.64	21.757
469.99	23.655
470.34	22.589
470.68	22.082
471.03	23.061
471.38	22.809
471.73	22.222
472.08	22.680
472.43	22.361
472.78	23.056
473.13	22.230
473.48	21.070
473.83	21.908
474.17	21.615
474.52	21.812
474.87	21.291
475.22	22.101
475.57	22.421
475.92	21.265
476.27	21.853
476.61	21.574
476.96	22.559
477.31	22.060
477.66	22.655
478.01	21.813
478.36	21.417
478.70	21.912
479.05	21.587
479.40	21.997
479.75	21.041
480.10	21.826
480.45	21.334
480.79	21.951
481.14	22.492
481.49	22.200
481.84	21.018
482.19	21.723
482.53	21.714
482.88	21.812
483.23	21.511
483.58	21.692
483.92	21.401
484.27	21.272
484.62	20.950
484.97	21.029
485.31	20.621
485.66	20.005
486.01	19.436
486.36	19.381
486.70	19.646
487.05	20.464
487.40	19.758
487.75	20.643
488.09	20.551
488.44	20.715
488.79	21.310
489.13	20.755
489.48	21.505
489.83	21.438
490.17	21.698
490.52	22.768
490.87	21.280
491.22	21.903
491.56	22.137
491.91	21.795
492.26	22.292
492.60	21.116
492.95	22.255
493.30	21.366
493.64	20.719
493.99	21.691
494.34	21.532
494.68	21.623
495.03	21.937
495.37	21.509
495.72	22.155
496.07	22.114
496.41	21.292
496.76	21.755
497.11	21.643
497.45	21.741
497.80	21.807
498.14	21.612
498.49	21.684
498.84	21.660
499.18	20.956
499.53	21.615
499.87	20.815
500.22	21.603
500.56	21.916
500.91	21.781
501.26	21.034
501.60	21.029
501.95	20.364
502.29	21.845
502.64	21.553
502.98	20.906
503.33	20.535
503.67	21.373
504.02	21.324
504.36	21.149
504.71	20.783
505.06	22.364
505.40	21.598
505.75	21.516
506.09	21.257
506.44	21.623
506.78	20.874
507.13	21.570
507.47	21.686
507.82	20.984
508.16	21.161
508.51	20.868
508.85	21.047
509.19	20.952
509.54	22.038
509.88	21.505
510.23	21.737
510.57	22.299
510.92	21.821
511.26	22.827
511.61	21.625
511.95	20.673
512.30	21.321
512.64	22.247
512.98	21.385
513.33	21.127
513.67	21.352
514.02	22.292
514.36	21.461
514.70	21.478
515.05	21.006
515.39	21.108
515.74	21.433
516.08	22.478
516.42	21.717
516.77	20.797
517.11	22.399
517.46	22.209
517.80	22.215
518.14	21.004
518.49	21.097
518.83	22.076
519.17	21.506
519.52	20.929
519.86	22.162
520.20	21.649
520.55	22.201
520.89	22.075
521.23	22.436
521.58	22.503
521.92	21.936
522.26	21.275
522.61	21.526
522.95	22.409
523.29	21.587
523.64	23.458
523.98	21.792
524.32	21.802
524.66	21.104
525.01	22.280
525.35	22.712
525.69	22.465
526.04	21.824
526.38	22.435
526.72	21.631
527.06	21.470
527.41	21.377
527.75	21.829
528.09	23.417
528.43	22.252
528.78	21.705
529.12	21.798
529.46	22.521
529.80	21.812
530.15	21.429
530.49	22.642
530.83	21.598
531.17	22.329
531.51	22.185
531.86	21.274
532.20	21.640
532.54	21.241
532.88	21.647
533.22	22.492
533.57	22.119
533.91	21.935
534.25	22.721
534.59	21.107
534.93	22.066
535.27	21.210
535.62	21.645
535.96	21.861
536.30	22.473
536.64	21.053
536.98	21.233
537.32	20.996
537.66	22.003
538.01	21.845
538.35	22.169
538.69	21.271
539.03	21.477
539.37	20.926
539.71	22.374
540.05	20.513
540.39	20.785
540.73	21.159
541.07	22.381
541.42	22.290
541.76	21.042
542.10	21.124
542.44	20.028
542.78	21.235
543.12	21.024
543.46	20.940
543.80	20.842
544.14	22.505
544.48	20.305
544.82	20.847
545.16	20.622
545.50	21.404
545.84	21.669
546.18	20.827
546.52	21.242
546.86	19.647
547.20	20.586
547.54	21.372
547.88	21.390
548.22	20.651
548.56	20.614
548.90	20.704
549.24	20.972
549.58	20.427
549.92	21.056
550.26	21.993
550.60	20.270
550.94	20.075
551.28	21.045
551.62	22.481
551.96	21.742
552.30	20.378
552.64	19.703
552.98	21.023
553.32	20.476
553.66	21.423
554.00	20.086
554.34	19.927
554.68	20.656
555.02	19.686
555.36	19.365
555.69	20.102
556.03	20.515
556.37	19.915
556.71	19.972
557.05	21.033
557.39	20.271
557.73	20.197
558.07	21.025
558.41	20.893
558.75	21.170
559.08	19.487
559.42	21.715
559.76	20.336
560.10	20.830
560.44	21.297
560.78	20.288
561.12	19.341
561.45	19.592
561.79	20.977
562.13	20.253
562.47	20.857
562.81	19.481
563.15	20.326
563.48	19.477
563.82	20.315
564.16	19.567
564.50	20.692
564.84	20.068
565.17	20.795
565.51	19.251
565.85	19.587
566.19	19.868
566.52	19.594
566.86	19.659
567.20	18.998
567.54	18.941
567.88	18.365
568.21	18.251
568.55	18.153
568.89	17.797
569.23	17.965
569.56	18.189
569.90	17.331
570.24	16.679
570.57	17.093
570.91	17.044
571.25	16.624
571.59	16.927
571.92	16.486
572.26	16.840
572.60	16.354
572.93	16.276
573.27	16.247
573.61	16.527
573.95	15.918
574.28	15.984
574.62	16.243
574.96	16.191
575.29	15.672
575.63	15.885
575.97	15.978
576.30	16.107
576.64	16.112
576.98	15.943
577.31	16.042
577.65	15.662
577.98	15.808
578.32	15.080
578.66	15.865
578.99	15.939
579.33	16.117
579.67	15.555
580.00	16.000
580.34	15.754
580.67	16.218
581.01	15.812
581.35	15.446
581.68	15.181
582.02	15.279
582.35	15.472
582.69	15.498
583.02	15.440
583.36	15.665
583.70	15.602
584.03	15.988
584.37	15.492
584.70	15.659
585.04	16.414
585.37	15.529
585.71	15.364
586.04	15.739
586.38	15.549
586.72	15.931
587.05	15.539
587.39	15.639
587.72	15.851
588.06	15.705
588.39	15.673
588.73	15.493
589.06	15.875
589.40	15.961
589.73	15.379
590.07	16.114
590.40	16.357
590.73	16.329
591.07	16.757
591.40	16.348
591.74	16.229
592.07	16.613
592.41	16.517
592.74	16.358
593.08	15.692
593.41	15.639
593.75	15.245
594.08	16.062
594.41	16.709
594.75	15.967
595.08	15.945
595.42	15.963
595.75	15.618
596.09	15.897
596.42	16.462
596.75	16.235
597.09	16.833
597.42	16.240
597.75	16.178
598.09	16.530
598.42	17.002
598.76	16.037
599.09	16.447
599.42	15.710
599.76	15.884
600.09	15.776
600.42	15.706
600.76	15.632
601.09	16.121
601.42	15.367
601.76	16.409
602.09	16.173
602.42	16.715
602.76	15.730
603.09	15.934
603.42	15.954
603.76	16.056
604.09	16.008
604.42	15.948
604.76	15.801
605.09	16.538
605.42	16.824
605.75	15.675
606.09	15.356
606.42	15.919
606.75	15.844
607.09	15.647
607.42	16.331
607.75	15.317
608.08	16.005
608.42	15.979
608.75	15.671
609.08	16.854
609.41	16.145
609.75	16.288
610.08	16.223
610.41	15.938
610.74	16.169
611.07	16.032
611.41	16.530
611.74	15.890
612.07	16.571
612.40	16.703
612.73	16.191
613.07	16.020
613.40	16.850
613.73	16.306
614.06	16.252
614.39	15.620
614.72	17.268
615.06	16.556
615.39	15.673
615.72	15.227
616.05	15.709
616.38	16.552
616.71	15.837
617.05	17.629
617.38	17.190
617.71	16.544
618.04	15.966
618.37	16.845
618.70	16.882
619.03	16.838
619.36	17.580
619.69	16.155
620.03	16.325
620.36	16.423
620.69	15.846
621.02	17.000
621.35	17.416
621.68	17.115
622.01	17.638
622.34	17.129
622.67	17.228
623.00	18.161
623.33	17.502
623.66	16.431
623.99	16.654
624.32	17.461
624.65	17.953
624.99	16.165
625.32	16.878
625.65	16.822
625.98	17.062
626.31	17.633
626.64	16.939
626.97	17.301
627.30	19.247
627.63	17.734
627.96	17.143
628.29	19.535
628.62	18.279
628.95	17.936
629.28	17.635
629.61	19.330
629.94	18.375
630.26	18.719
630.59	17.982
630.92	18.876
631.25	18.229
631.58	19.165
631.91	17.391
632.24	18.002
632.57	16.333
632.90	18.903
633.23	18.345
633.56	19.305
633.89	19.378
634.22	20.612
634.55	19.610
634.88	17.892
635.20	19.875
635.53	18.475
635.86	19.744
636.19	18.486
636.52	18.171
636.85	18.938
637.18	18.270
637.51	19.725
637.83	19.843
638.16	17.867
638.49	18.024
638.82	17.647
639.15	19.016
639.48	19.118
639.81	18.750
640.13	20.141
640.46	19.350
640.79	18.849
641.12	19.675
641.45	18.486
641.77	19.293
642.10	19.516
642.43	21.384
642.76	19.558
643.09	19.489
643.41	19.458
643.74	21.486
644.07	17.152
644.40	20.564
644.73	19.492
645.05	19.721
645.38	19.103
645.71	18.367
646.04	19.697
646.36	21.181
646.69	18.357
647.02	20.219
647.35	21.755
647.67	19.963
648.00	18.297
648.33	20.678
648.66	19.199
648.98	19.720
649.31	18.098
649.64	17.214
649.96	19.905
650.29	19.118
650.62	19.275
650.94	18.966
651.27	19.258
651.60	20.979
651.92	20.430
652.25	20.603
652.58	19.472
652.90	18.182
653.23	16.638
653.56	17.851
653.88	17.065
654.21	17.065
654.54	17.940
654.86	17.724
655.19	17.647
655.52	15.474
655.84	13.007
656.17	15.104
656.49	19.544
656.82	19.200
657.15	14.147
657.47	10.616
657.80	7.809
658.13	8.233
658.45	12.390
658.78	12.757
659.10	12.592
659.43	12.841
659.75	13.643
660.08	14.138
660.41	16.126
660.73	16.391
661.06	17.687
661.38	17.248
661.71	19.672
662.03	19.239
662.36	17.920
662.68	21.505
663.01	20.763
663.33	21.382
663.66	18.847
663.98	20.449
664.31	18.681
664.63	15.766
664.96	20.788
665.28	22.747
665.61	18.575
665.93	19.486
666.26	20.464
666.58	18.415
666.91	19.507
667.23	19.816
667.56	17.471
667.88	19.159
668.21	19.420
668.53	21.149
668.86	21.823
669.18	19.622
669.50	16.359
669.83	19.093
670.15	17.381
670.48	18.161
670.80	21.882
671.13	18.078
671.45	17.580
671.77	18.966
672.10	16.959
672.42	18.702
672.75	17.500
673.07	16.909
673.39	19.216
673.72	18.363
674.04	18.852
674.37	18.496
674.69	17.284
675.01	16.239
675.34	17.943
675.66	20.697
675.98	19.248
676.31	18.326
676.63	22.449
676.95	16.941
677.28	17.890
677.60	19.118
677.92	20.621
678.25	20.174
678.57	18.534
678.89	17.697
679.22	15.942
679.54	17.959
679.86	18.750
680.18	16.731
680.51	17.115
680.83	15.984
681.15	16.699
681.48	15.431
681.80	18.200
682.12	18.333
682.44	18.913
682.77	16.000
683.09	16.741
683.41	17.209
683.73	20.759
684.06	18.363
684.38	17.949
684.70	16.497
685.02	18.388
685.34	16.634
685.67	14.447
685.99	15.125
686.31	18.621
686.63	15.625
686.96	18.367
687.28	15.968
687.60	17.769
687.92	14.981
688.24	15.800
688.56	17.763
688.89	15.590
689.21	17.265
689.53	14.865
689.85	20.674
690.17	15.385
690.49	14.976
690.82	17.184
691.14	16.667
691.46	16.009
691.78	18.462
692.10	17.834
692.42	16.264
692.74	15.652
693.06	14.382
693.39	17.096
693.71	18.444
694.03	20.000
694.35	16.667
694.67	22.500
694.99	19.330
695.31	17.829
695.63	18.780
695.95	16.794
696.27	13.425
696.59	19.355
696.91	17.039
697.23	14.213
697.56	16.787
697.88	19.958
698.20	18.143
698.52	15.187
698.84	15.789
699.16	13.712
699.48	19.259
699.80	22.481
700.12	17.694
700.44	15.775
700.76	16.573
701.08	16.918
701.40	18.862
701.72	19.385
702.04	16.981
702.36	16.159
702.68	17.073
703.00	18.129
703.32	14.206
703.64	14.458
703.96	17.889
704.28	17.771
704.60	16.159
704.91	15.674
705.23	17.722
705.55	18.276
705.87	17.958
706.19	15.385
706.51	15.141
706.83	12.420
707.15	13.720
707.47	14.050
707.79	14.213
708.11	16.452
708.43	15.228
708.74	15.426
709.06	13.904
709.38	14.986
709.70	17.417
710.02	15.888
710.34	14.667
710.66	16.612
710.98	16.099
711.29	22.078
711.61	16.129
711.93	14.194
712.25	12.238
712.57	8.772
712.89	16.850
713.20	19.858
713.52	15.693
713.84	19.355
714.16	16.181
714.48	14.557
714.80	16.613
715.11	20.349
715.43	16.770
715.75	17.391
716.07	15.663
716.39	15.152
716.70	15.827
717.02	16.471
717.34	17.045
717.66	15.517
717.97	14.683
718.29	18.504
718.61	18.455
718.93	17.054
719.24	18.819
719.56	14.232
719.88	13.060
720.20	16.206
720.51	18.359
720.83	19.844
721.15	14.634
721.46	10.305
721.78	12.351
722.10	12.749
722.42	17.742
722.73	17.375
723.05	16.327
723.37	18.908
723.68	18.800
724.00	13.191
724.32	15.481
724.63	17.284
724.95	13.248
725.27	21.941
725.58	19.342
725.90	12.971
726.22	15.217
726.53	17.255
726.85	16.423
727.16	11.852
727.48	20.307
727.80	14.844
728.11	14.754
728.43	15.234
728.74	17.063
729.06	12.400
729.38	16.601
729.69	17.438
730.01	14.126
730.32	18.450
730.64	16.288
730.96	19.930
731.27	12.040
731.59	16.190
731.90	12.945
732.22	11.538
732.53	12.838
732.85	12.081
733.16	17.492
733.48	18.243
733.80	14.189
734.11	19.257
734.43	15.480
734.74	16.817
735.06	13.545
735.37	15.805
735.69	16.181
736.00	16.172
736.32	13.830
736.63	13.448
736.95	17.123
737.26	11.724
737.58	12.847
737.89	14.433
738.21	11.388
738.52	19.011
738.83	12.653
739.15	14.768
739.46	15.175
739.78	13.732
740.09	12.329
740.41	9.286
740.72	10.993
741.04	10.400
741.35	10.526
741.66	19.556
741.98	19.231
742.29	25.743
742.61	13.171
742.92	20.614
743.23	12.264
743.55	18.468
743.86	18.386
744.18	14.216
744.49	15.228
744.80	15.816
745.12	16.822
745.43	20.853
745.74	18.018
746.06	18.224
746.37	11.468
746.68	15.385
747.00	14.833
747.31	19.712
747.62	15.138
747.94	17.467
748.25	13.761
748.56	14.222
748.88	16.901
749.19	20.000
749.50	9.223
749.82	13.146
750.13	13.333
750.44	16.923
750.75	7.749
751.07	16.370
751.38	12.766
751.69	10.425
752.01	17.969
752.32	10.769
752.63	16.045
752.94	14.800
753.26	15.900
753.57	15.417
753.88	13.765
754.19	13.944
754.51	13.158
754.82	12.088
755.13	14.348
755.44	15.854
755.75	10.000
756.07	13.284
756.38	14.029
756.69	15.017
757.00	16.199
757.31	11.327
757.63	11.728
757.94	13.277
758.25	12.698
758.56	12.500
758.87	12.500
759.18	15.142
759.50	9.428
759.81	15.719
760.12	16.615
760.43	11.607
760.74	13.559
761.05	9.945
761.36	14.040
761.67	11.178
761.99	13.746
762.30	8.394
762.61	12.757
762.92	20.085
763.23	17.623
763.54	16.017
763.85	16.327
764.16	8.130
764.47	13.600
764.78	11.429
765.10	14.754
765.41	14.894
765.72	13.354
766.03	15.182
766.34	13.846
766.65	14.226
766.96	12.676
767.27	17.327
767.58	4.494
767.89	14.815
768.20	12.155
768.51	16.080
768.82	19.712
769.13	15.044
769.44	14.644
769.75	11.966
770.06	15.695
770.37	10.784
770.68	15.534
770.99	12.621
771.30	16.807
771.61	10.612
771.92	18.257
772.23	13.063
772.54	7.735
772.85	11.628
773.16	15.873
773.47	10.059
773.78	17.816
774.09	16.875
774.39	10.559
774.70	19.048
775.01	11.034
775.32	17.857
775.63	6.015
775.94	9.774
776.25	3.200
776.56	16.529
776.87	9.524
777.18	11.712
777.48	19.820
777.79	11.811
778.10	15.596
778.41	7.895
778.72	17.647
779.03	7.042
779.34	20.946
779.65	9.859
779.95	15.894
780.26	4.317
780.57	13.669
780.88	12.676
781.19	3.361
781.50	16.779
781.80	15.789
782.11	6.395
782.42	20.126
782.73	10.458
783.04	2.759
783.34	5.344
783.65	13.423
783.96	10.000
784.27	15.000
784.57	14.184
784.88	9.615
785.19	28.182
785.50	14.545
785.81	16.190
786.11	7.563
786.42	19.469
786.73	7.547
787.04	8.257
787.34	4.950
787.65	17.500
787.96	15.702
788.26	14.493
788.57	8.730
788.88	4.878
789.19	10.400
789.49	6.870
789.80	17.424
790.11	10.377
790.41	9.901
790.72	15.957
791.03	4.348
791.33	11.765
791.64	20.988
791.95	22.826
792.25	21.591
792.56	8.974
792.87	15.385
793.17	1.282
793.48	8.333
793.79	0.000
794.09	20.192
794.40	13.542
794.70	9.009
795.01	7.813
795.32	8.696
795.62	-9.783
795.93	8.491
796.23	2.020
796.54	9.756
796.85	20.238
797.15	9.091
797.46	2.899
797.76	13.158
798.07	11.364
798.37	9.756
798.68	3.226
798.99	12.162
799.29	13.253
799.60	17.949
799.90	12.308
800.21	10.606
800.51	14.667
800.82	14.667
801.12	-27.083
801.43	-3.333
801.73	5.405
802.04	24.286
802.34	11.475
802.65	19.403
802.95	14.545
803.26	5.172
803.56	9.231
803.87	26.415
804.17	11.290
804.48	17.647
804.78	0.000
805.09	34.783
805.39	13.235
805.70	-10.638
806.00	0.000
806.30	33.333
806.61	3.947
806.91	8.108
807.22	1.316
807.52	13.636
807.83	-18.644
808.13	-13.636
808.43	10.000
808.74	-13.793
809.04	-7.937
809.35	10.204
809.65	15.000
809.95	2.041
810.26	26.761
810.56	18.750
810.86	4.082
811.17	17.308
811.47	0.000
811.77	25.000
812.08	28.302
812.38	9.375
812.69	1.818
812.99	17.073
813.29	-8.108
813.59	-27.027
813.90	5.455
814.20	12.727
814.50	3.333
814.81	25.455
815.11	7.018
815.41	32.558
815.72	15.000
816.02	11.429
816.32	0.000
816.62	10.417
816.93	6.667
817.23	-4.444
817.53	-25.000
817.84	2.703
818.14	9.756
818.44	20.000
818.74	16.327
819.04	9.756
819.35	30.556
819.65	27.273
819.95	-44.444
820.25	0.000
820.56	4.762
820.86	-22.222
821.16	0.000
821.46	0.000
821.76	5.172
822.07	-2.174
822.37	15.152
822.67	14.634
822.97	-5.405
823.27	-11.429
823.57	24.138
823.88	-8.824
824.18	-2.778
824.48	11.429
824.78	-9.524
825.08	3.571
825.38	-29.630
825.69	9.677
825.99	9.756
826.29	22.222
826.59	25.000
826.89	-3.226
827.19	-30.435
827.49	-2.778
827.79	-17.391
828.09	9.677
828.39	12.500
828.70	-25.000
829.00	-20.690
829.30	-10.811
829.60	-12.500
829.90	0.000
830.20	18.750
830.50	13.636
830.80	-105.882
831.10	0.000
831.40	29.412
831.70	26.923
832.00	9.091
832.30	32.353
832.60	-13.514
832.90	300.000
833.20	3.571
833.50	-35.000
833.80	13.158
834.10	-37.500
834.40	-68.182
834.70	-53.333
835.00	-90.000
835.30	37.500
835.60	4.762
835.90	4.762
836.20	-16.000
836.50	-45.833
836.80	-84.211
837.10	21.622
837.40	53.333
837.70	17.391
838.00	41.667
838.30	26.316
838.60	-60.000
838.90	-120.000
839.19	8.333
839.49	69.231
839.79	-10.526
840.09	-150.000
840.39	-110.000
840.69	-40.909
840.99	42.857
841.29	-4.167
841.59	-23.077
841.88	6.667
842.18	35.714
842.48	36.667
842.78	0.000
843.08	-21.429
843.38	0.000
843.68	-6.250
843.97	100.000
844.27	22.222
844.57	45.455
844.87	-13.333
845.17	31.818
845.47	400.000
845.76	0.000
846.06	-116.667
846.36	-1050.000
846.66	-31.579
846.96	4.545
847.25	-27.778
847.55	-200.000
847.85	14.286
848.15	-23.077
848.44	-316.667
848.74	-8.333
849.04	-7.692
849.34	-175.000
849.63	-54.545
849.93	-114.286
850.23	10.000
850.53	-62.500
850.82	16.667
851.12	-13.333
851.42	-29.412
851.71	-62.500
852.01	17.647
852.31	-61.538
852.61	-50.000
852.90	41.176
853.20	60.000
853.50	-62.500
853.79	-128.571
854.09	-275.000
854.39	-45.000
854.68	17.500
854.98	-28.571
855.28	-16.000
855.57	45.833
855.87	0.000
856.17	8.000
856.46	3.125
856.76	-10.000
857.05	40.000
857.35	-25.000
857.65	0.000
857.94	-75.000
858.24	-41.667
858.53	25.000
858.83	-109.091
859.13	20.000
859.42	-64.286
859.72	-187.500
860.01	16.667
860.31	-112.500
860.60	-18.750
860.90	-100.000
861.20	50.000
861.49	66.667
861.79	-31.250
862.08	250.000
862.38	16.667
862.67	257.143
862.97	275.000
863.26	-100.000
863.56	-9.091
863.85	-47.368
864.15	-5.882
864.44	-20.000
864.74	-90.000
865.03	-11.111
865.33	0.000
865.62	92.857
865.92	15.789
866.21	0.000
866.51	27.273
866.80	44.444
867.10	-100.000
867.39	12.500
867.69	-53.333
867.98	-10.000
868.27	5.882
868.57	0.000
868.86	450.000
869.16	-100.000
869.45	-228.571
869.75	-150.000
870.04	140.000
870.33	-500.000
870.63	21.053
870.92	16.667
871.22	-1100.000
871.51	-128.571
871.80	-144.444
872.10	-175.000
>>>>>End Processed Spectral Data<<<<<
