SpectraSuite Data File
++++++++++++++++++++++++++++++++++++
Date: Wed May 13 21:05:18 PDT 2015
User: schluterlab
Dark Spectrum Present: Yes
Reference Spectrum Present: Yes
Number of Sampled Component Spectra: 1
Spectrometers: USB2E3373
Integration Time (usec): 3000 (USB2E3373)
Spectra Averaged: 3 (USB2E3373)
Boxcar Smoothing: 0 (USB2E3373)
Correct for Electrical Dark: No (USB2E3373)
Strobe/Lamp Enabled: No (USB2E3373)
Correct for Detector Non-linearity: No (USB2E3373)
Correct for Stray Light: No (USB2E3373)
Number of Pixels in Processed Spectrum: 2048
>>>>>Begin Processed Spectral Data<<<<<
178.53	0.000
178.91	550.000
179.29	166.667
179.67	-700.000
180.04	100.000
180.42	100.000
180.80	1900.000
181.18	183.333
181.56	-75.000
181.94	-325.000
182.31	81.818
182.69	107.692
183.07	-120.000
183.45	266.667
183.83	88.889
184.20	85.714
184.58	33.333
184.96	400.000
185.34	114.286
185.72	0.000
186.09	-400.000
186.47	-160.000
186.85	200.000
187.23	-150.000
187.61	450.000
187.98	800.000
188.36	25.000
188.74	0.000
189.12	-9.091
189.49	0.000
189.87	108.333
190.25	220.000
190.63	900.000
191.00	-120.000
191.38	260.000
191.76	350.000
192.14	133.333
192.51	-52.632
192.89	266.667
193.27	275.000
193.65	-180.000
194.02	163.636
194.40	60.000
194.78	0.000
195.15	-20.000
195.53	-60.000
195.91	50.000
196.29	-233.333
196.66	0.000
197.04	500.000
197.42	100.000
197.79	70.000
198.17	-75.000
198.55	-333.333
198.92	75.000
199.30	-166.667
199.68	60.000
200.05	-200.000
200.43	300.000
200.81	-1700.000
201.18	-180.000
201.56	-100.000
201.94	400.000
202.31	52.174
202.69	0.000
203.07	-200.000
203.44	-80.000
203.82	-200.000
204.19	-50.000
204.57	0.000
204.95	-133.333
205.32	0.000
205.70	-50.000
206.08	-200.000
206.45	0.000
206.83	150.000
207.20	-333.333
207.58	-10.000
207.96	-1400.000
208.33	-157.143
208.71	-1300.000
209.08	187.500
209.46	275.000
209.84	0.000
210.21	120.000
210.59	1600.000
210.96	320.000
211.34	400.000
211.71	-650.000
212.09	-300.000
212.46	-230.000
212.84	133.333
213.22	-100.000
213.59	-600.000
213.97	-400.000
214.34	-250.000
214.72	-7.692
215.09	137.500
215.47	200.000
215.84	550.000
216.22	0.000
216.59	-350.000
216.97	500.000
217.34	11.111
217.72	0.000
218.09	333.333
218.47	200.000
218.84	-57.143
219.22	-75.000
219.59	0.000
219.97	-100.000
220.34	-37.500
220.72	80.000
221.09	0.000
221.47	-233.333
221.84	200.000
222.22	0.000
222.59	1100.000
222.97	-100.000
223.34	-8.333
223.72	-1200.000
224.09	-50.000
224.46	18.182
224.84	175.000
225.21	-28.571
225.59	-125.000
225.96	-50.000
226.34	-20.000
226.71	-142.857
227.08	50.000
227.46	25.000
227.83	-500.000
228.21	43.750
228.58	-150.000
228.95	-58.824
229.33	-31.250
229.70	-12.500
230.08	23.077
230.45	-87.500
230.82	-50.000
231.20	85.714
231.57	-175.000
231.95	500.000
232.32	16.667
232.69	-23.529
233.07	-1000.000
233.44	-39.130
233.81	-900.000
234.19	25.000
234.56	-86.667
234.93	-40.000
235.31	10.526
235.68	-92.308
236.05	-15.385
236.43	16.667
236.80	-30.303
237.17	-26.667
237.55	-82.353
237.92	-34.483
238.29	-18.519
238.67	-5.556
239.04	-32.258
239.41	-19.149
239.79	6.383
240.16	0.000
240.53	-19.643
240.91	-16.071
241.28	-10.714
241.65	-4.839
242.02	2.632
242.40	2.899
242.77	-5.797
243.14	-6.410
243.51	1.064
243.89	-0.962
244.26	16.038
244.63	-1.923
245.00	1.042
245.38	-8.403
245.75	4.098
246.12	0.752
246.49	-7.317
246.87	-10.924
247.24	4.054
247.61	1.987
247.98	0.000
248.36	-1.183
248.73	5.056
249.10	1.515
249.47	-5.376
249.84	4.737
250.22	0.000
250.59	1.869
250.96	5.909
251.33	-0.957
251.70	9.205
252.08	2.092
252.45	2.881
252.82	2.281
253.19	-0.389
253.56	-0.360
253.94	7.829
254.31	5.986
254.68	4.027
255.05	4.950
255.42	-1.049
255.79	2.147
256.16	3.470
256.54	1.587
256.91	0.949
257.28	7.233
257.65	3.503
258.02	-0.880
258.39	5.263
258.76	2.616
259.14	3.693
259.51	2.528
259.88	3.523
260.25	2.222
260.62	-1.404
260.99	6.366
261.36	4.922
261.73	3.210
262.10	2.545
262.47	2.716
262.85	1.493
263.22	3.333
263.59	3.636
263.96	2.920
264.33	1.683
264.70	4.419
265.07	3.704
265.44	5.977
265.81	3.432
266.18	2.506
266.55	1.528
266.92	1.907
267.29	4.321
267.66	4.459
268.03	3.498
268.40	-0.424
268.77	4.132
269.14	4.898
269.51	4.107
269.88	-0.611
270.25	2.754
270.62	1.230
270.99	2.953
271.36	2.976
271.73	3.213
272.10	4.190
272.47	3.263
272.84	2.362
273.21	1.761
273.58	3.074
273.95	3.962
274.32	2.612
274.69	4.736
275.06	5.830
275.43	1.883
275.80	3.191
276.17	3.867
276.54	3.197
276.91	2.439
277.28	2.347
277.65	5.070
278.02	3.571
278.39	1.599
278.76	4.181
279.13	3.087
279.50	3.103
279.87	1.993
280.23	2.703
280.60	4.152
280.97	3.571
281.34	2.839
281.71	2.927
282.08	3.761
282.45	3.934
282.82	2.875
283.19	6.098
283.56	4.844
283.92	4.587
284.29	5.304
284.66	1.812
285.03	2.769
285.40	3.021
285.77	4.505
286.14	2.736
286.51	5.247
286.87	2.769
287.24	3.982
287.61	3.012
287.98	3.824
288.35	2.534
288.72	4.017
289.08	3.419
289.45	3.965
289.82	3.177
290.19	3.086
290.56	2.841
290.93	4.558
291.29	3.830
291.66	4.098
292.03	3.815
292.40	4.038
292.77	4.685
293.13	3.626
293.50	3.791
293.87	3.467
294.24	3.439
294.60	2.861
294.97	4.497
295.34	2.111
295.71	1.971
296.08	2.225
296.44	1.658
296.81	2.680
297.18	4.500
297.55	3.302
297.91	1.863
298.28	2.663
298.65	2.094
299.02	4.762
299.38	3.067
299.75	2.764
300.12	2.558
300.48	3.392
300.85	1.617
301.22	3.833
301.59	2.582
301.95	1.510
302.32	3.384
302.69	1.017
303.05	1.772
303.42	2.727
303.79	3.470
304.15	3.724
304.52	5.054
304.89	2.879
305.25	1.976
305.62	3.254
305.99	2.612
306.35	4.075
306.72	3.154
307.09	3.128
307.45	3.621
307.82	2.105
308.19	2.926
308.55	2.968
308.92	5.599
309.29	3.604
309.65	3.097
310.02	3.579
310.38	2.744
310.75	2.860
311.12	3.790
311.48	3.264
311.85	4.724
312.22	4.642
312.58	3.285
312.95	4.677
313.31	3.949
313.68	3.340
314.05	4.915
314.41	5.764
314.78	4.744
315.14	5.278
315.51	6.185
315.87	7.229
316.24	6.703
316.61	7.306
316.97	6.389
317.34	7.576
317.70	6.690
318.07	9.139
318.43	7.769
318.80	8.377
319.16	8.930
319.53	9.319
319.89	8.943
320.26	9.427
320.62	11.492
320.99	10.756
321.35	11.319
321.72	11.357
322.08	13.007
322.45	13.599
322.81	13.771
323.18	14.222
323.54	15.884
323.91	16.260
324.27	15.752
324.64	16.115
325.00	17.935
325.37	19.966
325.73	18.013
326.10	21.278
326.46	21.823
326.83	21.117
327.19	22.358
327.56	23.449
327.92	25.181
328.29	26.544
328.65	26.643
329.01	25.858
329.38	27.478
329.74	27.983
330.11	29.486
330.47	28.906
330.84	29.693
331.20	29.718
331.56	32.428
331.93	32.903
332.29	33.189
332.66	32.373
333.02	33.623
333.38	32.807
333.75	33.447
334.11	34.288
334.48	34.176
334.84	35.159
335.20	35.334
335.57	34.378
335.93	34.536
336.29	34.676
336.66	33.333
337.02	35.826
337.38	36.815
337.75	35.142
338.11	35.269
338.47	35.103
338.84	35.825
339.20	36.420
339.56	35.836
339.93	37.252
340.29	35.440
340.65	37.382
341.02	36.606
341.38	36.740
341.74	35.798
342.11	37.572
342.47	35.900
342.83	36.683
343.20	38.579
343.56	37.612
343.92	37.368
344.28	38.393
344.65	37.959
345.01	37.450
345.37	38.816
345.73	38.971
346.10	37.881
346.46	38.374
346.82	39.486
347.19	37.421
347.55	39.015
347.91	37.490
348.27	38.328
348.63	37.260
349.00	38.050
349.36	38.932
349.72	38.747
350.08	39.158
350.45	38.215
350.81	39.280
351.17	38.183
351.53	39.670
351.89	37.887
352.26	36.757
352.62	38.062
352.98	38.898
353.34	38.406
353.70	37.617
354.07	39.686
354.43	40.280
354.79	39.824
355.15	38.354
355.51	37.585
355.87	39.249
356.24	40.289
356.60	38.858
356.96	37.529
357.32	39.861
357.68	39.649
358.04	39.410
358.40	38.837
358.77	38.303
359.13	40.311
359.49	40.273
359.85	39.045
360.21	40.324
360.57	40.076
360.93	40.440
361.29	39.526
361.66	39.560
362.02	39.807
362.38	39.734
362.74	38.941
363.10	39.841
363.46	39.553
363.82	39.911
364.18	38.579
364.54	39.752
364.90	38.815
365.26	39.207
365.62	39.915
365.98	39.217
366.35	40.355
366.71	40.157
367.07	39.830
367.43	38.955
367.79	39.541
368.15	40.366
368.51	40.084
368.87	40.335
369.23	39.929
369.59	38.055
369.95	40.276
370.31	39.470
370.67	38.668
371.03	39.941
371.39	39.106
371.75	39.357
372.11	41.097
372.47	40.231
372.83	40.222
373.19	39.640
373.55	40.462
373.91	39.392
374.27	39.488
374.63	39.758
374.99	39.415
375.35	41.096
375.71	39.198
376.07	39.822
376.42	39.439
376.78	40.687
377.14	40.475
377.50	40.939
377.86	40.106
378.22	40.708
378.58	39.723
378.94	41.375
379.30	40.350
379.66	39.519
380.02	40.686
380.38	39.217
380.74	41.184
381.09	40.109
381.45	40.145
381.81	40.234
382.17	39.509
382.53	39.262
382.89	40.048
383.25	39.321
383.61	40.557
383.97	40.375
384.32	40.454
384.68	39.605
385.04	39.218
385.40	39.975
385.76	39.294
386.12	40.349
386.48	40.000
386.83	40.363
387.19	40.160
387.55	39.730
387.91	40.467
388.27	38.903
388.62	40.325
388.98	39.675
389.34	38.847
389.70	38.645
390.06	38.875
390.42	39.755
390.77	39.462
391.13	38.763
391.49	38.267
391.85	38.850
392.20	38.221
392.56	38.857
392.92	39.321
393.28	38.698
393.64	39.327
393.99	36.903
394.35	38.580
394.71	39.103
395.07	36.101
395.42	37.599
395.78	37.773
396.14	37.476
396.50	38.110
396.85	38.368
397.21	37.703
397.57	37.391
397.92	36.287
398.28	37.056
398.64	36.551
399.00	36.663
399.35	36.606
399.71	37.391
400.07	36.928
400.42	36.677
400.78	36.858
401.14	36.603
401.49	35.770
401.85	35.995
402.21	37.090
402.57	35.622
402.92	36.796
403.28	37.273
403.63	35.400
403.99	35.701
404.35	35.287
404.70	34.804
405.06	35.643
405.42	34.987
405.77	34.965
406.13	34.457
406.49	33.972
406.84	34.799
407.20	35.110
407.55	34.740
407.91	34.282
408.27	33.125
408.62	35.114
408.98	34.464
409.34	34.035
409.69	34.763
410.05	34.017
410.40	33.536
410.76	32.732
411.11	34.266
411.47	34.837
411.83	33.313
412.18	32.935
412.54	33.271
412.89	33.103
413.25	32.743
413.60	33.417
413.96	33.021
414.31	34.094
414.67	33.587
415.03	34.844
415.38	33.157
415.74	32.034
416.09	34.369
416.45	33.903
416.80	34.027
417.16	32.794
417.51	34.025
417.87	33.664
418.22	33.872
418.58	33.180
418.93	33.961
419.29	34.521
419.64	34.097
420.00	33.270
420.35	33.353
420.71	34.369
421.06	33.948
421.42	34.915
421.77	34.277
422.12	34.499
422.48	34.133
422.83	35.381
423.19	35.078
423.54	35.512
423.90	35.036
424.25	35.471
424.61	35.921
424.96	34.595
425.31	33.707
425.67	36.096
426.02	36.278
426.38	34.577
426.73	34.148
427.09	35.147
427.44	36.524
427.79	35.926
428.15	35.107
428.50	35.529
428.85	36.716
429.21	35.622
429.56	36.291
429.92	36.960
430.27	36.503
430.62	35.677
430.98	37.652
431.33	36.754
431.68	36.848
432.04	36.507
432.39	37.009
432.74	37.216
433.10	38.059
433.45	37.101
433.80	37.011
434.16	36.537
434.51	37.446
434.86	37.927
435.22	37.068
435.57	36.425
435.92	38.359
436.28	37.718
436.63	37.298
436.98	37.838
437.34	37.424
437.69	37.544
438.04	36.616
438.39	38.418
438.75	37.723
439.10	38.577
439.45	37.893
439.81	38.485
440.16	39.188
440.51	37.990
440.86	39.004
441.22	38.095
441.57	38.341
441.92	38.777
442.27	37.608
442.63	38.375
442.98	39.468
443.33	39.560
443.68	38.007
444.03	38.847
444.39	39.960
444.74	40.033
445.09	39.317
445.44	40.732
445.79	39.339
446.15	40.266
446.50	39.427
446.85	40.139
447.20	39.571
447.55	39.899
447.91	39.326
448.26	39.851
448.61	39.931
448.96	40.376
449.31	40.091
449.66	40.197
450.02	40.421
450.37	40.364
450.72	39.265
451.07	39.875
451.42	39.364
451.77	41.814
452.12	40.166
452.47	41.640
452.83	40.743
453.18	40.675
453.53	39.281
453.88	40.663
454.23	40.606
454.58	40.257
454.93	40.731
455.28	39.371
455.63	39.364
455.98	39.927
456.34	38.970
456.69	40.447
457.04	40.681
457.39	39.507
457.74	40.215
458.09	39.870
458.44	40.541
458.79	39.868
459.14	38.989
459.49	41.037
459.84	39.966
460.19	40.576
460.54	40.450
460.89	40.822
461.24	39.827
461.59	41.184
461.94	40.518
462.29	40.441
462.64	40.831
462.99	39.235
463.34	40.953
463.69	41.430
464.04	38.655
464.39	40.451
464.74	39.865
465.09	41.042
465.44	39.562
465.79	40.541
466.14	40.422
466.49	40.645
466.84	40.108
467.19	38.917
467.54	40.830
467.89	39.661
468.24	40.934
468.59	40.599
468.94	40.677
469.29	39.392
469.64	40.167
469.99	40.759
470.34	39.852
470.68	40.818
471.03	40.056
471.38	40.264
471.73	39.918
472.08	41.168
472.43	40.040
472.78	40.703
473.13	38.456
473.48	39.596
473.83	39.297
474.17	40.169
474.52	41.812
474.87	39.807
475.22	40.338
475.57	39.654
475.92	40.240
476.27	39.744
476.61	39.411
476.96	40.091
477.31	39.806
477.66	40.452
478.01	38.407
478.36	39.946
478.70	39.205
479.05	40.233
479.40	39.366
479.75	40.170
480.10	40.133
480.45	38.499
480.79	39.223
481.14	40.578
481.49	39.911
481.84	39.915
482.19	40.250
482.53	40.429
482.88	38.495
483.23	38.354
483.58	39.556
483.92	40.126
484.27	39.799
484.62	38.793
484.97	38.905
485.31	39.244
485.66	37.874
486.01	37.932
486.36	38.549
486.70	38.203
487.05	39.068
487.40	38.623
487.75	39.420
488.09	38.286
488.44	38.696
488.79	39.061
489.13	38.250
489.48	38.521
489.83	38.365
490.17	38.720
490.52	39.925
490.87	38.758
491.22	38.577
491.56	39.195
491.91	39.030
492.26	38.926
492.60	38.672
492.95	39.553
493.30	38.905
493.64	38.369
493.99	39.614
494.34	38.728
494.68	38.854
495.03	39.377
495.37	38.637
495.72	39.248
496.07	39.406
496.41	38.325
496.76	38.574
497.11	38.779
497.45	38.619
497.80	39.778
498.14	39.849
498.49	38.074
498.84	38.664
499.18	38.377
499.53	38.552
499.87	37.652
500.22	39.024
500.56	39.569
500.91	38.682
501.26	39.163
501.60	38.578
501.95	38.955
502.29	39.272
502.64	38.766
502.98	38.536
503.33	38.248
503.67	39.922
504.02	37.941
504.36	38.732
504.71	38.364
505.06	38.258
505.40	38.505
505.75	39.268
506.09	38.835
506.44	38.105
506.78	38.446
507.13	38.981
507.47	39.077
507.82	38.200
508.16	38.311
508.51	37.913
508.85	38.621
509.19	38.254
509.54	38.391
509.88	37.581
510.23	38.368
510.57	38.347
510.92	38.578
511.26	38.614
511.61	37.980
511.95	37.376
512.30	37.479
512.64	38.820
512.98	37.673
513.33	38.817
513.67	38.330
514.02	38.826
514.36	38.483
514.70	37.875
515.05	38.092
515.39	36.439
515.74	38.544
516.08	37.876
516.42	37.039
516.77	37.024
517.11	37.684
517.46	37.695
517.80	38.741
518.14	37.293
518.49	37.071
518.83	37.589
519.17	37.771
519.52	38.480
519.86	37.826
520.20	37.538
520.55	37.251
520.89	37.381
521.23	38.718
521.58	37.484
521.92	37.335
522.26	37.671
522.61	37.427
522.95	37.565
523.29	36.698
523.64	38.398
523.98	37.039
524.32	37.240
524.66	36.948
525.01	37.680
525.35	37.459
525.69	37.376
526.04	37.199
526.38	37.476
526.72	37.475
527.06	36.879
527.41	36.334
527.75	37.116
528.09	38.530
528.43	37.517
528.78	35.724
529.12	37.322
529.46	38.260
529.80	36.311
530.15	35.586
530.49	36.927
530.83	36.899
531.17	36.781
531.51	35.401
531.86	35.908
532.20	37.078
532.54	36.621
532.88	36.147
533.22	36.768
533.57	35.099
533.91	36.000
534.25	36.654
534.59	35.393
534.93	35.969
535.27	36.051
535.62	37.171
535.96	35.524
536.30	36.237
536.64	35.133
536.98	35.389
537.32	36.228
537.66	36.671
538.01	36.408
538.35	36.395
538.69	35.318
539.03	35.168
539.37	35.211
539.71	35.402
540.05	34.548
540.39	35.582
540.73	35.615
541.07	35.374
541.42	36.768
541.76	35.318
542.10	34.259
542.44	35.551
542.78	34.837
543.12	34.771
543.46	35.384
543.80	35.438
544.14	36.614
544.48	34.307
544.82	35.440
545.16	34.483
545.50	36.259
545.84	35.484
546.18	34.292
546.52	34.439
546.86	34.558
547.20	35.168
547.54	33.524
547.88	33.806
548.22	34.463
548.56	34.757
548.90	34.777
549.24	34.861
549.58	34.662
549.92	36.170
550.26	35.277
550.60	35.285
550.94	34.552
551.28	35.503
551.62	35.489
551.96	34.187
552.30	33.988
552.64	34.393
552.98	34.872
553.32	34.895
553.66	34.043
554.00	33.909
554.34	34.579
554.68	33.482
555.02	34.281
555.36	35.779
555.69	34.741
556.03	34.310
556.37	33.215
556.71	33.637
557.05	34.760
557.39	34.439
557.73	35.401
558.07	35.192
558.41	34.141
558.75	34.411
559.08	33.520
559.42	35.484
559.76	33.257
560.10	34.743
560.44	34.783
560.78	33.237
561.12	34.478
561.45	34.014
561.79	34.113
562.13	34.529
562.47	33.929
562.81	33.478
563.15	33.003
563.48	32.829
563.82	34.473
564.16	33.514
564.50	34.328
564.84	32.635
565.17	33.311
565.51	32.420
565.85	32.978
566.19	33.179
566.52	33.159
566.86	33.059
567.20	32.621
567.54	32.700
567.88	32.307
568.21	32.211
568.55	32.290
568.89	32.303
569.23	32.906
569.56	32.833
569.90	32.362
570.24	30.975
570.57	32.071
570.91	31.525
571.25	31.051
571.59	31.028
571.92	31.798
572.26	31.482
572.60	32.122
572.93	31.271
573.27	30.550
573.61	31.299
573.95	30.804
574.28	31.219
574.62	30.733
574.96	31.447
575.29	30.216
575.63	30.769
575.97	31.304
576.30	31.278
576.64	30.941
576.98	30.727
577.31	30.951
577.65	30.307
577.98	30.809
578.32	31.018
578.66	30.977
578.99	30.305
579.33	30.860
579.67	30.703
580.00	30.609
580.34	30.126
580.67	30.965
581.01	30.737
581.35	30.369
581.68	30.797
582.02	30.703
582.35	31.165
582.69	31.111
583.02	30.837
583.36	31.001
583.70	30.896
584.03	31.006
584.37	30.820
584.70	30.652
585.04	30.949
585.37	31.179
585.71	31.042
586.04	31.278
586.38	30.597
586.72	30.936
587.05	31.641
587.39	31.170
587.72	30.904
588.06	30.971
588.39	30.898
588.73	30.716
589.06	31.232
589.40	31.097
589.73	30.435
590.07	30.879
590.40	31.427
590.73	31.199
591.07	30.673
591.40	31.348
591.74	31.125
592.07	31.219
592.41	31.746
592.74	30.748
593.08	30.769
593.41	31.310
593.75	30.814
594.08	31.192
594.41	31.371
594.75	31.109
595.08	31.591
595.42	30.422
595.75	31.056
596.09	30.793
596.42	31.087
596.75	31.505
597.09	32.120
597.42	31.718
597.75	31.022
598.09	30.874
598.42	31.320
598.76	31.024
599.09	31.453
599.42	30.702
599.76	31.356
600.09	31.062
600.42	31.224
600.76	30.599
601.09	30.471
601.42	30.694
601.76	30.502
602.09	30.563
602.42	30.706
602.76	31.502
603.09	30.637
603.42	30.908
603.76	30.203
604.09	29.802
604.42	30.640
604.76	30.423
605.09	30.856
605.42	31.399
605.75	30.578
606.09	30.132
606.42	31.255
606.75	29.957
607.09	31.161
607.42	30.517
607.75	30.153
608.08	30.388
608.42	30.694
608.75	30.387
609.08	30.132
609.41	31.098
609.75	29.753
610.08	31.262
610.41	30.904
610.74	31.473
611.07	30.711
611.41	31.320
611.74	31.056
612.07	30.954
612.40	30.541
612.73	31.394
613.07	31.596
613.40	31.443
613.73	29.686
614.06	30.127
614.39	30.684
614.72	31.316
615.06	30.444
615.39	29.857
615.72	29.752
616.05	31.757
616.38	30.813
616.71	31.014
617.05	30.835
617.38	30.622
617.71	30.453
618.04	30.104
618.37	31.230
618.70	30.660
619.03	30.103
619.36	31.388
619.69	30.921
620.03	30.106
620.36	29.784
620.69	29.764
621.02	30.923
621.35	30.499
621.68	31.133
622.01	30.259
622.34	29.738
622.67	31.793
623.00	29.939
623.33	30.666
623.66	30.706
623.99	30.158
624.32	30.888
624.65	30.045
624.99	30.639
625.32	30.396
625.65	29.225
625.98	30.016
626.31	31.510
626.64	30.696
626.97	30.536
627.30	31.138
627.63	30.536
627.96	28.918
628.29	31.442
628.62	32.012
628.95	29.459
629.28	31.626
629.61	31.483
629.94	30.658
630.26	31.921
630.59	30.170
630.92	28.815
631.25	29.763
631.58	32.120
631.91	29.268
632.24	30.845
632.57	29.444
632.90	31.039
633.23	29.257
633.56	31.415
633.89	31.459
634.22	33.098
634.55	30.938
634.88	29.657
635.20	31.250
635.53	30.491
635.86	30.385
636.19	30.397
636.52	29.512
636.85	29.916
637.18	28.867
637.51	31.586
637.83	29.634
638.16	29.867
638.49	29.907
638.82	31.503
639.15	29.122
639.48	31.818
639.81	29.444
640.13	31.549
640.46	31.921
640.79	30.360
641.12	30.917
641.45	31.150
641.77	30.339
642.10	31.316
642.43	30.031
642.76	29.338
643.09	29.233
643.41	31.260
643.74	29.402
644.07	30.259
644.40	30.514
644.73	30.339
645.05	29.668
645.38	29.402
645.71	33.503
646.04	29.125
646.36	29.514
646.69	30.594
647.02	30.783
647.35	31.627
647.67	32.532
648.00	26.812
648.33	30.339
648.66	29.549
648.98	30.280
649.31	28.681
649.64	30.829
649.96	30.648
650.29	29.412
650.62	31.796
650.94	28.793
651.27	28.092
651.60	29.720
651.92	31.541
652.25	29.481
652.58	30.363
652.90	28.451
653.23	28.523
653.56	28.926
653.88	29.693
654.21	27.133
654.54	31.063
654.86	29.431
655.19	27.871
655.52	28.498
655.84	27.204
656.17	32.461
656.49	43.376
656.82	42.749
657.15	32.242
657.47	23.808
657.80	18.016
658.13	18.676
658.45	27.530
658.78	27.379
659.10	27.510
659.43	27.712
659.75	27.971
660.08	28.207
660.41	26.673
660.73	28.926
661.06	28.741
661.38	28.101
661.71	28.893
662.03	29.810
662.36	27.876
662.68	30.753
663.01	32.203
663.33	26.998
663.66	27.494
663.98	27.640
664.31	30.549
664.63	23.649
664.96	30.416
665.28	30.043
665.61	28.078
665.93	29.979
666.26	30.380
666.58	26.767
666.91	29.596
667.23	30.415
667.56	29.195
667.88	26.402
668.21	28.348
668.53	28.046
668.86	30.695
669.18	30.024
669.50	27.419
669.83	30.788
670.15	29.286
670.48	28.966
670.80	29.759
671.13	29.519
671.45	28.767
671.77	25.216
672.10	28.265
672.42	26.336
672.75	26.607
673.07	28.909
673.39	27.425
673.72	27.345
674.04	30.533
674.37	28.455
674.69	26.337
675.01	26.923
675.34	29.103
675.66	31.155
675.98	28.319
676.31	27.149
676.63	31.746
676.95	28.706
677.28	28.440
677.60	28.922
677.92	27.938
678.25	31.453
678.57	28.106
678.89	27.932
679.22	25.880
679.54	28.980
679.86	27.734
680.18	30.192
680.51	26.923
680.83	26.316
681.15	27.112
681.48	28.457
681.80	27.812
682.12	27.917
682.44	25.151
682.77	25.895
683.09	29.018
683.41	28.837
683.73	26.339
684.06	26.991
684.38	25.427
684.70	26.273
685.02	28.512
685.34	27.397
685.67	27.580
685.99	26.157
686.31	28.448
686.63	25.184
686.96	27.829
687.28	25.749
687.60	28.733
687.92	26.070
688.24	26.600
688.56	30.482
688.89	26.058
689.21	27.130
689.53	23.649
689.85	26.067
690.17	25.714
690.49	27.295
690.82	26.730
691.14	28.019
691.46	28.074
691.78	25.055
692.10	25.478
692.42	25.495
692.74	29.348
693.06	24.719
693.39	24.590
693.71	26.444
694.03	29.773
694.35	28.378
694.67	29.750
694.99	26.289
695.31	30.749
695.63	25.366
695.95	25.700
696.27	26.575
696.59	25.000
696.91	28.212
697.23	25.127
697.56	28.537
697.88	31.601
698.20	27.214
698.52	26.869
698.84	25.837
699.16	25.768
699.48	29.630
699.80	26.615
700.12	26.810
700.44	26.761
700.76	26.124
701.08	28.701
701.40	22.754
701.72	28.615
702.04	23.585
702.36	28.049
702.68	25.305
703.00	26.023
703.32	26.184
703.64	25.904
703.96	27.859
704.28	24.398
704.60	27.744
704.91	24.138
705.23	25.633
705.55	22.069
705.87	27.817
706.19	26.740
706.51	27.817
706.83	23.567
707.15	28.659
707.47	24.793
707.79	26.396
708.11	26.221
708.43	27.157
708.74	24.468
709.06	24.332
709.38	28.530
709.70	26.426
710.02	25.545
710.34	23.000
710.66	25.081
710.98	23.839
711.29	26.299
711.61	24.516
711.93	26.774
712.25	22.727
712.57	20.000
712.89	30.037
713.20	29.787
713.52	22.993
713.84	22.581
714.16	24.919
714.48	26.582
714.80	21.725
715.11	29.651
715.43	22.671
715.75	26.708
716.07	25.602
716.39	24.242
716.70	29.137
717.02	21.961
717.34	25.000
717.66	22.845
717.97	23.413
718.29	31.102
718.61	24.034
718.93	25.581
719.24	23.985
719.56	23.596
719.88	22.388
720.20	24.111
720.51	24.219
720.83	29.961
721.15	25.203
721.46	22.519
721.78	21.514
722.10	24.701
722.42	21.371
722.73	20.849
723.05	25.306
723.37	30.252
723.68	24.000
724.00	18.723
724.32	24.268
724.63	25.926
724.95	21.368
725.27	27.426
725.58	25.926
725.90	25.941
726.22	27.536
726.53	22.353
726.85	25.182
727.16	24.815
727.48	26.820
727.80	29.688
728.11	22.131
728.43	24.219
728.74	23.016
729.06	21.200
729.38	27.668
729.69	22.420
730.01	23.420
730.32	24.354
730.64	23.864
730.96	26.573
731.27	21.405
731.59	25.079
731.90	22.006
732.22	22.115
732.53	23.311
732.85	20.470
733.16	23.102
733.48	26.014
733.80	20.608
734.11	26.014
734.43	23.220
734.74	29.730
735.06	21.902
735.37	26.444
735.69	23.625
736.00	21.122
736.32	23.050
736.63	18.966
736.95	22.260
737.26	21.379
737.58	26.042
737.89	24.055
738.21	23.488
738.52	22.053
738.83	22.449
739.15	23.207
739.46	21.401
739.78	17.606
740.09	25.000
740.41	22.857
740.72	19.858
741.04	19.200
741.35	16.228
741.66	23.111
741.98	22.115
742.29	25.743
742.61	22.927
742.92	23.246
743.23	24.528
743.55	22.973
743.86	18.386
744.18	25.490
744.49	22.843
744.80	22.959
745.12	20.093
745.43	19.431
745.74	23.423
746.06	23.364
746.37	23.394
746.68	25.962
747.00	28.708
747.31	25.962
747.62	26.606
747.94	26.201
748.25	25.688
748.56	31.111
748.88	25.822
749.19	27.143
749.50	25.728
749.82	23.005
750.13	21.250
750.44	19.615
750.75	19.188
751.07	23.843
751.38	24.113
751.69	24.324
752.01	22.656
752.32	15.769
752.63	20.149
752.94	19.200
753.26	23.013
753.57	21.667
753.88	25.506
754.19	17.530
754.51	19.173
754.82	20.513
755.13	18.261
755.44	21.545
755.75	22.000
756.07	24.723
756.38	21.223
756.69	20.478
757.00	20.872
757.31	18.123
757.63	17.593
757.94	20.621
758.25	23.016
758.56	20.109
758.87	22.917
759.18	21.136
759.50	18.182
759.81	17.391
760.12	20.000
760.43	16.667
760.74	20.056
761.05	20.994
761.36	18.911
761.67	20.544
761.99	17.182
762.30	22.263
762.61	19.342
762.92	24.786
763.23	22.951
763.54	19.481
763.85	25.714
764.16	16.260
764.47	23.200
764.78	15.357
765.10	19.344
765.41	20.973
765.72	22.671
766.03	19.802
766.34	19.231
766.65	22.176
766.96	23.944
767.27	23.762
767.58	11.798
767.89	25.309
768.20	23.204
768.51	24.121
768.82	22.596
769.13	20.354
769.44	17.992
769.75	12.393
770.06	24.215
770.37	16.176
770.68	27.184
770.99	14.563
771.30	20.588
771.61	20.000
771.92	21.162
772.23	19.820
772.54	18.232
772.85	16.279
773.16	24.339
773.47	14.793
773.78	27.011
774.09	23.125
774.39	24.224
774.70	23.129
775.01	18.621
775.32	22.143
775.63	18.045
775.94	24.060
776.25	8.000
776.56	23.967
776.87	12.698
777.18	13.514
777.48	17.117
777.79	21.260
778.10	22.936
778.41	10.526
778.72	16.807
779.03	13.380
779.34	26.351
779.65	22.535
779.95	17.881
780.26	18.705
780.57	25.180
780.88	22.535
781.19	15.966
781.50	20.805
781.80	21.637
782.11	8.721
782.42	26.415
782.73	20.915
783.04	15.862
783.34	16.031
783.65	18.121
783.96	7.692
784.27	17.857
784.57	21.277
784.88	20.192
785.19	29.091
785.50	13.636
785.81	11.429
786.11	25.210
786.42	21.239
786.73	13.208
787.04	4.587
787.34	10.891
787.65	17.500
787.96	21.488
788.26	18.116
788.57	19.048
788.88	13.008
789.19	13.600
789.49	14.504
789.80	28.788
790.11	4.717
790.41	28.713
790.72	25.532
791.03	9.783
791.33	17.647
791.64	20.988
791.95	19.565
792.25	31.818
792.56	24.359
792.87	6.410
793.17	0.000
793.48	13.095
793.79	12.500
794.09	30.769
794.40	16.667
794.70	20.721
795.01	22.656
795.32	5.217
795.62	14.130
795.93	15.094
796.23	24.242
796.54	12.195
796.85	23.810
797.15	18.182
797.46	39.130
797.76	19.737
798.07	14.773
798.37	4.878
798.68	27.419
798.99	12.162
799.29	20.482
799.60	15.385
799.90	23.077
800.21	27.273
800.51	5.333
800.82	13.333
801.12	-8.333
801.43	0.000
801.73	5.405
802.04	24.286
802.34	-4.918
802.65	16.418
802.95	21.818
803.26	6.897
803.56	20.000
803.87	24.528
804.17	20.968
804.48	20.588
804.78	4.878
805.09	18.841
805.39	10.294
805.70	-12.766
806.00	5.263
806.30	19.231
806.61	26.316
806.91	12.162
807.22	18.421
807.52	21.591
807.83	3.390
808.13	-3.030
808.43	11.667
808.74	-18.966
809.04	19.048
809.35	4.082
809.65	15.000
809.95	-22.449
810.26	19.718
810.56	-2.083
810.86	0.000
811.17	28.846
811.47	14.894
811.77	12.500
812.08	30.189
812.38	21.875
812.69	9.091
812.99	12.195
813.29	-13.514
813.59	-5.405
813.90	25.455
814.20	7.273
814.50	8.333
814.81	9.091
815.11	-1.754
815.41	25.581
815.72	7.500
816.02	17.143
816.32	8.108
816.62	10.417
816.93	2.222
817.23	17.778
817.53	-5.556
817.84	-2.703
818.14	17.073
818.44	12.000
818.74	6.122
819.04	9.756
819.35	-5.556
819.65	4.545
819.95	-50.000
820.25	-24.242
820.56	4.762
820.86	19.444
821.16	-9.091
821.46	-4.348
821.76	-8.621
822.07	32.609
822.37	36.364
822.67	46.341
822.97	16.216
823.27	5.714
823.57	27.586
823.88	5.882
824.18	33.333
824.48	8.571
824.78	33.333
825.08	0.000
825.38	-3.704
825.69	19.355
825.99	2.439
826.29	-7.407
826.59	-9.375
826.89	9.677
827.19	-39.130
827.49	-19.444
827.79	4.348
828.09	16.129
828.39	6.250
828.70	-6.250
829.00	6.897
829.30	5.405
829.60	-70.833
829.90	7.407
830.20	-9.375
830.50	4.545
830.80	-70.588
831.10	-22.727
831.40	-17.647
831.70	26.923
832.00	18.182
832.30	29.412
832.60	8.108
832.90	1100.000
833.20	28.571
833.50	-90.000
833.80	5.263
834.10	-33.333
834.40	-54.545
834.70	6.667
835.00	-90.000
835.30	-33.333
835.60	-47.619
835.90	0.000
836.20	-8.000
836.50	29.167
836.80	-68.421
837.10	29.730
837.40	16.667
837.70	13.043
838.00	50.000
838.30	36.842
838.60	-80.000
838.90	-110.000
839.19	33.333
839.49	-23.077
839.79	-10.526
840.09	-233.333
840.39	-30.000
840.69	22.727
840.99	9.524
841.29	-4.167
841.59	-15.385
841.88	-113.333
842.18	-42.857
842.48	26.667
842.78	-271.429
843.08	0.000
843.38	-62.500
843.68	-31.250
843.97	7.143
844.27	-133.333
844.57	-54.545
844.87	-33.333
845.17	22.727
845.47	500.000
845.76	-40.000
846.06	-25.000
846.36	-1000.000
846.66	-21.053
846.96	0.000
847.25	-66.667
847.55	-144.444
847.85	-66.667
848.15	23.077
848.44	-133.333
848.74	-50.000
849.04	-61.538
849.34	-250.000
849.63	-45.455
849.93	-100.000
850.23	20.000
850.53	-175.000
850.82	16.667
851.12	33.333
851.42	5.882
851.71	-12.500
852.01	35.294
852.31	30.769
852.61	150.000
852.90	35.294
853.20	33.333
853.50	18.750
853.79	-78.571
854.09	-125.000
854.39	-65.000
854.68	-2.500
854.98	4.762
855.28	-12.000
855.57	-4.167
855.87	-4.167
856.17	-36.000
856.46	6.250
856.76	10.000
857.05	28.000
857.35	-41.667
857.65	-11.765
857.94	-108.333
858.24	-66.667
858.53	35.000
858.83	-136.364
859.13	20.000
859.42	-7.143
859.72	-162.500
860.01	8.333
860.31	-137.500
860.60	-62.500
860.90	-66.667
861.20	-133.333
861.49	40.000
861.79	-37.500
862.08	250.000
862.38	-108.333
862.67	228.571
862.97	275.000
863.26	-54.545
863.56	-45.455
863.85	15.789
864.15	-23.529
864.44	-140.000
864.74	-20.000
865.03	-55.556
865.33	-14.286
865.62	78.571
865.92	21.053
866.21	-38.889
866.51	-36.364
866.80	-77.778
867.10	-200.000
867.39	-12.500
867.69	-60.000
867.98	0.000
868.27	17.647
868.57	0.000
868.86	350.000
869.16	-200.000
869.45	0.000
869.75	400.000
870.04	-70.000
870.33	-1300.000
870.63	-31.579
870.92	-41.667
871.22	-900.000
871.51	0.000
871.80	-122.222
872.10	-25.000
>>>>>End Processed Spectral Data<<<<<
