SpectraSuite Data File
++++++++++++++++++++++++++++++++++++
Date: Wed May 13 20:48:44 PDT 2015
User: schluterlab
Dark Spectrum Present: Yes
Reference Spectrum Present: Yes
Number of Sampled Component Spectra: 1
Spectrometers: USB2E3373
Integration Time (usec): 3000 (USB2E3373)
Spectra Averaged: 3 (USB2E3373)
Boxcar Smoothing: 0 (USB2E3373)
Correct for Electrical Dark: No (USB2E3373)
Strobe/Lamp Enabled: No (USB2E3373)
Correct for Detector Non-linearity: No (USB2E3373)
Correct for Stray Light: No (USB2E3373)
Number of Pixels in Processed Spectrum: 2048
>>>>>Begin Processed Spectral Data<<<<<
178.53	0.000
178.91	-775.000
179.29	-600.000
179.67	-66.667
180.04	-500.000
180.42	900.000
180.80	560.000
181.18	-500.000
181.56	200.000
181.94	0.000
182.31	-385.714
182.69	966.667
183.07	-225.000
183.45	-322.222
183.83	309.091
184.20	-290.000
184.58	650.000
184.96	2300.000
185.34	-480.000
185.72	-337.500
186.09	-1450.000
186.47	1650.000
186.85	1350.000
187.23	2300.000
187.61	-1133.333
187.98	575.000
188.36	300.000
188.74	327.273
189.12	-320.000
189.49	340.000
189.87	-3000.000
190.25	-675.000
190.63	264.286
191.00	284.615
191.38	566.667
191.76	-725.000
192.14	925.000
192.51	400.000
192.89	650.000
193.27	287.500
193.65	-750.000
194.02	290.000
194.40	700.000
194.78	320.000
195.15	300.000
195.53	420.000
195.91	-1150.000
196.29	187.500
196.66	163.158
197.04	-60.000
197.42	0.000
197.79	390.000
198.17	-2600.000
198.55	314.286
198.92	337.500
199.30	640.000
199.68	0.000
200.05	144.444
200.43	485.714
200.81	2300.000
201.18	1133.333
201.56	-1000.000
201.94	311.111
202.31	300.000
202.69	241.667
203.07	260.000
203.44	0.000
203.82	750.000
204.19	514.286
204.57	300.000
204.95	325.000
205.32	1066.667
205.70	390.909
206.08	228.571
206.45	1700.000
206.83	225.000
207.20	583.333
207.58	200.000
207.96	166.667
208.33	425.000
208.71	-566.667
209.08	528.571
209.46	388.889
209.84	318.182
210.21	-533.333
210.59	825.000
210.96	-187.500
211.34	1350.000
211.71	330.000
212.09	433.333
212.46	0.000
212.84	1033.333
213.22	825.000
213.59	-2400.000
213.97	483.333
214.34	585.714
214.72	390.909
215.09	440.000
215.47	-1350.000
215.84	-1600.000
216.22	666.667
216.59	228.571
216.97	750.000
217.34	163.636
217.72	-233.333
218.09	0.000
218.47	-2800.000
218.84	488.889
219.22	342.857
219.59	1000.000
219.97	-414.286
220.34	460.000
220.72	-1033.333
221.09	192.857
221.47	650.000
221.84	-400.000
222.22	0.000
222.59	975.000
222.97	-1700.000
223.34	640.000
223.72	261.538
224.09	520.000
224.46	800.000
224.84	-2400.000
225.21	-540.000
225.59	-1900.000
225.96	340.000
226.34	185.000
226.71	1850.000
227.08	300.000
227.46	320.000
227.83	-475.000
228.21	-1550.000
228.58	422.222
228.95	-1250.000
229.33	-700.000
229.70	1066.667
230.08	471.429
230.45	-500.000
230.82	166.667
231.20	483.333
231.57	385.714
231.95	308.333
232.32	131.818
232.69	136.364
233.07	328.571
233.44	200.000
233.81	-833.333
234.19	173.684
234.56	266.667
234.93	158.333
235.31	290.909
235.68	261.538
236.05	221.429
236.43	121.212
236.80	163.158
237.17	2100.000
237.55	128.571
237.92	157.143
238.29	161.905
238.67	103.226
239.04	144.828
239.41	83.333
239.79	67.391
240.16	95.238
240.53	77.273
240.91	96.078
241.28	76.000
241.65	76.000
242.02	76.812
242.40	54.839
242.77	68.333
243.14	64.516
243.51	66.292
243.89	45.882
244.26	47.778
244.63	46.237
245.00	41.489
245.38	45.545
245.75	52.336
246.12	37.615
246.49	51.095
246.87	48.000
247.24	43.846
247.61	44.286
247.98	45.752
248.36	37.162
248.73	31.847
249.10	39.490
249.47	35.028
249.84	43.316
250.22	33.690
250.59	43.195
250.96	42.929
251.33	42.654
251.70	43.069
252.08	35.714
252.45	29.596
252.82	34.348
253.19	33.191
253.56	36.863
253.94	37.344
254.31	35.156
254.68	37.308
255.05	32.472
255.42	30.894
255.79	36.765
256.16	34.296
256.54	29.682
256.91	35.943
257.28	29.496
257.65	31.023
258.02	34.783
258.39	31.546
258.76	31.438
259.14	33.036
259.51	27.356
259.88	29.503
260.25	32.024
260.62	31.792
260.99	28.882
261.36	30.631
261.73	34.670
262.10	32.558
262.47	31.831
262.85	30.919
263.22	31.909
263.59	36.467
263.96	31.044
264.33	30.548
264.70	34.737
265.07	33.248
265.44	32.576
265.81	26.764
266.18	33.166
266.55	29.268
266.92	30.958
267.29	30.093
267.66	32.569
268.03	30.000
268.40	31.776
268.77	31.265
269.14	32.658
269.51	29.120
269.88	31.935
270.25	30.926
270.62	28.989
270.99	33.548
271.36	28.541
271.73	30.607
272.10	27.391
272.47	33.118
272.84	30.087
273.21	28.721
273.58	25.764
273.95	28.721
274.32	28.512
274.69	32.334
275.06	26.575
275.43	28.936
275.80	28.257
276.17	29.328
276.54	30.146
276.91	29.249
277.28	26.953
277.65	30.368
278.02	27.743
278.39	28.711
278.76	30.182
279.13	32.264
279.50	28.678
279.87	27.092
280.23	29.541
280.60	28.433
280.97	27.172
281.34	28.496
281.71	28.364
282.08	27.639
282.45	28.909
282.82	27.531
283.19	25.847
283.56	29.474
283.92	28.088
284.29	26.102
284.66	27.586
285.03	27.306
285.40	27.465
285.77	24.579
286.14	27.461
286.51	27.667
286.87	26.496
287.24	27.687
287.61	24.398
287.98	26.461
288.35	24.247
288.72	26.168
289.08	24.257
289.45	25.535
289.82	26.179
290.19	24.961
290.56	24.962
290.93	25.076
291.29	24.540
291.66	25.221
292.03	24.855
292.40	24.082
292.77	24.260
293.13	25.522
293.50	23.178
293.87	24.148
294.24	24.444
294.60	22.416
294.97	24.419
295.34	24.118
295.71	24.290
296.08	21.652
296.44	22.834
296.81	24.174
297.18	24.255
297.55	20.976
297.91	22.559
298.28	23.293
298.65	23.499
299.02	20.817
299.38	20.850
299.75	20.081
300.12	21.839
300.48	23.500
300.85	22.441
301.22	21.911
301.59	20.833
301.95	22.922
302.32	22.080
302.69	22.103
303.05	21.576
303.42	19.877
303.79	21.404
304.15	20.163
304.52	19.467
304.89	21.835
305.25	20.882
305.62	22.424
305.99	23.377
306.35	20.917
306.72	21.973
307.09	21.754
307.45	22.523
307.82	21.652
308.19	23.068
308.55	22.869
308.92	22.556
309.29	21.225
309.65	22.375
310.02	20.825
310.38	21.828
310.75	22.598
311.12	22.620
311.48	23.615
311.85	24.843
312.22	22.893
312.58	23.493
312.95	24.815
313.31	22.816
313.68	23.701
314.05	26.923
314.41	25.327
314.78	26.788
315.14	26.018
315.51	26.674
315.87	27.723
316.24	28.600
316.61	29.142
316.97	27.495
317.34	28.963
317.70	30.210
318.07	30.318
318.43	31.507
318.80	30.740
319.16	31.073
319.53	32.270
319.89	33.429
320.26	34.200
320.62	34.722
320.99	35.556
321.35	34.949
321.72	35.626
322.08	36.328
322.45	38.408
322.81	38.081
323.18	38.536
323.54	37.662
323.91	39.151
324.27	41.109
324.64	39.609
325.00	39.405
325.37	41.219
325.73	41.831
326.10	42.718
326.46	43.369
326.83	43.227
327.19	43.211
327.56	45.383
327.92	46.982
328.29	48.004
328.65	45.948
329.01	46.209
329.38	49.676
329.74	48.569
330.11	49.010
330.47	49.128
330.84	49.081
331.20	49.454
331.56	47.798
331.93	51.296
332.29	48.802
332.66	51.062
333.02	51.828
333.38	52.484
333.75	52.050
334.11	50.445
334.48	53.061
334.84	52.757
335.20	52.182
335.57	51.496
335.93	50.893
336.29	52.289
336.66	53.021
337.02	50.860
337.38	53.333
337.75	51.070
338.11	51.209
338.47	53.131
338.84	52.521
339.20	52.018
339.56	53.102
339.93	53.818
340.29	53.261
340.65	54.011
341.02	53.839
341.38	55.071
341.74	53.772
342.11	52.489
342.47	53.216
342.83	52.397
343.20	53.680
343.56	52.233
343.92	53.947
344.28	51.956
344.65	53.482
345.01	52.694
345.37	52.316
345.73	52.284
346.10	53.112
346.46	52.966
346.82	52.306
347.19	51.963
347.55	53.284
347.91	52.589
348.27	54.560
348.63	53.261
349.00	51.699
349.36	52.627
349.72	51.724
350.08	52.350
350.45	52.970
350.81	52.315
351.17	52.350
351.53	52.662
351.89	52.558
352.26	52.328
352.62	52.045
352.98	52.026
353.34	52.835
353.70	52.537
354.07	51.452
354.43	50.635
354.79	51.810
355.15	52.035
355.51	52.758
355.87	54.122
356.24	52.117
356.60	52.927
356.96	52.373
357.32	52.412
357.68	51.181
358.04	51.386
358.40	53.048
358.77	52.660
359.13	51.776
359.49	51.529
359.85	52.222
360.21	53.110
360.57	53.230
360.93	52.692
361.29	52.381
361.66	51.393
362.02	52.985
362.38	52.700
362.74	52.232
363.10	52.480
363.46	51.504
363.82	52.457
364.18	50.954
364.54	52.452
364.90	52.479
365.26	52.426
365.62	52.593
365.98	52.009
366.35	50.860
366.71	52.567
367.07	52.513
367.43	53.628
367.79	52.891
368.15	53.520
368.51	51.017
368.87	52.320
369.23	51.865
369.59	53.150
369.95	51.029
370.31	51.852
370.67	52.174
371.03	52.884
371.39	53.280
371.75	52.868
372.11	50.427
372.47	52.566
372.83	54.323
373.19	50.578
373.55	52.919
373.91	53.461
374.27	50.172
374.63	52.582
374.99	52.754
375.35	51.151
375.71	52.502
376.07	52.058
376.42	53.026
376.78	51.292
377.14	51.628
377.50	52.517
377.86	50.864
378.22	51.454
378.58	51.128
378.94	51.163
379.30	51.336
379.66	54.188
380.02	53.317
380.38	51.123
380.74	52.161
381.09	52.384
381.45	52.182
381.81	52.273
382.17	52.229
382.53	52.013
382.89	53.642
383.25	53.346
383.61	54.213
383.97	51.657
384.32	52.339
384.68	53.036
385.04	53.165
385.40	53.003
385.76	52.457
386.12	52.655
386.48	53.178
386.83	54.201
387.19	54.113
387.55	52.999
387.91	51.935
388.27	52.422
388.62	52.551
388.98	53.440
389.34	53.442
389.70	52.483
390.06	52.408
390.42	54.215
390.77	52.735
391.13	54.690
391.49	54.124
391.85	53.596
392.20	52.366
392.56	52.462
392.92	53.031
393.28	52.189
393.64	52.458
393.99	52.841
394.35	52.481
394.71	51.945
395.07	52.586
395.42	53.956
395.78	52.417
396.14	51.893
396.50	53.070
396.85	53.210
397.21	51.911
397.57	52.263
397.92	52.524
398.28	51.345
398.64	52.927
399.00	52.938
399.35	52.792
399.71	52.894
400.07	51.922
400.42	53.742
400.78	53.800
401.14	52.927
401.49	53.373
401.85	53.055
402.21	52.754
402.57	52.437
402.92	55.359
403.28	53.342
403.63	53.775
403.99	53.439
404.35	52.242
404.70	51.918
405.06	53.407
405.42	53.275
405.77	52.571
406.13	53.273
406.49	52.572
406.84	53.633
407.20	52.896
407.55	53.925
407.91	55.000
408.27	53.733
408.62	52.920
408.98	52.757
409.34	53.321
409.69	52.839
410.05	53.408
410.40	54.251
410.76	53.345
411.11	53.920
411.47	53.291
411.83	52.963
412.18	52.257
412.54	52.615
412.89	52.410
413.25	53.837
413.60	53.984
413.96	51.973
414.31	53.706
414.67	53.549
415.03	53.377
415.38	52.835
415.74	52.862
416.09	54.409
416.45	53.882
416.80	53.602
417.16	55.362
417.51	53.152
417.87	51.830
418.22	52.429
418.58	53.389
418.93	53.378
419.29	53.278
419.64	53.652
420.00	53.780
420.35	53.275
420.71	53.019
421.06	52.446
421.42	53.333
421.77	52.186
422.12	52.779
422.48	52.348
422.83	53.174
423.19	52.707
423.54	53.221
423.90	53.391
424.25	53.155
424.61	52.738
424.96	54.402
425.31	52.879
425.67	53.371
426.02	53.657
426.38	54.640
426.73	52.955
427.09	52.584
427.44	53.191
427.79	52.846
428.15	53.155
428.50	53.365
428.85	53.456
429.21	52.954
429.56	52.411
429.92	52.793
430.27	51.639
430.62	52.586
430.98	53.243
431.33	52.784
431.68	53.508
432.04	53.248
432.39	52.599
432.74	53.441
433.10	53.877
433.45	53.644
433.80	53.326
434.16	52.831
434.51	53.105
434.86	53.592
435.22	54.141
435.57	54.772
435.92	53.833
436.28	53.855
436.63	53.256
436.98	53.807
437.34	54.085
437.69	53.092
438.04	52.895
438.39	54.209
438.75	53.457
439.10	53.855
439.45	54.545
439.81	54.079
440.16	54.489
440.51	54.892
440.86	52.982
441.22	52.892
441.57	54.459
441.92	54.555
442.27	53.660
442.63	53.765
442.98	54.873
443.33	52.717
443.68	54.466
444.03	53.294
444.39	52.483
444.74	53.247
445.09	54.394
445.44	54.183
445.79	53.488
446.15	52.991
446.50	53.473
446.85	53.546
447.20	53.493
447.55	55.221
447.91	53.172
448.26	52.977
448.61	54.042
448.96	53.433
449.31	55.006
449.66	53.630
450.02	53.816
450.37	53.968
450.72	53.920
451.07	54.235
451.42	53.556
451.77	54.375
452.12	53.926
452.47	53.047
452.83	55.245
453.18	52.812
453.53	54.855
453.88	53.869
454.23	54.154
454.58	54.634
454.93	55.435
455.28	54.302
455.63	55.097
455.98	55.476
456.34	54.397
456.69	55.729
457.04	55.666
457.39	54.237
457.74	54.034
458.09	54.974
458.44	54.846
458.79	52.928
459.14	55.192
459.49	53.940
459.84	53.463
460.19	54.095
460.54	51.852
460.89	54.580
461.24	54.766
461.59	54.503
461.94	53.822
462.29	56.261
462.64	53.861
462.99	54.131
463.34	54.200
463.69	55.910
464.04	54.493
464.39	54.087
464.74	54.248
465.09	53.378
465.44	53.019
465.79	52.629
466.14	53.311
466.49	53.782
466.84	53.882
467.19	53.712
467.54	54.750
467.89	53.721
468.24	53.054
468.59	54.396
468.94	53.451
469.29	53.728
469.64	55.355
469.99	55.210
470.34	55.218
470.68	55.675
471.03	53.946
471.38	55.455
471.73	54.963
472.08	55.592
472.43	54.962
472.78	55.234
473.13	53.273
473.48	54.307
473.83	55.610
474.17	53.391
474.52	54.591
474.87	54.816
475.22	53.802
475.57	52.499
475.92	53.691
476.27	54.171
476.61	54.937
476.96	54.865
477.31	53.585
477.66	55.142
478.01	52.483
478.36	54.257
478.70	53.427
479.05	53.142
479.40	53.634
479.75	52.567
480.10	53.678
480.45	53.213
480.79	52.126
481.14	53.816
481.49	53.773
481.84	53.086
482.19	53.476
482.53	53.073
482.88	53.653
483.23	52.664
483.58	54.095
483.92	53.702
484.27	51.373
484.62	52.241
484.97	52.109
485.31	52.055
485.66	48.943
486.01	49.263
486.36	48.469
486.70	50.604
487.05	50.654
487.40	51.073
487.75	51.123
488.09	52.078
488.44	51.835
488.79	51.790
489.13	52.559
489.48	52.488
489.83	53.086
490.17	52.915
490.52	52.967
490.87	53.324
491.22	53.797
491.56	52.210
491.91	53.374
492.26	51.998
492.60	53.134
492.95	53.508
493.30	52.383
493.64	53.616
493.99	53.157
494.34	52.683
494.68	52.885
495.03	53.712
495.37	53.188
495.72	54.386
496.07	54.432
496.41	51.814
496.76	53.034
497.11	52.814
497.45	52.445
497.80	53.263
498.14	52.899
498.49	53.122
498.84	53.547
499.18	52.857
499.53	52.896
499.87	53.495
500.22	52.991
500.56	53.641
500.91	53.317
501.26	52.821
501.60	54.390
501.95	52.475
502.29	53.280
502.64	52.886
502.98	52.361
503.33	51.417
503.67	52.947
504.02	52.479
504.36	52.737
504.71	52.858
505.06	52.241
505.40	53.427
505.75	52.893
506.09	52.284
506.44	52.985
506.78	53.678
507.13	53.155
507.47	53.737
507.82	54.205
508.16	53.141
508.51	54.642
508.85	53.525
509.19	53.724
509.54	53.061
509.88	53.117
510.23	53.522
510.57	53.664
510.92	53.081
511.26	53.083
511.61	52.853
511.95	52.975
512.30	53.659
512.64	52.606
512.98	53.912
513.33	53.587
513.67	51.654
514.02	53.139
514.36	53.577
514.70	53.403
515.05	54.601
515.39	53.169
515.74	54.561
516.08	53.941
516.42	53.996
516.77	55.017
517.11	53.274
517.46	53.781
517.80	54.355
518.14	53.909
518.49	54.142
518.83	53.011
519.17	53.176
519.52	53.763
519.86	53.109
520.20	54.162
520.55	54.817
520.89	55.718
521.23	54.885
521.58	54.742
521.92	54.930
522.26	52.593
522.61	55.576
522.95	54.266
523.29	53.926
523.64	54.878
523.98	54.097
524.32	54.644
524.66	54.660
525.01	54.534
525.35	53.594
525.69	52.956
526.04	52.710
526.38	54.057
526.72	53.436
527.06	53.672
527.41	53.342
527.75	54.534
528.09	54.592
528.43	54.812
528.78	53.657
529.12	53.394
529.46	54.072
529.80	53.713
530.15	54.268
530.49	51.569
530.83	53.291
531.17	55.614
531.51	54.021
531.86	53.032
532.20	53.781
532.54	53.043
532.88	53.594
533.22	52.592
533.57	52.037
533.91	52.559
534.25	51.154
534.59	51.861
534.93	52.290
535.27	52.505
535.62	52.503
535.96	52.731
536.30	52.575
536.64	54.153
536.98	51.825
537.32	51.679
537.66	53.200
538.01	51.745
538.35	51.778
538.69	51.563
539.03	51.462
539.37	51.949
539.71	50.227
540.05	52.484
540.39	51.960
540.73	51.423
541.07	52.369
541.42	51.794
541.76	52.129
542.10	51.940
542.44	52.384
542.78	52.306
543.12	50.736
543.46	51.279
543.80	51.334
544.14	51.926
544.48	52.127
544.82	51.572
545.16	50.683
545.50	50.900
545.84	50.806
546.18	51.380
546.52	52.030
546.86	52.577
547.20	50.843
547.54	52.371
547.88	50.957
548.22	51.245
548.56	49.937
548.90	50.384
549.24	50.707
549.58	51.978
549.92	52.335
550.26	51.847
550.60	51.245
550.94	50.563
551.28	50.402
551.62	50.827
551.96	50.737
552.30	50.034
552.64	50.980
552.98	51.254
553.32	50.641
553.66	51.193
554.00	50.583
554.34	51.346
554.68	52.432
555.02	51.128
555.36	50.661
555.69	50.203
556.03	51.077
556.37	49.932
556.71	49.250
557.05	50.840
557.39	50.385
557.73	49.824
558.07	51.124
558.41	52.171
558.75	50.110
559.08	50.708
559.42	52.003
559.76	49.485
560.10	49.251
560.44	49.616
560.78	49.368
561.12	49.274
561.45	48.631
561.79	49.308
562.13	48.357
562.47	49.249
562.81	49.303
563.15	48.829
563.48	48.806
563.82	48.924
564.16	48.790
564.50	48.893
564.84	46.966
565.17	47.941
565.51	49.137
565.85	47.779
566.19	47.339
566.52	48.132
566.86	47.860
567.20	47.642
567.54	47.203
567.88	46.225
568.21	47.037
568.55	45.753
568.89	45.574
569.23	44.519
569.56	42.955
569.90	43.472
570.24	43.667
570.57	43.013
570.91	41.629
571.25	41.692
571.59	41.826
571.92	42.051
572.26	42.057
572.60	42.132
572.93	41.169
573.27	41.290
573.61	41.011
573.95	41.034
574.28	41.407
574.62	40.015
574.96	40.263
575.29	40.398
575.63	40.701
575.97	39.964
576.30	40.414
576.64	39.955
576.98	40.180
577.31	39.279
577.65	39.805
577.98	39.164
578.32	38.940
578.66	39.937
578.99	39.808
579.33	39.240
579.67	39.796
580.00	39.751
580.34	39.867
580.67	39.447
581.01	38.903
581.35	38.720
581.68	38.311
582.02	38.149
582.35	38.499
582.69	38.488
583.02	38.983
583.36	39.613
583.70	39.461
584.03	39.943
584.37	39.947
584.70	39.420
585.04	38.943
585.37	38.537
585.71	38.886
586.04	38.898
586.38	39.446
586.72	40.320
587.05	39.391
587.39	38.945
587.72	39.191
588.06	39.114
588.39	39.012
588.73	39.454
589.06	40.324
589.40	40.303
589.73	40.690
590.07	39.858
590.40	39.569
590.73	40.515
591.07	41.392
591.40	41.038
591.74	41.645
592.07	40.576
592.41	40.141
592.74	39.438
593.08	38.907
593.41	38.469
593.75	38.007
594.08	39.692
594.41	39.130
594.75	39.593
595.08	38.905
595.42	39.159
595.75	39.744
596.09	39.504
596.42	40.118
596.75	39.764
597.09	41.255
597.42	39.545
597.75	39.500
598.09	39.043
598.42	39.691
598.76	38.792
599.09	38.655
599.42	37.700
599.76	39.385
600.09	38.033
600.42	38.532
600.76	37.857
601.09	38.652
601.42	38.356
601.76	38.861
602.09	39.170
602.42	38.774
602.76	39.460
603.09	38.159
603.42	39.047
603.76	37.881
604.09	37.844
604.42	38.647
604.76	38.549
605.09	38.183
605.42	37.537
605.75	37.831
606.09	38.186
606.42	38.251
606.75	38.822
607.09	37.338
607.42	37.869
607.75	37.426
608.08	38.515
608.42	38.593
608.75	37.872
609.08	38.390
609.41	38.267
609.75	38.352
610.08	40.528
610.41	38.175
610.74	38.836
611.07	39.476
611.41	38.665
611.74	40.221
612.07	39.855
612.40	40.661
612.73	38.053
613.07	40.463
613.40	38.810
613.73	38.804
614.06	39.570
614.39	39.224
614.72	38.632
615.06	39.601
615.39	38.535
615.72	38.088
616.05	38.384
616.38	39.355
616.71	40.321
617.05	40.518
617.38	39.928
617.71	39.159
618.04	39.183
618.37	39.030
618.70	39.764
619.03	40.329
619.36	39.647
619.69	40.493
620.03	39.766
620.36	39.305
620.69	41.301
621.02	41.519
621.35	42.052
621.68	41.044
622.01	40.093
622.34	40.772
622.67	41.749
623.00	39.765
623.33	38.956
623.66	40.743
623.99	40.795
624.32	40.514
624.65	40.184
624.99	38.881
625.32	40.116
625.65	40.421
625.98	41.814
626.31	42.379
626.64	40.735
626.97	41.480
627.30	41.064
627.63	41.181
627.96	41.463
628.29	43.220
628.62	43.001
628.95	43.491
629.28	41.332
629.61	41.888
629.94	43.238
630.26	41.563
630.59	40.991
630.92	40.996
631.25	40.276
631.58	42.142
631.91	43.509
632.24	42.300
632.57	43.127
632.90	44.956
633.23	43.289
633.56	45.537
633.89	44.621
634.22	44.949
634.55	46.627
634.88	42.994
635.20	45.161
635.53	44.699
635.86	45.792
636.19	42.824
636.52	43.829
636.85	43.757
637.18	42.627
637.51	44.563
637.83	42.047
638.16	46.931
638.49	43.955
638.82	42.857
639.15	45.125
639.48	44.638
639.81	43.834
640.13	45.052
640.46	44.564
640.79	44.650
641.12	44.704
641.45	44.832
641.77	46.686
642.10	45.468
642.43	45.045
642.76	49.071
643.09	45.092
643.41	45.524
643.74	47.222
644.07	44.817
644.40	45.092
644.73	46.457
645.05	47.068
645.38	43.918
645.71	46.216
646.04	48.173
646.36	47.746
646.69	47.324
647.02	47.109
647.35	48.454
647.67	46.372
648.00	45.854
648.33	45.545
648.66	46.667
648.98	45.577
649.31	44.694
649.64	44.096
649.96	45.306
650.29	45.498
650.62	44.175
650.94	45.867
651.27	47.297
651.60	46.755
651.92	45.687
652.25	43.811
652.58	43.925
652.90	44.708
653.23	39.908
653.56	42.205
653.88	43.582
654.21	43.918
654.54	46.040
654.86	44.548
655.19	40.946
655.52	31.560
655.84	27.724
656.17	34.168
656.49	45.948
656.82	46.189
657.15	35.295
657.47	26.230
657.80	20.120
658.13	20.468
658.45	30.319
658.78	30.991
659.10	31.158
659.43	32.335
659.75	32.693
660.08	33.797
660.41	36.034
660.73	38.755
661.06	42.834
661.38	46.000
661.71	46.346
662.03	48.718
662.36	42.744
662.68	47.189
663.01	45.859
663.33	45.860
663.66	45.798
663.98	44.060
664.31	44.958
664.63	45.749
664.96	41.449
665.28	47.541
665.61	44.250
665.93	45.272
666.26	44.828
666.58	46.444
666.91	47.357
667.23	46.517
667.56	44.276
667.88	48.291
668.21	46.269
668.53	46.855
668.86	43.939
669.18	46.269
669.50	44.130
669.83	49.237
670.15	47.333
670.48	44.009
670.80	46.983
671.13	44.374
671.45	46.596
671.77	45.418
672.10	43.808
672.42	41.873
672.75	41.294
673.07	40.845
673.39	41.953
673.72	41.797
674.04	42.157
674.37	44.660
674.69	43.763
675.01	43.515
675.34	46.817
675.66	46.737
675.98	45.010
676.31	45.588
676.63	45.011
676.95	44.235
677.28	44.626
677.60	43.516
677.92	47.046
678.25	43.943
678.57	42.430
678.89	44.689
679.22	41.847
679.54	41.221
679.86	41.835
680.18	43.292
680.51	41.844
680.83	42.171
681.15	43.774
681.48	42.722
681.80	41.199
682.12	42.529
682.44	39.265
682.77	42.770
683.09	46.781
683.41	45.676
683.73	46.137
684.06	44.215
684.38	42.270
684.70	42.442
685.02	41.839
685.34	41.209
685.67	39.336
685.99	36.942
686.31	36.177
686.63	37.633
686.96	37.143
687.28	41.516
687.60	40.942
687.92	40.037
688.24	42.015
688.56	41.566
688.89	42.739
689.21	46.725
689.53	39.666
689.85	44.568
690.17	38.923
690.49	43.312
690.82	44.393
691.14	41.964
691.46	41.772
691.78	41.566
692.10	44.008
692.42	39.721
692.74	41.286
693.06	41.064
693.39	42.094
693.71	40.175
694.03	42.526
694.35	39.177
694.67	40.732
694.99	42.683
695.31	44.363
695.63	40.909
695.95	44.010
696.27	39.340
696.59	44.041
696.91	43.264
697.23	37.559
697.56	39.446
697.88	39.264
698.20	39.583
698.52	38.065
698.84	42.094
699.16	41.244
699.48	43.705
699.80	43.961
700.12	47.273
700.44	42.175
700.76	45.028
701.08	44.828
701.40	46.648
701.72	45.773
702.04	45.739
702.36	40.227
702.68	44.759
703.00	41.828
703.32	39.362
703.64	40.751
703.96	43.454
704.28	46.512
704.60	41.642
704.91	48.071
705.23	46.628
705.55	45.515
705.87	47.176
706.19	50.177
706.51	44.860
706.83	49.394
707.15	45.378
707.47	39.394
707.79	42.015
708.11	37.900
708.43	39.286
708.74	39.286
709.06	42.078
709.38	39.370
709.70	40.988
710.02	45.401
710.34	40.606
710.66	42.687
710.98	43.466
711.29	41.279
711.61	42.478
711.93	42.308
712.25	45.338
712.57	44.118
712.89	44.637
713.20	41.337
713.52	45.066
713.84	41.456
714.16	43.293
714.48	39.368
714.80	46.201
715.11	43.516
715.43	41.246
715.75	42.319
716.07	42.492
716.39	40.439
716.70	44.518
717.02	46.043
717.34	43.463
717.66	47.015
717.97	45.817
718.29	43.333
718.61	42.336
718.93	47.059
719.24	44.637
719.56	43.390
719.88	44.068
720.20	46.284
720.51	43.206
720.83	47.584
721.15	43.284
721.46	37.589
721.78	47.670
722.10	49.434
722.42	44.737
722.73	47.940
723.05	38.934
723.37	47.368
723.68	49.035
724.00	45.528
724.32	42.339
724.63	41.870
724.95	43.515
725.27	44.130
725.58	44.531
725.90	45.985
726.22	43.019
726.53	42.708
726.85	41.638
727.16	41.637
727.48	46.809
727.80	43.182
728.11	40.580
728.43	41.923
728.74	40.860
729.06	44.526
729.38	48.162
729.69	44.128
730.01	36.860
730.32	44.444
730.64	40.803
730.96	37.294
731.27	43.709
731.59	40.061
731.90	38.192
732.22	39.441
732.53	38.080
732.85	41.026
733.16	39.871
733.48	38.870
733.80	39.610
734.11	38.854
734.43	41.124
734.74	34.571
735.06	35.244
735.37	41.329
735.69	38.217
736.00	42.484
736.32	40.187
736.63	38.339
736.95	39.617
737.26	35.714
737.58	39.355
737.89	39.130
738.21	38.567
738.52	39.286
738.83	38.113
739.15	41.154
739.46	40.511
739.78	42.014
740.09	38.154
740.41	39.355
740.72	36.934
741.04	38.148
741.35	42.500
741.66	49.333
741.98	40.566
742.29	44.019
742.61	50.000
742.92	42.534
743.23	46.154
743.55	42.800
743.86	42.105
744.18	49.558
744.49	48.325
744.80	47.418
745.12	47.273
745.43	41.850
745.74	45.495
746.06	45.413
746.37	45.291
746.68	42.534
747.00	48.148
747.31	48.095
747.62	39.381
747.94	46.696
748.25	39.149
748.56	44.053
748.88	46.040
749.19	47.500
749.50	43.256
749.82	42.276
750.13	41.633
750.44	37.956
750.75	39.649
751.07	43.730
751.38	39.721
751.69	42.238
752.01	45.489
752.32	39.350
752.63	40.780
752.94	43.033
753.26	45.200
753.57	43.496
753.88	42.578
754.19	41.429
754.51	43.750
754.82	42.960
755.13	41.887
755.44	39.098
755.75	41.241
756.07	41.135
756.38	40.511
756.69	37.584
757.00	35.928
757.31	34.718
757.63	37.135
757.94	36.461
758.25	35.049
758.56	32.593
758.87	33.333
759.18	30.303
759.50	39.185
759.81	36.449
760.12	38.125
760.43	40.401
760.74	36.685
761.05	39.831
761.36	34.759
761.67	36.648
761.99	36.957
762.30	40.625
762.61	41.985
762.92	44.141
763.23	40.336
763.54	42.400
763.85	40.234
764.16	42.308
764.47	41.445
764.78	39.223
765.10	35.759
765.41	36.873
765.72	32.036
766.03	32.915
766.34	37.000
766.65	45.106
766.96	35.470
767.27	42.132
767.58	41.667
767.89	48.947
768.20	43.678
768.51	44.162
768.82	44.954
769.13	39.024
769.44	34.413
769.75	35.193
770.06	31.193
770.37	46.154
770.68	45.833
770.99	40.000
771.30	38.525
771.61	44.395
771.92	43.033
772.23	39.916
772.54	43.077
772.85	48.168
773.16	46.277
773.47	43.478
773.78	45.178
774.09	42.262
774.39	46.784
774.70	48.765
775.01	52.174
775.32	54.248
775.63	49.342
775.94	41.727
776.25	51.181
776.56	55.970
776.87	48.361
777.18	50.000
777.48	55.725
777.79	51.515
778.10	58.519
778.41	46.429
778.72	43.796
779.03	49.664
779.34	44.966
779.65	45.270
779.95	42.331
780.26	52.288
780.57	51.034
780.88	51.562
781.19	48.872
781.50	54.054
781.80	43.396
782.11	39.548
782.42	41.772
782.73	41.718
783.04	52.027
783.34	47.887
783.65	62.329
783.96	50.746
784.27	48.252
784.57	48.921
784.88	42.593
785.19	50.000
785.50	56.604
785.81	58.209
786.11	56.557
786.42	55.814
786.73	44.248
787.04	59.434
787.34	53.571
787.65	66.000
787.96	59.459
788.26	48.760
788.57	50.847
788.88	64.463
789.19	46.528
789.49	53.788
789.80	58.015
790.11	66.667
790.41	62.376
790.72	53.012
791.03	60.870
791.33	52.326
791.64	44.330
791.95	61.386
792.25	62.222
792.56	68.831
792.87	85.897
793.17	65.823
793.48	65.517
793.79	62.069
794.09	71.591
794.40	51.261
794.70	49.265
795.01	44.444
795.32	44.604
795.62	55.906
795.93	57.759
796.23	41.593
796.54	45.882
796.85	62.162
797.15	64.789
797.46	65.152
797.76	61.446
798.07	54.430
798.37	60.000
798.68	71.212
798.99	53.521
799.29	67.532
799.60	63.636
799.90	75.342
800.21	76.119
800.51	62.069
800.82	84.211
801.12	78.689
801.43	68.182
801.73	56.757
802.04	77.778
802.34	53.086
802.65	76.563
802.95	89.831
803.26	71.875
803.56	42.857
803.87	75.385
804.17	75.000
804.48	85.185
804.78	68.966
805.09	58.824
805.39	86.538
805.70	75.000
806.00	90.164
806.30	54.545
806.61	54.878
806.91	50.633
807.22	63.158
807.52	44.776
807.83	67.606
808.13	71.875
808.43	70.000
808.74	57.895
809.04	65.217
809.35	73.134
809.65	60.526
809.95	87.097
810.26	61.017
810.56	74.603
810.86	79.545
811.17	114.286
811.47	96.667
811.77	85.185
812.08	72.727
812.38	90.000
812.69	102.778
812.99	102.273
813.29	93.878
813.59	69.048
813.90	89.796
814.20	85.455
814.50	69.231
814.81	76.471
815.11	77.551
815.41	67.213
815.72	95.238
816.02	85.455
816.32	85.714
816.62	75.000
816.93	82.927
817.23	100.000
817.53	102.273
817.84	124.242
818.14	102.174
818.44	84.444
818.74	100.000
819.04	77.500
819.35	108.571
819.65	132.353
819.95	139.286
820.25	120.000
820.56	112.821
820.86	81.818
821.16	93.023
821.46	107.692
821.76	84.000
822.07	100.000
822.37	90.000
822.67	93.939
822.97	82.353
823.27	150.000
823.57	94.595
823.88	105.000
824.18	96.667
824.48	90.476
824.78	132.000
825.08	83.333
825.38	97.297
825.69	97.561
825.99	154.167
826.29	86.207
826.59	110.526
826.89	73.684
827.19	105.882
827.49	100.000
827.79	100.000
828.09	70.455
828.39	85.106
828.70	85.714
829.00	118.519
829.30	129.032
829.60	100.000
829.90	166.667
830.20	153.571
830.50	117.391
830.80	126.087
831.10	150.000
831.40	140.000
831.70	113.043
832.00	153.846
832.30	92.593
832.60	168.750
832.90	130.000
833.20	257.143
833.50	116.129
833.80	137.931
834.10	115.625
834.40	130.769
834.70	166.667
835.00	195.238
835.30	114.286
835.60	107.692
835.90	144.828
836.20	192.857
836.50	127.586
836.80	164.000
837.10	102.778
837.40	185.714
837.70	170.588
838.00	129.630
838.30	180.952
838.60	185.714
838.90	169.231
839.19	170.000
839.49	278.571
839.79	210.000
840.09	125.000
840.39	100.000
840.69	160.870
840.99	183.333
841.29	240.000
841.59	216.667
841.88	218.750
842.18	120.690
842.48	152.381
842.78	146.667
843.08	169.565
843.38	128.125
843.68	566.667
843.97	169.231
844.27	124.138
844.57	200.000
844.87	237.500
845.17	151.852
845.47	966.667
845.76	222.222
846.06	158.824
846.36	300.000
846.66	228.571
846.96	231.250
847.25	263.636
847.55	227.273
847.85	108.696
848.15	290.000
848.44	185.714
848.74	111.111
849.04	223.529
849.34	280.000
849.63	152.632
849.93	281.818
850.23	560.000
850.53	257.143
850.82	1300.000
851.12	-3100.000
851.42	3500.000
851.71	160.000
852.01	-600.000
852.31	133.333
852.61	733.333
852.90	190.476
853.20	144.000
853.50	188.235
853.79	176.190
854.09	112.500
854.39	181.250
854.68	110.811
854.98	93.548
855.28	96.667
855.57	158.621
855.87	129.630
856.17	147.368
856.46	166.667
856.76	117.647
857.05	113.793
857.35	125.000
857.65	206.667
857.94	195.652
858.24	169.231
858.53	150.000
858.83	150.000
859.13	286.667
859.42	0.000
859.72	333.333
860.01	300.000
860.31	163.636
860.60	189.474
860.90	156.522
861.20	344.444
861.49	266.667
861.79	-2300.000
862.08	350.000
862.38	161.905
862.67	146.154
862.97	252.941
863.26	300.000
863.56	177.778
863.85	275.000
864.15	375.000
864.44	260.000
864.74	533.333
865.03	337.500
865.33	147.368
865.62	345.455
865.92	246.154
866.21	233.333
866.51	0.000
866.80	290.909
867.10	580.000
867.39	261.538
867.69	318.182
867.98	157.895
868.27	172.727
868.57	194.737
868.86	-2100.000
869.16	168.750
869.45	1450.000
869.75	-2100.000
870.04	275.000
870.33	271.429
870.63	475.000
870.92	1450.000
871.22	500.000
871.51	205.882
871.80	157.143
872.10	207.143
>>>>>End Processed Spectral Data<<<<<
