SpectraSuite Data File
++++++++++++++++++++++++++++++++++++
Date: Wed May 13 20:45:32 PDT 2015
User: schluterlab
Dark Spectrum Present: Yes
Reference Spectrum Present: Yes
Number of Sampled Component Spectra: 1
Spectrometers: USB2E3373
Integration Time (usec): 3000 (USB2E3373)
Spectra Averaged: 3 (USB2E3373)
Boxcar Smoothing: 0 (USB2E3373)
Correct for Electrical Dark: No (USB2E3373)
Strobe/Lamp Enabled: No (USB2E3373)
Correct for Detector Non-linearity: No (USB2E3373)
Correct for Stray Light: No (USB2E3373)
Number of Pixels in Processed Spectrum: 2048
>>>>>Begin Processed Spectral Data<<<<<
178.53	0.000
178.91	-525.000
179.29	-875.000
179.67	-138.889
180.04	-1050.000
180.42	2050.000
180.80	700.000
181.18	-575.000
181.56	471.429
181.94	0.000
182.31	-371.429
182.69	1066.667
183.07	-387.500
183.45	-255.556
183.83	381.818
184.20	-170.000
184.58	1050.000
184.96	3900.000
185.34	-660.000
185.72	-287.500
186.09	-1250.000
186.47	1700.000
186.85	1250.000
187.23	2900.000
187.61	-1033.333
187.98	950.000
188.36	372.727
188.74	318.182
189.12	-500.000
189.49	420.000
189.87	-2800.000
190.25	-1100.000
190.63	342.857
191.00	269.231
191.38	466.667
191.76	-650.000
192.14	800.000
192.51	462.500
192.89	683.333
193.27	312.500
193.65	-1050.000
194.02	340.000
194.40	620.000
194.78	420.000
195.15	375.000
195.53	390.000
195.91	-950.000
196.29	281.250
196.66	215.789
197.04	-250.000
197.42	0.000
197.79	450.000
198.17	-3000.000
198.55	271.429
198.92	362.500
199.30	220.000
199.68	0.000
200.05	272.222
200.43	542.857
200.81	1900.000
201.18	800.000
201.56	-833.333
201.94	311.111
202.31	411.111
202.69	241.667
203.07	420.000
203.44	0.000
203.82	675.000
204.19	400.000
204.57	285.714
204.95	412.500
205.32	700.000
205.70	372.727
206.08	250.000
206.45	1700.000
206.83	206.250
207.20	566.667
207.58	560.000
207.96	188.889
208.33	462.500
208.71	-616.667
209.08	442.857
209.46	400.000
209.84	272.727
210.21	-866.667
210.59	900.000
210.96	-150.000
211.34	1600.000
211.71	410.000
212.09	566.667
212.46	0.000
212.84	1100.000
213.22	925.000
213.59	-3100.000
213.97	550.000
214.34	514.286
214.72	463.636
215.09	660.000
215.47	-1400.000
215.84	-1500.000
216.22	933.333
216.59	307.143
216.97	1100.000
217.34	345.455
217.72	-383.333
218.09	0.000
218.47	-1600.000
218.84	466.667
219.22	471.429
219.59	1000.000
219.97	-385.714
220.34	560.000
220.72	-1300.000
221.09	285.714
221.47	875.000
221.84	-516.667
222.22	0.000
222.59	800.000
222.97	-1550.000
223.34	580.000
223.72	253.846
224.09	600.000
224.46	1350.000
224.84	-3200.000
225.21	-620.000
225.59	-3300.000
225.96	510.000
226.34	215.000
226.71	1950.000
227.08	487.500
227.46	340.000
227.83	-500.000
228.21	-1650.000
228.58	422.222
228.95	-1350.000
229.33	-800.000
229.70	1266.667
230.08	471.429
230.45	-500.000
230.82	308.333
231.20	716.667
231.57	385.714
231.95	350.000
232.32	159.091
232.69	163.636
233.07	385.714
233.44	169.231
233.81	-1133.333
234.19	215.789
234.56	275.000
234.93	208.333
235.31	254.545
235.68	207.692
236.05	192.857
236.43	96.970
236.80	189.474
237.17	2500.000
237.55	166.667
237.92	121.429
238.29	128.571
238.67	135.484
239.04	103.448
239.41	119.444
239.79	76.087
240.16	69.048
240.53	97.727
240.91	50.980
241.28	82.000
241.65	64.000
242.02	71.014
242.40	45.161
242.77	53.333
243.14	54.839
243.51	56.180
243.89	44.706
244.26	42.222
244.63	44.086
245.00	36.170
245.38	39.604
245.75	44.860
246.12	32.110
246.49	48.905
246.87	46.400
247.24	50.000
247.61	43.571
247.98	32.680
248.36	27.703
248.73	29.936
249.10	31.847
249.47	29.379
249.84	32.086
250.22	32.086
250.59	27.219
250.96	32.323
251.33	28.910
251.70	27.228
252.08	28.571
252.45	27.803
252.82	30.435
253.19	28.085
253.56	27.451
253.94	27.801
254.31	27.734
254.68	25.385
255.05	25.830
255.42	28.455
255.79	27.574
256.16	29.603
256.54	23.675
256.91	28.826
257.28	21.942
257.65	25.743
258.02	24.845
258.39	22.397
258.76	22.074
259.14	26.190
259.51	22.796
259.88	23.602
260.25	28.097
260.62	21.098
260.99	22.360
261.36	25.225
261.73	22.923
262.10	21.512
262.47	24.789
262.85	23.398
263.22	21.368
263.59	27.350
263.96	23.077
264.33	23.499
264.70	23.684
265.07	21.739
265.44	22.222
265.81	22.384
266.18	21.859
266.55	22.439
266.92	23.342
267.29	25.463
267.66	24.083
268.03	20.000
268.40	21.495
268.77	21.480
269.14	21.171
269.51	21.445
269.88	21.212
270.25	18.736
270.62	23.820
270.99	22.581
271.36	22.103
271.73	21.028
272.10	20.217
272.47	24.731
272.84	20.996
273.21	23.270
273.58	18.777
273.95	20.545
274.32	19.421
274.69	22.484
275.06	17.323
275.43	21.277
275.80	18.437
276.17	19.552
276.54	21.414
276.91	19.763
277.28	18.359
277.65	19.149
278.02	19.669
278.39	20.703
278.76	19.091
279.13	19.434
279.50	19.926
279.87	20.717
280.23	20.758
280.60	18.375
280.97	20.148
281.34	19.823
281.71	19.818
282.08	18.810
282.45	18.182
282.82	18.472
283.19	16.756
283.56	20.877
283.92	19.797
284.29	17.108
284.66	19.419
285.03	15.913
285.40	17.958
285.77	16.835
286.14	18.135
286.51	19.167
286.87	17.778
287.24	18.893
287.61	17.335
287.98	18.506
288.35	18.700
288.72	16.511
289.08	17.840
289.45	17.628
289.82	17.073
290.19	16.484
290.56	17.458
290.93	16.465
291.29	17.791
291.66	17.109
292.03	18.169
292.40	17.327
292.77	15.828
293.13	16.418
293.50	16.035
293.87	15.556
294.24	16.741
294.60	14.556
294.97	17.006
295.34	15.938
295.71	16.761
296.08	15.385
296.44	15.406
296.81	15.192
297.18	15.989
297.55	12.137
297.91	14.380
298.28	14.993
298.65	16.319
299.02	16.074
299.38	14.608
299.75	12.803
300.12	14.432
300.48	12.875
300.85	14.550
301.22	14.395
301.59	13.636
301.95	14.610
302.32	13.992
302.69	13.501
303.05	13.576
303.42	13.580
303.79	15.402
304.15	12.238
304.52	12.862
304.89	12.311
305.25	14.037
305.62	13.930
305.99	13.932
306.35	13.423
306.72	12.892
307.09	13.984
307.45	13.626
307.82	12.165
308.19	13.907
308.55	13.700
308.92	13.641
309.29	13.200
309.65	13.362
310.02	13.742
310.38	12.688
310.75	14.572
311.12	13.715
311.48	12.644
311.85	13.941
312.22	13.528
312.58	12.786
312.95	14.150
313.31	13.786
313.68	13.306
314.05	15.779
314.41	13.869
314.78	12.588
315.14	13.108
315.51	14.727
315.87	14.653
316.24	13.505
316.61	14.327
316.97	13.796
317.34	15.656
317.70	14.627
318.07	16.266
318.43	15.068
318.80	16.026
319.16	16.196
319.53	16.604
319.89	18.000
320.26	18.200
320.62	17.857
320.99	18.485
321.35	19.091
321.72	18.070
322.08	19.447
322.45	19.403
322.81	20.446
323.18	20.424
323.54	20.037
323.91	20.377
324.27	21.797
324.64	21.808
325.00	21.371
325.37	22.566
325.73	22.890
326.10	22.860
326.46	23.656
326.83	24.245
327.19	23.826
327.56	23.345
327.92	24.934
328.29	25.111
328.65	25.783
329.01	25.361
329.38	25.624
329.74	25.669
330.11	25.825
330.47	27.824
330.84	25.919
331.20	26.685
331.56	27.064
331.93	27.130
332.29	27.862
332.66	27.611
333.02	27.148
333.38	27.823
333.75	28.342
334.11	29.093
334.48	28.394
334.84	29.044
335.20	28.455
335.57	28.830
335.93	29.018
336.29	27.747
336.66	30.298
337.02	28.416
337.38	28.981
337.75	29.144
338.11	29.275
338.47	29.006
338.84	30.431
339.20	28.624
339.56	30.839
339.93	30.545
340.29	29.710
340.65	29.857
341.02	31.414
341.38	30.783
341.74	29.825
342.11	30.655
342.47	30.925
342.83	30.565
343.20	30.476
343.56	29.570
343.92	30.614
344.28	30.867
344.65	31.556
345.01	30.051
345.37	30.189
345.73	30.118
346.10	31.202
346.46	30.508
346.82	30.890
347.19	31.412
347.55	29.557
347.91	31.392
348.27	31.964
348.63	30.602
349.00	29.935
349.36	30.378
349.72	30.794
350.08	30.794
350.45	31.408
350.81	32.088
351.17	31.118
351.53	31.450
351.89	30.858
352.26	32.202
352.62	31.195
352.98	30.551
353.34	31.635
353.70	30.360
354.07	29.677
354.43	30.952
354.79	30.491
355.15	31.125
355.51	32.294
355.87	31.755
356.24	31.596
356.60	29.671
356.96	32.341
357.32	32.216
357.68	31.654
358.04	31.354
358.40	31.433
358.77	31.925
359.13	30.939
359.49	31.216
359.85	31.270
360.21	32.137
360.57	32.451
360.93	31.923
361.29	31.141
361.66	30.960
362.02	31.493
362.38	31.407
362.74	30.952
363.10	31.014
363.46	31.401
363.82	30.461
364.18	30.323
364.54	31.798
364.90	32.578
365.26	32.500
365.62	32.213
365.98	31.848
366.35	31.160
366.71	32.755
367.07	31.901
367.43	33.019
367.79	31.977
368.15	32.256
368.51	31.032
368.87	31.549
369.23	31.968
369.59	31.209
369.95	31.912
370.31	31.553
370.67	31.232
371.03	31.985
371.39	31.851
371.75	30.956
372.11	31.935
372.47	32.478
372.83	33.141
373.19	31.431
373.55	32.446
373.91	33.726
374.27	31.409
374.63	31.927
374.99	33.051
375.35	30.356
375.71	31.049
376.07	32.099
376.42	32.118
376.78	31.809
377.14	31.275
377.50	32.583
377.86	31.782
378.22	32.174
378.58	31.266
378.94	32.055
379.30	31.552
379.66	32.614
380.02	32.432
380.38	31.998
380.74	32.173
381.09	31.663
381.45	31.592
381.81	31.818
382.17	32.803
382.53	31.006
382.89	32.037
383.25	31.832
383.61	33.829
383.97	32.395
384.32	31.441
384.68	31.351
385.04	31.899
385.40	31.579
385.76	32.002
386.12	31.412
386.48	31.403
386.83	32.585
387.19	32.282
387.55	31.293
387.91	31.076
388.27	31.147
388.62	31.653
388.98	31.941
389.34	32.103
389.70	31.269
390.06	32.066
390.42	31.647
390.77	31.870
391.13	31.653
391.49	31.536
391.85	30.045
392.20	30.662
392.56	30.556
392.92	31.254
393.28	29.586
393.64	30.695
393.99	31.093
394.35	31.079
394.71	30.928
395.07	31.090
395.42	31.026
395.78	30.089
396.14	30.912
396.50	31.830
396.85	31.469
397.21	29.778
397.57	29.944
397.92	30.589
398.28	29.316
398.64	30.705
399.00	30.722
399.35	30.006
399.71	29.109
400.07	30.396
400.42	30.982
400.78	30.398
401.14	29.634
401.49	29.672
401.85	30.551
402.21	30.060
402.57	29.488
402.92	30.643
403.28	30.606
403.63	28.651
403.99	29.363
404.35	29.818
404.70	29.017
405.06	28.189
405.42	29.632
405.77	29.143
406.13	28.837
406.49	29.332
406.84	29.652
407.20	28.073
407.55	28.143
407.91	29.667
408.27	28.590
408.62	28.236
408.98	28.738
409.34	28.659
409.69	28.839
410.05	28.005
410.40	28.807
410.76	28.196
411.11	28.227
411.47	28.435
411.83	29.200
412.18	27.520
412.54	28.144
412.89	28.675
413.25	27.981
413.60	28.907
413.96	27.626
414.31	27.521
414.67	27.947
415.03	28.212
415.38	28.737
415.74	28.167
416.09	28.217
416.45	27.711
416.80	27.561
417.16	28.016
417.51	27.870
417.87	26.654
418.22	28.580
418.58	28.664
418.93	27.580
419.29	27.689
419.64	27.582
420.00	27.500
420.35	28.174
420.71	27.794
421.06	26.193
421.42	27.018
421.77	27.522
422.12	26.614
422.48	26.606
422.83	27.432
423.19	26.796
423.54	26.872
423.90	26.841
424.25	27.527
424.61	27.738
424.96	26.822
425.31	27.132
425.67	26.517
426.02	26.686
426.38	26.984
426.73	26.682
427.09	26.748
427.44	26.740
427.79	26.164
428.15	27.500
428.50	25.922
428.85	26.341
429.21	26.781
429.56	25.609
429.92	25.466
430.27	26.713
430.62	25.755
430.98	26.725
431.33	26.237
431.68	26.492
432.04	26.305
432.39	26.271
432.74	26.272
433.10	25.410
433.45	26.939
433.80	26.053
434.16	26.549
434.51	25.842
434.86	26.910
435.22	25.403
435.57	25.714
435.92	26.097
436.28	26.512
436.63	26.214
436.98	25.472
437.34	25.880
437.69	26.371
438.04	26.026
438.39	25.970
438.75	26.206
439.10	27.207
439.45	26.210
439.81	26.647
440.16	25.353
440.51	26.362
440.86	26.057
441.22	25.918
441.57	25.531
441.92	26.714
442.27	26.265
442.63	25.645
442.98	26.197
443.33	25.815
443.68	24.884
444.03	25.671
444.39	26.095
444.74	26.082
445.09	25.714
445.44	25.260
445.79	25.186
446.15	26.046
446.50	25.148
446.85	25.642
447.20	26.262
447.55	25.572
447.91	25.703
448.26	25.765
448.61	26.569
448.96	25.969
449.31	26.828
449.66	26.337
450.02	25.404
450.37	25.624
450.72	26.170
451.07	25.289
451.42	25.289
451.77	26.013
452.12	25.635
452.47	25.995
452.83	26.166
453.18	25.000
453.53	26.283
453.88	25.044
454.23	25.643
454.58	25.924
454.93	26.637
455.28	25.249
455.63	25.243
455.98	26.131
456.34	25.565
456.69	25.360
457.04	25.759
457.39	24.898
457.74	24.724
458.09	25.474
458.44	25.371
458.79	24.675
459.14	25.734
459.49	26.036
459.84	24.543
460.19	23.630
460.54	24.595
460.89	25.453
461.24	25.440
461.59	26.206
461.94	24.784
462.29	24.392
462.64	24.186
462.99	24.658
463.34	25.467
463.69	25.078
464.04	24.638
464.39	25.565
464.74	23.945
465.09	23.643
465.44	24.820
465.79	24.720
466.14	24.904
466.49	24.360
466.84	24.168
467.19	24.442
467.54	24.125
467.89	24.490
468.24	23.967
468.59	24.969
468.94	24.191
469.29	24.229
469.64	25.167
469.99	25.169
470.34	24.439
470.68	25.000
471.03	23.741
471.38	24.948
471.73	24.250
472.08	25.066
472.43	24.497
472.78	23.634
473.13	23.684
473.48	23.408
473.83	23.902
474.17	23.709
474.52	23.635
474.87	24.402
475.22	23.331
475.57	23.106
475.92	23.526
476.27	24.295
476.61	23.883
476.96	23.474
477.31	23.443
477.66	23.359
478.01	23.785
478.36	23.004
478.70	23.001
479.05	23.482
479.40	23.183
479.75	23.589
480.10	23.062
480.45	22.275
480.79	22.169
481.14	22.407
481.49	23.636
481.84	23.045
482.19	22.853
482.53	23.349
482.88	22.801
483.23	23.084
483.58	22.520
483.92	23.477
484.27	21.743
484.62	22.155
484.97	21.916
485.31	22.295
485.66	21.239
486.01	20.855
486.36	21.399
486.70	21.395
487.05	21.493
487.40	21.016
487.75	21.331
488.09	21.777
488.44	21.748
488.79	21.664
489.13	21.620
489.48	21.533
489.83	21.709
490.17	22.096
490.52	21.745
490.87	21.755
491.22	21.373
491.56	21.640
491.91	21.871
492.26	21.543
492.60	21.613
492.95	21.562
493.30	21.542
493.64	22.352
493.99	21.077
494.34	21.693
494.68	21.978
495.03	22.509
495.37	20.987
495.72	21.784
496.07	21.763
496.41	20.575
496.76	21.328
497.11	21.702
497.45	21.751
497.80	21.161
498.14	20.628
498.49	21.171
498.84	22.004
499.18	21.048
499.53	21.035
499.87	20.969
500.22	20.961
500.56	21.456
500.91	21.587
501.26	21.669
501.60	21.595
501.95	20.257
502.29	21.556
502.64	21.136
502.98	21.038
503.33	21.024
503.67	21.021
504.02	20.720
504.36	20.917
504.71	21.495
505.06	20.434
505.40	21.196
505.75	19.720
506.09	20.748
506.44	21.756
506.78	20.653
507.13	21.252
507.47	21.212
507.82	20.973
508.16	20.466
508.51	21.055
508.85	20.804
509.19	21.735
509.54	20.816
509.88	20.608
510.23	20.977
510.57	21.207
510.92	20.922
511.26	20.298
511.61	21.421
511.95	20.146
512.30	21.156
512.64	20.634
512.98	21.383
513.33	20.771
513.67	20.598
514.02	20.184
514.36	21.027
514.70	20.421
515.05	21.138
515.39	20.920
515.74	20.608
516.08	21.409
516.42	20.921
516.77	20.847
517.11	20.255
517.46	19.977
517.80	21.080
518.14	20.672
518.49	20.945
518.83	20.625
519.17	21.305
519.52	20.204
519.86	20.365
520.20	20.867
520.55	20.826
520.89	21.350
521.23	21.230
521.58	20.708
521.92	19.963
522.26	20.134
522.61	20.000
522.95	19.705
523.29	20.450
523.64	20.610
523.98	20.641
524.32	20.567
524.66	21.167
525.01	21.875
525.35	20.136
525.69	20.628
526.04	20.436
526.38	20.317
526.72	20.675
527.06	21.281
527.41	18.564
527.75	21.672
528.09	20.488
528.43	20.204
528.78	21.020
529.12	20.303
529.46	20.637
529.80	20.730
530.15	20.935
530.49	19.754
530.83	21.076
531.17	20.366
531.51	21.271
531.86	20.258
532.20	20.274
532.54	21.140
532.88	20.732
533.22	19.988
533.57	20.123
533.91	19.446
534.25	19.988
534.59	21.110
534.93	19.453
535.27	20.217
535.62	20.208
535.96	20.213
536.30	19.771
536.64	19.833
536.98	20.372
537.32	20.013
537.66	20.467
538.01	19.947
538.35	20.362
538.69	20.868
539.03	19.623
539.37	19.233
539.71	18.406
540.05	19.673
540.39	20.266
540.73	19.858
541.07	20.701
541.42	20.026
541.76	20.323
542.10	20.116
542.44	20.132
542.78	19.499
543.12	18.554
543.46	20.197
543.80	19.649
544.14	19.063
544.48	19.238
544.82	19.307
545.16	19.128
545.50	19.473
545.84	19.624
546.18	19.125
546.52	18.651
546.86	20.069
547.20	19.488
547.54	18.637
547.88	20.089
548.22	19.801
548.56	18.805
548.90	17.990
549.24	19.798
549.58	19.168
549.92	18.819
550.26	19.744
550.60	19.156
550.94	19.225
551.28	19.020
551.62	18.835
551.96	18.386
552.30	20.546
552.64	19.608
552.98	18.508
553.32	19.285
553.66	19.836
554.00	18.943
554.34	18.841
554.68	19.313
555.02	18.688
555.36	18.511
555.69	18.268
556.03	18.977
556.37	19.168
556.71	18.895
557.05	18.978
557.39	18.544
557.73	19.054
558.07	19.144
558.41	19.537
558.75	19.104
559.08	20.805
559.42	18.745
559.76	19.412
560.10	18.558
560.44	18.938
560.78	18.696
561.12	19.789
561.45	19.361
561.79	17.732
562.13	18.176
562.47	19.262
562.81	19.038
563.15	19.197
563.48	18.302
563.82	19.765
564.16	17.528
564.50	18.359
564.84	18.774
565.17	18.597
565.51	18.658
565.85	18.782
566.19	18.347
566.52	18.429
566.86	18.264
567.20	18.632
567.54	18.379
567.88	18.251
568.21	18.730
568.55	17.492
568.89	18.142
569.23	17.513
569.56	17.652
569.90	17.736
570.24	17.438
570.57	17.307
570.91	17.162
571.25	16.677
571.59	16.760
571.92	16.907
572.26	16.869
572.60	16.847
572.93	16.372
573.27	17.036
573.61	16.750
573.95	17.313
574.28	16.533
574.62	16.861
574.96	16.033
575.29	16.804
575.63	16.235
575.97	16.376
576.30	16.622
576.64	15.871
576.98	16.432
577.31	16.151
577.65	16.721
577.98	16.365
578.32	15.965
578.66	16.059
578.99	16.343
579.33	15.953
579.67	16.152
580.00	15.967
580.34	16.113
580.67	15.906
581.01	16.483
581.35	15.954
581.68	16.013
582.02	15.620
582.35	15.913
582.69	15.899
583.02	15.736
583.36	16.186
583.70	15.909
584.03	15.596
584.37	15.942
584.70	16.092
585.04	16.267
585.37	15.727
585.71	16.283
586.04	16.212
586.38	15.987
586.72	16.349
587.05	15.865
587.39	15.752
587.72	16.001
588.06	15.662
588.39	16.241
588.73	16.544
589.06	16.360
589.40	16.498
589.73	16.579
590.07	16.263
590.40	15.857
590.73	16.198
591.07	16.768
591.40	16.955
591.74	17.316
592.07	16.187
592.41	16.825
592.74	15.880
593.08	16.156
593.41	16.514
593.75	15.615
594.08	16.393
594.41	15.907
594.75	15.896
595.08	15.820
595.42	15.867
595.75	16.275
596.09	16.222
596.42	16.267
596.75	16.294
597.09	17.403
597.42	16.105
597.75	16.041
598.09	16.478
598.42	16.022
598.76	15.728
599.09	16.078
599.42	16.121
599.76	16.252
600.09	15.373
600.42	15.522
600.76	15.429
601.09	15.665
601.42	15.868
601.76	16.091
602.09	15.613
602.42	16.481
602.76	16.566
603.09	16.444
603.42	15.853
603.76	15.663
604.09	15.743
604.42	16.184
604.76	15.858
605.09	16.164
605.42	15.562
605.75	15.315
606.09	15.982
606.42	15.815
606.75	15.471
607.09	16.074
607.42	15.447
607.75	15.190
608.08	15.632
608.42	16.674
608.75	16.276
609.08	15.726
609.41	15.992
609.75	16.008
610.08	16.352
610.41	15.782
610.74	15.989
611.07	15.761
611.41	15.702
611.74	16.340
612.07	16.253
612.40	16.579
612.73	15.895
613.07	16.056
613.40	16.377
613.73	15.469
614.06	16.290
614.39	15.836
614.72	16.895
615.06	15.861
615.39	15.074
615.72	15.286
616.05	15.843
616.38	16.064
616.71	16.686
617.05	16.196
617.38	16.416
617.71	16.036
618.04	16.286
618.37	16.026
618.70	16.553
619.03	17.039
619.36	16.904
619.69	15.915
620.03	17.033
620.36	17.112
620.69	16.781
621.02	16.519
621.35	16.523
621.68	16.277
622.01	15.867
622.34	17.322
622.67	16.578
623.00	15.334
623.33	16.369
623.66	16.869
623.99	16.200
624.32	16.405
624.65	16.102
624.99	15.156
625.32	16.075
625.65	16.604
625.98	16.526
626.31	16.796
626.64	16.816
626.97	17.124
627.30	16.126
627.63	16.981
627.96	16.569
628.29	17.410
628.62	17.475
628.95	18.302
629.28	16.150
629.61	18.515
629.94	15.905
630.26	16.492
630.59	17.636
630.92	16.954
631.25	16.288
631.58	15.115
631.91	16.937
632.24	16.561
632.57	17.209
632.90	16.667
633.23	17.450
633.56	18.418
633.89	17.667
634.22	17.594
634.55	17.751
634.88	15.689
635.20	18.160
635.53	17.470
635.86	19.183
636.19	16.941
636.52	17.762
636.85	16.838
637.18	17.166
637.51	18.676
637.83	16.769
638.16	18.159
638.49	17.506
638.82	16.561
639.15	17.375
639.48	19.576
639.81	18.633
640.13	17.318
640.46	18.121
640.79	17.834
641.12	17.194
641.45	15.922
641.77	17.378
642.10	19.591
642.43	17.718
642.76	17.647
643.09	18.252
643.41	17.299
643.74	20.679
644.07	17.683
644.40	20.552
644.73	19.370
645.05	20.761
645.38	17.694
645.71	18.357
646.04	19.601
646.36	20.200
646.69	18.896
647.02	18.878
647.35	20.275
647.67	18.407
648.00	19.187
648.33	18.317
648.66	18.636
648.98	18.741
649.31	16.293
649.64	17.937
649.96	17.735
650.29	17.378
650.62	16.019
650.94	17.990
651.27	20.101
651.60	20.466
651.92	19.169
652.25	16.938
652.58	18.847
652.90	18.483
653.23	17.411
653.56	16.063
653.88	19.334
654.21	19.115
654.54	16.007
654.86	19.159
655.19	16.892
655.52	13.389
655.84	12.921
656.17	15.887
656.49	21.001
656.82	20.998
657.15	15.689
657.47	11.821
657.80	8.974
658.13	8.935
658.45	13.070
658.78	13.178
659.10	13.425
659.43	13.649
659.75	13.444
660.08	14.620
660.41	14.898
660.73	17.027
661.06	18.153
661.38	18.182
661.71	19.808
662.03	17.751
662.36	17.694
662.68	20.482
663.01	16.970
663.33	18.047
663.66	16.597
663.98	19.654
664.31	19.328
664.63	17.206
664.96	16.298
665.28	20.082
665.61	19.883
665.93	17.706
666.26	19.067
666.58	20.921
666.91	24.101
667.23	20.449
667.56	19.006
667.88	18.162
668.21	21.322
668.53	19.089
668.86	17.749
669.18	19.829
669.50	18.261
669.83	21.569
670.15	21.333
670.48	19.390
670.80	20.690
671.13	20.807
671.45	19.149
671.77	18.737
672.10	18.299
672.42	16.608
672.75	18.408
673.07	17.958
673.39	17.360
673.72	17.383
674.04	18.627
674.37	17.670
674.69	19.223
675.01	18.828
675.34	20.534
675.66	21.895
675.98	19.348
676.31	18.277
676.63	18.896
676.95	19.497
677.28	17.523
677.60	18.901
677.92	23.418
678.25	19.713
678.57	20.319
678.89	18.838
679.22	18.075
679.54	19.656
679.86	17.615
680.18	18.784
680.51	18.972
680.83	19.573
681.15	19.623
681.48	18.526
681.80	18.375
682.12	18.774
682.44	16.634
682.77	18.737
683.09	19.742
683.41	20.621
683.73	18.985
684.06	19.835
684.38	19.765
684.70	17.054
685.02	17.073
685.34	19.414
685.67	17.832
685.99	16.151
686.31	17.406
686.63	15.371
686.96	15.714
687.28	19.856
687.60	17.935
687.92	18.099
688.24	19.202
688.56	20.080
688.89	19.917
689.21	19.214
689.53	18.372
689.85	18.847
690.17	18.634
690.49	17.622
690.82	20.561
691.14	14.732
691.46	17.511
691.78	17.269
692.10	21.281
692.42	19.760
692.74	18.465
693.06	20.638
693.39	20.329
693.71	17.031
694.03	18.526
694.35	18.182
694.67	18.307
694.99	19.756
695.31	16.422
695.63	19.139
695.95	18.826
696.27	17.259
696.59	19.689
696.91	18.135
697.23	18.545
697.56	21.748
697.88	16.769
698.20	17.083
698.52	18.065
698.84	18.931
699.16	19.585
699.48	18.765
699.80	20.773
700.12	22.597
700.44	20.955
700.76	22.099
701.08	19.828
701.40	17.877
701.72	18.367
702.04	26.705
702.36	15.581
702.68	19.263
703.00	20.776
703.32	15.426
703.64	19.303
703.96	18.942
704.28	18.023
704.60	19.355
704.91	21.662
705.23	21.994
705.55	22.591
705.87	23.256
706.19	20.141
706.51	21.807
706.83	21.818
707.15	20.448
707.47	19.192
707.79	23.096
708.11	19.178
708.43	18.333
708.74	18.622
709.06	19.481
709.38	20.210
709.70	21.802
710.02	20.475
710.34	17.879
710.66	22.687
710.98	21.875
711.29	25.000
711.61	23.599
711.93	19.551
712.25	24.116
712.57	19.853
712.89	20.415
713.20	22.188
713.52	22.039
713.84	21.519
714.16	21.037
714.48	21.552
714.80	22.492
715.11	20.461
715.43	21.068
715.75	20.290
716.07	19.169
716.39	21.944
716.70	19.934
717.02	23.381
717.34	21.908
717.66	23.881
717.97	23.108
718.29	21.852
718.61	22.263
718.93	22.426
719.24	23.529
719.56	19.661
719.88	21.695
720.20	23.986
720.51	21.603
720.83	21.933
721.15	17.910
721.46	23.759
721.78	22.939
722.10	27.170
722.42	23.308
722.73	25.468
723.05	23.361
723.37	22.267
723.68	20.849
724.00	24.390
724.32	22.581
724.63	23.171
724.95	22.176
725.27	22.672
725.58	26.172
725.90	23.723
726.22	21.132
726.53	21.875
726.85	22.867
727.16	24.555
727.48	21.277
727.80	23.864
728.11	23.188
728.43	26.923
728.74	22.222
729.06	24.453
729.38	25.000
729.69	22.420
730.01	20.478
730.32	22.222
730.64	22.742
730.96	20.462
731.27	24.172
731.59	16.820
731.90	22.449
732.22	21.429
732.53	20.433
732.85	20.513
733.16	20.579
733.48	21.595
733.80	22.078
734.11	23.567
734.43	23.077
734.74	22.000
735.06	19.198
735.37	23.121
735.69	16.561
736.00	23.203
736.32	23.053
736.63	17.572
736.95	21.725
737.26	17.007
737.58	18.065
737.89	22.074
738.21	22.526
738.52	23.929
738.83	20.000
739.15	20.000
739.46	24.088
739.78	21.181
740.09	24.615
740.41	22.581
740.72	18.815
741.04	25.926
741.35	22.083
741.66	28.000
741.98	24.057
742.29	30.622
742.61	28.879
742.92	24.434
743.23	22.650
743.55	22.400
743.86	21.930
744.18	29.204
744.49	30.144
744.80	30.516
745.12	30.000
745.43	24.670
745.74	22.072
746.06	27.523
746.37	27.354
746.68	26.244
747.00	26.852
747.31	30.952
747.62	21.239
747.94	23.789
748.25	23.404
748.56	31.278
748.88	27.228
749.19	27.000
749.50	24.651
749.82	21.545
750.13	22.449
750.44	24.453
750.75	23.860
751.07	26.045
751.38	26.481
751.69	23.105
752.01	25.188
752.32	18.051
752.63	21.986
752.94	22.541
753.26	25.600
753.57	20.325
753.88	27.734
754.19	21.429
754.51	25.694
754.82	18.051
755.13	25.283
755.44	21.053
755.75	20.073
756.07	23.404
756.38	17.883
756.69	22.483
757.00	19.760
757.31	18.398
757.63	22.222
757.94	19.571
758.25	21.324
758.56	19.753
758.87	19.624
759.18	24.242
759.50	18.495
759.81	21.184
760.12	21.562
760.43	20.630
760.74	17.663
761.05	19.209
761.36	20.053
761.67	21.591
761.99	17.391
762.30	23.264
762.61	24.046
762.92	21.875
763.23	24.370
763.54	23.600
763.85	21.094
764.16	27.692
764.47	21.673
764.78	20.141
765.10	18.354
765.41	20.354
765.72	20.659
766.03	20.690
766.34	22.333
766.65	24.681
766.96	24.359
767.27	26.396
767.58	28.646
767.89	33.684
768.20	31.609
768.51	30.457
768.82	28.899
769.13	23.171
769.44	21.053
769.75	21.888
770.06	17.890
770.37	26.244
770.68	29.167
770.99	22.667
771.30	21.721
771.61	24.664
771.92	21.311
772.23	28.571
772.54	22.564
772.85	30.890
773.16	31.383
773.47	30.978
773.78	29.442
774.09	30.357
774.39	30.409
774.70	29.630
775.01	30.435
775.32	41.830
775.63	35.526
775.94	32.374
776.25	40.945
776.56	34.328
776.87	31.148
777.18	34.375
777.48	38.168
777.79	40.909
778.10	34.815
778.41	30.357
778.72	30.657
779.03	37.584
779.34	30.872
779.65	25.000
779.95	26.994
780.26	35.948
780.57	40.000
780.88	38.281
781.19	32.331
781.50	35.811
781.80	30.818
782.11	25.424
782.42	24.684
782.73	28.221
783.04	33.108
783.34	25.352
783.65	35.616
783.96	32.090
784.27	34.266
784.57	23.741
784.88	32.407
785.19	40.476
785.50	33.019
785.81	43.284
786.11	36.885
786.42	41.085
786.73	38.053
787.04	33.962
787.34	28.571
787.65	33.000
787.96	41.441
788.26	30.579
788.57	37.288
788.88	40.496
789.19	37.500
789.49	31.818
789.80	32.824
790.11	38.095
790.41	39.604
790.72	43.373
791.03	47.826
791.33	43.023
791.64	43.299
791.95	43.564
792.25	52.222
792.56	51.948
792.87	62.821
793.17	69.620
793.48	51.724
793.79	36.782
794.09	40.909
794.40	39.496
794.70	38.971
795.01	38.519
795.32	29.496
795.62	37.795
795.93	40.517
796.23	36.283
796.54	36.471
796.85	47.297
797.15	52.113
797.46	62.121
797.76	66.265
798.07	43.038
798.37	36.923
798.68	59.091
798.99	38.028
799.29	44.156
799.60	47.727
799.90	68.493
800.21	62.687
800.51	55.172
800.82	56.140
801.12	50.820
801.43	69.697
801.73	54.054
802.04	63.492
802.34	45.679
802.65	68.750
802.95	72.881
803.26	59.375
803.56	31.429
803.87	49.231
804.17	58.824
804.48	77.778
804.78	58.621
805.09	51.471
805.39	57.692
805.70	50.000
806.00	65.574
806.30	30.303
806.61	52.439
806.91	44.304
807.22	38.158
807.52	55.224
807.83	46.479
808.13	60.937
808.43	63.333
808.74	61.842
809.04	57.971
809.35	61.194
809.65	52.632
809.95	72.581
810.26	59.322
810.56	63.492
810.86	65.909
811.17	66.667
811.47	70.000
811.77	64.815
812.08	52.727
812.38	68.000
812.69	97.222
812.99	113.636
813.29	69.388
813.59	50.000
813.90	67.347
814.20	49.091
814.50	55.385
814.81	75.000
815.11	69.388
815.41	60.656
815.72	88.095
816.02	76.364
816.32	76.190
816.62	77.500
816.93	80.488
817.23	85.714
817.53	79.545
817.84	106.061
818.14	73.913
818.44	88.889
818.74	97.059
819.04	92.500
819.35	68.571
819.65	102.941
819.95	64.286
820.25	125.000
820.56	87.179
820.86	79.545
821.16	81.395
821.46	58.974
821.76	106.000
822.07	88.571
822.37	77.500
822.67	87.879
822.97	64.706
823.27	128.571
823.57	72.973
823.88	112.500
824.18	120.000
824.48	97.619
824.78	84.000
825.08	70.833
825.38	121.622
825.69	90.244
825.99	158.333
826.29	75.862
826.59	97.368
826.89	94.737
827.19	120.588
827.49	145.161
827.79	86.364
828.09	95.455
828.39	85.106
828.70	91.837
829.00	70.370
829.30	103.226
829.60	85.000
829.90	93.333
830.20	114.286
830.50	73.913
830.80	130.435
831.10	110.000
831.40	96.667
831.70	95.652
832.00	146.154
832.30	114.815
832.60	206.250
832.90	133.333
833.20	228.571
833.50	125.806
833.80	127.586
834.10	112.500
834.40	157.692
834.70	150.000
835.00	247.619
835.30	142.857
835.60	215.385
835.90	86.207
836.20	135.714
836.50	117.241
836.80	96.000
837.10	136.111
837.40	157.143
837.70	170.588
838.00	140.741
838.30	142.857
838.60	166.667
838.90	146.154
839.19	145.000
839.49	192.857
839.79	205.000
840.09	210.000
840.39	147.619
840.69	108.696
840.99	166.667
841.29	300.000
841.59	125.000
841.88	206.250
842.18	106.897
842.48	195.238
842.78	123.333
843.08	152.174
843.38	150.000
843.68	400.000
843.97	130.769
844.27	106.897
844.57	185.714
844.87	212.500
845.17	155.556
845.47	700.000
845.76	177.778
846.06	211.765
846.36	300.000
846.66	207.143
846.96	212.500
847.25	281.818
847.55	290.909
847.85	160.870
848.15	400.000
848.44	257.143
848.74	161.111
849.04	141.176
849.34	260.000
849.63	100.000
849.93	254.545
850.23	540.000
850.53	314.286
850.82	1100.000
851.12	-2500.000
851.42	2200.000
851.71	170.000
852.01	-366.667
852.31	150.000
852.61	1300.000
852.90	161.905
853.20	140.000
853.50	194.118
853.79	119.048
854.09	158.333
854.39	187.500
854.68	113.514
854.98	119.355
855.28	93.333
855.57	165.517
855.87	125.926
856.17	131.579
856.46	140.000
856.76	223.529
857.05	141.379
857.35	129.167
857.65	193.333
857.94	143.478
858.24	130.769
858.53	220.000
858.83	172.727
859.13	140.000
859.42	0.000
859.72	266.667
860.01	272.727
860.31	150.000
860.60	173.684
860.90	152.174
861.20	333.333
861.49	300.000
861.79	-2000.000
862.08	325.000
862.38	195.238
862.67	200.000
862.97	205.882
863.26	411.111
863.56	150.000
863.85	183.333
864.15	375.000
864.44	300.000
864.74	516.667
865.03	475.000
865.33	178.947
865.62	236.364
865.92	261.538
866.21	275.000
866.51	0.000
866.80	245.455
867.10	680.000
867.39	315.385
867.69	281.818
867.98	184.211
868.27	227.273
868.57	221.053
868.86	-2400.000
869.16	200.000
869.45	1350.000
869.75	-2000.000
870.04	283.333
870.33	414.286
870.63	650.000
870.92	1050.000
871.22	428.571
871.51	194.118
871.80	147.619
872.10	228.571
>>>>>End Processed Spectral Data<<<<<
