SpectraSuite Data File
++++++++++++++++++++++++++++++++++++
Date: Wed May 13 20:45:21 PDT 2015
User: schluterlab
Dark Spectrum Present: Yes
Reference Spectrum Present: Yes
Number of Sampled Component Spectra: 1
Spectrometers: USB2E3373
Integration Time (usec): 3000 (USB2E3373)
Spectra Averaged: 3 (USB2E3373)
Boxcar Smoothing: 0 (USB2E3373)
Correct for Electrical Dark: No (USB2E3373)
Strobe/Lamp Enabled: No (USB2E3373)
Correct for Detector Non-linearity: No (USB2E3373)
Correct for Stray Light: No (USB2E3373)
Number of Pixels in Processed Spectrum: 2048
>>>>>Begin Processed Spectral Data<<<<<
178.53	0.000
178.91	-800.000
179.29	-775.000
179.67	-100.000
180.04	-675.000
180.42	1550.000
180.80	680.000
181.18	-600.000
181.56	500.000
181.94	0.000
182.31	-228.571
182.69	933.333
183.07	-337.500
183.45	-444.444
183.83	336.364
184.20	-240.000
184.58	1700.000
184.96	4200.000
185.34	-520.000
185.72	-462.500
186.09	-1200.000
186.47	1650.000
186.85	1500.000
187.23	2700.000
187.61	-1333.333
187.98	750.000
188.36	300.000
188.74	309.091
189.12	-540.000
189.49	340.000
189.87	-3300.000
190.25	-650.000
190.63	292.857
191.00	230.769
191.38	683.333
191.76	-700.000
192.14	950.000
192.51	312.500
192.89	750.000
193.27	337.500
193.65	-650.000
194.02	320.000
194.40	540.000
194.78	400.000
195.15	350.000
195.53	480.000
195.91	-950.000
196.29	300.000
196.66	268.421
197.04	-200.000
197.42	0.000
197.79	420.000
198.17	-3400.000
198.55	357.143
198.92	450.000
199.30	600.000
199.68	0.000
200.05	222.222
200.43	528.571
200.81	2300.000
201.18	800.000
201.56	-666.667
201.94	333.333
202.31	388.889
202.69	316.667
203.07	300.000
203.44	0.000
203.82	750.000
204.19	457.143
204.57	321.429
204.95	325.000
205.32	900.000
205.70	327.273
206.08	278.571
206.45	1650.000
206.83	262.500
207.20	516.667
207.58	500.000
207.96	166.667
208.33	475.000
208.71	-533.333
209.08	485.714
209.46	477.778
209.84	300.000
210.21	-766.667
210.59	850.000
210.96	-325.000
211.34	1550.000
211.71	430.000
212.09	516.667
212.46	0.000
212.84	933.333
213.22	925.000
213.59	-2800.000
213.97	550.000
214.34	642.857
214.72	445.455
215.09	540.000
215.47	-1400.000
215.84	-1150.000
216.22	966.667
216.59	264.286
216.97	900.000
217.34	345.455
217.72	-483.333
218.09	0.000
218.47	-3500.000
218.84	433.333
219.22	628.571
219.59	1233.333
219.97	-371.429
220.34	700.000
220.72	-1166.667
221.09	350.000
221.47	1175.000
221.84	-583.333
222.22	0.000
222.59	975.000
222.97	-1150.000
223.34	640.000
223.72	269.231
224.09	720.000
224.46	1100.000
224.84	-2800.000
225.21	-540.000
225.59	-3500.000
225.96	490.000
226.34	240.000
226.71	1350.000
227.08	412.500
227.46	220.000
227.83	-300.000
228.21	-1600.000
228.58	377.778
228.95	-1750.000
229.33	-1150.000
229.70	1233.333
230.08	371.429
230.45	-240.000
230.82	291.667
231.20	583.333
231.57	414.286
231.95	283.333
232.32	100.000
232.69	318.182
233.07	385.714
233.44	184.615
233.81	-1033.333
234.19	226.316
234.56	375.000
234.93	266.667
235.31	200.000
235.68	192.308
236.05	271.429
236.43	145.455
236.80	168.421
237.17	3000.000
237.55	166.667
237.92	153.571
238.29	114.286
238.67	125.806
239.04	148.276
239.41	119.444
239.79	89.130
240.16	88.095
240.53	100.000
240.91	72.549
241.28	74.000
241.65	98.000
242.02	78.261
242.40	72.581
242.77	91.667
243.14	63.441
243.51	59.551
243.89	62.353
244.26	48.889
244.63	55.914
245.00	51.064
245.38	52.475
245.75	43.925
246.12	47.706
246.49	51.825
246.87	57.600
247.24	50.769
247.61	42.143
247.98	49.673
248.36	35.811
248.73	40.127
249.10	39.490
249.47	35.593
249.84	47.594
250.22	39.572
250.59	39.645
250.96	40.404
251.33	44.550
251.70	43.564
252.08	40.952
252.45	37.220
252.82	33.478
253.19	40.851
253.56	38.431
253.94	38.589
254.31	38.281
254.68	37.692
255.05	38.376
255.42	38.618
255.79	35.662
256.16	35.379
256.54	34.982
256.91	33.096
257.28	35.971
257.65	36.634
258.02	35.404
258.39	32.492
258.76	35.452
259.14	32.143
259.51	31.915
259.88	31.988
260.25	35.045
260.62	32.081
260.99	37.578
261.36	37.237
261.73	31.519
262.10	29.942
262.47	34.930
262.85	33.148
263.22	31.339
263.59	36.752
263.96	29.670
264.33	30.026
264.70	32.895
265.07	29.412
265.44	31.818
265.81	31.873
266.18	28.894
266.55	28.780
266.92	31.941
267.29	32.639
267.66	31.881
268.03	31.364
268.40	30.140
268.77	29.833
269.14	29.505
269.51	32.054
269.88	30.536
270.25	31.377
270.62	28.539
270.99	33.978
271.36	29.614
271.73	29.439
272.10	29.565
272.47	32.043
272.84	31.169
273.21	30.818
273.58	26.419
273.95	27.463
274.32	28.099
274.69	29.764
275.06	27.559
275.43	32.553
275.80	30.862
276.17	28.717
276.54	30.769
276.91	28.656
277.28	29.688
277.65	28.820
278.02	27.536
278.39	31.445
278.76	27.273
279.13	27.358
279.50	29.981
279.87	28.486
280.23	30.140
280.60	28.820
280.97	26.987
281.34	30.265
281.71	29.818
282.08	30.326
282.45	26.182
282.82	28.419
283.19	27.629
283.56	28.596
283.92	29.611
284.29	27.513
284.66	29.220
285.03	28.571
285.40	26.232
285.77	27.441
286.14	26.079
286.51	28.333
286.87	26.838
287.24	27.687
287.61	27.127
287.98	28.084
288.35	26.783
288.72	26.012
289.08	24.726
289.45	25.535
289.82	24.715
290.19	25.432
290.56	24.962
290.93	25.378
291.29	25.307
291.66	25.369
292.03	25.872
292.40	25.844
292.77	24.260
293.13	23.731
293.50	24.344
293.87	23.407
294.24	23.111
294.60	22.562
294.97	22.674
295.34	24.260
295.71	22.727
296.08	22.650
296.44	21.320
296.81	22.985
297.18	24.526
297.55	20.580
297.91	21.768
298.28	23.695
298.65	25.065
299.02	21.080
299.38	20.850
299.75	20.755
300.12	20.817
300.48	21.500
300.85	20.962
301.22	21.274
301.59	19.949
301.95	22.796
302.32	21.309
302.69	21.625
303.05	20.242
303.42	19.630
303.79	20.725
304.15	19.930
304.52	20.510
304.89	19.977
305.25	18.794
305.62	19.819
305.99	21.724
306.35	20.134
306.72	20.067
307.09	22.087
307.45	21.396
307.82	18.973
308.19	20.419
308.55	20.820
308.92	19.549
309.29	19.958
309.65	20.997
310.02	21.247
310.38	20.323
310.75	21.542
311.12	20.573
311.48	21.317
311.85	22.432
312.22	19.563
312.58	20.270
312.95	22.175
313.31	19.903
313.68	21.206
314.05	24.162
314.41	21.709
314.78	21.752
315.14	23.138
315.51	22.451
315.87	22.376
316.24	21.946
316.61	23.099
316.97	22.896
317.34	22.309
317.70	24.570
318.07	25.409
318.43	25.147
318.80	26.242
319.16	26.930
319.53	26.360
319.89	27.905
320.26	28.500
320.62	28.770
320.99	29.697
321.35	30.808
321.72	31.314
322.08	32.577
322.45	34.428
322.81	33.915
323.18	34.875
323.54	34.508
323.91	36.792
324.27	36.138
324.64	36.626
325.00	36.700
325.37	39.854
325.73	40.754
326.10	40.600
326.46	42.742
326.83	42.623
327.19	45.175
327.56	45.906
327.92	46.282
328.29	48.713
328.65	49.355
329.01	47.653
329.38	51.249
329.74	49.400
330.11	50.518
330.47	51.699
330.84	51.287
331.20	52.459
331.56	53.486
331.93	53.426
332.29	54.658
332.66	54.513
333.02	54.205
333.38	55.465
333.75	55.526
334.11	56.673
334.48	55.901
334.84	58.640
335.20	58.091
335.57	57.933
335.93	56.339
336.29	57.509
336.66	58.251
337.02	58.281
337.38	57.778
337.75	58.467
338.11	59.714
338.47	59.853
338.84	60.312
339.20	59.450
339.56	61.953
339.93	60.818
340.29	58.967
340.65	59.804
341.02	59.424
341.38	61.388
341.74	57.982
342.11	59.476
342.47	60.969
342.83	59.075
343.20	60.693
343.56	58.888
343.92	59.123
344.28	61.395
344.65	61.565
345.01	57.660
345.37	60.034
345.73	60.321
346.10	60.870
346.46	59.237
346.82	58.237
347.19	58.814
347.55	59.524
347.91	59.790
348.27	60.477
348.63	60.117
349.00	59.547
349.36	60.837
349.72	60.465
350.08	60.616
350.45	59.398
350.81	58.570
351.17	59.643
351.53	60.442
351.89	58.003
352.26	59.669
352.62	58.941
352.98	59.968
353.34	59.326
353.70	58.920
354.07	60.323
354.43	58.810
354.79	59.292
355.15	59.936
355.51	60.671
355.87	60.163
356.24	60.668
356.60	58.781
356.96	59.372
357.32	61.079
357.68	59.764
358.04	59.224
358.40	59.857
358.77	59.311
359.13	59.984
359.49	59.529
359.85	58.333
360.21	59.091
360.57	60.467
360.93	61.077
361.29	59.259
361.66	58.050
362.02	60.075
362.38	60.380
362.74	60.119
363.10	58.549
363.46	58.694
363.82	60.393
364.18	58.664
364.54	59.881
364.90	58.994
365.26	59.044
365.62	60.774
365.98	57.487
366.35	58.739
366.71	59.436
367.07	59.213
367.43	60.160
367.79	60.385
368.15	61.135
368.51	59.375
368.87	60.243
369.23	61.522
369.59	60.174
369.95	59.559
370.31	59.473
370.67	58.406
371.03	60.000
371.39	59.548
371.75	59.706
372.11	58.321
372.47	59.238
372.83	60.879
373.19	59.393
373.55	61.641
373.91	60.677
374.27	58.900
374.63	60.000
374.99	60.593
375.35	60.293
375.71	59.013
376.07	58.299
376.42	61.142
376.78	60.239
377.14	60.244
377.50	60.132
377.86	59.375
378.22	59.482
378.58	59.273
378.94	60.088
379.30	59.796
379.66	60.406
380.02	59.644
380.38	58.713
380.74	59.064
381.09	59.658
381.45	59.926
381.81	59.398
382.17	60.064
382.53	60.377
382.89	60.247
383.25	60.163
383.61	59.603
383.97	59.287
384.32	58.640
384.68	58.364
385.04	58.021
385.40	59.814
385.76	59.521
386.12	59.845
386.48	59.975
386.83	60.808
387.19	59.617
387.55	59.617
387.91	59.674
388.27	59.411
388.62	59.004
388.98	60.074
389.34	59.262
389.70	59.595
390.06	59.823
390.42	59.014
390.77	59.160
391.13	59.796
391.49	59.772
391.85	58.689
392.20	58.360
392.56	58.396
392.92	59.035
393.28	57.811
393.64	59.652
393.99	58.094
394.35	59.677
394.71	59.473
395.07	58.879
395.42	60.321
395.78	60.941
396.14	58.597
396.50	60.150
396.85	58.805
397.21	58.076
397.57	57.657
397.92	58.353
398.28	57.455
398.64	58.244
399.00	58.814
399.35	59.109
399.71	58.507
400.07	58.013
400.42	59.571
400.78	57.901
401.14	58.354
401.49	58.149
401.85	57.048
402.21	57.844
402.57	58.544
402.92	59.016
403.28	58.588
403.63	58.292
403.99	58.471
404.35	58.364
404.70	58.813
405.06	57.309
405.42	57.517
405.77	57.486
406.13	57.731
406.49	58.604
406.84	59.185
407.20	57.388
407.55	57.881
407.91	59.533
408.27	58.583
408.62	57.616
408.98	57.966
409.34	57.257
409.69	58.452
410.05	58.674
410.40	58.532
410.76	58.184
411.11	56.695
411.47	56.486
411.83	56.811
412.18	56.710
412.54	57.472
412.89	56.566
413.25	57.733
413.60	58.308
413.96	55.859
414.31	57.169
414.67	58.175
415.03	58.146
415.38	58.312
415.74	58.006
416.09	58.067
416.45	56.894
416.80	58.295
417.16	59.316
417.51	58.394
417.87	57.932
418.22	58.107
418.58	57.521
418.93	57.617
419.29	57.479
419.64	57.935
420.00	56.768
420.35	57.449
420.71	58.338
421.06	57.160
421.42	57.836
421.77	57.848
422.12	56.990
422.48	57.690
422.83	58.299
423.19	56.354
423.54	57.458
423.90	57.449
424.25	57.566
424.61	56.786
424.96	58.251
425.31	56.534
425.67	56.292
426.02	57.829
426.38	58.974
426.73	57.168
427.09	58.480
427.44	58.079
427.79	59.172
428.15	58.333
428.50	57.870
428.85	57.569
429.21	56.543
429.56	56.661
429.92	57.524
430.27	57.448
430.62	57.399
430.98	56.876
431.33	56.701
431.68	58.377
432.04	57.774
432.39	59.452
432.74	58.468
433.10	58.234
433.45	59.009
433.80	57.871
434.16	58.226
434.51	57.421
434.86	57.412
435.22	58.477
435.57	58.298
435.92	58.163
436.28	58.778
436.63	59.106
436.98	58.786
437.34	59.809
437.69	60.618
438.04	59.022
438.39	58.627
438.75	57.873
439.10	59.330
439.45	58.737
439.81	58.731
440.16	58.159
440.51	60.516
440.86	59.757
441.22	58.454
441.57	58.174
441.92	59.928
442.27	59.419
442.63	59.136
442.98	60.451
443.33	58.967
443.68	58.544
444.03	59.395
444.39	59.834
444.74	60.011
445.09	59.084
445.44	58.939
445.79	59.673
446.15	60.720
446.50	60.312
446.85	59.918
447.20	60.683
447.55	61.307
447.91	60.673
448.26	60.490
448.61	60.825
448.96	61.019
449.31	61.305
449.66	59.313
450.02	60.446
450.37	60.147
450.72	62.324
451.07	60.999
451.42	60.122
451.77	61.245
452.12	60.393
452.47	60.137
452.83	61.538
453.18	60.636
453.53	61.781
453.88	60.425
454.23	61.686
454.58	61.841
454.93	62.810
455.28	62.344
455.63	61.468
455.98	62.500
456.34	62.437
456.69	63.181
457.04	61.672
457.39	60.725
457.74	60.650
458.09	60.610
458.44	61.688
458.79	60.846
459.14	61.287
459.49	62.172
459.84	62.105
460.19	60.931
460.54	61.285
460.89	61.163
461.24	62.295
461.59	62.754
461.94	61.529
462.29	63.442
462.64	61.710
462.99	60.638
463.34	61.333
463.69	63.477
464.04	62.261
464.39	61.681
464.74	62.507
465.09	61.641
465.44	61.274
465.79	61.577
466.14	61.357
466.49	61.290
466.84	61.296
467.19	61.135
467.54	62.000
467.89	61.825
468.24	62.362
468.59	61.538
468.94	60.721
469.29	63.496
469.64	62.918
469.99	62.585
470.34	62.748
470.68	62.644
471.03	62.585
471.38	64.003
471.73	63.025
472.08	63.750
472.43	62.374
472.78	62.870
473.13	61.746
473.48	62.297
473.83	62.927
474.17	63.410
474.52	62.283
474.87	62.405
475.22	61.637
475.57	61.150
475.92	61.869
476.27	61.725
476.61	62.052
476.96	62.122
477.31	62.062
477.66	63.020
478.01	60.690
478.36	61.925
478.70	62.046
479.05	62.247
479.40	63.920
479.75	63.498
480.10	61.581
480.45	60.543
480.79	62.112
481.14	62.280
481.49	62.269
481.84	61.683
482.19	63.244
482.53	61.927
482.88	62.587
483.23	62.056
483.58	61.829
483.92	62.512
484.27	59.651
484.62	62.371
484.97	61.214
485.31	60.342
485.66	58.186
486.01	57.977
486.36	57.154
486.70	58.803
487.05	59.089
487.40	59.857
487.75	60.652
488.09	61.541
488.44	61.374
488.79	61.664
489.13	61.536
489.48	60.767
489.83	61.372
490.17	62.516
490.52	61.426
490.87	62.867
491.22	62.256
491.56	61.412
491.91	62.866
492.26	61.231
492.60	63.226
492.95	62.816
493.30	61.729
493.64	63.136
493.99	62.906
494.34	62.072
494.68	62.912
495.03	62.782
495.37	62.448
495.72	63.840
496.07	62.459
496.41	60.973
496.76	62.093
497.11	62.224
497.45	62.552
497.80	62.620
498.14	61.932
498.49	62.488
498.84	62.895
499.18	62.286
499.53	61.776
499.87	62.022
500.22	61.658
500.56	64.515
500.91	62.115
501.26	62.162
501.60	64.452
501.95	61.916
502.29	63.496
502.64	63.920
502.98	63.114
503.33	61.654
503.67	63.155
504.02	62.582
504.36	61.488
504.71	61.798
505.06	62.169
505.40	62.470
505.75	62.150
506.09	63.022
506.44	63.394
506.78	63.322
507.13	62.898
507.47	63.081
507.82	63.425
508.16	63.728
508.51	64.536
508.85	62.711
509.19	63.776
509.54	61.786
509.88	62.648
510.23	63.650
510.57	63.932
510.92	61.678
511.26	63.720
511.61	63.485
511.95	62.370
512.30	63.839
512.64	63.192
512.98	63.880
513.33	63.758
513.67	62.327
514.02	63.258
514.36	64.446
514.70	63.863
515.05	63.079
515.39	63.825
515.74	63.345
516.08	62.884
516.42	64.928
516.77	63.378
517.11	62.930
517.46	63.657
517.80	64.866
518.14	63.810
518.49	65.928
518.83	63.352
519.17	65.127
519.52	62.705
519.86	64.404
520.20	65.376
520.55	64.692
520.89	65.085
521.23	66.043
521.58	65.066
521.92	64.911
522.26	63.758
522.61	65.732
522.95	65.071
523.29	63.847
523.64	64.756
523.98	66.420
524.32	65.380
524.66	63.379
525.01	64.828
525.35	65.304
525.69	64.039
526.04	64.237
526.38	64.430
526.72	63.067
527.06	64.470
527.41	63.923
527.75	65.595
528.09	65.125
528.43	65.519
528.78	64.290
529.12	62.182
529.46	64.789
529.80	64.851
530.15	64.424
530.49	62.646
530.83	63.734
531.17	65.927
531.51	65.175
531.86	63.290
532.20	64.602
532.54	63.677
532.88	63.543
533.22	62.399
533.57	62.284
533.91	63.456
534.25	62.211
534.59	62.660
534.93	60.738
535.27	63.005
535.62	62.759
535.96	63.716
536.30	63.382
536.64	62.910
536.98	65.295
537.32	63.265
537.66	63.400
538.01	63.726
538.35	64.124
538.69	64.008
539.03	62.963
539.37	62.364
539.71	61.633
540.05	63.595
540.39	63.654
540.73	62.549
541.07	63.660
541.42	63.731
541.76	62.903
542.10	63.195
542.44	63.179
542.78	63.505
543.12	61.740
543.46	62.754
543.80	63.110
544.14	61.361
544.48	62.476
544.82	62.155
545.16	63.500
545.50	61.889
545.84	63.239
546.18	64.108
546.52	63.593
546.86	63.299
547.20	63.722
547.54	60.521
547.88	62.564
548.22	61.893
548.56	61.447
548.90	61.716
549.24	62.155
549.58	60.846
549.92	62.157
550.26	63.352
550.60	61.411
550.94	61.831
551.28	62.253
551.62	62.545
551.96	61.614
552.30	62.048
552.64	62.610
552.98	62.712
553.32	61.902
553.66	62.168
554.00	62.732
554.34	61.629
554.68	63.734
555.02	62.623
555.36	62.700
555.69	60.690
556.03	62.113
556.37	61.187
556.71	60.232
557.05	61.905
557.39	62.141
557.73	62.738
558.07	60.914
558.41	62.590
558.75	61.719
559.08	63.311
559.42	62.283
559.76	62.132
560.10	60.457
560.44	60.867
560.78	59.681
561.12	59.499
561.45	61.473
561.79	59.196
562.13	59.155
562.47	60.997
562.81	61.715
563.15	59.398
563.48	60.212
563.82	61.057
564.16	60.955
564.50	59.766
564.84	59.166
565.17	59.910
565.51	59.617
565.85	60.660
566.19	60.113
566.52	60.228
566.86	58.107
567.20	59.906
567.54	57.991
567.88	57.034
568.21	58.730
568.55	57.937
568.89	57.442
569.23	56.239
569.56	55.061
569.90	55.057
570.24	55.651
570.57	55.117
570.91	53.652
571.25	53.366
571.59	53.490
571.92	53.600
572.26	52.975
572.60	54.354
572.93	53.643
573.27	53.534
573.61	52.987
573.95	52.558
574.28	52.889
574.62	52.187
574.96	52.521
575.29	51.552
575.63	52.109
575.97	51.054
576.30	51.540
576.64	51.883
576.98	52.528
577.31	52.126
577.65	52.443
577.98	51.789
578.32	50.397
578.66	51.279
578.99	52.089
579.33	51.586
579.67	51.009
580.00	51.858
580.34	51.471
580.67	51.501
581.01	50.551
581.35	50.890
581.68	50.902
582.02	50.376
582.35	51.501
582.69	50.919
583.02	51.287
583.36	51.579
583.70	51.923
584.03	51.594
584.37	51.910
584.70	51.959
585.04	50.612
585.37	50.326
585.71	51.245
586.04	50.858
586.38	52.142
586.72	51.616
587.05	51.318
587.39	51.108
587.72	51.456
588.06	51.654
588.39	52.071
588.73	51.012
589.06	52.945
589.40	52.727
589.73	53.115
590.07	52.171
590.40	52.210
590.73	53.552
591.07	54.172
591.40	52.720
591.74	53.247
592.07	52.094
592.41	52.625
592.74	51.011
593.08	50.700
593.41	51.566
593.75	50.312
594.08	51.458
594.41	51.891
594.75	51.497
595.08	51.396
595.42	51.769
595.75	52.457
596.09	52.685
596.42	52.849
596.75	52.554
597.09	53.074
597.42	52.024
597.75	52.738
598.09	52.739
598.42	51.289
598.76	51.236
599.09	50.437
599.42	50.509
599.76	51.025
600.09	50.565
600.42	50.584
600.76	50.321
601.09	50.310
601.42	51.218
601.76	50.892
602.09	51.383
602.42	51.234
602.76	51.310
603.09	50.787
603.42	51.425
603.76	50.572
604.09	51.028
604.42	50.917
604.76	50.822
605.09	50.459
605.42	50.321
605.75	50.000
606.09	51.322
606.42	50.061
606.75	49.813
607.09	50.607
607.42	51.048
607.75	49.831
608.08	49.848
608.42	50.829
608.75	49.594
609.08	50.601
609.41	51.214
609.75	50.167
610.08	50.848
610.41	50.047
610.74	51.041
611.07	51.630
611.41	50.638
611.74	51.684
612.07	51.501
612.40	52.099
612.73	51.158
613.07	53.071
613.40	51.237
613.73	49.659
614.06	51.774
614.39	50.184
614.72	49.105
615.06	50.210
615.39	50.106
615.72	49.540
616.05	49.548
616.38	50.528
616.71	52.553
617.05	52.179
617.38	50.451
617.71	51.111
618.04	51.142
618.37	50.384
618.70	51.151
619.03	52.368
619.36	51.663
619.69	52.042
620.03	51.992
620.36	50.936
620.69	53.151
621.02	51.770
621.35	52.310
621.68	51.791
622.01	51.316
622.34	50.151
622.67	51.027
623.00	50.844
623.33	50.465
623.66	51.537
623.99	52.062
624.32	50.499
624.65	50.847
624.99	49.008
625.32	50.543
625.65	52.141
625.98	51.653
626.31	52.566
626.64	51.429
626.97	52.037
627.30	52.120
627.63	51.846
627.96	52.733
628.29	52.668
628.62	52.516
628.95	55.094
629.28	52.099
629.61	52.337
629.94	54.286
630.26	52.717
630.59	54.337
630.92	51.149
631.25	50.938
631.58	53.654
631.91	53.955
632.24	52.110
632.57	52.151
632.90	52.083
633.23	53.244
633.56	54.237
633.89	53.794
634.22	54.824
634.55	54.320
634.88	52.575
635.20	54.839
635.53	52.771
635.86	54.703
636.19	51.294
636.52	52.364
636.85	53.379
637.18	53.111
637.51	53.901
637.83	51.048
638.16	54.859
638.49	55.668
638.82	53.982
639.15	53.000
639.48	53.865
639.81	55.630
640.13	53.906
640.46	54.497
640.79	51.651
641.12	51.857
641.45	52.933
641.77	54.934
642.10	55.409
642.43	53.303
642.76	54.644
643.09	54.601
643.41	54.325
643.74	54.012
644.07	53.811
644.40	54.601
644.73	55.118
645.05	54.041
645.38	54.186
645.71	55.233
646.04	55.980
646.36	56.594
646.69	56.020
647.02	55.612
647.35	53.780
647.67	54.336
648.00	53.659
648.33	54.455
648.66	53.636
648.98	54.573
649.31	52.616
649.64	52.765
649.96	51.714
650.29	54.502
650.62	51.618
650.94	53.971
651.27	55.574
651.60	54.077
651.92	52.236
652.25	50.163
652.58	53.271
652.90	52.291
653.23	52.388
653.56	52.441
653.88	53.249
654.21	50.869
654.54	52.640
654.86	50.312
655.19	48.919
655.52	39.868
655.84	36.054
656.17	44.595
656.49	59.975
656.82	61.271
657.15	46.998
657.47	35.328
657.80	27.135
658.13	27.894
658.45	41.812
658.78	41.884
659.10	42.230
659.43	43.329
659.75	44.082
660.08	45.000
660.41	47.672
660.73	49.682
661.06	49.522
661.38	53.273
661.71	52.692
662.03	55.030
662.36	50.696
662.68	51.205
663.01	52.727
663.33	55.414
663.66	53.151
663.98	54.644
664.31	53.361
664.63	52.024
664.96	49.497
665.28	53.689
665.61	51.462
665.93	48.491
666.26	52.333
666.58	51.464
666.91	53.700
667.23	51.910
667.56	52.268
667.88	51.496
668.21	53.305
668.53	49.675
668.86	50.433
669.18	54.158
669.50	54.348
669.83	55.556
670.15	51.778
670.48	54.031
670.80	52.155
671.13	53.079
671.45	49.787
671.77	52.342
672.10	48.799
672.42	50.883
672.75	47.595
673.07	48.415
673.39	49.729
673.72	50.391
674.04	50.196
674.37	47.767
674.69	50.920
675.01	49.791
675.34	52.156
675.66	54.105
675.98	48.676
676.31	49.370
676.63	49.682
676.95	51.782
677.28	52.336
677.60	50.110
677.92	52.110
678.25	49.692
678.57	50.996
678.89	48.096
679.22	46.365
679.54	51.527
679.86	47.339
680.18	46.869
680.51	48.050
680.83	46.975
681.15	49.434
681.48	48.771
681.80	48.936
682.12	47.701
682.44	46.422
682.77	45.825
683.09	49.356
683.41	50.554
683.73	51.435
684.06	48.554
684.38	45.597
684.70	48.450
685.02	48.030
685.34	44.872
685.67	43.706
685.99	42.612
686.31	45.904
686.63	43.993
686.96	43.571
687.28	46.209
687.60	47.826
687.92	49.543
688.24	47.529
688.56	48.394
688.89	48.133
689.21	51.092
689.53	45.511
689.85	47.228
690.17	44.928
690.49	47.983
690.82	48.131
691.14	46.875
691.46	46.835
691.78	46.185
692.10	49.174
692.42	48.104
692.74	41.909
693.06	45.745
693.39	47.844
693.71	45.633
694.03	47.368
694.35	44.156
694.67	43.021
694.99	50.732
695.31	47.549
695.63	45.455
695.95	50.367
696.27	46.954
696.59	47.927
696.91	48.446
697.23	43.662
697.56	44.350
697.88	43.763
698.20	44.583
698.52	43.441
698.84	43.653
699.16	44.240
699.48	48.456
699.80	48.309
700.12	48.831
700.44	47.480
700.76	49.171
701.08	48.563
701.40	45.531
701.72	50.729
702.04	55.114
702.36	46.459
702.68	46.459
703.00	48.476
703.32	46.277
703.64	48.794
703.96	47.354
704.28	46.802
704.60	51.906
704.91	50.742
705.23	45.161
705.55	51.827
705.87	54.817
706.19	49.117
706.51	44.860
706.83	51.212
707.15	45.938
707.47	43.434
707.79	47.174
708.11	45.662
708.43	43.571
708.74	43.112
709.06	43.377
709.38	45.932
709.70	48.547
710.02	49.555
710.34	45.758
710.66	46.866
710.98	48.295
711.29	45.640
711.61	48.968
711.93	46.474
712.25	47.910
712.57	53.309
712.89	49.827
713.20	47.112
713.52	48.355
713.84	45.886
714.16	45.122
714.48	44.253
714.80	50.760
715.11	45.245
715.43	45.401
715.75	44.058
716.07	45.048
716.39	45.768
716.70	48.837
717.02	51.079
717.34	49.470
717.66	51.866
717.97	52.988
718.29	48.519
718.61	48.540
718.93	51.471
719.24	44.983
719.56	44.746
719.88	44.746
720.20	51.689
720.51	47.735
720.83	50.558
721.15	44.776
721.46	47.518
721.78	49.821
722.10	50.943
722.42	46.992
722.73	47.566
723.05	45.082
723.37	46.964
723.68	48.649
724.00	49.593
724.32	43.548
724.63	41.057
724.95	46.862
725.27	47.368
725.58	44.531
725.90	47.810
726.22	49.057
726.53	44.792
726.85	47.099
727.16	47.331
727.48	40.780
727.80	47.348
728.11	43.116
728.43	40.385
728.74	47.670
729.06	51.460
729.38	44.118
729.69	51.957
730.01	43.345
730.32	44.097
730.64	39.465
730.96	42.904
731.27	43.709
731.59	42.813
731.90	41.983
732.22	43.168
732.53	40.867
732.85	43.590
733.16	45.338
733.48	43.854
733.80	42.208
734.11	44.268
734.43	44.083
734.74	39.429
735.06	41.547
735.37	43.642
735.69	39.490
736.00	44.444
736.32	42.056
736.63	38.658
736.95	44.089
737.26	36.395
737.58	36.452
737.89	40.803
738.21	39.249
738.52	43.214
738.83	39.623
739.15	44.231
739.46	40.146
739.78	44.444
740.09	44.308
740.41	43.226
740.72	38.676
741.04	42.963
741.35	45.000
741.66	51.556
741.98	38.208
742.29	49.282
742.61	48.707
742.92	47.964
743.23	42.308
743.55	41.200
743.86	39.474
744.18	50.885
744.49	49.761
744.80	48.826
745.12	50.455
745.43	40.529
745.74	45.946
746.06	50.000
746.37	40.807
746.68	49.774
747.00	52.778
747.31	44.286
747.62	47.788
747.94	43.172
748.25	40.426
748.56	49.339
748.88	50.000
749.19	50.500
749.50	53.023
749.82	39.837
750.13	37.959
750.44	44.526
750.75	41.053
751.07	44.695
751.38	42.509
751.69	44.404
752.01	44.361
752.32	41.155
752.63	43.972
752.94	46.721
753.26	48.400
753.57	45.935
753.88	44.141
754.19	40.000
754.51	44.792
754.82	38.989
755.13	44.528
755.44	39.850
755.75	41.606
756.07	42.553
756.38	42.336
756.69	42.953
757.00	37.126
757.31	38.576
757.63	37.135
757.94	37.265
758.25	37.255
758.56	36.790
758.87	36.559
759.18	36.061
759.50	36.991
759.81	41.433
760.12	36.562
760.43	40.401
760.74	38.859
761.05	38.983
761.36	36.631
761.67	39.205
761.99	39.752
762.30	40.625
762.61	43.893
762.92	45.312
763.23	44.958
763.54	44.800
763.85	41.406
764.16	45.000
764.47	42.586
764.78	38.869
765.10	34.494
765.41	35.988
765.72	41.018
766.03	36.991
766.34	34.000
766.65	46.383
766.96	43.590
767.27	46.701
767.58	50.000
767.89	50.000
768.20	44.828
768.51	51.269
768.82	40.367
769.13	40.650
769.44	40.486
769.75	40.343
770.06	37.615
770.37	44.344
770.68	41.204
770.99	40.889
771.30	38.525
771.61	46.637
771.92	43.852
772.23	47.479
772.54	43.077
772.85	45.026
773.16	47.340
773.47	49.457
773.78	43.655
774.09	42.262
774.39	43.275
774.70	42.593
775.01	60.870
775.32	52.941
775.63	37.500
775.94	50.360
776.25	55.906
776.56	55.224
776.87	50.000
777.18	53.125
777.48	55.725
777.79	50.758
778.10	58.519
778.41	66.964
778.72	43.796
779.03	47.651
779.34	53.020
779.65	47.973
779.95	52.761
780.26	47.059
780.57	49.655
780.88	53.906
781.19	52.632
781.50	54.730
781.80	49.057
782.11	48.023
782.42	43.671
782.73	43.558
783.04	51.351
783.34	50.000
783.65	56.849
783.96	55.970
784.27	46.154
784.57	44.604
784.88	37.963
785.19	60.317
785.50	55.660
785.81	54.478
786.11	55.738
786.42	51.163
786.73	51.327
787.04	54.717
787.34	60.714
787.65	63.000
787.96	63.063
788.26	48.760
788.57	67.797
788.88	54.545
789.19	55.556
789.49	56.818
789.80	52.672
790.11	77.143
790.41	68.317
790.72	56.627
791.03	66.304
791.33	60.465
791.64	56.701
791.95	58.416
792.25	65.556
792.56	63.636
792.87	57.692
793.17	74.684
793.48	72.414
793.79	59.770
794.09	65.909
794.40	57.983
794.70	60.294
795.01	49.630
795.32	48.201
795.62	53.543
795.93	61.207
796.23	55.752
796.54	70.588
796.85	62.162
797.15	81.690
797.46	59.091
797.76	55.422
798.07	56.962
798.37	66.154
798.68	69.697
798.99	66.197
799.29	61.039
799.60	60.227
799.90	80.822
800.21	91.045
800.51	82.759
800.82	85.965
801.12	78.689
801.43	83.333
801.73	72.973
802.04	71.429
802.34	66.667
802.65	79.687
802.95	100.000
803.26	82.813
803.56	61.429
803.87	76.923
804.17	63.235
804.48	81.481
804.78	70.690
805.09	60.294
805.39	90.385
805.70	62.500
806.00	90.164
806.30	71.212
806.61	64.634
806.91	63.291
807.22	59.211
807.52	65.672
807.83	73.239
808.13	84.375
808.43	78.333
808.74	61.842
809.04	59.420
809.35	83.582
809.65	68.421
809.95	101.613
810.26	64.407
810.56	82.540
810.86	115.909
811.17	109.524
811.47	106.667
811.77	85.185
812.08	83.636
812.38	98.000
812.69	113.889
812.99	115.909
813.29	85.714
813.59	76.190
813.90	118.367
814.20	80.000
814.50	60.000
814.81	82.353
815.11	104.082
815.41	78.689
815.72	128.571
816.02	80.000
816.32	95.238
816.62	100.000
816.93	109.756
817.23	111.905
817.53	106.818
817.84	139.394
818.14	82.609
818.44	106.667
818.74	126.471
819.04	90.000
819.35	108.571
819.65	102.941
819.95	171.429
820.25	135.000
820.56	115.385
820.86	93.182
821.16	118.605
821.46	94.872
821.76	100.000
822.07	140.000
822.37	110.000
822.67	103.030
822.97	76.471
823.27	114.286
823.57	75.676
823.88	112.500
824.18	150.000
824.48	119.048
824.78	136.000
825.08	129.167
825.38	121.622
825.69	92.683
825.99	133.333
826.29	96.552
826.59	105.263
826.89	100.000
827.19	105.882
827.49	141.935
827.79	102.273
828.09	106.818
828.39	87.234
828.70	89.796
829.00	137.037
829.30	74.194
829.60	110.000
829.90	206.667
830.20	175.000
830.50	143.478
830.80	165.217
831.10	133.333
831.40	90.000
831.70	156.522
832.00	176.923
832.30	96.296
832.60	212.500
832.90	150.000
833.20	300.000
833.50	151.613
833.80	148.276
834.10	178.125
834.40	142.308
834.70	238.889
835.00	233.333
835.30	120.000
835.60	192.308
835.90	175.862
836.20	242.857
836.50	141.379
836.80	128.000
837.10	147.222
837.40	157.143
837.70	264.706
838.00	151.852
838.30	133.333
838.60	180.952
838.90	161.538
839.19	170.000
839.49	228.571
839.79	240.000
840.09	200.000
840.39	200.000
840.69	178.261
840.99	183.333
841.29	230.000
841.59	141.667
841.88	175.000
842.18	120.690
842.48	200.000
842.78	156.667
843.08	156.522
843.38	134.375
843.68	750.000
843.97	146.154
844.27	127.586
844.57	214.286
844.87	281.250
845.17	151.852
845.47	1100.000
845.76	311.111
846.06	182.353
846.36	162.500
846.66	228.571
846.96	193.750
847.25	336.364
847.55	227.273
847.85	156.522
848.15	290.000
848.44	235.714
848.74	150.000
849.04	164.706
849.34	280.000
849.63	178.947
849.93	309.091
850.23	660.000
850.53	314.286
850.82	1550.000
851.12	-3000.000
851.42	2800.000
851.71	175.000
852.01	-466.667
852.31	187.500
852.61	866.667
852.90	171.429
853.20	184.000
853.50	182.353
853.79	195.238
854.09	158.333
854.39	237.500
854.68	140.541
854.98	125.806
855.28	106.667
855.57	137.931
855.87	166.667
856.17	194.737
856.46	113.333
856.76	182.353
857.05	110.345
857.35	116.667
857.65	253.333
857.94	126.087
858.24	134.615
858.53	220.000
858.83	163.636
859.13	253.333
859.42	0.000
859.72	322.222
860.01	345.455
860.31	181.818
860.60	147.368
860.90	182.609
861.20	411.111
861.49	350.000
861.79	-3100.000
862.08	462.500
862.38	176.190
862.67	184.615
862.97	200.000
863.26	288.889
863.56	166.667
863.85	266.667
864.15	300.000
864.44	233.333
864.74	583.333
865.03	462.500
865.33	184.211
865.62	272.727
865.92	330.769
866.21	225.000
866.51	0.000
866.80	263.636
867.10	660.000
867.39	330.769
867.69	245.455
867.98	210.526
868.27	390.909
868.57	210.526
868.86	-2300.000
869.16	168.750
869.45	1700.000
869.75	-1900.000
870.04	266.667
870.33	500.000
870.63	675.000
870.92	1550.000
871.22	542.857
871.51	247.059
871.80	152.381
872.10	292.857
>>>>>End Processed Spectral Data<<<<<
