SpectraSuite Data File
++++++++++++++++++++++++++++++++++++
Date: Wed May 13 20:46:28 PDT 2015
User: schluterlab
Dark Spectrum Present: Yes
Reference Spectrum Present: Yes
Number of Sampled Component Spectra: 1
Spectrometers: USB2E3373
Integration Time (usec): 3000 (USB2E3373)
Spectra Averaged: 3 (USB2E3373)
Boxcar Smoothing: 0 (USB2E3373)
Correct for Electrical Dark: No (USB2E3373)
Strobe/Lamp Enabled: No (USB2E3373)
Correct for Detector Non-linearity: No (USB2E3373)
Correct for Stray Light: No (USB2E3373)
Number of Pixels in Processed Spectrum: 2048
>>>>>Begin Processed Spectral Data<<<<<
178.53	0.000
178.91	-825.000
179.29	-775.000
179.67	-138.889
180.04	-825.000
180.42	1700.000
180.80	760.000
181.18	-800.000
181.56	514.286
181.94	0.000
182.31	-271.429
182.69	833.333
183.07	-225.000
183.45	-444.444
183.83	390.909
184.20	-140.000
184.58	1700.000
184.96	3200.000
185.34	-400.000
185.72	-312.500
186.09	-1650.000
186.47	1650.000
186.85	1500.000
187.23	3900.000
187.61	-1166.667
187.98	1075.000
188.36	254.545
188.74	345.455
189.12	-420.000
189.49	340.000
189.87	-1300.000
190.25	-700.000
190.63	242.857
191.00	223.077
191.38	566.667
191.76	-650.000
192.14	900.000
192.51	450.000
192.89	666.667
193.27	325.000
193.65	-525.000
194.02	360.000
194.40	440.000
194.78	350.000
195.15	400.000
195.53	470.000
195.91	-1100.000
196.29	250.000
196.66	231.579
197.04	-100.000
197.42	0.000
197.79	310.000
198.17	-3000.000
198.55	300.000
198.92	325.000
199.30	520.000
199.68	0.000
200.05	238.889
200.43	457.143
200.81	2300.000
201.18	1033.333
201.56	-1100.000
201.94	322.222
202.31	222.222
202.69	200.000
203.07	320.000
203.44	0.000
203.82	700.000
204.19	557.143
204.57	292.857
204.95	412.500
205.32	900.000
205.70	354.545
206.08	121.429
206.45	1900.000
206.83	243.750
207.20	500.000
207.58	240.000
207.96	200.000
208.33	437.500
208.71	-550.000
209.08	514.286
209.46	411.111
209.84	327.273
210.21	-866.667
210.59	700.000
210.96	-237.500
211.34	1250.000
211.71	310.000
212.09	433.333
212.46	0.000
212.84	1033.333
213.22	850.000
213.59	-2900.000
213.97	533.333
214.34	428.571
214.72	363.636
215.09	600.000
215.47	-1950.000
215.84	-2100.000
216.22	1000.000
216.59	321.429
216.97	875.000
217.34	254.545
217.72	-383.333
218.09	0.000
218.47	-3000.000
218.84	388.889
219.22	428.571
219.59	1033.333
219.97	-357.143
220.34	600.000
220.72	-1133.333
221.09	257.143
221.47	1050.000
221.84	-450.000
222.22	0.000
222.59	900.000
222.97	-1700.000
223.34	600.000
223.72	253.846
224.09	620.000
224.46	1050.000
224.84	-2400.000
225.21	-780.000
225.59	-2100.000
225.96	430.000
226.34	185.000
226.71	1800.000
227.08	412.500
227.46	310.000
227.83	-700.000
228.21	-1450.000
228.58	344.444
228.95	-1350.000
229.33	-1600.000
229.70	1000.000
230.08	500.000
230.45	-300.000
230.82	175.000
231.20	416.667
231.57	214.286
231.95	291.667
232.32	113.636
232.69	190.909
233.07	300.000
233.44	192.308
233.81	-1200.000
234.19	184.211
234.56	283.333
234.93	200.000
235.31	227.273
235.68	169.231
236.05	171.429
236.43	87.879
236.80	152.632
237.17	1600.000
237.55	85.714
237.92	92.857
238.29	119.048
238.67	93.548
239.04	127.586
239.41	83.333
239.79	52.174
240.16	69.048
240.53	59.091
240.91	47.059
241.28	40.000
241.65	52.000
242.02	50.725
242.40	45.161
242.77	38.333
243.14	40.860
243.51	44.944
243.89	31.765
244.26	28.889
244.63	33.333
245.00	24.468
245.38	22.772
245.75	18.692
246.12	11.927
246.49	21.898
246.87	32.000
247.24	24.615
247.61	16.429
247.98	25.490
248.36	11.486
248.73	16.561
249.10	21.019
249.47	20.339
249.84	19.786
250.22	19.251
250.59	17.160
250.96	17.677
251.33	19.431
251.70	22.277
252.08	14.762
252.45	10.314
252.82	15.217
253.19	14.043
253.56	13.333
253.94	10.788
254.31	14.453
254.68	14.615
255.05	14.022
255.42	12.602
255.79	10.662
256.16	11.191
256.54	9.187
256.91	13.167
257.28	8.993
257.65	11.551
258.02	11.180
258.39	10.410
258.76	8.696
259.14	10.417
259.51	11.246
259.88	4.348
260.25	10.574
260.62	8.092
260.99	8.696
261.36	9.610
261.73	8.596
262.10	7.558
262.47	8.732
262.85	7.521
263.22	3.419
263.59	10.541
263.96	8.516
264.33	8.616
264.70	8.158
265.07	8.696
265.44	8.333
265.81	7.299
266.18	6.281
266.55	7.805
266.92	8.108
267.29	8.565
267.66	6.651
268.03	6.136
268.40	7.477
268.77	5.489
269.14	6.306
269.51	7.901
269.88	6.527
270.25	5.643
270.62	6.517
270.99	9.462
271.36	9.227
271.73	7.477
272.10	6.957
272.47	7.957
272.84	6.926
273.21	9.015
273.58	3.930
273.95	6.918
274.32	5.372
274.69	5.996
275.06	4.921
275.43	7.872
275.80	6.413
276.17	5.703
276.54	4.366
276.91	5.336
277.28	5.469
277.65	6.190
278.02	4.348
278.39	7.617
278.76	7.455
279.13	6.981
279.50	5.400
279.87	6.375
280.23	7.186
280.60	7.157
280.97	4.806
281.34	7.257
281.71	7.636
282.08	5.566
282.45	6.727
282.82	6.750
283.19	4.456
283.56	5.965
283.92	5.584
284.29	4.586
284.66	5.082
285.03	3.617
285.40	5.634
285.77	4.882
286.14	4.491
286.51	5.833
286.87	5.299
287.24	6.026
287.61	5.457
287.98	5.682
288.35	5.230
288.72	6.386
289.08	6.886
289.45	4.778
289.82	6.016
290.19	3.768
290.56	3.828
290.93	4.985
291.29	3.528
291.66	3.687
292.03	6.250
292.40	5.433
292.77	5.621
293.13	5.224
293.50	5.102
293.87	4.148
294.24	4.000
294.60	3.348
294.97	4.942
295.34	5.501
295.71	4.403
296.08	5.271
296.44	5.640
296.81	3.567
297.18	3.523
297.55	2.375
297.91	3.694
298.28	4.150
298.65	4.961
299.02	3.821
299.38	3.453
299.75	2.426
300.12	3.959
300.48	3.750
300.85	4.809
301.22	3.822
301.59	3.283
301.95	3.652
302.32	4.108
302.69	4.421
303.05	3.394
303.42	2.593
303.79	2.831
304.15	2.331
304.52	3.013
304.89	2.207
305.25	3.596
305.62	4.870
305.99	3.778
306.35	3.020
306.72	3.251
307.09	3.996
307.45	3.153
307.82	1.786
308.19	3.974
308.55	3.776
308.92	3.652
309.29	3.485
309.65	2.863
310.02	3.277
310.38	2.688
310.75	2.534
311.12	3.889
311.48	4.284
311.85	4.507
312.22	2.706
312.58	3.326
312.95	4.118
313.31	2.621
313.68	3.015
314.05	5.325
314.41	3.417
314.78	3.424
315.14	2.383
315.51	3.708
315.87	3.564
316.24	3.575
316.61	3.216
316.97	2.446
317.34	2.642
317.70	2.390
318.07	3.561
318.43	3.131
318.80	3.843
319.16	3.766
319.53	2.533
319.89	3.143
320.26	3.500
320.62	3.274
320.99	2.828
321.35	3.030
321.72	2.669
322.08	3.751
322.45	3.781
322.81	3.682
323.18	4.143
323.54	3.340
323.91	3.679
324.27	2.199
324.64	2.610
325.00	2.344
325.37	3.913
325.73	4.039
326.10	3.001
326.46	2.688
326.83	3.710
327.19	4.270
327.56	3.484
327.92	2.537
328.29	4.170
328.65	3.131
329.01	4.152
329.38	3.700
329.74	3.232
330.11	2.639
330.47	3.581
330.84	3.952
331.20	2.550
331.56	3.578
331.93	1.759
332.29	3.017
332.66	3.717
333.02	3.473
333.38	3.704
333.75	3.743
334.11	3.648
334.48	2.573
334.84	3.676
335.20	2.818
335.57	2.357
335.93	2.679
336.29	3.388
336.66	2.435
337.02	2.805
337.38	2.315
337.75	3.119
338.11	3.939
338.47	2.486
338.84	2.291
339.20	1.743
339.56	3.558
339.93	1.364
340.29	2.717
340.65	2.406
341.02	2.443
341.38	3.915
341.74	2.368
342.11	3.843
342.47	3.260
342.83	3.938
343.20	3.896
343.56	2.359
343.92	3.333
344.28	3.231
344.65	3.095
345.01	3.199
345.37	2.573
345.73	3.553
346.10	3.922
346.46	3.644
346.82	3.460
347.19	2.757
347.55	3.038
347.91	2.994
348.27	3.287
348.63	3.428
349.00	3.155
349.36	2.627
349.72	3.288
350.08	2.755
350.45	3.336
350.81	3.656
351.17	3.485
351.53	3.112
351.89	2.145
352.26	4.262
352.62	3.849
352.98	2.755
353.34	3.862
353.70	2.046
354.07	2.823
354.43	2.857
354.79	2.574
355.15	2.713
355.51	4.237
355.87	3.020
356.24	2.769
356.60	2.807
356.96	1.931
357.32	3.598
357.68	3.858
358.04	2.930
358.40	4.038
358.77	3.991
359.13	2.368
359.49	3.451
359.85	1.032
360.21	2.153
360.57	3.502
360.93	3.154
361.29	2.948
361.66	3.096
362.02	3.358
362.38	2.966
362.74	3.348
363.10	2.295
363.46	3.155
363.82	2.192
364.18	2.643
364.54	3.863
364.90	3.258
365.26	2.279
365.62	3.433
365.98	2.630
366.35	2.221
366.71	3.543
367.07	2.986
367.43	2.612
367.79	3.712
368.15	3.161
368.51	2.471
368.87	3.355
369.23	2.999
369.59	3.403
369.95	1.838
370.31	2.920
370.67	2.609
371.03	3.221
371.39	2.478
371.75	2.574
372.11	3.627
372.47	3.739
372.83	3.314
373.19	2.384
373.55	2.735
373.91	3.903
374.27	3.436
374.63	2.182
374.99	3.037
375.35	2.233
375.71	2.879
376.07	3.018
376.42	3.026
376.78	2.850
377.14	2.985
377.50	2.781
377.86	2.128
378.22	3.161
378.58	1.880
378.94	2.200
379.30	2.226
379.66	2.982
380.02	2.887
380.38	2.064
380.74	2.521
381.09	2.873
381.45	2.704
381.81	3.317
382.17	2.102
382.53	2.201
382.89	3.025
383.25	2.376
383.61	3.656
383.97	2.564
384.32	2.807
384.68	1.921
385.04	2.336
385.40	2.477
385.76	2.641
386.12	2.332
386.48	2.454
386.83	2.437
387.19	3.896
387.55	2.226
387.91	2.781
388.27	2.269
388.62	3.196
388.98	1.843
389.34	3.254
389.70	2.575
390.06	3.105
390.42	2.464
390.77	2.672
391.13	2.872
391.49	2.728
391.85	2.355
392.20	1.767
392.56	2.652
392.92	2.590
393.28	1.302
393.64	2.038
393.99	2.627
394.35	2.047
394.71	2.384
395.07	2.804
395.42	2.410
395.78	2.163
396.14	2.359
396.50	3.008
396.85	2.543
397.21	2.774
397.57	3.100
397.92	2.704
398.28	1.794
398.64	2.628
399.00	2.462
399.35	2.312
399.71	2.315
400.07	3.726
400.42	2.577
400.78	3.257
401.14	2.012
401.49	2.269
401.85	1.875
402.21	2.455
402.57	2.097
402.92	2.081
403.28	2.498
403.63	2.413
403.99	2.357
404.35	2.909
404.70	2.398
405.06	2.446
405.42	2.807
405.77	2.286
406.13	2.201
406.49	3.075
406.84	2.599
407.20	1.596
407.55	1.914
407.91	2.000
408.27	2.425
408.62	2.288
408.98	2.206
409.34	2.399
409.69	2.323
410.05	2.107
410.40	2.080
410.76	2.569
411.11	3.016
411.47	2.428
411.83	2.932
412.18	2.226
412.54	2.242
412.89	3.313
413.25	2.007
413.60	3.274
413.96	2.307
414.31	2.005
414.67	2.281
415.03	2.119
415.38	2.771
415.74	2.637
416.09	2.286
416.45	2.811
416.80	2.644
417.16	2.949
417.51	2.787
417.87	2.248
418.22	2.587
418.58	2.905
418.93	2.457
419.29	2.292
419.64	3.212
420.00	2.317
420.35	3.246
420.71	2.809
421.06	2.029
421.42	2.047
421.77	2.635
422.12	2.134
422.48	1.673
422.83	2.446
423.19	2.486
423.54	2.089
423.90	3.130
424.25	2.401
424.61	2.440
424.96	2.216
425.31	2.879
425.67	1.910
426.02	2.400
426.38	2.015
426.73	2.399
427.09	2.553
427.44	1.955
427.79	2.243
428.15	3.036
428.50	2.282
428.85	3.337
429.21	2.319
429.56	2.229
429.92	2.114
430.27	1.738
430.62	2.253
430.98	2.387
431.33	2.835
431.68	2.565
432.04	2.662
432.39	2.056
432.74	1.915
433.10	2.094
433.45	2.274
433.80	1.940
434.16	2.190
434.51	2.789
434.86	2.794
435.22	2.057
435.57	1.945
435.92	1.814
436.28	2.432
436.63	3.201
436.98	2.175
437.34	2.266
437.69	3.151
438.04	2.080
438.39	2.925
438.75	2.382
439.10	2.123
439.45	2.302
439.81	1.692
440.16	2.484
440.51	2.519
440.86	2.258
441.22	1.613
441.57	2.813
441.92	2.201
442.27	2.314
442.63	2.264
442.98	2.761
443.33	2.935
443.68	2.375
444.03	2.001
444.39	1.461
444.74	1.948
445.09	2.426
445.44	2.296
445.79	2.524
446.15	2.912
446.50	2.316
446.85	2.107
447.20	2.397
447.55	2.233
447.91	2.151
448.26	2.560
448.61	2.940
448.96	2.270
449.31	2.362
449.66	2.532
450.02	2.396
450.37	1.871
450.72	2.256
451.07	2.072
451.42	2.188
451.77	3.053
452.12	3.522
452.47	3.296
452.83	2.273
453.18	3.240
453.53	2.350
453.88	1.359
454.23	2.092
454.58	3.271
454.93	2.734
455.28	2.307
455.63	2.549
455.98	2.798
456.34	1.759
456.69	3.193
457.04	2.724
457.39	1.987
457.74	2.089
458.09	2.933
458.44	2.566
458.79	2.332
459.14	2.935
459.49	2.802
459.84	2.216
460.19	2.416
460.54	2.315
460.89	2.523
461.24	2.489
461.59	4.067
461.94	2.404
462.29	2.374
462.64	2.936
462.99	2.993
463.34	3.667
463.69	2.814
464.04	2.609
464.39	2.783
464.74	2.971
465.09	2.413
465.44	2.715
465.79	2.629
466.14	2.627
466.49	2.558
466.84	2.452
467.19	2.897
467.54	2.875
467.89	2.941
468.24	2.618
468.59	3.358
468.94	2.932
469.29	2.314
469.64	3.213
469.99	3.045
470.34	2.378
470.68	2.945
471.03	2.585
471.38	2.502
471.73	2.998
472.08	3.158
472.43	3.141
472.78	2.238
473.13	3.273
473.48	3.308
473.83	3.049
474.17	2.551
474.52	2.605
474.87	2.569
475.22	2.786
475.57	2.848
475.92	2.230
476.27	1.804
476.61	2.813
476.96	2.034
477.31	1.936
477.66	2.681
478.01	2.561
478.36	2.010
478.70	2.440
479.05	2.662
479.40	2.764
479.75	2.288
480.10	2.137
480.45	2.047
480.79	1.672
481.14	2.153
481.49	2.136
481.84	2.149
482.19	2.226
482.53	2.202
482.88	2.420
483.23	2.056
483.58	2.320
483.92	2.109
484.27	1.656
484.62	1.897
484.97	2.050
485.31	1.918
485.66	1.327
486.01	1.363
486.36	1.418
486.70	1.245
487.05	1.353
487.40	1.583
487.75	1.342
488.09	1.638
488.44	1.201
488.79	2.315
489.13	1.833
489.48	1.794
489.83	2.028
490.17	1.885
490.52	1.904
490.87	2.035
491.22	2.183
491.56	1.777
491.91	1.908
492.26	2.205
492.60	2.719
492.95	1.871
493.30	2.383
493.64	2.007
493.99	1.532
494.34	2.220
494.68	2.518
495.03	2.491
495.37	2.280
495.72	2.144
496.07	2.227
496.41	2.124
496.76	2.243
497.11	2.206
497.45	1.956
497.80	2.495
498.14	1.932
498.49	1.902
498.84	1.918
499.18	2.333
499.53	1.994
499.87	2.283
500.22	2.167
500.56	2.621
500.91	2.019
501.26	2.513
501.60	2.373
501.95	2.154
502.29	2.624
502.64	2.467
502.98	2.291
503.33	2.514
503.67	2.274
504.02	2.245
504.36	2.340
504.71	2.540
505.06	2.602
505.40	1.702
505.75	2.025
506.09	1.895
506.44	1.875
506.78	2.338
507.13	1.716
507.47	2.778
507.82	2.584
508.16	2.482
508.51	2.588
508.85	2.632
509.19	1.837
509.54	2.398
509.88	2.112
510.23	1.748
510.57	2.735
510.92	2.486
511.26	2.261
511.61	2.905
511.95	1.983
512.30	2.015
512.64	2.364
512.98	3.215
513.33	2.891
513.67	2.775
514.02	2.002
514.36	2.731
514.70	2.490
515.05	1.673
515.39	2.019
515.74	2.646
516.08	2.963
516.42	2.719
516.77	3.177
517.11	2.608
517.46	3.160
517.80	2.555
518.14	2.085
518.49	2.275
518.83	2.557
519.17	2.367
519.52	2.716
519.86	2.966
520.20	2.890
520.55	2.334
520.89	2.920
521.23	2.895
521.58	2.881
521.92	3.429
522.26	2.563
522.61	2.430
522.95	2.517
523.29	2.069
523.64	3.293
523.98	2.095
524.32	2.895
524.66	2.766
525.01	2.635
525.35	3.098
525.69	2.463
526.04	2.866
526.38	2.929
526.72	2.699
527.06	2.762
527.41	1.918
527.75	2.894
528.09	2.890
528.43	2.677
528.78	2.766
529.12	2.970
529.46	2.449
529.80	2.537
530.15	2.866
530.49	2.831
530.83	3.101
531.17	2.480
531.51	3.048
531.86	3.290
532.20	3.520
532.54	3.908
532.88	3.273
533.22	2.561
533.57	2.716
533.91	2.950
534.25	2.734
534.59	2.990
534.93	2.499
535.27	3.018
535.62	3.053
535.96	2.950
536.30	2.161
536.64	2.576
536.98	3.119
537.32	3.094
537.66	2.800
538.01	3.357
538.35	2.909
538.69	3.510
539.03	2.599
539.37	1.981
539.71	1.231
540.05	2.680
540.39	3.189
540.73	2.329
541.07	3.504
541.42	3.131
541.76	3.806
542.10	3.169
542.44	2.318
542.78	3.360
543.12	2.559
543.46	3.213
543.80	2.863
544.14	2.888
544.48	2.984
544.82	2.951
545.16	3.253
545.50	2.506
545.84	2.957
546.18	3.367
546.52	3.579
546.86	2.405
547.20	3.237
547.54	3.273
547.88	3.890
548.22	2.428
548.56	3.082
548.90	2.689
549.24	2.694
549.58	3.411
549.92	3.228
550.26	3.267
550.60	3.734
550.94	2.394
551.28	2.048
551.62	3.091
551.96	3.018
552.30	3.140
552.64	3.245
552.98	3.525
553.32	3.439
553.66	3.136
554.00	2.471
554.34	3.037
554.68	3.720
555.02	3.456
555.36	2.714
555.69	2.436
556.03	2.557
556.37	3.411
556.71	2.387
557.05	3.711
557.39	3.009
557.73	3.387
558.07	3.336
558.41	2.605
558.75	3.159
559.08	3.281
559.42	2.721
559.76	3.456
560.10	3.141
560.44	3.075
560.78	3.061
561.12	2.507
561.45	3.194
561.79	2.703
562.13	2.884
562.47	3.415
562.81	2.789
563.15	2.876
563.48	3.249
563.82	2.935
564.16	2.747
564.50	1.562
564.84	2.718
565.17	2.445
565.51	3.195
565.85	3.236
566.19	2.379
566.52	2.787
566.86	2.351
567.20	3.243
567.54	2.283
567.88	2.390
568.21	3.069
568.55	2.224
568.89	2.140
569.23	2.674
569.56	2.470
569.90	2.566
570.24	2.296
570.57	2.074
570.91	2.036
571.25	2.100
571.59	2.356
571.92	1.872
572.26	1.964
572.60	1.892
572.93	2.249
573.27	2.277
573.61	2.345
573.95	2.119
574.28	1.834
574.62	1.798
574.96	1.888
575.29	1.697
575.63	1.702
575.97	1.822
576.30	1.912
576.64	1.693
576.98	1.920
577.31	1.525
577.65	1.954
577.98	1.789
578.32	1.509
578.66	2.096
578.99	1.643
579.33	1.840
579.67	1.459
580.00	1.966
580.34	1.898
580.67	1.607
581.01	2.024
581.35	1.636
581.68	1.730
582.02	1.487
582.35	1.501
582.69	1.706
583.02	1.800
583.36	1.822
583.70	1.998
584.03	1.672
584.37	2.187
584.70	1.567
585.04	1.835
585.37	1.817
585.71	1.950
586.04	1.860
586.38	1.803
586.72	1.850
587.05	1.576
587.39	1.609
587.72	1.804
588.06	1.654
588.39	1.893
588.73	1.848
589.06	1.963
589.40	1.886
589.73	1.830
590.07	2.135
590.40	2.119
590.73	2.186
591.07	2.401
591.40	2.446
591.74	2.035
592.07	2.443
592.41	2.315
592.74	2.097
593.08	2.165
593.41	2.151
593.75	1.749
594.08	2.715
594.41	2.262
594.75	1.959
595.08	1.897
595.42	2.067
595.75	1.994
596.09	2.178
596.42	2.908
596.75	2.406
597.09	2.944
597.42	2.108
597.75	2.285
598.09	2.739
598.42	2.749
598.76	1.540
599.09	2.128
599.42	2.402
599.76	2.233
600.09	1.967
600.42	2.118
600.76	1.821
601.09	2.004
601.42	1.903
601.76	2.391
602.09	1.937
602.42	2.548
602.76	2.580
603.09	2.400
603.42	2.304
603.76	2.058
604.09	2.055
604.42	2.283
604.76	2.446
605.09	2.053
605.42	2.522
605.75	2.483
606.09	1.789
606.42	1.716
606.75	2.364
607.09	2.846
607.42	1.754
607.75	2.025
608.08	2.345
608.42	2.779
608.75	2.344
609.08	2.451
609.41	2.903
609.75	2.001
610.08	2.074
610.41	1.723
610.74	1.466
611.07	2.421
611.41	2.650
611.74	2.715
612.07	2.019
612.40	2.833
612.73	2.421
613.07	2.425
613.40	3.054
613.73	2.360
614.06	1.935
614.39	3.041
614.72	2.789
615.06	2.731
615.39	1.858
615.72	2.914
616.05	2.499
616.38	2.335
616.71	2.138
617.05	2.709
617.38	2.345
617.71	2.042
618.04	2.644
618.37	2.543
618.70	3.423
619.03	3.684
619.36	3.530
619.69	3.099
620.03	3.640
620.36	3.075
620.69	3.356
621.02	2.950
621.35	3.289
621.68	2.570
622.01	2.786
622.34	2.950
622.67	3.194
623.00	2.421
623.33	2.716
623.66	3.002
623.99	2.872
624.32	3.138
624.65	2.401
624.99	1.983
625.32	2.679
625.65	2.780
625.98	3.228
626.31	3.733
626.64	3.673
626.97	3.741
627.30	3.325
627.63	3.610
627.96	3.869
628.29	2.975
628.62	4.117
628.95	4.528
629.28	3.832
629.61	4.125
629.94	3.143
630.26	4.004
630.59	3.432
630.92	3.640
631.25	2.962
631.58	5.205
631.91	3.854
632.24	3.165
632.57	4.617
632.90	3.399
633.23	3.915
633.56	3.729
633.89	4.530
634.22	5.221
634.55	4.497
634.88	2.994
635.20	4.421
635.53	4.458
635.86	3.960
636.19	4.471
636.52	4.844
636.85	5.040
637.18	3.341
637.51	4.965
637.83	2.589
638.16	2.685
638.49	4.912
638.82	4.804
639.15	4.875
639.48	5.112
639.81	3.887
640.13	5.469
640.46	4.027
640.79	4.491
641.12	3.301
641.45	4.469
641.77	3.976
642.10	4.386
642.43	3.003
642.76	3.406
643.09	4.141
643.41	5.311
643.74	6.481
644.07	3.811
644.40	5.521
644.73	5.354
645.05	5.230
645.38	5.845
645.71	4.509
646.04	5.648
646.36	5.676
646.69	6.187
647.02	5.102
647.35	7.216
647.67	6.549
648.00	5.691
648.33	4.290
648.66	5.455
648.98	6.147
649.31	2.990
649.64	4.933
649.96	6.259
650.29	5.687
650.62	4.693
650.94	6.159
651.27	6.926
651.60	6.822
651.92	5.591
652.25	4.397
652.58	7.165
652.90	6.635
653.23	5.855
653.56	5.984
653.88	6.815
654.21	6.793
654.54	4.125
654.86	5.763
655.19	5.000
655.52	2.331
655.84	1.354
656.17	1.511
656.49	1.867
656.82	1.816
657.15	1.476
657.47	1.146
657.80	0.950
658.13	0.711
658.45	1.482
658.78	1.559
659.10	1.718
659.43	1.770
659.75	2.188
660.08	2.278
660.41	4.842
660.73	3.812
661.06	4.777
661.38	6.909
661.71	6.731
662.03	6.706
662.36	5.169
662.68	7.631
663.01	7.677
663.33	5.732
663.66	4.622
663.98	7.127
664.31	5.462
664.63	5.870
664.96	6.439
665.28	6.557
665.61	5.458
665.93	4.427
666.26	4.462
666.58	8.159
666.91	6.977
667.23	5.618
667.56	7.343
667.88	5.983
668.21	7.249
668.53	7.375
668.86	6.061
669.18	9.168
669.50	7.174
669.83	7.843
670.15	4.667
670.48	5.882
670.80	7.112
671.13	8.493
671.45	5.532
671.77	9.572
672.10	6.470
672.42	6.007
672.75	4.643
673.07	4.930
673.39	3.436
673.72	4.102
674.04	6.275
674.37	6.990
674.69	4.499
675.01	6.276
675.34	7.392
675.66	8.632
675.98	8.758
676.31	7.983
676.63	8.917
676.95	7.338
677.28	6.075
677.60	7.692
677.92	7.173
678.25	5.955
678.57	5.976
678.89	6.613
679.22	6.287
679.54	6.298
679.86	7.339
680.18	5.903
680.51	4.433
680.83	6.050
681.15	6.604
681.48	7.750
681.80	5.996
682.12	4.215
682.44	3.675
682.77	7.332
683.09	9.013
683.41	7.317
683.73	8.389
684.06	5.785
684.38	5.871
684.70	6.008
685.02	9.381
685.34	5.678
685.67	4.021
685.99	4.124
686.31	6.143
686.63	3.180
686.96	4.821
687.28	7.220
687.60	5.254
687.92	6.764
688.24	7.224
688.56	7.229
688.89	6.639
689.21	8.297
689.53	6.054
689.85	7.317
690.17	6.832
690.49	8.493
690.82	5.140
691.14	6.920
691.46	7.173
691.78	7.229
692.10	8.058
692.42	8.782
692.74	3.527
693.06	6.170
693.39	7.598
693.71	6.987
694.03	6.526
694.35	8.009
694.67	5.950
694.99	7.561
695.31	7.843
695.63	6.459
695.95	8.068
696.27	4.061
696.59	6.995
696.91	6.736
697.23	4.225
697.56	7.889
697.88	3.681
698.20	5.833
698.52	5.591
698.84	8.241
699.16	5.760
699.48	5.463
699.80	8.213
700.12	10.390
700.44	7.427
700.76	9.116
701.08	7.184
701.40	8.939
701.72	8.746
702.04	14.205
702.36	5.099
702.68	11.048
703.00	6.925
703.32	7.979
703.64	9.115
703.96	7.242
704.28	7.558
704.60	9.091
704.91	10.682
705.23	12.023
705.55	7.309
705.87	11.960
706.19	9.894
706.51	12.461
706.83	11.818
707.15	9.524
707.47	7.828
707.79	8.108
708.11	7.991
708.43	9.762
708.74	7.653
709.06	9.610
709.38	8.661
709.70	9.593
710.02	10.089
710.34	7.273
710.66	11.642
710.98	14.205
711.29	9.884
711.61	11.504
711.93	8.974
712.25	12.862
712.57	8.824
712.89	9.343
713.20	11.550
713.52	12.829
713.84	9.494
714.16	7.012
714.48	9.483
714.80	11.854
715.11	10.951
715.43	7.418
715.75	9.565
716.07	8.307
716.39	9.091
716.70	9.302
717.02	11.871
717.34	9.187
717.66	14.552
717.97	12.749
718.29	9.630
718.61	9.854
718.93	9.191
719.24	11.419
719.56	8.136
719.88	11.525
720.20	12.162
720.51	14.634
720.83	10.409
721.15	7.090
721.46	10.638
721.78	14.695
722.10	9.057
722.42	10.526
722.73	11.236
723.05	10.246
723.37	9.312
723.68	11.583
724.00	10.976
724.32	12.097
724.63	8.537
724.95	12.134
725.27	10.526
725.58	14.063
725.90	10.219
726.22	10.943
726.53	12.500
726.85	12.969
727.16	7.473
727.48	9.929
727.80	11.364
728.11	14.855
728.43	9.231
728.74	12.186
729.06	13.139
729.38	12.868
729.69	12.456
730.01	11.263
730.32	10.069
730.64	12.040
730.96	6.271
731.27	13.576
731.59	11.621
731.90	7.872
732.22	7.143
732.53	8.978
732.85	8.333
733.16	7.395
733.48	9.635
733.80	9.091
734.11	14.013
734.43	10.651
734.74	6.000
735.06	9.456
735.37	11.272
735.69	4.777
736.00	10.784
736.32	13.396
736.63	9.904
736.95	12.141
737.26	4.082
737.58	9.032
737.89	14.381
738.21	9.215
738.52	12.857
738.83	10.189
739.15	8.846
739.46	17.153
739.78	10.764
740.09	11.692
740.41	12.581
740.72	6.969
741.04	11.481
741.35	12.500
741.66	15.556
741.98	8.491
742.29	12.919
742.61	17.672
742.92	13.122
743.23	15.812
743.55	13.600
743.86	17.105
744.18	12.832
744.49	12.919
744.80	14.085
745.12	14.545
745.43	11.894
745.74	13.063
746.06	16.514
746.37	12.108
746.68	16.742
747.00	18.981
747.31	14.762
747.62	9.735
747.94	10.573
748.25	5.957
748.56	18.062
748.88	8.911
749.19	18.000
749.50	13.023
749.82	14.228
750.13	14.286
750.44	11.314
750.75	13.333
751.07	14.791
751.38	11.847
751.69	10.830
752.01	13.534
752.32	11.191
752.63	10.993
752.94	11.475
753.26	12.400
753.57	10.976
753.88	16.406
754.19	8.571
754.51	13.194
754.82	5.415
755.13	14.717
755.44	7.895
755.75	13.869
756.07	9.220
756.38	8.394
756.69	12.752
757.00	7.485
757.31	8.309
757.63	10.234
757.94	5.630
758.25	7.843
758.56	8.395
758.87	7.527
759.18	10.000
759.50	8.777
759.81	11.526
760.12	8.125
760.43	8.883
760.74	6.250
761.05	10.169
761.36	9.091
761.67	11.932
761.99	9.317
762.30	8.333
762.61	10.687
762.92	12.500
763.23	11.765
763.54	15.600
763.85	8.984
764.16	15.000
764.47	14.449
764.78	11.661
765.10	10.127
765.41	10.324
765.72	9.281
766.03	11.912
766.34	11.000
766.65	12.340
766.96	16.239
767.27	18.274
767.58	18.229
767.89	19.474
768.20	14.368
768.51	12.690
768.82	11.927
769.13	13.415
769.44	12.551
769.75	10.730
770.06	7.339
770.37	15.385
770.68	15.278
770.99	16.000
771.30	9.836
771.61	16.592
771.92	9.836
772.23	20.168
772.54	15.385
772.85	16.754
773.16	16.489
773.47	16.304
773.78	22.843
774.09	10.119
774.39	16.374
774.70	21.605
775.01	22.464
775.32	33.333
775.63	26.316
775.94	17.266
776.25	20.472
776.56	23.881
776.87	22.951
777.18	25.000
777.48	25.191
777.79	26.515
778.10	24.444
778.41	28.571
778.72	21.168
779.03	16.779
779.34	16.779
779.65	18.243
779.95	15.951
780.26	24.837
780.57	22.069
780.88	33.594
781.19	17.293
781.50	20.946
781.80	16.981
782.11	18.644
782.42	11.392
782.73	20.245
783.04	25.676
783.34	23.944
783.65	30.137
783.96	18.657
784.27	18.881
784.57	18.705
784.88	12.037
785.19	27.778
785.50	19.811
785.81	35.821
786.11	27.869
786.42	25.581
786.73	23.894
787.04	24.528
787.34	31.250
787.65	24.000
787.96	27.928
788.26	21.488
788.57	26.271
788.88	27.273
789.19	29.167
789.49	33.333
789.80	19.847
790.11	32.381
790.41	42.574
790.72	25.301
791.03	32.609
791.33	31.395
791.64	29.897
791.95	29.703
792.25	38.889
792.56	32.468
792.87	34.615
793.17	54.430
793.48	33.333
793.79	37.931
794.09	47.727
794.40	24.370
794.70	30.147
795.01	32.593
795.32	28.058
795.62	17.323
795.93	18.966
796.23	25.664
796.54	32.941
796.85	31.081
797.15	45.070
797.46	25.758
797.76	46.988
798.07	37.975
798.37	29.231
798.68	39.394
798.99	23.944
799.29	33.766
799.60	42.045
799.90	45.205
800.21	44.776
800.51	53.448
800.82	49.123
801.12	40.984
801.43	57.576
801.73	14.865
802.04	44.444
802.34	39.506
802.65	48.438
802.95	62.712
803.26	60.938
803.56	37.143
803.87	40.000
804.17	67.647
804.48	70.370
804.78	50.000
805.09	51.471
805.39	36.538
805.70	44.643
806.00	60.656
806.30	37.879
806.61	47.561
806.91	34.177
807.22	42.105
807.52	37.313
807.83	47.887
808.13	54.688
808.43	61.667
808.74	44.737
809.04	53.623
809.35	40.299
809.65	35.526
809.95	74.194
810.26	35.593
810.56	31.746
810.86	65.909
811.17	85.714
811.47	66.667
811.77	61.111
812.08	65.455
812.38	68.000
812.69	38.889
812.99	95.455
813.29	57.143
813.59	52.381
813.90	63.265
814.20	47.273
814.50	47.692
814.81	70.588
815.11	57.143
815.41	54.098
815.72	92.857
816.02	78.182
816.32	71.429
816.62	67.500
816.93	65.854
817.23	92.857
817.53	68.182
817.84	124.242
818.14	52.174
818.44	60.000
818.74	94.118
819.04	67.500
819.35	88.571
819.65	67.647
819.95	60.714
820.25	90.000
820.56	94.872
820.86	77.273
821.16	86.047
821.46	71.795
821.76	76.000
822.07	91.429
822.37	85.000
822.67	72.727
822.97	60.784
823.27	107.143
823.57	67.568
823.88	80.000
824.18	116.667
824.48	102.381
824.78	96.000
825.08	87.500
825.38	86.486
825.69	78.049
825.99	100.000
826.29	86.207
826.59	84.211
826.89	78.947
827.19	91.176
827.49	87.097
827.79	79.545
828.09	63.636
828.39	74.468
828.70	81.633
829.00	44.444
829.30	45.161
829.60	80.000
829.90	126.667
830.20	107.143
830.50	95.652
830.80	108.696
831.10	123.333
831.40	110.000
831.70	95.652
832.00	126.923
832.30	107.407
832.60	131.250
832.90	106.667
833.20	192.857
833.50	132.258
833.80	100.000
834.10	121.875
834.40	134.615
834.70	183.333
835.00	190.476
835.30	85.714
835.60	130.769
835.90	103.448
836.20	107.143
836.50	106.897
836.80	96.000
837.10	77.778
837.40	157.143
837.70	164.706
838.00	114.815
838.30	133.333
838.60	176.190
838.90	138.462
839.19	140.000
839.49	271.429
839.79	165.000
840.09	125.000
840.39	152.381
840.69	113.043
840.99	94.444
841.29	270.000
841.59	183.333
841.88	162.500
842.18	106.897
842.48	85.714
842.78	120.000
843.08	143.478
843.38	103.125
843.68	350.000
843.97	134.615
844.27	120.690
844.57	190.476
844.87	212.500
845.17	129.630
845.47	800.000
845.76	166.667
846.06	176.471
846.36	250.000
846.66	207.143
846.96	193.750
847.25	190.909
847.55	290.909
847.85	143.478
848.15	270.000
848.44	228.571
848.74	150.000
849.04	182.353
849.34	310.000
849.63	105.263
849.93	327.273
850.23	620.000
850.53	242.857
850.82	1350.000
851.12	-2000.000
851.42	2000.000
851.71	180.000
852.01	-233.333
852.31	187.500
852.61	700.000
852.90	176.190
853.20	136.000
853.50	170.588
853.79	185.714
854.09	108.333
854.39	187.500
854.68	94.595
854.98	106.452
855.28	86.667
855.57	110.345
855.87	96.296
856.17	126.316
856.46	120.000
856.76	147.059
857.05	89.655
857.35	116.667
857.65	206.667
857.94	139.130
858.24	130.769
858.53	190.000
858.83	127.273
859.13	206.667
859.42	0.000
859.72	377.778
860.01	190.909
860.31	159.091
860.60	136.842
860.90	104.348
861.20	188.889
861.49	325.000
861.79	-1800.000
862.08	412.500
862.38	176.190
862.67	223.077
862.97	217.647
863.26	366.667
863.56	144.444
863.85	241.667
864.15	325.000
864.44	226.667
864.74	533.333
865.03	437.500
865.33	168.421
865.62	327.273
865.92	269.231
866.21	208.333
866.51	0.000
866.80	272.727
867.10	580.000
867.39	300.000
867.69	363.636
867.98	147.368
868.27	327.273
868.57	168.421
868.86	-1900.000
869.16	237.500
869.45	1250.000
869.75	-2100.000
870.04	250.000
870.33	385.714
870.63	525.000
870.92	1100.000
871.22	457.143
871.51	235.294
871.80	119.048
872.10	235.714
>>>>>End Processed Spectral Data<<<<<
