SpectraSuite Data File
++++++++++++++++++++++++++++++++++++
Date: Wed May 13 21:05:15 PDT 2015
User: schluterlab
Dark Spectrum Present: Yes
Reference Spectrum Present: Yes
Number of Sampled Component Spectra: 1
Spectrometers: USB2E3373
Integration Time (usec): 3000 (USB2E3373)
Spectra Averaged: 3 (USB2E3373)
Boxcar Smoothing: 0 (USB2E3373)
Correct for Electrical Dark: No (USB2E3373)
Strobe/Lamp Enabled: No (USB2E3373)
Correct for Detector Non-linearity: No (USB2E3373)
Correct for Stray Light: No (USB2E3373)
Number of Pixels in Processed Spectrum: 2048
>>>>>Begin Processed Spectral Data<<<<<
178.53	0.000
178.91	750.000
179.29	141.667
179.67	-850.000
180.04	-33.333
180.42	60.000
180.80	700.000
181.18	216.667
181.56	-200.000
181.94	-200.000
182.31	-27.273
182.69	69.231
183.07	-20.000
183.45	-33.333
183.83	-0.000
184.20	228.571
184.58	-33.333
184.96	100.000
185.34	157.143
185.72	0.000
186.09	300.000
186.47	-300.000
186.85	140.000
187.23	-50.000
187.61	650.000
187.98	-100.000
188.36	-112.500
188.74	0.000
189.12	-9.091
189.49	70.000
189.87	41.667
190.25	280.000
190.63	1900.000
191.00	-240.000
191.38	80.000
191.76	250.000
192.14	116.667
192.51	-10.526
192.89	200.000
193.27	-75.000
193.65	-60.000
194.02	190.909
194.40	200.000
194.78	-800.000
195.15	140.000
195.53	-140.000
195.91	-100.000
196.29	-166.667
196.66	0.000
197.04	150.000
197.42	240.000
197.79	40.000
198.17	-150.000
198.55	-100.000
198.92	50.000
199.30	0.000
199.68	10.000
200.05	450.000
200.43	133.333
200.81	-100.000
201.18	-40.000
201.56	-166.667
201.94	500.000
202.31	26.087
202.69	14.286
203.07	-166.667
203.44	60.000
203.82	-100.000
204.19	10.000
204.57	0.000
204.95	-116.667
205.32	0.000
205.70	-200.000
206.08	-225.000
206.45	-66.667
206.83	250.000
207.20	-133.333
207.58	10.000
207.96	-1500.000
208.33	-85.714
208.71	-1400.000
209.08	162.500
209.46	150.000
209.84	0.000
210.21	30.000
210.59	700.000
210.96	120.000
211.34	1200.000
211.71	-700.000
212.09	-83.333
212.46	-180.000
212.84	166.667
213.22	75.000
213.59	-800.000
213.97	-500.000
214.34	-350.000
214.72	-15.385
215.09	100.000
215.47	66.667
215.84	650.000
216.22	-25.000
216.59	0.000
216.97	-33.333
217.34	-11.111
217.72	0.000
218.09	233.333
218.47	500.000
218.84	-28.571
219.22	50.000
219.59	-200.000
219.97	-75.000
220.34	-50.000
220.72	-120.000
221.09	0.000
221.47	-100.000
221.84	100.000
222.22	0.000
222.59	-500.000
222.97	-33.333
223.34	8.333
223.72	-500.000
224.09	-350.000
224.46	-36.364
224.84	-87.500
225.21	71.429
225.59	-125.000
225.96	-66.667
226.34	0.000
226.71	28.571
227.08	700.000
227.46	-50.000
227.83	-700.000
228.21	25.000
228.58	-150.000
228.95	-47.059
229.33	56.250
229.70	0.000
230.08	61.538
230.45	-50.000
230.82	-33.333
231.20	142.857
231.57	-400.000
231.95	700.000
232.32	83.333
232.69	52.941
233.07	-200.000
233.44	-4.348
233.81	-200.000
234.19	66.667
234.56	-73.333
234.93	40.000
235.31	5.263
235.68	-7.692
236.05	-53.846
236.43	16.667
236.80	-3.030
237.17	-13.333
237.55	-29.412
237.92	-20.690
238.29	-7.407
238.67	5.556
239.04	22.581
239.41	17.021
239.79	14.894
240.16	0.000
240.53	21.429
240.91	32.143
241.28	19.643
241.65	9.677
242.02	17.105
242.40	7.246
242.77	8.696
243.14	16.667
243.51	23.404
243.89	27.885
244.26	27.358
244.63	6.731
245.00	25.000
245.38	18.487
245.75	20.492
246.12	21.053
246.49	21.138
246.87	9.244
247.24	19.595
247.61	26.490
247.98	17.308
248.36	18.935
248.73	17.978
249.10	19.697
249.47	19.892
249.84	29.474
250.22	23.383
250.59	17.757
250.96	19.545
251.33	14.354
251.70	23.849
252.08	20.502
252.45	21.399
252.82	25.856
253.19	22.179
253.56	22.302
253.94	22.420
254.31	18.310
254.68	22.148
255.05	18.152
255.42	18.182
255.79	23.620
256.16	21.767
256.54	21.270
256.91	19.304
257.28	22.642
257.65	20.064
258.02	23.167
258.39	23.099
258.76	19.186
259.14	18.466
259.51	18.539
259.88	21.680
260.25	21.667
260.62	23.034
260.99	23.342
261.36	22.280
261.73	18.519
262.10	19.847
262.47	21.481
262.85	21.393
263.22	22.308
263.59	19.481
263.96	20.195
264.33	19.471
264.70	20.465
265.07	20.139
265.44	21.379
265.81	21.968
266.18	23.235
266.55	20.961
266.92	21.822
267.29	20.576
267.66	21.868
268.03	22.428
268.40	20.339
268.77	22.934
269.14	22.041
269.51	23.819
269.88	20.978
270.25	21.610
270.62	19.262
270.99	21.063
271.36	18.849
271.73	19.880
272.10	22.095
272.47	20.729
272.84	21.850
273.21	20.939
273.58	22.746
273.95	18.679
274.32	18.284
274.69	22.951
275.06	22.261
275.43	21.846
275.80	20.035
276.17	21.547
276.54	18.650
276.91	20.557
277.28	20.217
277.65	22.552
278.02	21.786
278.39	17.762
278.76	21.572
279.13	21.098
279.50	20.862
279.87	21.014
280.23	21.441
280.60	19.204
280.97	20.942
281.34	20.820
281.71	20.163
282.08	21.368
282.45	23.443
282.82	20.447
283.19	21.341
283.56	18.750
283.92	19.878
284.29	19.657
284.66	21.087
285.03	18.404
285.40	18.882
285.77	19.970
286.14	20.213
286.51	23.088
286.87	17.538
287.24	21.829
287.61	18.072
287.98	20.294
288.35	17.884
288.72	19.656
289.08	20.370
289.45	18.502
289.82	20.575
290.19	18.654
290.56	19.460
290.93	19.613
291.29	17.921
291.66	19.126
292.03	20.027
292.40	17.766
292.77	19.277
293.13	19.526
293.50	18.693
293.87	19.733
294.24	17.725
294.60	17.945
294.97	18.519
295.34	16.359
295.71	15.769
296.08	17.016
296.44	16.582
296.81	17.418
297.18	16.500
297.55	17.453
297.91	15.901
298.28	18.523
298.65	18.350
299.02	17.094
299.38	17.546
299.75	16.587
300.12	16.047
300.48	16.374
300.85	15.704
301.22	17.538
301.59	15.023
301.95	15.563
302.32	16.219
302.69	15.141
303.05	15.282
303.42	17.045
303.79	17.981
304.15	16.429
304.52	16.452
304.89	15.947
305.25	15.587
305.62	15.293
305.99	15.452
306.35	17.032
306.72	16.785
307.09	15.537
307.45	16.187
307.82	15.895
308.19	16.196
308.55	15.558
308.92	17.387
309.29	15.916
309.65	15.884
310.02	16.203
310.38	15.549
310.75	15.089
311.12	16.424
311.48	16.222
311.85	15.748
312.22	16.925
312.58	15.942
312.95	16.318
313.31	16.162
313.68	15.935
314.05	16.919
314.41	17.387
314.78	17.268
315.14	16.944
315.51	17.031
315.87	18.906
316.24	18.457
316.61	17.626
316.97	17.407
317.34	18.360
317.70	18.109
318.07	18.900
318.43	18.699
318.80	18.150
319.16	18.391
319.53	19.355
319.89	19.603
320.26	20.980
320.62	22.150
320.99	22.287
321.35	20.112
321.72	22.425
322.08	23.985
322.45	23.589
322.81	24.030
323.18	24.597
323.54	25.812
323.91	25.926
324.27	25.923
324.64	26.481
325.00	26.422
325.37	28.413
325.73	27.525
326.10	28.680
326.46	29.097
326.83	31.392
327.19	30.894
327.56	31.829
327.92	31.698
328.29	34.474
328.65	34.969
329.01	35.532
329.38	37.043
329.74	36.052
330.11	36.339
330.47	35.851
330.84	36.733
331.20	36.721
331.56	38.496
331.93	39.276
332.29	39.618
332.66	39.237
333.02	40.139
333.38	39.298
333.75	39.932
334.11	40.365
334.48	40.279
334.84	39.753
335.20	40.137
335.57	39.600
335.93	40.206
336.29	41.068
336.66	40.684
337.02	41.652
337.38	41.253
337.75	40.655
338.11	41.930
338.47	40.582
338.84	40.464
339.20	41.799
339.56	39.846
339.93	41.227
340.29	40.991
340.65	42.601
341.02	42.180
341.38	40.963
341.74	40.672
342.11	40.793
342.47	41.088
342.83	41.585
343.20	42.470
343.56	42.355
343.92	41.348
344.28	41.883
344.65	42.612
345.01	41.485
345.37	42.105
345.73	41.830
346.10	40.530
346.46	41.789
346.82	41.974
347.19	40.744
347.55	42.326
347.91	40.140
348.27	42.429
348.63	41.827
349.00	41.509
349.36	41.837
349.72	41.918
350.08	42.668
350.45	42.052
350.81	42.567
351.17	41.955
351.53	42.498
351.89	41.144
352.26	40.927
352.62	41.550
352.98	41.374
353.34	41.707
353.70	42.212
354.07	41.098
354.43	41.135
354.79	42.308
355.15	41.615
355.51	40.774
355.87	42.768
356.24	40.369
356.60	41.673
356.96	42.364
357.32	41.641
357.68	42.475
358.04	41.272
358.40	41.473
358.77	41.972
359.13	41.946
359.49	41.484
359.85	41.319
360.21	41.943
360.57	43.042
360.93	43.020
361.29	42.487
361.66	43.508
362.02	41.660
362.38	42.024
362.74	41.044
363.10	41.938
363.46	41.571
363.82	43.016
364.18	41.552
364.54	41.940
364.90	41.394
365.26	40.906
365.62	40.909
365.98	41.851
366.35	41.631
366.71	41.940
367.07	42.310
367.43	41.254
367.79	41.279
368.15	42.475
368.51	41.210
368.87	42.219
369.23	41.210
369.59	41.438
369.95	42.380
370.31	40.656
370.67	41.202
371.03	42.465
371.39	42.016
371.75	41.714
372.11	42.379
372.47	41.961
372.83	41.956
373.19	41.727
373.55	41.618
373.91	41.867
374.27	41.286
374.63	42.319
374.99	39.903
375.35	41.233
375.71	41.508
376.07	42.289
376.42	41.711
376.78	42.008
377.14	42.034
377.50	42.373
377.86	41.434
378.22	40.834
378.58	41.803
378.94	42.813
379.30	41.287
379.66	41.369
380.02	41.605
380.38	40.904
380.74	42.319
381.09	41.315
381.45	40.750
381.81	39.864
382.17	40.832
382.53	42.277
382.89	39.747
383.25	41.420
383.61	41.465
383.97	41.375
384.32	41.147
384.68	41.579
385.04	41.600
385.40	40.847
385.76	41.667
386.12	41.833
386.48	40.376
386.83	42.053
387.19	40.654
387.55	40.221
387.91	42.558
388.27	40.259
388.62	42.260
388.98	41.927
389.34	40.226
389.70	41.087
390.06	40.875
390.42	42.268
390.77	40.423
391.13	41.351
391.49	39.911
391.85	41.086
392.20	40.727
392.56	41.079
392.92	40.843
393.28	39.686
393.64	41.407
393.99	39.780
394.35	40.432
394.71	40.385
395.07	39.371
395.42	41.012
395.78	40.412
396.14	41.027
396.50	39.886
396.85	40.344
397.21	39.576
397.57	39.565
397.92	39.521
398.28	39.932
398.64	39.648
399.00	39.509
399.35	40.238
399.71	39.196
400.07	39.819
400.42	40.376
400.78	39.215
401.14	39.792
401.49	39.664
401.85	39.988
402.21	40.062
402.57	40.098
402.92	38.861
403.28	40.275
403.63	39.182
403.99	40.179
404.35	39.526
404.70	38.792
405.06	38.931
405.42	38.568
405.77	39.113
406.13	38.171
406.49	38.586
406.84	39.805
407.20	38.307
407.55	39.416
407.91	37.459
408.27	37.243
408.62	38.613
408.98	39.519
409.34	39.047
409.69	40.156
410.05	37.998
410.40	38.710
410.76	38.628
411.11	39.055
411.47	39.549
411.83	38.303
412.18	38.980
412.54	39.662
412.89	37.806
413.25	37.109
413.60	38.056
413.96	38.327
414.31	37.546
414.67	37.778
415.03	38.633
415.38	38.507
415.74	38.467
416.09	38.268
416.45	38.619
416.80	38.389
417.16	38.462
417.51	38.647
417.87	38.426
418.22	38.268
418.58	37.582
418.93	37.728
419.29	38.416
419.64	38.486
420.00	37.968
420.35	38.852
420.71	37.660
421.06	38.807
421.42	39.294
421.77	38.208
422.12	39.140
422.48	37.132
422.83	38.275
423.19	38.758
423.54	39.458
423.90	38.361
424.25	40.092
424.61	38.016
424.96	38.794
425.31	37.689
425.67	38.272
426.02	38.693
426.38	39.179
426.73	38.424
427.09	37.836
427.44	39.166
427.79	38.361
428.15	38.226
428.50	37.160
428.85	39.299
429.21	38.267
429.56	38.682
429.92	39.042
430.27	38.139
430.62	38.877
430.98	39.291
431.33	38.420
431.68	39.350
432.04	39.718
432.39	38.972
432.74	38.627
433.10	38.292
433.45	38.876
433.80	37.471
434.16	38.940
434.51	38.967
434.86	39.517
435.22	38.823
435.57	38.882
435.92	39.686
436.28	38.739
436.63	38.857
436.98	38.895
437.34	38.889
437.69	38.902
438.04	37.691
438.39	38.792
438.75	39.273
439.10	39.040
439.45	40.133
439.81	40.086
440.16	39.188
440.51	39.120
440.86	39.004
441.22	39.530
441.57	37.852
441.92	39.088
442.27	39.610
442.63	39.128
442.98	39.583
443.33	39.842
443.68	38.113
444.03	38.450
444.39	38.721
444.74	39.647
445.09	39.923
445.44	40.394
445.79	39.288
446.15	39.989
446.50	39.427
446.85	40.353
447.20	40.878
447.55	39.396
447.91	39.944
448.26	40.080
448.61	39.413
448.96	40.547
449.31	39.920
449.66	39.850
450.02	40.080
450.37	40.834
450.72	39.380
451.07	39.248
451.42	39.301
451.77	40.049
452.12	39.632
452.47	41.059
452.83	40.979
453.18	39.465
453.53	39.092
453.88	41.084
454.23	40.297
454.58	40.196
454.93	40.731
455.28	40.591
455.63	39.738
455.98	40.292
456.34	39.924
456.69	40.383
457.04	39.195
457.39	40.229
457.74	40.694
458.09	39.751
458.44	40.482
458.79	39.978
459.14	38.708
459.49	39.939
459.84	40.023
460.19	39.736
460.54	40.024
460.89	40.090
461.24	39.088
461.59	39.553
461.94	40.329
462.29	40.012
462.64	39.446
462.99	40.778
463.34	41.160
463.69	40.786
464.04	39.256
464.39	40.085
464.74	40.172
465.09	39.864
465.44	39.787
465.79	41.748
466.14	39.453
466.49	40.645
466.84	39.331
467.19	39.554
467.54	39.533
467.89	39.912
468.24	40.381
468.59	40.025
468.94	40.485
469.29	40.383
469.64	41.283
469.99	40.276
470.34	39.717
470.68	40.967
471.03	40.127
471.38	40.821
471.73	39.643
472.08	39.656
472.43	40.699
472.78	39.959
473.13	39.380
473.48	39.791
473.83	39.297
474.17	39.779
474.52	40.583
474.87	39.928
475.22	39.553
475.57	39.487
475.92	40.731
476.27	40.210
476.61	39.638
476.96	41.576
477.31	38.781
477.66	40.734
478.01	39.396
478.36	39.728
478.70	40.226
479.05	40.122
479.40	39.522
479.75	40.755
480.10	39.215
480.45	38.892
480.79	39.771
481.14	40.831
481.49	39.319
481.84	39.397
482.19	39.648
482.53	39.810
482.88	39.837
483.23	40.327
483.58	39.319
483.92	39.105
484.27	38.838
484.62	38.171
484.97	39.818
485.31	38.816
485.66	36.542
486.01	36.241
486.36	36.690
486.70	37.650
487.05	37.896
487.40	38.439
487.75	39.133
488.09	38.911
488.44	38.731
488.79	40.235
489.13	40.199
489.48	39.846
489.83	39.661
490.17	39.719
490.52	39.785
490.87	38.758
491.22	39.614
491.56	39.866
491.91	39.318
492.26	39.894
492.60	39.875
492.95	39.893
493.30	39.050
493.64	38.561
493.99	38.889
494.34	39.884
494.68	39.284
495.03	38.636
495.37	39.027
495.72	39.198
496.07	39.601
496.41	39.261
496.76	40.037
497.11	39.155
497.45	39.154
497.80	39.374
498.14	40.605
498.49	39.637
498.84	39.828
499.18	39.074
499.53	39.734
499.87	39.495
500.22	39.721
500.56	39.218
500.91	40.342
501.26	39.163
501.60	38.824
501.95	38.812
502.29	39.175
502.64	39.344
502.98	38.439
503.33	39.124
503.67	39.971
504.02	39.167
504.36	38.782
504.71	39.533
505.06	40.041
505.40	39.278
505.75	39.624
506.09	38.120
506.44	38.306
506.78	39.868
507.13	41.268
507.47	39.661
507.82	38.566
508.16	39.736
508.51	38.791
508.85	39.347
509.19	39.048
509.54	39.786
509.88	39.032
510.23	39.053
510.57	39.778
510.92	40.086
511.26	40.264
511.61	39.462
511.95	37.817
512.30	39.478
512.64	39.841
512.98	39.003
513.33	40.282
513.67	39.637
514.02	40.593
514.36	39.831
514.70	39.434
515.05	39.672
515.39	39.269
515.74	39.668
516.08	38.997
516.42	38.940
516.77	39.074
517.11	39.271
517.46	41.297
517.80	40.617
518.14	39.192
518.49	39.361
518.83	39.618
519.17	38.916
519.52	40.109
519.86	39.405
520.20	39.539
520.55	39.179
520.89	39.848
521.23	41.090
521.58	40.708
521.92	38.843
522.26	39.362
522.61	39.431
522.95	40.220
523.29	40.381
523.64	39.479
523.98	39.454
524.32	38.878
524.66	40.974
525.01	39.712
525.35	39.500
525.69	40.292
526.04	38.893
526.38	38.942
526.72	39.448
527.06	38.556
527.41	39.841
527.75	39.519
528.09	40.231
528.43	40.570
528.78	38.630
529.12	39.198
529.46	39.411
529.80	39.482
530.15	36.937
530.49	40.566
530.83	39.540
531.17	39.795
531.51	38.638
531.86	38.279
532.20	38.663
532.54	38.345
532.88	38.393
533.22	39.125
533.57	38.609
533.91	38.839
534.25	39.323
534.59	37.902
534.93	38.393
535.27	38.662
535.62	38.750
535.96	38.517
536.30	39.029
536.64	38.756
536.98	39.383
537.32	38.932
537.66	39.281
538.01	38.904
538.35	38.605
538.69	37.324
539.03	37.919
539.37	37.961
539.71	39.222
540.05	37.787
540.39	38.472
540.73	39.316
541.07	38.844
541.42	37.845
541.76	37.618
542.10	38.118
542.44	38.115
542.78	39.556
543.12	37.803
543.46	38.355
543.80	38.764
544.14	37.990
544.48	37.027
544.82	37.458
545.16	36.579
545.50	39.230
545.84	38.569
546.18	38.219
546.52	36.980
546.86	36.608
547.20	37.741
547.54	38.956
547.88	37.854
548.22	37.003
548.56	37.692
548.90	36.468
549.24	37.986
549.58	37.580
549.92	38.371
550.26	38.893
550.60	38.514
550.94	37.687
551.28	37.396
551.62	38.045
551.96	37.701
552.30	37.263
552.64	36.864
552.98	37.642
553.32	37.058
553.66	37.491
554.00	37.653
554.34	37.070
554.68	37.658
555.02	37.500
555.36	38.502
555.69	37.072
556.03	36.598
556.37	36.629
556.71	37.912
557.05	37.269
557.39	37.378
557.73	36.762
558.07	37.302
558.41	38.304
558.75	37.644
559.08	38.091
559.42	37.844
559.76	36.544
560.10	38.355
560.44	38.025
560.78	36.763
561.12	36.300
561.45	37.211
561.79	35.970
562.13	37.623
562.47	37.357
562.81	36.508
563.15	37.323
563.48	36.752
563.82	36.252
564.16	36.493
564.50	37.246
564.84	36.149
565.17	37.550
565.51	36.631
565.85	35.443
566.19	37.285
566.52	36.828
566.86	35.588
567.20	35.797
567.54	34.715
567.88	34.714
568.21	35.198
568.55	35.107
568.89	34.646
569.23	34.280
569.56	34.376
569.90	33.321
570.24	32.960
570.57	32.753
570.91	33.089
571.25	32.675
571.59	32.411
571.92	32.502
572.26	32.848
572.60	33.600
572.93	32.865
573.27	32.584
573.61	32.853
573.95	32.311
574.28	32.715
574.62	31.696
574.96	32.456
575.29	32.272
575.63	32.771
575.97	32.853
576.30	32.351
576.64	32.277
576.98	32.013
577.31	31.588
577.65	31.831
577.98	32.009
578.32	31.876
578.66	31.903
578.99	32.770
579.33	32.034
579.67	32.739
580.00	31.652
580.34	32.259
580.67	32.558
581.01	32.253
581.35	31.747
581.68	31.100
582.02	31.514
582.35	31.992
582.69	32.232
583.02	32.040
583.36	31.967
583.70	33.077
584.03	31.949
584.37	32.350
584.70	32.383
585.04	32.544
585.37	31.835
585.71	31.717
586.04	31.504
586.38	31.623
586.72	31.919
587.05	32.403
587.39	31.442
587.72	32.048
588.06	32.066
588.39	32.270
588.73	32.882
589.06	32.396
589.40	32.817
589.73	31.908
590.07	32.410
590.40	33.056
590.73	33.266
591.07	33.305
591.40	32.522
591.74	33.526
592.07	33.455
592.41	33.548
592.74	32.523
593.08	31.487
593.41	32.113
593.75	31.428
594.08	32.573
594.41	32.212
594.75	32.496
595.08	31.927
595.42	31.926
595.75	32.502
596.09	33.526
596.42	32.353
596.75	33.787
597.09	33.212
597.42	33.513
597.75	32.356
598.09	32.741
598.42	34.452
598.76	33.207
599.09	32.733
599.42	31.722
599.76	32.107
600.09	32.078
600.42	32.505
600.76	32.742
601.09	32.731
601.42	31.791
601.76	32.239
602.09	32.914
602.42	32.687
602.76	32.676
603.09	32.813
603.42	32.027
603.76	31.995
604.09	31.779
604.42	32.566
604.76	32.388
605.09	33.122
605.42	32.839
605.75	32.077
606.09	31.747
606.42	32.959
606.75	32.208
607.09	31.782
607.42	33.012
607.75	32.166
608.08	32.913
608.42	33.271
608.75	33.301
609.08	33.023
609.41	32.240
609.75	32.375
610.08	32.742
610.41	33.673
610.74	33.013
611.07	32.315
611.41	33.623
611.74	32.091
612.07	32.361
612.40	34.162
612.73	32.656
613.07	32.761
613.40	32.434
613.73	32.557
614.06	32.836
614.39	32.574
614.72	33.759
615.06	31.778
615.39	32.506
615.72	32.289
616.05	32.883
616.38	32.932
616.71	32.334
617.05	33.415
617.38	33.210
617.71	31.373
618.04	32.358
618.37	33.502
618.70	33.700
619.03	32.509
619.36	34.306
619.69	35.161
620.03	34.134
620.36	33.264
620.69	32.834
621.02	33.615
621.35	34.015
621.68	34.230
622.01	34.061
622.34	33.228
622.67	34.143
623.00	34.574
623.33	33.583
623.66	33.234
623.99	32.633
624.32	34.043
624.65	34.199
624.99	32.182
625.32	33.532
625.65	32.946
625.98	33.886
626.31	34.939
626.64	34.136
626.97	33.564
627.30	33.790
627.63	33.131
627.96	32.208
628.29	35.535
628.62	34.429
628.95	34.669
629.28	35.172
629.61	34.737
629.94	34.816
630.26	35.567
630.59	34.266
630.92	34.739
631.25	35.736
631.58	35.867
631.91	34.677
632.24	34.248
632.57	32.889
632.90	35.123
633.23	35.132
633.56	37.530
633.89	36.005
634.22	38.634
634.55	36.906
634.88	35.417
635.20	36.000
635.53	36.176
635.86	35.641
636.19	36.104
636.52	35.976
636.85	36.068
637.18	34.592
637.51	35.705
637.83	36.162
638.16	35.867
638.49	33.645
638.82	35.948
639.15	33.777
639.48	36.230
639.81	36.667
640.13	37.606
640.46	36.582
640.79	36.547
641.12	37.278
641.45	36.536
641.77	35.788
642.10	36.460
642.43	36.950
642.76	35.647
643.09	38.019
643.41	36.523
643.74	37.964
644.07	36.246
644.40	35.489
644.73	36.271
645.05	38.220
645.38	37.375
645.71	37.245
646.04	32.660
646.36	37.153
646.69	38.462
647.02	39.526
647.35	39.122
647.67	36.969
648.00	32.790
648.33	36.102
648.66	36.060
648.98	34.006
649.31	35.276
649.64	34.272
649.96	35.229
650.29	35.294
650.62	34.267
650.94	35.862
651.27	36.396
651.60	38.986
651.92	39.606
652.25	35.511
652.58	36.304
652.90	36.532
653.23	31.070
653.56	33.554
653.88	35.495
654.21	32.594
654.54	33.887
654.86	32.846
655.19	33.193
655.52	30.690
655.84	27.163
656.17	32.597
656.49	42.721
656.82	43.634
657.15	33.262
657.47	25.236
657.80	18.884
658.13	19.966
658.45	29.781
658.78	30.410
659.10	31.112
659.43	31.292
659.75	32.518
660.08	32.276
660.41	33.063
660.73	33.471
661.06	34.184
661.38	35.465
661.71	35.656
662.03	38.689
662.36	34.956
662.68	37.204
663.01	36.229
663.33	36.501
663.66	34.590
663.98	38.427
664.31	36.703
664.63	34.910
664.96	36.761
665.28	38.412
665.61	35.853
665.93	33.619
666.26	39.873
666.58	34.904
666.91	36.323
667.23	36.175
667.56	37.011
667.88	38.318
668.21	36.161
668.53	35.632
668.86	37.650
669.18	34.988
669.50	36.406
669.83	35.322
670.15	35.714
670.48	35.402
670.80	38.293
671.13	35.240
671.45	33.562
671.77	36.422
672.10	32.359
672.42	33.206
672.75	33.750
673.07	31.636
673.39	34.142
673.72	34.132
674.04	32.992
674.37	35.569
674.69	35.802
675.01	36.111
675.34	35.230
675.66	33.769
675.98	34.735
676.31	34.615
676.63	35.374
676.95	32.706
677.28	31.422
677.60	35.539
677.92	35.477
678.25	31.887
678.57	33.198
678.89	33.262
679.22	33.747
679.54	33.265
679.86	32.227
680.18	34.231
680.51	33.269
680.83	29.630
681.15	34.971
681.48	34.068
681.80	33.129
682.12	32.708
682.44	31.791
682.77	33.263
683.09	34.598
683.41	33.721
683.73	30.357
684.06	33.407
684.38	29.487
684.70	33.605
685.02	31.198
685.34	33.072
685.67	34.709
685.99	31.851
686.31	31.552
686.63	30.699
686.96	32.653
687.28	32.535
687.60	34.405
687.92	32.296
688.24	31.400
688.56	34.868
688.89	32.071
689.21	31.390
689.53	30.856
689.85	32.135
690.17	32.527
690.49	37.681
690.82	31.026
691.14	30.193
691.46	35.035
691.78	31.868
692.10	32.696
692.42	30.330
692.74	32.826
693.06	30.112
693.39	32.084
693.71	33.333
694.03	34.318
694.35	33.108
694.67	33.750
694.99	32.216
695.31	35.142
695.63	33.902
695.95	31.552
696.27	29.589
696.59	30.108
696.91	32.682
697.23	30.964
697.56	32.134
697.88	33.680
698.20	33.693
698.52	31.075
698.84	33.254
699.16	33.570
699.48	31.358
699.80	34.884
700.12	32.440
700.44	33.239
700.76	32.022
701.08	36.556
701.40	36.826
701.72	33.846
702.04	32.075
702.36	33.537
702.68	29.268
703.00	33.333
703.32	31.198
703.64	32.229
703.96	35.191
704.28	34.639
704.60	30.488
704.91	32.602
705.23	33.228
705.55	33.793
705.87	32.746
706.19	30.769
706.51	31.690
706.83	27.070
707.15	33.537
707.47	32.782
707.79	27.919
708.11	31.105
708.43	33.503
708.74	29.787
709.06	31.016
709.38	31.124
709.70	32.132
710.02	32.710
710.34	28.333
710.66	32.248
710.98	30.650
711.29	31.169
711.61	31.290
711.93	30.000
712.25	33.916
712.57	29.474
712.89	32.234
713.20	35.106
713.52	32.847
713.84	29.032
714.16	32.039
714.48	31.013
714.80	28.754
715.11	35.756
715.43	28.882
715.75	32.609
716.07	31.024
716.39	34.343
716.70	34.892
717.02	33.725
717.34	29.924
717.66	31.466
717.97	26.984
718.29	31.102
718.61	29.185
718.93	30.620
719.24	29.151
719.56	32.584
719.88	26.866
720.20	31.621
720.51	27.734
720.83	29.183
721.15	23.577
721.46	29.008
721.78	32.271
722.10	29.084
722.42	22.984
722.73	35.907
723.05	29.388
723.37	31.933
723.68	25.600
724.00	28.085
724.32	31.381
724.63	29.218
724.95	30.342
725.27	30.802
725.58	34.979
725.90	29.289
726.22	27.899
726.53	24.314
726.85	31.022
727.16	29.630
727.48	31.801
727.80	31.641
728.11	30.738
728.43	29.688
728.74	29.762
729.06	32.000
729.38	30.040
729.69	27.758
730.01	33.086
730.32	31.734
730.64	29.545
730.96	30.070
731.27	24.415
731.59	26.984
731.90	27.832
732.22	28.526
732.53	27.365
732.85	24.161
733.16	30.363
733.48	28.716
733.80	25.676
734.11	29.730
734.43	29.721
734.74	30.030
735.06	26.225
735.37	27.052
735.69	28.479
736.00	30.363
736.32	29.433
736.63	28.621
736.95	30.822
737.26	27.241
737.58	28.472
737.89	24.742
738.21	22.064
738.52	32.700
738.83	30.204
739.15	31.224
739.46	28.405
739.78	26.761
740.09	26.370
740.41	24.286
740.72	26.241
741.04	24.400
741.35	27.632
741.66	35.556
741.98	28.365
742.29	32.673
742.61	25.366
742.92	32.018
743.23	26.415
743.55	23.423
743.86	26.906
744.18	24.020
744.49	31.472
744.80	30.612
745.12	29.439
745.43	29.384
745.74	25.225
746.06	31.308
746.37	30.275
746.68	27.885
747.00	29.187
747.31	25.481
747.62	30.275
747.94	37.991
748.25	29.817
748.56	31.556
748.88	29.108
749.19	27.619
749.50	25.243
749.82	22.535
750.13	27.083
750.44	29.231
750.75	29.151
751.07	29.893
751.38	28.723
751.69	20.849
752.01	26.953
752.32	25.000
752.63	28.358
752.94	26.400
753.26	25.105
753.57	27.917
753.88	29.960
754.19	24.701
754.51	25.188
754.82	27.839
755.13	23.913
755.44	28.862
755.75	25.600
756.07	23.616
756.38	21.583
756.69	28.328
757.00	26.791
757.31	26.214
757.63	22.840
757.94	26.554
758.25	24.603
758.56	25.815
758.87	25.298
759.18	25.552
759.50	26.599
759.81	24.080
760.12	29.846
760.43	23.810
760.74	24.294
761.05	24.309
761.36	23.496
761.67	24.773
761.99	23.024
762.30	22.263
762.61	26.337
762.92	31.624
763.23	30.738
763.54	28.571
763.85	29.388
764.16	26.016
764.47	29.600
764.78	24.643
765.10	27.213
765.41	27.052
765.72	22.671
766.03	25.083
766.34	24.231
766.65	27.197
766.96	26.761
767.27	31.683
767.58	26.404
767.89	29.012
768.20	24.862
768.51	26.131
768.82	27.404
769.13	29.204
769.44	27.197
769.75	24.359
770.06	28.700
770.37	21.569
770.68	28.155
770.99	22.330
771.30	22.269
771.61	24.898
771.92	29.046
772.23	27.928
772.54	23.204
772.85	29.070
773.16	30.159
773.47	21.302
773.78	22.414
774.09	28.125
774.39	28.571
774.70	22.449
775.01	29.655
775.32	17.857
775.63	22.556
775.94	21.805
776.25	15.200
776.56	29.752
776.87	23.810
777.18	18.018
777.48	19.820
777.79	22.047
778.10	22.936
778.41	23.684
778.72	26.891
779.03	16.901
779.34	20.270
779.65	23.239
779.95	29.139
780.26	18.705
780.57	29.496
780.88	21.831
781.19	21.008
781.50	29.530
781.80	20.468
782.11	19.186
782.42	32.075
782.73	28.758
783.04	17.241
783.34	20.611
783.65	26.174
783.96	20.000
784.27	25.714
784.57	25.532
784.88	14.423
785.19	36.364
785.50	21.818
785.81	17.143
786.11	21.008
786.42	26.549
786.73	11.321
787.04	12.844
787.34	10.891
787.65	31.667
787.96	28.926
788.26	24.638
788.57	23.810
788.88	28.455
789.19	20.000
789.49	11.450
789.80	34.848
790.11	20.755
790.41	32.673
790.72	34.043
791.03	21.739
791.33	24.706
791.64	27.160
791.95	29.348
792.25	28.409
792.56	32.051
792.87	30.769
793.17	12.821
793.48	19.048
793.79	23.750
794.09	31.731
794.40	36.458
794.70	27.027
795.01	22.656
795.32	20.870
795.62	8.696
795.93	23.585
796.23	21.212
796.54	26.829
796.85	28.571
797.15	22.727
797.46	24.638
797.76	-2.632
798.07	27.273
798.37	24.390
798.68	4.839
798.99	14.865
799.29	31.325
799.60	25.641
799.90	27.692
800.21	24.242
800.51	25.333
800.82	22.667
801.12	12.500
801.43	-3.333
801.73	24.324
802.04	37.143
802.34	26.230
802.65	26.866
802.95	7.273
803.26	12.069
803.56	20.000
803.87	35.849
804.17	35.484
804.48	16.176
804.78	2.439
805.09	23.188
805.39	19.118
805.70	4.255
806.00	8.772
806.30	26.923
806.61	31.579
806.91	31.081
807.22	13.158
807.52	22.727
807.83	-5.085
808.13	-3.030
808.43	-8.333
808.74	3.448
809.04	23.810
809.35	4.082
809.65	18.333
809.95	16.327
810.26	25.352
810.56	6.250
810.86	10.204
811.17	21.154
811.47	21.277
811.77	2.083
812.08	22.642
812.38	-15.625
812.69	7.273
812.99	21.951
813.29	21.622
813.59	-5.405
813.90	16.364
814.20	21.818
814.50	21.667
814.81	23.636
815.11	12.281
815.41	23.256
815.72	35.000
816.02	-11.429
816.32	2.703
816.62	29.167
816.93	15.556
817.23	-2.222
817.53	-5.556
817.84	2.703
818.14	7.317
818.44	26.000
818.74	28.571
819.04	26.829
819.35	19.444
819.65	0.000
819.95	-72.222
820.25	0.000
820.56	-9.524
820.86	5.556
821.16	4.545
821.46	4.348
821.76	13.793
822.07	21.739
822.37	24.242
822.67	68.293
822.97	5.405
823.27	-17.143
823.57	44.828
823.88	17.647
824.18	16.667
824.48	20.000
824.78	0.000
825.08	21.429
825.38	25.926
825.69	19.355
825.99	29.268
826.29	7.407
826.59	6.250
826.89	6.452
827.19	-8.696
827.49	-16.667
827.79	-17.391
828.09	19.355
828.39	18.750
828.70	-3.125
829.00	13.793
829.30	0.000
829.60	-29.167
829.90	7.407
830.20	6.250
830.50	22.727
830.80	-23.529
831.10	-31.818
831.40	-2.941
831.70	23.077
832.00	6.061
832.30	17.647
832.60	2.703
832.90	300.000
833.20	28.571
833.50	-55.000
833.80	2.632
834.10	-41.667
834.40	-54.545
834.70	26.667
835.00	-90.000
835.30	8.333
835.60	-4.762
835.90	61.905
836.20	8.000
836.50	4.167
836.80	5.263
837.10	18.919
837.40	30.000
837.70	-17.391
838.00	16.667
838.30	10.526
838.60	-90.000
838.90	-90.000
839.19	-66.667
839.49	15.385
839.79	-36.842
840.09	-200.000
840.39	-60.000
840.69	-9.091
840.99	-14.286
841.29	20.833
841.59	-30.769
841.88	-20.000
842.18	35.714
842.48	-6.667
842.78	-114.286
843.08	-50.000
843.38	25.000
843.68	-31.250
843.97	21.429
844.27	11.111
844.57	-36.364
844.87	-40.000
845.17	22.727
845.47	233.333
845.76	-6.667
846.06	-91.667
846.36	-450.000
846.66	0.000
846.96	-13.636
847.25	-5.556
847.55	-111.111
847.85	14.286
848.15	61.538
848.44	-83.333
848.74	0.000
849.04	-92.308
849.34	75.000
849.63	-36.364
849.93	-114.286
850.23	30.000
850.53	-187.500
850.82	72.222
851.12	-26.667
851.42	-5.882
851.71	-75.000
852.01	70.588
852.31	-23.077
852.61	300.000
852.90	23.529
853.20	20.000
853.50	12.500
853.79	-71.429
854.09	0.000
854.39	-40.000
854.68	20.000
854.98	33.333
855.28	24.000
855.57	4.167
855.87	-8.333
856.17	0.000
856.46	-6.250
856.76	5.000
857.05	32.000
857.35	8.333
857.65	-11.765
857.94	-108.333
858.24	-8.333
858.53	20.000
858.83	-118.182
859.13	16.000
859.42	-21.429
859.72	-87.500
860.01	-25.000
860.31	-200.000
860.60	6.250
860.90	-116.667
861.20	-133.333
861.49	33.333
861.79	-18.750
862.08	350.000
862.38	-108.333
862.67	257.143
862.97	175.000
863.26	-81.818
863.56	-36.364
863.85	21.053
864.15	35.294
864.44	0.000
864.74	-30.000
865.03	-133.333
865.33	7.143
865.62	157.143
865.92	-5.263
866.21	-44.444
866.51	-63.636
866.80	-200.000
867.10	-175.000
867.39	18.750
867.69	-26.667
867.98	-30.000
868.27	35.294
868.57	0.000
868.86	900.000
869.16	-200.000
869.45	-242.857
869.75	350.000
870.04	-50.000
870.33	-1400.000
870.63	52.632
870.92	-25.000
871.22	-700.000
871.51	-128.571
871.80	-122.222
872.10	-275.000
>>>>>End Processed Spectral Data<<<<<
