SpectraSuite Data File
++++++++++++++++++++++++++++++++++++
Date: Wed May 13 21:05:08 PDT 2015
User: schluterlab
Dark Spectrum Present: Yes
Reference Spectrum Present: Yes
Number of Sampled Component Spectra: 1
Spectrometers: USB2E3373
Integration Time (usec): 3000 (USB2E3373)
Spectra Averaged: 3 (USB2E3373)
Boxcar Smoothing: 0 (USB2E3373)
Correct for Electrical Dark: No (USB2E3373)
Strobe/Lamp Enabled: No (USB2E3373)
Correct for Detector Non-linearity: No (USB2E3373)
Correct for Stray Light: No (USB2E3373)
Number of Pixels in Processed Spectrum: 2048
>>>>>Begin Processed Spectral Data<<<<<
178.53	0.000
178.91	150.000
179.29	125.000
179.67	-650.000
180.04	-366.667
180.42	220.000
180.80	800.000
181.18	316.667
181.56	-275.000
181.94	25.000
182.31	72.727
182.69	69.231
183.07	-40.000
183.45	116.667
183.83	88.889
184.20	85.714
184.58	-66.667
184.96	333.333
185.34	14.286
185.72	0.000
186.09	-500.000
186.47	-160.000
186.85	-100.000
187.23	0.000
187.61	350.000
187.98	500.000
188.36	62.500
188.74	0.000
189.12	45.455
189.49	100.000
189.87	91.667
190.25	320.000
190.63	600.000
191.00	-60.000
191.38	180.000
191.76	450.000
192.14	83.333
192.51	5.263
192.89	333.333
193.27	150.000
193.65	40.000
194.02	18.182
194.40	100.000
194.78	400.000
195.15	200.000
195.53	-100.000
195.91	-12.500
196.29	-33.333
196.66	0.000
197.04	150.000
197.42	100.000
197.79	30.000
198.17	-75.000
198.55	-266.667
198.92	100.000
199.30	-366.667
199.68	130.000
200.05	50.000
200.43	200.000
200.81	-700.000
201.18	200.000
201.56	-16.667
201.94	425.000
202.31	39.130
202.69	14.286
203.07	-233.333
203.44	-20.000
203.82	-66.667
204.19	60.000
204.57	0.000
204.95	-16.667
205.32	0.000
205.70	-300.000
206.08	-175.000
206.45	-133.333
206.83	325.000
207.20	-300.000
207.58	-10.000
207.96	-1100.000
208.33	0.000
208.71	-1400.000
209.08	25.000
209.46	300.000
209.84	0.000
210.21	60.000
210.59	800.000
210.96	220.000
211.34	300.000
211.71	-350.000
212.09	-166.667
212.46	-150.000
212.84	-266.667
213.22	50.000
213.59	-800.000
213.97	-300.000
214.34	-500.000
214.72	-61.538
215.09	237.500
215.47	111.111
215.84	-0.000
216.22	-25.000
216.59	50.000
216.97	266.667
217.34	144.444
217.72	0.000
218.09	-33.333
218.47	400.000
218.84	0.000
219.22	-75.000
219.59	-400.000
219.97	100.000
220.34	-37.500
220.72	-320.000
221.09	0.000
221.47	-150.000
221.84	700.000
222.22	0.000
222.59	700.000
222.97	-66.667
223.34	0.000
223.72	-800.000
224.09	-550.000
224.46	-54.545
224.84	37.500
225.21	100.000
225.59	-100.000
225.96	100.000
226.34	20.000
226.71	-100.000
227.08	850.000
227.46	-37.500
227.83	-600.000
228.21	-50.000
228.58	-125.000
228.95	-5.882
229.33	-6.250
229.70	-25.000
230.08	61.538
230.45	-125.000
230.82	-25.000
231.20	-0.000
231.57	-225.000
231.95	1300.000
232.32	-16.667
232.69	35.294
233.07	-300.000
233.44	-21.739
233.81	-150.000
234.19	66.667
234.56	-20.000
234.93	-20.000
235.31	26.316
235.68	0.000
236.05	-7.692
236.43	50.000
236.80	3.030
237.17	26.667
237.55	-29.412
237.92	-13.793
238.29	-18.519
238.67	22.222
239.04	3.226
239.41	12.766
239.79	48.936
240.16	13.953
240.53	14.286
240.91	25.000
241.28	21.429
241.65	22.581
242.02	14.474
242.40	24.638
242.77	11.594
243.14	16.667
243.51	31.915
243.89	33.654
244.26	40.566
244.63	17.308
245.00	35.417
245.38	20.168
245.75	24.590
246.12	21.805
246.49	18.699
246.87	10.924
247.24	26.351
247.61	28.477
247.98	25.641
248.36	16.568
248.73	20.225
249.10	20.707
249.47	22.581
249.84	27.368
250.22	21.891
250.59	21.495
250.96	28.182
251.33	18.660
251.70	27.615
252.08	20.502
252.45	25.514
252.82	29.658
253.19	24.903
253.56	23.741
253.94	26.690
254.31	23.239
254.68	21.812
255.05	25.413
255.42	23.427
255.79	23.006
256.16	25.552
256.54	27.619
256.91	19.937
257.28	24.528
257.65	26.433
258.02	24.047
258.39	28.363
258.76	25.000
259.14	24.432
259.51	21.910
259.88	25.745
260.25	25.556
260.62	25.000
260.99	24.668
261.36	22.021
261.73	26.420
262.10	23.664
262.47	20.988
262.85	25.124
263.22	24.103
263.59	23.636
263.96	23.601
264.33	24.279
264.70	26.047
265.07	25.231
265.44	25.517
265.81	24.256
266.18	25.057
266.55	24.236
266.92	25.636
267.29	24.691
267.66	23.779
268.03	25.103
268.40	23.941
268.77	25.620
269.14	25.510
269.51	26.899
269.88	23.625
270.25	28.390
270.62	23.975
270.99	23.819
271.36	24.008
271.73	24.297
272.10	24.190
272.47	23.033
272.84	25.984
273.21	24.853
273.58	24.795
273.95	24.340
274.32	25.373
274.69	25.319
275.06	24.735
275.43	22.222
275.80	25.177
276.17	23.389
276.54	23.979
276.91	25.784
277.28	20.939
277.65	24.301
278.02	26.071
278.39	22.558
278.76	24.582
279.13	25.386
279.50	22.759
279.87	25.181
280.23	25.766
280.60	24.221
280.97	23.539
281.34	24.921
281.71	22.114
282.08	25.470
282.45	26.557
282.82	23.962
283.19	24.848
283.56	23.750
283.92	24.465
284.29	22.309
284.66	23.064
285.03	21.336
285.40	23.565
285.77	24.925
286.14	22.036
286.51	26.087
286.87	22.615
287.24	22.271
287.61	21.988
287.98	22.500
288.35	23.100
288.72	22.382
289.08	22.650
289.45	22.761
289.82	21.180
290.19	22.020
290.56	20.312
290.93	20.442
291.29	21.204
291.66	22.678
292.03	21.253
292.40	20.861
292.77	22.758
293.13	20.502
293.50	21.046
293.87	22.133
294.24	22.619
294.60	20.416
294.97	21.429
295.34	19.129
295.71	18.265
296.08	18.455
296.44	19.643
296.81	19.001
297.18	21.250
297.55	19.811
297.91	19.503
298.28	19.249
298.65	19.458
299.02	19.902
299.38	18.160
299.75	18.630
300.12	17.442
300.48	18.830
300.85	18.707
301.22	17.886
301.59	18.192
301.95	16.609
302.32	18.086
302.69	17.062
303.05	18.051
303.42	18.523
303.79	19.243
304.15	17.634
304.52	19.785
304.89	17.719
305.25	17.234
305.62	19.089
305.99	19.587
306.35	18.182
306.72	18.413
307.09	17.623
307.45	18.530
307.82	17.158
308.19	17.137
308.55	18.731
308.92	18.762
309.29	17.317
309.65	17.183
310.02	17.694
310.38	17.886
310.75	16.864
311.12	18.853
311.48	16.914
311.85	17.224
312.22	17.215
312.58	16.908
312.95	16.816
313.31	17.815
313.68	17.653
314.05	17.864
314.41	19.116
314.78	19.070
315.14	18.056
315.51	18.554
315.87	18.165
316.24	17.906
316.61	18.813
316.97	18.796
317.34	17.825
317.70	19.447
318.07	19.521
318.43	18.790
318.80	17.103
319.16	18.479
319.53	18.459
319.89	18.699
320.26	19.409
320.62	19.184
320.99	19.186
321.35	18.335
321.72	19.538
322.08	19.373
322.45	20.444
322.81	20.795
323.18	19.410
323.54	20.487
323.91	19.693
324.27	19.532
324.64	19.164
325.00	20.385
325.37	21.843
325.73	20.539
326.10	21.699
326.46	21.405
326.83	20.955
327.19	21.789
327.56	21.515
327.92	21.802
328.29	23.372
328.65	22.436
329.01	21.196
329.38	23.304
329.74	23.262
330.11	23.174
330.47	21.441
330.84	22.834
331.20	23.570
331.56	23.732
331.93	22.394
332.29	23.632
332.66	22.881
333.02	24.587
333.38	22.719
333.75	23.294
334.11	22.830
334.48	23.627
334.84	23.145
335.20	22.985
335.57	24.021
335.93	23.110
336.29	22.504
336.66	24.274
337.02	24.348
337.38	22.977
337.75	23.514
338.11	22.886
338.47	23.373
338.84	23.368
339.20	24.162
339.56	22.184
339.93	21.953
340.29	23.313
340.65	24.038
341.02	23.211
341.38	22.635
341.74	23.782
342.11	23.039
342.47	22.594
342.83	22.631
343.20	22.081
343.56	24.121
343.92	23.314
344.28	22.971
344.65	23.592
345.01	23.810
345.37	24.507
345.73	24.837
346.10	24.077
346.46	22.764
346.82	23.194
347.19	23.418
347.55	24.071
347.91	22.603
348.27	23.896
348.63	24.359
349.00	23.899
349.36	23.940
349.72	23.743
350.08	23.479
350.45	23.258
350.81	24.257
351.17	24.711
351.53	23.802
351.89	23.114
352.26	22.239
352.62	24.341
352.98	24.681
353.34	24.557
353.70	23.676
354.07	23.294
354.43	23.406
354.79	23.718
355.15	22.748
355.51	23.842
355.87	23.769
356.24	23.194
356.60	23.299
356.96	23.868
357.32	25.000
357.68	23.682
358.04	24.748
358.40	24.186
358.77	24.083
359.13	23.580
359.49	23.770
359.85	24.640
360.21	24.518
360.57	23.270
360.93	25.038
361.29	25.611
361.66	24.222
362.02	24.240
362.38	25.554
362.74	24.656
363.10	25.452
363.46	24.712
363.82	25.425
364.18	23.858
364.54	25.529
364.90	23.624
365.26	25.902
365.62	25.781
365.98	24.484
366.35	25.390
366.71	24.893
367.07	25.301
367.43	25.714
367.79	26.199
368.15	25.949
368.51	24.824
368.87	26.797
369.23	25.125
369.59	24.806
369.95	25.327
370.31	25.872
370.67	25.489
371.03	26.578
371.39	25.550
371.75	26.071
372.11	26.852
372.47	26.532
372.83	26.560
373.19	26.403
373.55	26.228
373.91	25.813
374.27	26.349
374.63	27.525
374.99	26.741
375.35	27.260
375.71	26.495
376.07	27.347
376.42	27.005
376.78	28.137
377.14	28.339
377.50	28.227
377.86	28.220
378.22	27.876
378.58	27.427
378.94	28.813
379.30	28.107
379.66	27.867
380.02	28.370
380.38	28.434
380.74	29.289
381.09	27.865
381.45	28.537
381.81	28.343
382.17	28.670
382.53	28.677
382.89	27.865
383.25	28.704
383.61	30.206
383.97	29.687
384.32	30.309
384.68	30.043
385.04	29.933
385.40	31.320
385.76	30.718
386.12	30.407
386.48	30.031
386.83	30.538
387.19	30.290
387.55	30.779
387.91	31.119
388.27	31.566
388.62	30.462
388.98	30.851
389.34	30.639
389.70	30.647
390.06	31.312
390.42	30.735
390.77	32.415
391.13	32.197
391.49	31.309
391.85	32.013
392.20	31.642
392.56	32.444
392.92	32.124
393.28	32.655
393.64	32.294
393.99	30.722
394.35	32.284
394.71	32.692
395.07	32.264
395.42	32.602
395.78	32.239
396.14	33.228
396.50	32.720
396.85	33.525
397.21	33.146
397.57	32.857
397.92	32.335
398.28	32.882
398.64	32.787
399.00	33.371
399.35	33.258
399.71	32.732
400.07	32.771
400.42	33.103
400.78	34.139
401.14	33.109
401.49	33.373
401.85	34.644
402.21	34.861
402.57	33.722
402.92	33.917
403.28	33.583
403.63	33.168
403.99	33.525
404.35	33.791
404.70	33.414
405.06	34.821
405.42	33.982
405.77	33.641
406.13	34.114
406.49	34.452
406.84	35.409
407.20	33.985
407.55	35.649
407.91	33.752
408.27	33.874
408.62	34.131
408.98	34.032
409.34	33.973
409.69	35.413
410.05	34.826
410.40	34.084
410.76	34.657
411.11	35.199
411.47	34.970
411.83	34.435
412.18	35.453
412.54	34.774
412.89	34.044
413.25	34.159
413.60	35.235
413.96	34.769
414.31	34.710
414.67	34.857
415.03	35.318
415.38	34.941
415.74	35.413
416.09	35.889
416.45	35.133
416.80	36.174
417.16	35.965
417.51	34.963
417.87	36.111
418.22	35.617
418.58	36.071
418.93	35.907
419.29	36.502
419.64	35.814
420.00	36.508
420.35	35.983
420.71	35.649
421.06	36.839
421.42	37.348
421.77	35.780
422.12	35.989
422.48	36.423
422.83	37.330
423.19	36.170
423.54	36.690
423.90	35.867
424.25	37.897
424.61	37.523
424.96	36.724
425.31	36.680
425.67	38.213
426.02	37.161
426.38	37.500
426.73	37.752
427.09	36.273
427.44	37.463
427.79	38.302
428.15	38.410
428.50	37.523
428.85	37.146
429.21	36.916
429.56	37.991
429.92	38.157
430.27	37.986
430.62	38.090
430.98	36.912
431.33	38.098
431.68	38.711
432.04	38.366
432.39	37.471
432.74	38.075
433.10	38.408
433.45	38.994
433.80	39.023
434.16	38.176
434.51	38.696
434.86	38.339
435.22	38.483
435.57	38.452
435.92	39.747
436.28	38.018
436.63	39.261
436.98	39.307
437.34	39.499
437.69	38.666
438.04	39.389
438.39	39.601
438.75	38.379
439.10	39.965
439.45	38.559
439.81	40.394
440.16	40.174
440.51	39.239
440.86	39.953
441.22	40.103
441.57	39.479
441.92	39.969
442.27	40.043
442.63	39.882
442.98	39.294
443.33	39.955
443.68	39.114
444.03	40.089
444.39	40.109
444.74	40.088
445.09	38.767
445.44	40.620
445.79	40.785
446.15	39.933
446.50	40.474
446.85	40.834
447.20	39.780
447.55	40.907
447.91	39.326
448.26	40.537
448.61	40.679
448.96	39.636
449.31	42.204
449.66	41.527
450.02	40.705
450.37	40.306
450.72	40.873
451.07	41.567
451.42	39.488
451.77	41.509
452.12	41.830
452.47	42.156
452.83	41.156
453.18	40.866
453.53	41.803
453.88	41.145
454.23	41.904
454.58	40.993
454.93	41.180
455.28	41.554
455.63	41.672
455.98	41.814
456.34	40.496
456.69	41.150
457.04	41.424
457.39	41.852
457.74	40.634
458.09	41.528
458.44	41.716
458.79	41.131
459.14	40.449
459.49	40.915
459.84	41.714
460.19	40.876
460.54	41.241
460.89	41.836
461.24	41.122
461.59	42.029
461.94	41.214
462.29	41.912
462.64	41.821
462.99	41.851
463.34	42.818
463.69	41.624
464.04	42.197
464.39	41.306
464.74	41.339
465.09	41.228
465.44	40.965
465.79	41.633
466.14	40.821
466.49	41.525
466.84	41.184
467.19	40.446
467.54	42.320
467.89	42.489
468.24	41.242
468.59	41.810
468.94	41.571
469.29	42.036
469.64	42.259
469.99	43.448
470.34	42.077
470.68	42.900
471.03	42.243
471.38	42.490
471.73	43.073
472.08	41.237
472.43	42.546
472.78	41.717
473.13	41.689
473.48	42.531
473.83	42.247
474.17	41.927
474.52	43.301
474.87	41.918
475.22	41.908
475.57	42.443
475.92	41.658
476.27	42.308
476.61	41.959
476.96	42.604
477.31	41.262
477.66	41.751
478.01	41.593
478.36	41.199
478.70	41.729
479.05	42.009
479.40	41.654
479.75	42.349
480.10	41.611
480.45	40.216
480.79	42.608
481.14	42.300
481.49	42.526
481.84	40.622
482.19	41.362
482.53	41.286
482.88	41.227
483.23	41.049
483.58	41.304
483.92	41.732
484.27	40.942
484.62	40.701
484.97	41.269
485.31	40.528
485.66	37.773
486.01	36.917
486.36	37.134
486.70	37.041
487.05	38.424
487.40	38.781
487.75	39.506
488.09	39.756
488.44	40.589
488.79	41.219
489.13	40.676
489.48	40.872
489.83	41.268
490.17	41.580
490.52	41.421
490.87	40.287
491.22	41.922
491.56	41.495
491.91	40.518
492.26	41.925
492.60	41.174
492.95	41.788
493.30	41.715
493.64	41.391
493.99	42.222
494.34	41.522
494.68	41.623
495.03	41.798
495.37	41.460
495.72	41.103
496.07	42.231
496.41	41.132
496.76	41.042
497.11	41.315
497.45	41.634
497.80	41.444
498.14	41.562
498.49	41.805
498.84	40.789
499.18	41.414
499.53	41.408
499.87	40.951
500.22	41.165
500.56	40.923
500.91	42.404
501.26	41.675
501.60	40.833
501.95	40.249
502.29	41.068
502.64	41.851
502.98	40.462
503.33	40.584
503.67	40.944
504.02	41.422
504.36	41.852
504.71	41.667
505.06	41.569
505.40	41.443
505.75	42.116
506.09	41.799
506.44	40.071
506.78	41.239
507.13	41.580
507.47	41.569
507.82	41.026
508.16	41.530
508.51	41.219
508.85	40.591
509.19	42.275
509.54	42.574
509.88	42.581
510.23	42.421
510.57	42.055
510.92	42.996
511.26	42.024
511.61	42.042
511.95	42.062
512.30	42.421
512.64	43.303
512.98	42.604
513.33	43.099
513.67	42.078
514.02	42.987
514.36	42.584
514.70	43.187
515.05	43.242
515.39	42.748
515.74	43.872
516.08	42.891
516.42	42.108
516.77	42.589
517.11	43.034
517.46	43.998
517.80	44.370
518.14	42.743
518.49	43.219
518.83	42.780
519.17	42.651
519.52	44.029
519.86	42.927
520.20	42.511
520.55	42.848
520.89	43.770
521.23	44.038
521.58	44.437
521.92	43.432
522.26	44.177
522.61	44.279
522.95	44.365
523.29	43.302
523.64	43.929
523.98	42.313
524.32	42.848
524.66	44.026
525.01	44.495
525.35	44.371
525.69	44.400
526.04	43.192
526.38	44.041
526.72	44.181
527.06	42.747
527.41	44.143
527.75	43.124
528.09	45.473
528.43	43.284
528.78	43.411
529.12	43.079
529.46	44.402
529.80	43.883
530.15	43.565
530.49	43.935
530.83	44.008
531.17	44.041
531.51	43.965
531.86	43.022
532.20	42.591
532.54	42.966
532.88	44.997
533.22	43.771
533.57	42.185
533.91	43.161
534.25	42.773
534.59	42.214
534.93	43.304
535.27	42.611
535.62	41.579
535.96	42.941
536.30	43.218
536.64	41.900
536.98	43.097
537.32	43.274
537.66	43.371
538.01	42.372
538.35	42.196
538.69	42.475
539.03	42.148
539.37	42.321
539.71	41.814
540.05	41.430
540.39	41.156
540.73	42.737
541.07	41.701
541.42	41.616
541.76	42.084
542.10	40.555
542.44	42.412
542.78	41.985
543.12	42.453
543.46	41.465
543.80	41.412
544.14	41.913
544.48	39.947
544.82	40.753
545.16	40.230
545.50	41.796
545.84	40.884
546.18	41.585
546.52	40.720
546.86	40.141
547.20	40.457
547.54	39.814
547.88	40.216
548.22	40.456
548.56	40.227
548.90	40.663
549.24	41.597
549.58	40.498
549.92	42.480
550.26	41.845
550.60	41.216
550.94	40.672
551.28	41.030
551.62	42.932
551.96	41.215
552.30	40.902
552.64	39.901
552.98	41.406
553.32	40.519
553.66	40.719
554.00	40.101
554.34	39.927
554.68	40.865
555.02	40.195
555.36	42.209
555.69	40.277
556.03	40.100
556.37	39.403
556.71	40.014
557.05	40.959
557.39	42.200
557.73	40.847
558.07	42.200
558.41	41.332
558.75	41.339
559.08	40.257
559.42	41.778
559.76	40.902
560.10	41.199
560.44	41.341
560.78	40.432
561.12	39.243
561.45	39.796
561.79	38.858
562.13	41.491
562.47	41.071
562.81	40.115
563.15	40.368
563.48	37.990
563.82	39.672
564.16	38.659
564.50	38.670
564.84	38.311
565.17	39.470
565.51	39.305
565.85	38.641
566.19	39.205
566.52	38.860
566.86	37.863
567.20	37.263
567.54	36.327
567.88	35.722
568.21	36.176
568.55	36.881
568.89	36.191
569.23	34.876
569.56	34.168
569.90	33.359
570.24	32.816
570.57	32.992
570.91	32.390
571.25	31.975
571.59	31.600
571.92	31.329
572.26	31.779
572.60	31.290
572.93	32.177
573.27	32.007
573.61	32.191
573.95	30.857
574.28	31.426
574.62	30.215
574.96	30.512
575.29	30.466
575.63	31.191
575.97	30.435
576.30	31.002
576.64	30.967
576.98	30.878
577.31	29.866
577.65	29.512
577.98	30.023
578.32	29.403
578.66	30.028
578.99	29.883
579.33	30.310
579.67	30.524
580.00	30.211
580.34	30.150
580.67	30.353
581.01	29.268
581.35	29.368
581.68	29.055
582.02	29.423
582.35	29.327
582.69	29.024
583.02	29.382
583.36	30.082
583.70	30.588
584.03	30.224
584.37	30.000
584.70	30.067
585.04	30.332
585.37	30.182
585.71	29.788
586.04	30.301
586.38	29.834
586.72	29.924
587.05	30.823
587.39	29.840
587.72	30.851
588.06	30.698
588.39	30.059
588.73	30.265
589.06	30.876
589.40	31.579
589.73	31.656
590.07	30.660
590.40	31.579
590.73	31.645
591.07	31.049
591.40	32.391
591.74	33.037
592.07	32.223
592.41	32.003
592.74	31.250
593.08	30.325
593.41	30.989
593.75	30.491
594.08	30.190
594.41	31.079
594.75	31.072
595.08	31.180
595.42	30.744
595.75	30.766
596.09	31.486
596.42	31.658
596.75	31.505
597.09	33.348
597.42	33.064
597.75	32.000
598.09	31.876
598.42	32.215
598.76	31.486
599.09	31.012
599.42	30.816
599.76	30.454
600.09	30.761
600.42	31.262
600.76	30.820
601.09	30.885
601.42	30.341
601.76	30.541
602.09	31.050
602.42	31.160
602.76	30.956
603.09	31.499
603.42	30.988
603.76	30.514
604.09	30.870
604.42	31.394
604.76	30.991
605.09	31.763
605.42	32.164
605.75	31.178
606.09	31.084
606.42	30.673
606.75	30.693
607.09	32.092
607.42	30.867
607.75	30.503
608.08	31.425
608.42	31.162
608.75	31.916
609.08	31.602
609.41	31.744
609.75	32.073
610.08	32.249
610.41	32.070
610.74	31.617
611.07	31.513
611.41	32.600
611.74	32.816
612.07	31.996
612.40	32.649
612.73	33.260
613.07	31.763
613.40	32.269
613.73	32.557
614.06	32.117
614.39	32.518
614.72	32.371
615.06	32.500
615.39	32.616
615.72	31.641
616.05	31.475
616.38	32.417
616.71	32.693
617.05	33.907
617.38	32.717
617.71	31.985
618.04	32.541
618.37	33.565
618.70	33.700
619.03	34.021
619.36	34.235
619.69	33.260
620.03	33.286
620.36	34.099
620.69	33.762
621.02	34.538
621.35	35.078
621.68	35.371
622.01	35.356
622.34	34.496
622.67	35.317
623.00	34.878
623.33	34.705
623.66	35.019
623.99	34.734
624.32	33.676
624.65	34.421
624.99	34.093
625.32	34.279
625.65	34.264
625.98	35.308
626.31	36.082
626.64	36.199
626.97	35.900
627.30	35.586
627.63	35.381
627.96	34.892
628.29	38.140
628.62	38.008
628.95	36.774
629.28	38.424
629.61	37.990
629.94	35.493
630.26	37.537
630.59	38.861
630.92	36.847
631.25	36.869
631.58	37.901
631.91	37.646
632.24	37.431
632.57	38.667
632.90	38.390
633.23	40.408
633.56	40.528
633.89	40.431
634.22	41.225
634.55	39.220
634.88	36.765
635.20	40.750
635.53	40.052
635.86	40.513
636.19	41.315
636.52	40.610
636.85	39.686
637.18	36.297
637.51	40.200
637.83	40.992
638.16	40.400
638.49	39.386
638.82	40.131
639.15	39.628
639.48	39.572
639.81	40.417
640.13	42.394
640.46	40.819
640.79	40.719
641.12	38.462
641.45	40.029
641.77	40.206
642.10	41.452
642.43	43.239
642.76	41.798
643.09	43.291
643.41	42.743
643.74	41.842
644.07	40.939
644.40	43.449
644.73	44.576
645.05	43.106
645.38	42.193
645.71	43.878
646.04	39.057
646.36	43.403
646.69	41.958
647.02	42.805
647.35	45.155
647.67	42.514
648.00	41.848
648.33	39.831
648.66	40.735
648.98	40.373
649.31	39.877
649.64	39.593
649.96	39.494
650.29	40.033
650.62	39.703
650.94	41.897
651.27	42.403
651.60	40.734
651.92	43.011
652.25	40.871
652.58	41.584
652.90	41.414
653.23	40.238
653.56	39.504
653.88	38.567
654.21	39.590
654.54	41.196
654.86	39.837
655.19	38.235
655.52	31.528
655.84	23.892
656.17	28.007
656.49	36.697
656.82	35.881
657.15	27.333
657.47	20.280
657.80	15.150
658.13	16.265
658.45	25.100
658.78	25.303
659.10	25.440
659.43	27.232
659.75	27.922
660.08	30.966
660.41	32.454
660.73	36.915
661.06	37.925
661.38	39.147
661.71	42.418
662.03	42.072
662.36	42.920
662.68	44.946
663.01	44.492
663.33	41.253
663.66	44.124
663.98	43.371
664.31	45.495
664.63	37.838
664.96	45.077
665.28	43.348
665.61	42.333
665.93	41.970
666.26	41.139
666.58	40.899
666.91	45.964
667.23	42.396
667.56	45.057
667.88	44.860
668.21	41.964
668.53	43.678
668.86	46.283
669.18	44.444
669.50	42.627
669.83	45.346
670.15	41.667
670.48	43.448
670.80	43.326
671.13	43.021
671.45	45.205
671.77	40.517
672.10	37.427
672.42	39.885
672.75	39.107
673.07	38.727
673.39	40.672
673.72	41.517
674.04	40.574
674.37	40.650
674.69	40.535
675.01	39.957
675.34	43.326
675.66	40.741
675.98	42.257
676.31	40.724
676.63	43.991
676.95	42.588
677.28	39.220
677.60	45.098
677.92	41.685
678.25	41.649
678.57	41.548
678.89	39.446
679.22	39.130
679.54	40.612
679.86	38.477
680.18	38.462
680.51	40.192
680.83	38.986
681.15	38.900
681.48	38.677
681.80	37.832
682.12	37.917
682.44	36.821
682.77	36.000
683.09	39.063
683.41	41.860
683.73	37.054
684.06	40.487
684.38	37.179
684.70	37.882
685.02	35.537
685.34	36.791
685.67	38.086
685.99	37.367
686.31	36.724
686.63	34.375
686.96	34.323
687.28	37.725
687.60	39.698
687.92	38.716
688.24	36.000
688.56	39.254
688.89	34.744
689.21	37.892
689.53	37.387
689.85	38.876
690.17	40.220
690.49	36.715
690.82	40.095
691.14	39.372
691.46	35.963
691.78	39.560
692.10	39.066
692.42	38.022
692.74	37.609
693.06	37.978
693.39	40.047
693.71	39.778
694.03	38.409
694.35	38.514
694.67	41.000
694.99	40.206
695.31	41.085
695.63	38.293
695.95	35.623
696.27	35.616
696.59	38.710
696.91	39.385
697.23	38.579
697.56	40.048
697.88	39.709
698.20	35.853
698.52	35.748
698.84	38.517
699.16	37.589
699.48	37.037
699.80	41.344
700.12	43.432
700.44	38.028
700.76	36.236
701.08	43.807
701.40	41.317
701.72	38.769
702.04	44.654
702.36	41.768
702.68	35.366
703.00	42.982
703.32	37.326
703.64	40.663
703.96	39.003
704.28	43.976
704.60	38.720
704.91	37.304
705.23	42.405
705.55	42.414
705.87	44.014
706.19	38.095
706.51	40.493
706.83	40.127
707.15	39.939
707.47	39.118
707.79	35.025
708.11	34.961
708.43	35.533
708.74	36.436
709.06	38.503
709.38	39.481
709.70	39.039
710.02	35.826
710.34	37.000
710.66	41.368
710.98	39.938
711.29	42.532
711.61	40.000
711.93	41.290
712.25	39.510
712.57	42.105
712.89	41.758
713.20	42.199
713.52	40.876
713.84	38.710
714.16	38.511
714.48	41.456
714.80	36.422
715.11	39.244
715.43	34.472
715.75	39.752
716.07	41.265
716.39	38.384
716.70	40.288
717.02	41.961
717.34	41.288
717.66	42.241
717.97	39.286
718.29	44.488
718.61	42.489
718.93	39.922
719.24	38.376
719.56	34.082
719.88	39.552
720.20	43.478
720.51	39.063
720.83	42.023
721.15	34.553
721.46	38.931
721.78	37.450
722.10	35.458
722.42	37.903
722.73	34.363
723.05	39.184
723.37	35.294
723.68	40.000
724.00	37.447
724.32	38.494
724.63	38.683
724.95	35.043
725.27	42.616
725.58	44.856
725.90	38.075
726.22	36.957
726.53	33.725
726.85	33.577
727.16	35.556
727.48	40.996
727.80	39.844
728.11	42.213
728.43	41.406
728.74	38.095
729.06	34.800
729.38	38.735
729.69	33.452
730.01	32.342
730.32	33.210
730.64	35.985
730.96	36.713
731.27	34.114
731.59	34.603
731.90	32.686
732.22	29.487
732.53	34.122
732.85	32.550
733.16	35.644
733.48	34.459
733.80	35.135
734.11	37.162
734.43	33.437
734.74	35.135
735.06	30.259
735.37	35.562
735.69	31.715
736.00	33.993
736.32	33.333
736.63	35.862
736.95	38.699
737.26	30.690
737.58	30.556
737.89	34.021
738.21	33.808
738.52	34.601
738.83	41.633
739.15	34.599
739.46	35.798
739.78	31.338
740.09	33.904
740.41	30.714
740.72	35.461
741.04	32.800
741.35	35.965
741.66	38.667
741.98	42.308
742.29	42.574
742.61	35.122
742.92	42.105
743.23	36.792
743.55	38.739
743.86	35.874
744.18	39.706
744.49	44.162
744.80	37.245
745.12	38.785
745.43	40.758
745.74	41.441
746.06	35.981
746.37	34.404
746.68	35.096
747.00	44.498
747.31	37.019
747.62	41.284
747.94	40.175
748.25	40.367
748.56	40.000
748.88	42.254
749.19	44.286
749.50	41.262
749.82	36.150
750.13	28.750
750.44	36.154
750.75	32.472
751.07	30.961
751.38	34.043
751.69	33.205
752.01	38.281
752.32	35.000
752.63	35.821
752.94	35.600
753.26	39.331
753.57	34.167
753.88	27.935
754.19	40.239
754.51	30.075
754.82	30.037
755.13	31.304
755.44	37.398
755.75	30.000
756.07	31.365
756.38	34.532
756.69	33.788
757.00	28.660
757.31	31.068
757.63	28.086
757.94	31.073
758.25	28.571
758.56	27.717
758.87	32.143
759.18	32.492
759.50	32.323
759.81	31.104
760.12	32.000
760.43	25.893
760.74	28.249
761.05	26.519
761.36	27.221
761.67	28.097
761.99	27.835
762.30	32.847
762.61	33.333
762.92	38.462
763.23	34.836
763.54	38.528
763.85	32.245
764.16	32.114
764.47	34.400
764.78	32.143
765.10	30.164
765.41	29.483
765.72	33.540
766.03	27.393
766.34	32.308
766.65	29.707
766.96	36.150
767.27	36.139
767.58	30.899
767.89	40.123
768.20	30.939
768.51	34.171
768.82	38.942
769.13	34.956
769.44	32.636
769.75	30.769
770.06	32.287
770.37	28.922
770.68	39.806
770.99	32.039
771.30	32.353
771.61	30.612
771.92	36.100
772.23	27.477
772.54	37.569
772.85	31.395
773.16	36.508
773.47	28.402
773.78	40.230
774.09	34.375
774.39	34.161
774.70	28.571
775.01	27.586
775.32	32.143
775.63	28.571
775.94	27.820
776.25	26.400
776.56	30.579
776.87	41.270
777.18	33.333
777.48	32.432
777.79	38.583
778.10	46.789
778.41	37.719
778.72	33.613
779.03	25.352
779.34	39.865
779.65	27.465
779.95	31.126
780.26	23.741
780.57	31.655
780.88	40.141
781.19	37.815
781.50	32.215
781.80	30.994
782.11	20.930
782.42	28.302
782.73	36.601
783.04	36.552
783.34	24.427
783.65	22.148
783.96	35.385
784.27	35.714
784.57	31.206
784.88	25.000
785.19	46.364
785.50	33.636
785.81	30.476
786.11	34.454
786.42	26.549
786.73	27.358
787.04	31.193
787.34	27.723
787.65	35.833
787.96	33.884
788.26	37.681
788.57	19.841
788.88	31.707
789.19	34.400
789.49	26.718
789.80	26.515
790.11	23.585
790.41	43.564
790.72	24.468
791.03	35.870
791.33	28.235
791.64	39.506
791.95	26.087
792.25	40.909
792.56	38.462
792.87	33.333
793.17	21.795
793.48	36.905
793.79	26.250
794.09	31.731
794.40	45.833
794.70	34.234
795.01	32.813
795.32	31.304
795.62	30.435
795.93	28.302
796.23	32.323
796.54	32.927
796.85	33.333
797.15	21.212
797.46	34.783
797.76	34.211
798.07	18.182
798.37	25.610
798.68	32.258
798.99	33.784
799.29	32.530
799.60	33.333
799.90	40.000
800.21	31.818
800.51	30.667
800.82	53.333
801.12	33.333
801.43	18.333
801.73	18.919
802.04	30.000
802.34	11.475
802.65	37.313
802.95	30.909
803.26	24.138
803.56	44.615
803.87	28.302
804.17	45.161
804.48	41.176
804.78	14.634
805.09	43.478
805.39	13.235
805.70	25.532
806.00	15.789
806.30	34.615
806.61	34.211
806.91	37.838
807.22	21.053
807.52	27.273
807.83	8.475
808.13	15.152
808.43	10.000
808.74	-8.621
809.04	44.444
809.35	26.531
809.65	25.000
809.95	16.327
810.26	33.803
810.56	16.667
810.86	6.122
811.17	46.154
811.47	21.277
811.77	25.000
812.08	16.981
812.38	31.250
812.69	16.364
812.99	31.707
813.29	5.405
813.59	-10.811
813.90	40.000
814.20	40.000
814.50	21.667
814.81	25.455
815.11	29.825
815.41	51.163
815.72	37.500
816.02	20.000
816.32	10.811
816.62	41.667
816.93	26.667
817.23	31.111
817.53	-11.111
817.84	32.432
818.14	31.707
818.44	26.000
818.74	46.939
819.04	41.463
819.35	41.667
819.65	25.000
819.95	16.667
820.25	0.000
820.56	11.905
820.86	19.444
821.16	0.000
821.46	10.870
821.76	12.069
822.07	26.087
822.37	48.485
822.67	41.463
822.97	48.649
823.27	-22.857
823.57	27.586
823.88	26.471
824.18	44.444
824.48	31.429
824.78	-14.286
825.08	35.714
825.38	25.926
825.69	32.258
825.99	36.585
826.29	48.148
826.59	53.125
826.89	35.484
827.19	47.826
827.49	8.333
827.79	26.087
828.09	35.484
828.39	12.500
828.70	6.250
829.00	10.345
829.30	24.324
829.60	-29.167
829.90	55.556
830.20	31.250
830.50	31.818
830.80	17.647
831.10	31.818
831.40	41.176
831.70	30.769
832.00	-12.121
832.30	38.235
832.60	24.324
832.90	-0.000
833.20	35.714
833.50	-5.000
833.80	26.316
834.10	20.833
834.40	13.636
834.70	20.000
835.00	10.000
835.30	20.833
835.60	42.857
835.90	-14.286
836.20	-36.000
836.50	12.500
836.80	31.579
837.10	59.459
837.40	43.333
837.70	17.391
838.00	54.167
838.30	57.895
838.60	-50.000
838.90	-20.000
839.19	150.000
839.49	38.462
839.79	15.789
840.09	33.333
840.39	90.000
840.69	27.273
840.99	-4.762
841.29	0.000
841.59	-7.692
841.88	-66.667
842.18	42.857
842.48	30.000
842.78	-42.857
843.08	14.286
843.38	-200.000
843.68	25.000
843.97	42.857
844.27	-22.222
844.57	-54.545
844.87	-40.000
845.17	45.455
845.47	466.667
845.76	33.333
846.06	-100.000
846.36	-1450.000
846.66	-26.316
846.96	-18.182
847.25	22.222
847.55	-66.667
847.85	14.286
848.15	38.462
848.44	-166.667
848.74	-16.667
849.04	-84.615
849.34	-75.000
849.63	-109.091
849.93	-128.571
850.23	30.000
850.53	12.500
850.82	50.000
851.12	6.667
851.42	-17.647
851.71	-87.500
852.01	41.176
852.31	-38.462
852.61	-450.000
852.90	76.471
853.20	0.000
853.50	25.000
853.79	-42.857
854.09	-100.000
854.39	-10.000
854.68	2.500
854.98	-14.286
855.28	-24.000
855.57	20.833
855.87	12.500
856.17	-4.000
856.46	28.125
856.76	-10.000
857.05	96.000
857.35	8.333
857.65	11.765
857.94	-50.000
858.24	0.000
858.53	-20.000
858.83	-54.545
859.13	-4.000
859.42	-28.571
859.72	-50.000
860.01	29.167
860.31	-175.000
860.60	-18.750
860.90	-16.667
861.20	0.000
861.49	26.667
861.79	-31.250
862.08	175.000
862.38	-116.667
862.67	271.429
862.97	175.000
863.26	-63.636
863.56	-9.091
863.85	-10.526
864.15	0.000
864.44	-160.000
864.74	-30.000
865.03	-111.111
865.33	28.571
865.62	135.714
865.92	21.053
866.21	-22.222
866.51	-45.455
866.80	22.222
867.10	-75.000
867.39	18.750
867.69	-26.667
867.98	-60.000
868.27	29.412
868.57	0.000
868.86	550.000
869.16	-325.000
869.45	-71.429
869.75	100.000
870.04	20.000
870.33	-900.000
870.63	0.000
870.92	-83.333
871.22	-200.000
871.51	-28.571
871.80	-66.667
872.10	-450.000
>>>>>End Processed Spectral Data<<<<<
