SpectraSuite Data File
++++++++++++++++++++++++++++++++++++
Date: Wed May 13 20:47:16 PDT 2015
User: schluterlab
Dark Spectrum Present: Yes
Reference Spectrum Present: Yes
Number of Sampled Component Spectra: 1
Spectrometers: USB2E3373
Integration Time (usec): 3000 (USB2E3373)
Spectra Averaged: 3 (USB2E3373)
Boxcar Smoothing: 0 (USB2E3373)
Correct for Electrical Dark: No (USB2E3373)
Strobe/Lamp Enabled: No (USB2E3373)
Correct for Detector Non-linearity: No (USB2E3373)
Correct for Stray Light: No (USB2E3373)
Number of Pixels in Processed Spectrum: 2048
>>>>>Begin Processed Spectral Data<<<<<
178.53	0.000
178.91	-675.000
179.29	-800.000
179.67	-138.889
180.04	-600.000
180.42	1550.000
180.80	600.000
181.18	-550.000
181.56	400.000
181.94	0.000
182.31	-357.143
182.69	1233.333
183.07	-275.000
183.45	-255.556
183.83	436.364
184.20	-180.000
184.58	1250.000
184.96	3000.000
185.34	-700.000
185.72	-237.500
186.09	-1400.000
186.47	1650.000
186.85	1300.000
187.23	2400.000
187.61	-1133.333
187.98	650.000
188.36	300.000
188.74	418.182
189.12	-520.000
189.49	280.000
189.87	-3300.000
190.25	-850.000
190.63	278.571
191.00	284.615
191.38	483.333
191.76	-600.000
192.14	1050.000
192.51	450.000
192.89	633.333
193.27	350.000
193.65	-575.000
194.02	330.000
194.40	520.000
194.78	250.000
195.15	250.000
195.53	340.000
195.91	-1250.000
196.29	218.750
196.66	178.947
197.04	-250.000
197.42	0.000
197.79	310.000
198.17	-2900.000
198.55	314.286
198.92	387.500
199.30	440.000
199.68	0.000
200.05	233.333
200.43	471.429
200.81	2500.000
201.18	1033.333
201.56	-700.000
201.94	244.444
202.31	288.889
202.69	200.000
203.07	280.000
203.44	0.000
203.82	675.000
204.19	500.000
204.57	292.857
204.95	350.000
205.32	966.667
205.70	327.273
206.08	200.000
206.45	1650.000
206.83	150.000
207.20	583.333
207.58	600.000
207.96	194.444
208.33	500.000
208.71	-466.667
209.08	585.714
209.46	400.000
209.84	318.182
210.21	-800.000
210.59	725.000
210.96	-225.000
211.34	1650.000
211.71	300.000
212.09	383.333
212.46	0.000
212.84	733.333
213.22	725.000
213.59	-2900.000
213.97	516.667
214.34	471.429
214.72	363.636
215.09	640.000
215.47	-1150.000
215.84	-1550.000
216.22	1300.000
216.59	214.286
216.97	775.000
217.34	281.818
217.72	-500.000
218.09	0.000
218.47	-2600.000
218.84	422.222
219.22	385.714
219.59	1033.333
219.97	-442.857
220.34	520.000
220.72	-1100.000
221.09	300.000
221.47	750.000
221.84	-366.667
222.22	0.000
222.59	600.000
222.97	-1500.000
223.34	840.000
223.72	238.462
224.09	520.000
224.46	1550.000
224.84	-2900.000
225.21	-480.000
225.59	-2400.000
225.96	430.000
226.34	190.000
226.71	1650.000
227.08	275.000
227.46	420.000
227.83	-500.000
228.21	-1200.000
228.58	388.889
228.95	-1800.000
229.33	-1150.000
229.70	1033.333
230.08	500.000
230.45	-400.000
230.82	166.667
231.20	450.000
231.57	314.286
231.95	366.667
232.32	150.000
232.69	227.273
233.07	385.714
233.44	184.615
233.81	-1000.000
234.19	215.789
234.56	300.000
234.93	216.667
235.31	254.545
235.68	146.154
236.05	200.000
236.43	112.121
236.80	147.368
237.17	2800.000
237.55	161.905
237.92	175.000
238.29	200.000
238.67	135.484
239.04	134.483
239.41	94.444
239.79	84.783
240.16	102.381
240.53	111.364
240.91	72.549
241.28	92.000
241.65	88.000
242.02	72.464
242.40	69.355
242.77	61.667
243.14	61.290
243.51	67.416
243.89	64.706
244.26	61.111
244.63	60.215
245.00	54.255
245.38	60.396
245.75	60.748
246.12	58.716
246.49	62.774
246.87	52.800
247.24	50.769
247.61	45.000
247.98	49.020
248.36	42.568
248.73	50.318
249.10	59.236
249.47	44.068
249.84	53.476
250.22	42.246
250.59	40.828
250.96	51.010
251.33	48.815
251.70	44.059
252.08	42.857
252.45	41.256
252.82	46.087
253.19	46.383
253.56	44.706
253.94	45.228
254.31	42.578
254.68	42.692
255.05	43.173
255.42	41.463
255.79	41.912
256.16	45.487
256.54	39.929
256.91	43.772
257.28	35.252
257.65	37.954
258.02	39.441
258.39	39.748
258.76	41.472
259.14	39.583
259.51	43.161
259.88	37.578
260.25	41.994
260.62	38.439
260.99	39.130
261.36	38.438
261.73	40.115
262.10	40.116
262.47	37.746
262.85	35.097
263.22	36.752
263.59	44.444
263.96	37.363
264.33	39.426
264.70	40.000
265.07	37.340
265.44	37.121
265.81	34.063
266.18	37.940
266.55	37.317
266.92	38.821
267.29	40.046
267.66	36.239
268.03	37.273
268.40	37.150
268.77	34.845
269.14	36.712
269.51	36.117
269.88	38.928
270.25	35.666
270.62	36.180
270.99	37.419
271.36	35.193
271.73	35.981
272.10	38.261
272.47	39.355
272.84	36.797
273.21	34.172
273.58	34.716
273.95	33.333
274.32	36.364
274.69	36.403
275.06	33.661
275.43	37.872
275.80	35.471
276.17	33.198
276.54	35.759
276.91	36.561
277.28	34.961
277.65	34.816
278.02	35.197
278.39	37.500
278.76	33.818
279.13	34.906
279.50	35.009
279.87	34.263
280.23	34.731
280.60	35.203
280.97	34.566
281.34	35.044
281.71	32.909
282.08	33.781
282.45	34.727
282.82	33.748
283.19	30.660
283.56	30.526
283.92	33.672
284.29	32.804
284.66	34.120
285.03	32.369
285.40	34.155
285.77	33.502
286.14	31.952
286.51	33.500
286.87	31.795
287.24	33.388
287.61	30.819
287.98	29.870
288.35	30.586
288.72	30.218
289.08	32.707
289.45	28.336
289.82	29.919
290.19	29.199
290.56	28.025
290.93	28.550
291.29	29.601
291.66	31.121
292.03	31.105
292.40	30.984
292.77	27.811
293.13	27.761
293.50	28.863
293.87	28.000
294.24	27.852
294.60	29.258
294.97	26.453
295.34	27.080
295.71	25.994
296.08	25.783
296.44	25.860
296.81	26.156
297.18	25.745
297.55	25.066
297.91	25.594
298.28	26.640
298.65	24.804
299.02	25.165
299.38	26.693
299.75	23.720
300.12	23.627
300.48	23.000
300.85	23.428
301.22	24.968
301.59	22.727
301.95	25.063
302.32	25.032
302.69	23.178
303.05	23.636
303.42	22.346
303.79	24.236
304.15	21.678
304.52	22.827
304.89	22.880
305.25	24.130
305.62	22.877
305.99	22.786
306.35	22.260
306.72	23.543
307.09	23.418
307.45	23.311
307.82	22.656
308.19	22.185
308.55	23.732
308.92	21.697
309.29	22.386
309.65	21.527
310.02	21.987
310.38	21.720
310.75	22.281
311.12	21.597
311.48	22.466
311.85	23.690
312.22	22.581
312.58	20.478
312.95	21.225
313.31	22.039
313.68	21.830
314.05	24.260
314.41	22.412
314.78	22.558
315.14	23.635
315.51	22.657
315.87	22.772
316.24	22.840
316.61	22.904
316.97	21.135
317.34	21.331
317.70	22.371
318.07	22.233
318.43	24.168
318.80	22.680
319.16	22.976
319.53	22.045
319.89	24.476
320.26	23.800
320.62	23.413
320.99	22.929
321.35	24.343
321.72	26.797
322.08	25.765
322.45	24.975
322.81	25.097
323.18	25.337
323.54	25.788
323.91	26.132
324.27	27.247
324.64	26.934
325.00	25.879
325.37	28.298
325.73	28.366
326.10	26.655
326.46	27.509
326.83	28.818
327.19	28.352
327.56	29.007
327.92	29.834
328.29	29.281
328.65	29.558
329.01	28.520
329.38	29.510
329.74	28.440
330.11	29.406
330.47	30.487
330.84	29.871
331.20	29.872
331.56	31.284
331.93	30.926
332.29	31.588
332.66	30.708
333.02	29.068
333.38	32.340
333.75	31.729
334.11	31.406
334.48	30.967
334.84	31.801
335.20	31.545
335.57	30.462
335.93	32.143
336.29	30.678
336.66	32.191
337.02	32.127
337.38	32.778
337.75	31.729
338.11	31.782
338.47	31.952
338.84	32.906
339.20	32.018
339.56	33.029
339.93	32.000
340.29	32.065
340.65	31.640
341.02	33.857
341.38	33.808
341.74	33.333
342.11	33.100
342.47	33.833
342.83	31.678
343.20	31.688
343.56	31.676
343.92	33.772
344.28	32.653
344.65	33.018
345.01	32.744
345.37	32.333
345.73	32.910
346.10	33.760
346.46	33.305
346.82	33.690
347.19	33.417
347.55	32.759
347.91	34.142
348.27	33.443
348.63	33.278
349.00	32.039
349.36	33.744
349.72	34.643
350.08	32.739
350.45	34.093
350.81	34.037
351.17	33.712
351.53	33.661
351.89	33.333
352.26	34.175
352.62	34.964
352.98	33.468
353.34	33.936
353.70	34.043
354.07	33.145
354.43	33.889
354.79	34.031
355.15	34.318
355.51	34.772
355.87	35.837
356.24	34.691
356.60	32.077
356.96	35.318
357.32	34.505
357.68	35.039
358.04	34.442
358.40	35.075
358.77	34.898
359.13	34.017
359.49	33.882
359.85	34.841
360.21	34.689
360.57	35.409
360.93	34.692
361.29	35.374
361.66	34.365
362.02	35.522
362.38	35.970
362.74	34.598
363.10	34.419
363.46	35.216
363.82	34.996
364.18	36.123
364.54	36.553
364.90	35.411
365.26	35.000
365.62	35.500
365.98	34.551
366.35	34.599
366.71	35.358
367.07	35.178
367.43	35.486
367.79	36.117
368.15	35.920
368.51	35.174
368.87	36.331
369.23	36.138
369.59	36.713
369.95	35.735
370.31	35.613
370.67	34.783
371.03	36.330
371.39	35.131
371.75	35.735
372.11	35.562
372.47	35.924
372.83	35.375
373.19	35.838
373.55	36.955
373.91	37.850
374.27	35.945
374.63	35.418
374.99	36.158
375.35	35.241
375.71	35.230
376.07	36.488
376.42	36.520
376.78	36.382
377.14	36.092
377.50	36.225
377.86	36.503
378.22	35.335
378.58	35.464
378.94	35.449
379.30	36.641
379.66	37.690
380.02	36.241
380.38	36.248
380.74	36.014
381.09	36.002
381.45	37.369
381.81	36.364
382.17	36.051
382.53	36.918
382.89	36.481
383.25	35.647
383.61	36.679
383.97	36.898
384.32	35.808
384.68	36.493
385.04	36.878
385.40	36.718
385.76	36.486
386.12	37.435
386.48	37.948
386.83	36.947
387.19	37.168
387.55	37.229
387.91	37.364
388.27	36.665
388.62	37.062
388.98	36.548
389.34	37.234
389.70	36.726
390.06	36.692
390.42	36.252
390.77	36.514
391.13	38.034
391.49	37.183
391.85	36.474
392.20	36.593
392.56	36.869
392.92	36.963
393.28	36.095
393.64	36.331
393.99	37.080
394.35	37.283
394.71	36.888
395.07	35.639
395.42	38.195
395.78	36.514
396.14	36.747
396.50	37.657
396.85	36.427
397.21	36.683
397.57	37.136
397.92	37.740
398.28	36.155
398.64	36.977
399.00	37.213
399.35	37.451
399.71	36.690
400.07	36.783
400.42	36.810
400.78	35.887
401.14	35.915
401.49	36.239
401.85	35.814
402.21	36.048
402.57	36.521
402.92	36.192
403.28	37.601
403.63	36.448
403.99	36.752
404.35	36.000
404.70	36.151
405.06	36.051
405.42	36.681
405.77	36.400
406.13	35.158
406.49	36.014
406.84	36.326
407.20	35.697
407.55	36.567
407.91	35.800
408.27	36.056
408.62	35.822
408.98	35.846
409.34	36.347
409.69	36.452
410.05	36.493
410.40	36.514
410.76	35.603
411.11	34.801
411.47	35.655
411.83	36.286
412.18	34.385
412.54	35.928
412.89	35.843
413.25	36.068
413.60	35.886
413.96	34.548
414.31	35.601
414.67	36.185
415.03	35.695
415.38	35.631
415.74	35.563
416.09	36.316
416.45	35.207
416.80	36.021
417.16	36.461
417.51	36.496
417.87	35.132
418.22	36.278
418.58	35.249
418.93	34.705
419.29	35.646
419.64	35.390
420.00	34.756
420.35	35.072
420.71	36.402
421.06	35.084
421.42	35.029
421.77	35.370
422.12	34.194
422.48	35.024
422.83	35.119
423.19	35.359
423.54	35.461
423.90	34.203
424.25	35.734
424.61	34.702
424.96	34.985
425.31	33.776
425.67	34.382
426.02	34.114
426.38	35.409
426.73	35.284
427.09	34.043
427.44	35.020
427.79	34.273
428.15	34.583
428.50	34.640
428.85	34.446
429.21	34.843
429.56	34.215
429.92	35.078
430.27	34.409
430.62	33.897
430.98	34.977
431.33	33.969
431.68	35.079
432.04	33.866
432.39	33.067
432.74	33.573
433.10	33.616
433.45	34.169
433.80	33.980
434.16	33.868
434.51	34.842
434.86	33.979
435.22	34.130
435.57	33.799
435.92	33.587
436.28	34.164
436.63	33.664
436.98	33.085
437.34	34.526
437.69	33.897
438.04	33.165
438.39	32.716
438.75	33.701
439.10	33.743
439.45	32.586
439.81	33.474
440.16	33.089
440.51	33.861
440.86	33.700
441.22	33.148
441.57	34.342
441.92	33.316
442.27	34.015
442.63	33.017
442.98	33.408
443.33	32.826
443.68	32.989
444.03	33.187
444.39	32.522
444.74	33.658
445.09	32.237
445.44	32.805
445.79	31.766
446.15	32.345
446.50	31.987
446.85	32.991
447.20	31.820
447.55	33.333
447.91	32.984
448.26	32.332
448.61	32.900
448.96	32.337
449.31	32.508
449.66	32.302
450.02	32.423
450.37	32.143
450.72	32.487
451.07	32.358
451.42	31.611
451.77	31.474
452.12	31.928
452.47	31.965
452.83	31.643
453.18	31.540
453.53	33.024
453.88	31.896
454.23	31.739
454.58	32.223
454.93	33.185
455.28	31.047
455.63	32.100
455.98	32.381
456.34	31.407
456.69	31.497
457.04	32.198
457.39	31.034
457.74	31.863
458.09	31.570
458.44	32.383
458.79	30.694
459.14	31.490
459.49	31.816
459.84	31.080
460.19	30.996
460.54	30.208
460.89	31.267
461.24	31.087
461.59	31.319
461.94	30.271
462.29	31.395
462.64	29.164
462.99	29.538
463.34	31.133
463.69	31.144
464.04	30.203
464.39	30.783
464.74	30.957
465.09	29.071
465.44	31.080
465.79	30.984
466.14	30.487
466.49	30.534
466.84	30.356
467.19	30.658
467.54	29.937
467.89	29.112
468.24	29.552
468.59	29.915
468.94	28.650
469.29	29.563
469.64	30.388
469.99	29.364
470.34	28.203
470.68	29.741
471.03	28.912
471.38	28.353
471.73	29.380
472.08	30.132
472.43	28.957
472.78	28.308
473.13	28.626
473.48	29.089
473.83	28.598
474.17	28.625
474.52	28.784
474.87	28.955
475.22	29.019
475.57	28.587
475.92	28.147
476.27	29.651
476.61	28.627
476.96	28.312
477.31	27.420
477.66	28.501
478.01	27.705
478.36	28.080
478.70	27.155
479.05	28.062
479.40	27.840
479.75	27.961
480.10	27.187
480.45	27.558
480.79	27.807
481.14	27.935
481.49	28.477
481.84	27.389
482.19	28.214
482.53	27.385
482.88	27.268
483.23	27.009
483.58	26.888
483.92	27.648
484.27	27.102
484.62	26.983
484.97	27.395
485.31	27.637
485.66	28.589
486.01	29.108
486.36	29.230
486.70	28.898
487.05	28.439
487.40	27.554
487.75	26.917
488.09	26.297
488.44	25.684
488.79	26.148
489.13	26.241
489.48	25.653
489.83	25.680
490.17	25.997
490.52	25.686
490.87	25.645
491.22	25.375
491.56	25.695
491.91	25.919
492.26	25.264
492.60	25.530
492.95	25.257
493.30	25.000
493.64	25.805
493.99	24.698
494.34	26.411
494.68	25.916
495.03	25.658
495.37	25.593
495.72	25.780
496.07	25.568
496.41	25.177
496.76	25.330
497.11	25.169
497.45	25.664
497.80	25.528
498.14	24.541
498.49	24.195
498.84	25.216
499.18	24.905
499.53	24.929
499.87	24.278
500.22	24.494
500.56	25.534
500.91	24.519
501.26	25.367
501.60	24.775
501.95	24.335
502.29	25.117
502.64	25.000
502.98	25.058
503.33	23.995
503.67	24.640
504.02	24.602
504.36	24.567
504.71	24.084
505.06	24.386
505.40	24.161
505.75	23.288
506.09	24.344
506.44	23.878
506.78	24.208
507.13	24.281
507.47	23.636
507.82	24.012
508.16	23.961
508.51	23.186
508.85	23.237
509.19	23.061
509.54	23.418
509.88	22.617
510.23	22.674
510.57	24.252
510.92	23.408
511.26	22.816
511.61	22.977
511.95	22.077
512.30	22.481
512.64	24.127
512.98	22.990
513.33	22.752
513.67	22.412
514.02	22.890
514.36	23.157
514.70	22.856
515.05	22.644
515.39	22.434
515.74	22.466
516.08	22.191
516.42	23.141
516.77	23.300
517.11	22.420
517.46	22.404
517.80	22.938
518.14	21.772
518.49	21.995
518.83	22.045
519.17	22.402
519.52	22.071
519.86	22.590
520.20	21.965
520.55	21.544
520.89	22.384
521.23	21.773
521.58	21.309
521.92	22.719
522.26	21.721
522.61	21.682
522.95	20.872
523.29	20.937
523.64	21.646
523.98	21.935
524.32	21.472
524.66	21.587
525.01	21.691
525.35	21.871
525.69	21.059
526.04	22.243
526.38	21.477
526.72	21.350
527.06	21.030
527.41	20.916
527.75	21.479
528.09	21.773
528.43	21.415
528.78	21.819
529.12	21.394
529.46	21.923
529.80	21.906
530.15	22.056
530.49	20.554
530.83	20.316
531.17	21.018
531.51	21.790
531.86	21.161
532.20	21.382
532.54	21.332
532.88	21.309
533.22	20.675
533.57	21.667
533.91	20.710
534.25	21.081
534.59	21.049
534.93	21.416
535.27	21.002
535.62	21.551
535.96	21.846
536.30	20.852
536.64	20.412
536.98	20.571
537.32	20.145
537.66	21.400
538.01	21.001
538.35	20.297
538.69	21.378
539.03	20.078
539.37	20.447
539.71	19.702
540.05	20.980
540.39	20.532
540.73	20.763
541.07	21.025
541.42	21.983
541.76	22.129
542.10	20.893
542.44	21.126
542.78	21.673
543.12	20.090
543.46	21.902
543.80	21.405
544.14	20.347
544.48	21.079
544.82	20.975
545.16	21.015
545.50	19.923
545.84	20.699
546.18	20.269
546.52	20.440
546.86	19.931
547.20	19.892
547.54	21.242
547.88	21.365
548.22	21.171
548.56	20.943
548.90	19.846
549.24	19.663
549.58	20.737
549.92	20.192
550.26	19.815
550.60	18.880
550.94	19.718
551.28	18.947
551.62	19.626
551.96	20.351
552.30	20.478
552.64	21.366
552.98	20.610
553.32	20.904
553.66	20.995
554.00	20.247
554.34	19.669
554.68	20.243
555.02	20.310
555.36	20.320
555.69	18.945
556.03	19.717
556.37	20.055
556.71	19.304
557.05	19.678
557.39	19.944
557.73	18.843
558.07	19.942
558.41	19.465
558.75	19.471
559.08	19.761
559.42	19.501
559.76	19.485
560.10	18.986
560.44	20.405
560.78	19.760
561.12	20.383
561.45	20.665
561.79	19.644
562.13	20.054
562.47	20.014
562.81	19.944
563.15	19.599
563.48	19.297
563.82	19.569
564.16	21.060
564.50	20.182
564.84	19.153
565.17	18.662
565.51	19.042
565.85	20.241
566.19	20.100
566.52	20.646
566.86	19.048
567.20	20.283
567.54	20.434
567.88	20.967
568.21	21.746
568.55	20.627
568.89	21.012
569.23	21.435
569.56	20.972
569.90	21.472
570.24	21.457
570.57	21.727
570.91	21.784
571.25	21.834
571.59	21.591
571.92	21.918
572.26	21.490
572.60	21.411
572.93	20.780
573.27	21.236
573.61	21.887
573.95	22.093
574.28	21.834
574.62	21.914
574.96	21.697
575.29	21.193
575.63	21.291
575.97	20.854
576.30	20.791
576.64	21.481
576.98	21.001
577.31	21.580
577.65	21.694
577.98	22.075
578.32	21.525
578.66	22.432
578.99	21.502
579.33	21.448
579.67	20.530
580.00	20.619
580.34	21.025
580.67	20.539
581.01	21.700
581.35	21.661
581.68	21.871
582.02	22.092
582.35	22.206
582.69	21.868
583.02	21.176
583.36	21.028
583.70	20.679
584.03	20.141
584.37	20.922
584.70	20.376
585.04	21.013
585.37	21.226
585.71	21.687
586.04	21.020
586.38	20.951
586.72	21.182
587.05	21.054
587.39	20.792
587.72	21.360
588.06	20.411
588.39	20.439
588.73	20.387
589.06	20.567
589.40	19.764
589.73	20.310
590.07	20.534
590.40	19.985
590.73	20.180
591.07	20.024
591.40	20.202
591.74	20.606
592.07	19.983
592.41	20.256
592.74	20.262
593.08	21.286
593.41	21.449
593.75	20.956
594.08	21.187
594.41	20.643
594.75	20.444
595.08	20.974
595.42	20.525
595.75	20.584
596.09	20.353
596.42	19.568
596.75	19.840
597.09	20.173
597.42	19.477
597.75	20.009
598.09	20.217
598.42	20.232
598.76	19.660
599.09	20.715
599.42	20.051
599.76	20.791
600.09	20.109
600.42	20.343
600.76	20.036
601.09	20.109
601.42	20.320
601.76	19.886
602.09	20.040
602.42	20.382
602.76	20.274
603.09	20.456
603.42	20.187
603.76	20.198
604.09	19.620
604.42	19.731
604.76	19.739
605.09	19.834
605.42	18.683
605.75	19.702
606.09	20.211
606.42	20.065
606.75	20.075
607.09	20.176
607.42	19.255
607.75	18.987
608.08	19.192
608.42	19.767
608.75	19.297
609.08	19.010
609.41	18.753
609.75	18.914
610.08	20.123
610.41	18.669
610.74	20.057
611.07	18.874
611.41	19.725
611.74	19.356
612.07	19.462
612.40	19.780
612.73	19.526
613.07	20.259
613.40	19.537
613.73	18.773
614.06	19.355
614.39	19.664
614.72	19.053
615.06	19.590
615.39	18.949
615.72	19.325
616.05	18.926
616.38	19.566
616.71	18.705
617.05	19.022
617.38	18.581
617.71	19.039
618.04	19.892
618.37	18.746
618.70	19.415
619.03	18.684
619.36	18.534
619.69	18.310
620.03	19.437
620.36	19.118
620.69	18.767
621.02	18.363
621.35	17.228
621.68	17.835
622.01	17.957
622.34	17.852
622.67	18.023
623.00	17.168
623.33	17.870
623.66	18.942
623.99	18.925
624.32	18.046
624.65	18.432
624.99	17.847
625.32	17.451
625.65	18.182
625.98	19.139
626.31	17.807
626.64	17.959
626.97	17.373
627.30	16.958
627.63	19.524
627.96	18.671
628.29	16.710
628.62	17.383
628.95	18.019
629.28	18.157
629.61	18.790
629.94	19.333
630.26	16.873
630.59	17.255
630.92	17.816
631.25	17.374
631.58	16.016
631.91	16.430
632.24	18.143
632.57	16.579
632.90	17.654
633.23	17.002
633.56	16.836
633.89	17.441
634.22	17.140
634.55	17.396
634.88	15.689
635.20	18.160
635.53	18.554
635.86	17.450
636.19	16.941
636.52	17.186
636.85	17.182
637.18	15.207
637.51	18.322
637.83	14.673
638.16	16.880
638.49	16.751
638.82	17.193
639.15	17.125
639.48	18.204
639.81	18.365
640.13	18.229
640.46	17.181
640.79	17.173
641.12	15.406
641.45	15.642
641.77	17.673
642.10	18.275
642.43	14.414
642.76	14.861
643.09	16.564
643.41	15.023
643.74	18.056
644.07	17.683
644.40	17.331
644.73	18.583
645.05	16.640
645.38	17.062
645.71	18.357
646.04	16.445
646.36	17.028
646.69	17.559
647.02	17.347
647.35	17.182
647.67	15.398
648.00	17.073
648.33	17.657
648.66	16.212
648.98	16.792
649.31	15.994
649.64	16.293
649.96	18.182
650.29	16.272
650.62	17.314
650.94	16.694
651.27	17.399
651.60	18.136
651.92	17.093
652.25	15.309
652.58	17.290
652.90	18.483
653.23	18.182
653.56	15.433
653.88	18.700
654.21	18.957
654.54	17.822
654.86	18.224
655.19	18.378
655.52	19.247
655.84	21.973
656.17	27.698
656.49	35.800
656.82	33.823
657.15	23.864
657.47	16.904
657.80	11.926
658.13	11.393
658.45	16.489
658.78	15.440
659.10	15.011
659.43	14.942
659.75	15.364
660.08	14.684
660.41	14.246
660.73	15.121
661.06	15.764
661.38	16.727
661.71	15.962
662.03	18.935
662.36	17.694
662.68	17.269
663.01	18.586
663.33	15.499
663.66	18.067
663.98	16.415
664.31	16.387
664.63	15.789
664.96	17.907
665.28	19.467
665.61	18.519
665.93	17.304
666.26	15.822
666.58	17.782
666.91	18.393
667.23	17.753
667.56	17.063
667.88	17.521
668.21	17.697
668.53	17.137
668.86	16.450
669.18	18.550
669.50	17.391
669.83	20.261
670.15	16.667
670.48	17.211
670.80	15.948
671.13	17.834
671.45	16.596
671.77	21.181
672.10	19.593
672.42	17.845
672.75	19.237
673.07	20.070
673.39	16.456
673.72	16.797
674.04	18.039
674.37	16.505
674.69	15.542
675.01	16.736
675.34	17.043
675.66	18.737
675.98	18.941
676.31	16.387
676.63	18.047
676.95	17.820
677.28	16.589
677.60	17.802
677.92	17.300
678.25	18.686
678.57	16.932
678.89	16.834
679.22	17.682
679.54	17.557
679.86	19.817
680.18	18.426
680.51	16.135
680.83	19.039
681.15	20.000
681.48	19.093
681.80	17.795
682.12	17.816
682.44	17.602
682.77	18.126
683.09	19.957
683.41	18.182
683.73	19.647
684.06	18.388
684.38	17.221
684.70	17.054
685.02	19.137
685.34	20.879
685.67	17.483
685.99	17.526
686.31	18.430
686.63	18.021
686.96	18.571
687.28	17.329
687.60	16.486
687.92	19.927
688.24	16.350
688.56	18.474
688.89	17.842
689.21	18.341
689.53	16.910
689.85	20.843
690.17	15.528
690.49	19.958
690.82	20.561
691.14	16.295
691.46	18.143
691.78	19.277
692.10	22.107
692.42	18.762
692.74	18.672
693.06	20.213
693.39	19.918
693.71	19.869
694.03	17.895
694.35	15.801
694.67	17.620
694.99	20.000
695.31	18.137
695.63	17.464
695.95	20.538
696.27	15.482
696.59	20.466
696.91	19.689
697.23	16.432
697.56	20.682
697.88	16.564
698.20	17.292
698.52	18.710
698.84	19.599
699.16	18.203
699.48	18.052
699.80	19.565
700.12	22.338
700.44	19.098
700.76	20.994
701.08	17.241
701.40	20.391
701.72	18.950
702.04	26.420
702.36	18.130
702.68	20.963
703.00	22.992
703.32	18.617
703.64	20.643
703.96	20.613
704.28	16.570
704.60	22.581
704.91	17.804
705.23	23.167
705.55	17.940
705.87	24.585
706.19	15.901
706.51	21.184
706.83	24.545
707.15	23.249
707.47	21.212
707.79	21.376
708.11	18.950
708.43	21.905
708.74	18.367
709.06	20.000
709.38	19.423
709.70	18.605
710.02	19.585
710.34	19.394
710.66	22.388
710.98	21.307
711.29	21.221
711.61	22.124
711.93	16.987
712.25	20.900
712.57	22.059
712.89	22.837
713.20	21.277
713.52	24.013
713.84	21.835
714.16	18.902
714.48	20.402
714.80	27.356
715.11	23.631
715.43	22.255
715.75	17.971
716.07	21.725
716.39	18.809
716.70	18.937
717.02	20.144
717.34	21.908
717.66	23.134
717.97	23.506
718.29	21.481
718.61	23.358
718.93	21.324
719.24	22.145
719.56	19.661
719.88	20.000
720.20	21.622
720.51	22.997
720.83	26.022
721.15	22.388
721.46	21.277
721.78	24.373
722.10	21.509
722.42	20.301
722.73	22.472
723.05	22.131
723.37	22.267
723.68	21.622
724.00	20.732
724.32	20.161
724.63	22.358
724.95	23.849
725.27	22.672
725.58	20.703
725.90	29.927
726.22	25.283
726.53	24.306
726.85	24.232
727.16	24.199
727.48	23.404
727.80	21.970
728.11	24.638
728.43	21.923
728.74	23.297
729.06	23.723
729.38	26.471
729.69	27.046
730.01	21.160
730.32	23.958
730.64	21.739
730.96	19.802
731.27	22.185
731.59	25.688
731.90	26.239
732.22	19.565
732.53	22.291
732.85	21.154
733.16	22.508
733.48	22.591
733.80	22.403
734.11	25.478
734.43	24.556
734.74	23.143
735.06	20.630
735.37	26.301
735.69	19.427
736.00	24.837
736.32	26.168
736.63	21.406
736.95	23.323
737.26	21.088
737.58	22.258
737.89	23.411
738.21	27.645
738.52	23.571
738.83	21.509
739.15	21.538
739.46	24.453
739.78	22.222
740.09	23.077
740.41	26.774
740.72	19.512
741.04	26.667
741.35	20.000
741.66	29.333
741.98	20.283
742.29	25.837
742.61	28.448
742.92	22.172
743.23	25.214
743.55	27.200
743.86	22.807
744.18	25.664
744.49	23.445
744.80	28.638
745.12	25.455
745.43	26.872
745.74	27.027
746.06	25.229
746.37	28.251
746.68	23.077
747.00	25.463
747.31	25.238
747.62	22.566
747.94	26.872
748.25	23.830
748.56	23.348
748.88	17.822
749.19	25.500
749.50	21.395
749.82	28.862
750.13	26.122
750.44	24.088
750.75	24.561
751.07	26.045
751.38	25.436
751.69	26.715
752.01	21.053
752.32	24.549
752.63	24.468
752.94	22.131
753.26	28.800
753.57	21.138
753.88	25.000
754.19	24.286
754.51	26.389
754.82	19.134
755.13	21.132
755.44	24.436
755.75	23.358
756.07	23.404
756.38	26.277
756.69	22.483
757.00	28.144
757.31	24.332
757.63	21.930
757.94	23.056
758.25	24.510
758.56	23.951
758.87	20.161
759.18	23.333
759.50	24.138
759.81	24.299
760.12	21.562
760.43	23.782
760.74	20.924
761.05	24.576
761.36	23.262
761.67	23.864
761.99	22.360
762.30	25.694
762.61	27.099
762.92	25.781
763.23	26.471
763.54	27.600
763.85	21.875
764.16	24.231
764.47	28.897
764.78	25.088
765.10	25.000
765.41	27.434
765.72	23.952
766.03	26.646
766.34	21.000
766.65	28.936
766.96	21.368
767.27	27.411
767.58	33.854
767.89	29.474
768.20	29.885
768.51	31.472
768.82	29.358
769.13	25.203
769.44	26.721
769.75	28.326
770.06	21.101
770.37	24.887
770.68	28.704
770.99	24.889
771.30	27.459
771.61	26.906
771.92	28.279
772.23	31.092
772.54	22.051
772.85	31.414
773.16	32.979
773.47	33.152
773.78	31.472
774.09	24.405
774.39	32.749
774.70	33.333
775.01	28.261
775.32	37.255
775.63	32.237
775.94	26.619
776.25	38.583
776.56	37.313
776.87	34.426
777.18	32.031
777.48	36.641
777.79	37.879
778.10	32.593
778.41	35.714
778.72	24.818
779.03	34.228
779.34	30.872
779.65	27.027
779.95	30.061
780.26	30.065
780.57	35.172
780.88	41.406
781.19	32.331
781.50	43.919
781.80	31.447
782.11	33.333
782.42	31.013
782.73	27.607
783.04	30.405
783.34	38.732
783.65	40.411
783.96	38.060
784.27	32.867
784.57	30.935
784.88	28.704
785.19	38.889
785.50	45.283
785.81	36.567
786.11	33.607
786.42	44.186
786.73	40.708
787.04	35.849
787.34	37.500
787.65	40.000
787.96	36.937
788.26	35.537
788.57	54.237
788.88	45.455
789.19	40.972
789.49	39.394
789.80	35.115
790.11	47.619
790.41	49.505
790.72	37.349
791.03	39.130
791.33	29.070
791.64	32.990
791.95	45.545
792.25	57.778
792.56	50.649
792.87	52.564
793.17	55.696
793.48	42.529
793.79	45.977
794.09	47.727
794.40	47.899
794.70	44.853
795.01	39.259
795.32	36.691
795.62	37.795
795.93	28.448
796.23	40.708
796.54	40.000
796.85	44.595
797.15	54.930
797.46	45.455
797.76	57.831
798.07	44.304
798.37	50.769
798.68	45.455
798.99	32.394
799.29	42.857
799.60	53.409
799.90	56.164
800.21	56.716
800.51	50.000
800.82	64.912
801.12	60.656
801.43	56.061
801.73	43.243
802.04	61.905
802.34	58.025
802.65	53.125
802.95	54.237
803.26	82.813
803.56	52.857
803.87	47.692
804.17	61.765
804.48	77.778
804.78	53.448
805.09	58.824
805.39	59.615
805.70	57.143
806.00	63.934
806.30	42.424
806.61	52.439
806.91	40.506
807.22	46.053
807.52	46.269
807.83	49.296
808.13	48.438
808.43	68.333
808.74	39.474
809.04	65.217
809.35	67.164
809.65	51.316
809.95	59.677
810.26	52.542
810.56	58.730
810.86	72.727
811.17	88.095
811.47	80.000
811.77	50.000
812.08	72.727
812.38	62.000
812.69	44.444
812.99	115.909
813.29	75.510
813.59	61.905
813.90	65.306
814.20	56.364
814.50	70.769
814.81	70.588
815.11	73.469
815.41	72.131
815.72	80.952
816.02	80.000
816.32	69.048
816.62	75.000
816.93	104.878
817.23	73.810
817.53	70.455
817.84	84.848
818.14	78.261
818.44	66.667
818.74	97.059
819.04	55.000
819.35	60.000
819.65	111.765
819.95	96.429
820.25	85.000
820.56	92.308
820.86	72.727
821.16	90.698
821.46	123.077
821.76	88.000
822.07	102.857
822.37	90.000
822.67	100.000
822.97	74.510
823.27	110.714
823.57	91.892
823.88	85.000
824.18	113.333
824.48	88.095
824.78	92.000
825.08	129.167
825.38	72.973
825.69	68.293
825.99	129.167
826.29	65.517
826.59	121.053
826.89	68.421
827.19	135.294
827.49	87.097
827.79	90.909
828.09	100.000
828.39	61.702
828.70	75.510
829.00	70.370
829.30	87.097
829.60	77.500
829.90	86.667
830.20	135.714
830.50	121.739
830.80	121.739
831.10	106.667
831.40	103.333
831.70	130.435
832.00	111.538
832.30	137.037
832.60	143.750
832.90	100.000
833.20	221.429
833.50	109.677
833.80	124.138
834.10	125.000
834.40	188.462
834.70	166.667
835.00	195.238
835.30	80.000
835.60	153.846
835.90	82.759
836.20	178.571
836.50	134.483
836.80	112.000
837.10	108.333
837.40	138.095
837.70	182.353
838.00	129.630
838.30	123.810
838.60	176.190
838.90	157.692
839.19	150.000
839.49	264.286
839.79	165.000
840.09	125.000
840.39	190.476
840.69	143.478
840.99	172.222
841.29	210.000
841.59	116.667
841.88	218.750
842.18	120.690
842.48	176.190
842.78	113.333
843.08	126.087
843.38	68.750
843.68	300.000
843.97	107.692
844.27	93.103
844.57	128.571
844.87	218.750
845.17	114.815
845.47	466.667
845.76	288.889
846.06	182.353
846.36	262.500
846.66	185.714
846.96	212.500
847.25	281.818
847.55	209.091
847.85	147.826
848.15	240.000
848.44	164.286
848.74	127.778
849.04	141.176
849.34	220.000
849.63	152.632
849.93	254.545
850.23	680.000
850.53	271.429
850.82	1000.000
851.12	-2400.000
851.42	2700.000
851.71	105.000
852.01	-433.333
852.31	183.333
852.61	733.333
852.90	157.143
853.20	116.000
853.50	164.706
853.79	128.571
854.09	145.833
854.39	268.750
854.68	113.514
854.98	109.677
855.28	100.000
855.57	137.931
855.87	125.926
856.17	131.579
856.46	113.333
856.76	129.412
857.05	134.483
857.35	141.667
857.65	160.000
857.94	173.913
858.24	173.077
858.53	155.000
858.83	195.455
859.13	206.667
859.42	0.000
859.72	344.444
860.01	263.636
860.31	113.636
860.60	131.579
860.90	143.478
861.20	266.667
861.49	308.333
861.79	-2500.000
862.08	400.000
862.38	171.429
862.67	215.385
862.97	200.000
863.26	388.889
863.56	166.667
863.85	250.000
864.15	487.500
864.44	266.667
864.74	433.333
865.03	350.000
865.33	157.895
865.62	254.545
865.92	315.385
866.21	241.667
866.51	0.000
866.80	245.455
867.10	560.000
867.39	292.308
867.69	290.909
867.98	194.737
868.27	236.364
868.57	142.105
868.86	-2900.000
869.16	193.750
869.45	1150.000
869.75	-1600.000
870.04	191.667
870.33	342.857
870.63	450.000
870.92	1450.000
871.22	428.571
871.51	223.529
871.80	152.381
872.10	221.429
>>>>>End Processed Spectral Data<<<<<
