SpectraSuite Data File
++++++++++++++++++++++++++++++++++++
Date: Wed May 13 20:47:10 PDT 2015
User: schluterlab
Dark Spectrum Present: Yes
Reference Spectrum Present: Yes
Number of Sampled Component Spectra: 1
Spectrometers: USB2E3373
Integration Time (usec): 3000 (USB2E3373)
Spectra Averaged: 3 (USB2E3373)
Boxcar Smoothing: 0 (USB2E3373)
Correct for Electrical Dark: No (USB2E3373)
Strobe/Lamp Enabled: No (USB2E3373)
Correct for Detector Non-linearity: No (USB2E3373)
Correct for Stray Light: No (USB2E3373)
Number of Pixels in Processed Spectrum: 2048
>>>>>Begin Processed Spectral Data<<<<<
178.53	0.000
178.91	-750.000
179.29	-850.000
179.67	-88.889
180.04	-700.000
180.42	1300.000
180.80	720.000
181.18	-625.000
181.56	514.286
181.94	0.000
182.31	-357.143
182.69	933.333
183.07	-250.000
183.45	-277.778
183.83	263.636
184.20	-190.000
184.58	1200.000
184.96	3300.000
185.34	-540.000
185.72	-350.000
186.09	-1650.000
186.47	1850.000
186.85	1500.000
187.23	3600.000
187.61	-1100.000
187.98	875.000
188.36	363.636
188.74	363.636
189.12	-560.000
189.49	340.000
189.87	-2200.000
190.25	-725.000
190.63	271.429
191.00	307.692
191.38	466.667
191.76	-550.000
192.14	875.000
192.51	337.500
192.89	516.667
193.27	300.000
193.65	-700.000
194.02	270.000
194.40	460.000
194.78	430.000
195.15	383.333
195.53	470.000
195.91	-800.000
196.29	212.500
196.66	221.053
197.04	-110.000
197.42	0.000
197.79	340.000
198.17	-2700.000
198.55	314.286
198.92	500.000
199.30	400.000
199.68	0.000
200.05	244.444
200.43	500.000
200.81	1900.000
201.18	933.333
201.56	-900.000
201.94	344.444
202.31	355.556
202.69	275.000
203.07	310.000
203.44	0.000
203.82	550.000
204.19	585.714
204.57	271.429
204.95	312.500
205.32	866.667
205.70	245.455
206.08	250.000
206.45	1150.000
206.83	262.500
207.20	416.667
207.58	400.000
207.96	227.778
208.33	525.000
208.71	-450.000
209.08	385.714
209.46	300.000
209.84	345.455
210.21	-600.000
210.59	1000.000
210.96	-187.500
211.34	1250.000
211.71	360.000
212.09	416.667
212.46	0.000
212.84	766.667
213.22	725.000
213.59	-2800.000
213.97	566.667
214.34	414.286
214.72	409.091
215.09	560.000
215.47	-1100.000
215.84	-1650.000
216.22	1066.667
216.59	257.143
216.97	675.000
217.34	281.818
217.72	-250.000
218.09	0.000
218.47	-2700.000
218.84	388.889
219.22	400.000
219.59	866.667
219.97	-257.143
220.34	400.000
220.72	-733.333
221.09	300.000
221.47	825.000
221.84	-500.000
222.22	0.000
222.59	925.000
222.97	-1400.000
223.34	760.000
223.72	246.154
224.09	640.000
224.46	1000.000
224.84	-2500.000
225.21	-600.000
225.59	-4100.000
225.96	420.000
226.34	180.000
226.71	1400.000
227.08	387.500
227.46	300.000
227.83	-400.000
228.21	-1350.000
228.58	411.111
228.95	-1250.000
229.33	-1750.000
229.70	1066.667
230.08	600.000
230.45	-440.000
230.82	308.333
231.20	550.000
231.57	342.857
231.95	358.333
232.32	145.455
232.69	300.000
233.07	314.286
233.44	161.538
233.81	-966.667
234.19	194.737
234.56	275.000
234.93	241.667
235.31	309.091
235.68	123.077
236.05	185.714
236.43	109.091
236.80	131.579
237.17	900.000
237.55	123.810
237.92	150.000
238.29	166.667
238.67	129.032
239.04	124.138
239.41	80.556
239.79	65.217
240.16	92.857
240.53	102.273
240.91	56.863
241.28	78.000
241.65	74.000
242.02	81.159
242.40	70.968
242.77	66.667
243.14	65.591
243.51	68.539
243.89	48.235
244.26	51.111
244.63	59.140
245.00	60.638
245.38	48.515
245.75	53.271
246.12	55.963
246.49	49.635
246.87	50.400
247.24	47.692
247.61	45.000
247.98	45.752
248.36	41.216
248.73	44.586
249.10	42.675
249.47	46.328
249.84	41.711
250.22	45.989
250.59	42.012
250.96	49.495
251.33	38.863
251.70	40.099
252.08	40.952
252.45	35.426
252.82	39.565
253.19	40.426
253.56	36.078
253.94	42.324
254.31	41.406
254.68	39.231
255.05	35.424
255.42	36.585
255.79	40.441
256.16	37.184
256.54	33.922
256.91	39.858
257.28	37.410
257.65	38.284
258.02	39.130
258.39	33.438
258.76	36.120
259.14	36.310
259.51	35.258
259.88	31.988
260.25	35.045
260.62	32.659
260.99	35.404
261.36	36.036
261.73	37.249
262.10	31.395
262.47	37.465
262.85	35.655
263.22	31.624
263.59	37.607
263.96	36.538
264.33	34.204
264.70	35.526
265.07	38.363
265.44	34.848
265.81	31.144
266.18	34.925
266.55	31.951
266.92	34.889
267.29	35.880
267.66	31.193
268.03	32.500
268.40	33.411
268.77	31.026
269.14	31.982
269.51	35.666
269.88	35.431
270.25	32.506
270.62	32.809
270.99	34.839
271.36	30.901
271.73	31.542
272.10	33.261
272.47	35.484
272.84	31.169
273.21	33.333
273.58	31.441
273.95	32.075
274.32	32.231
274.69	33.191
275.06	29.724
275.43	33.830
275.80	31.864
276.17	30.550
276.54	32.432
276.91	31.028
277.28	31.641
277.65	31.528
278.02	28.571
278.39	33.203
278.76	30.182
279.13	31.698
279.50	30.354
279.87	31.873
280.23	31.337
280.60	29.981
280.97	30.499
281.34	31.504
281.71	31.091
282.08	31.862
282.45	30.364
282.82	29.307
283.19	28.520
283.56	27.544
283.92	30.964
284.29	30.335
284.66	29.583
285.03	30.922
285.40	30.458
285.77	29.293
286.14	28.497
286.51	30.167
286.87	31.453
287.24	32.085
287.61	28.411
287.98	29.058
288.35	28.368
288.72	26.791
289.08	29.108
289.45	28.336
289.82	27.317
290.19	27.159
290.56	27.718
290.93	25.076
291.29	26.380
291.66	26.254
292.03	28.634
292.40	26.432
292.77	26.627
293.13	25.970
293.50	26.531
293.87	25.778
294.24	24.296
294.60	22.562
294.97	25.727
295.34	26.375
295.71	25.000
296.08	23.932
296.44	25.309
296.81	23.646
297.18	26.423
297.55	22.427
297.91	23.747
298.28	25.837
298.65	24.674
299.02	25.165
299.38	24.436
299.75	21.968
300.12	22.350
300.48	22.875
300.85	21.948
301.22	23.567
301.59	21.970
301.95	22.418
302.32	22.336
302.69	22.581
303.05	21.576
303.42	20.864
303.79	22.877
304.15	20.396
304.52	20.973
304.89	22.416
305.25	21.346
305.62	22.877
305.99	21.960
306.35	21.700
306.72	23.094
307.09	22.863
307.45	21.847
307.82	20.312
308.19	23.289
308.55	22.654
308.92	21.267
309.29	21.014
309.65	20.785
310.02	21.670
310.38	21.398
310.75	21.331
311.12	21.392
311.48	22.884
311.85	21.698
312.22	21.644
312.58	21.206
312.95	21.859
313.31	21.456
313.68	21.830
314.05	24.556
314.41	22.714
314.78	22.558
315.14	22.542
315.51	22.657
315.87	24.257
316.24	22.939
316.61	22.320
316.97	23.483
317.34	23.581
317.70	24.283
318.07	25.120
318.43	25.538
318.80	25.679
319.16	25.800
319.53	26.454
319.89	26.381
320.26	29.100
320.62	26.389
320.99	28.990
321.35	28.788
321.72	28.953
322.08	29.220
322.45	30.249
322.81	30.039
323.18	31.503
323.54	32.468
323.91	32.075
324.27	34.417
324.64	34.576
325.00	35.257
325.37	35.760
325.73	36.894
326.10	37.158
326.46	38.441
326.83	40.121
327.19	40.393
327.56	40.070
327.92	42.957
328.29	44.632
328.65	45.120
329.01	42.870
329.38	43.571
329.74	44.783
330.11	46.089
330.47	47.291
330.84	46.140
331.20	46.448
331.56	48.257
331.93	47.778
332.29	48.713
332.66	48.496
333.02	48.995
333.38	49.955
333.75	51.515
334.11	50.623
334.48	50.754
334.84	50.827
335.20	53.182
335.57	52.403
335.93	50.089
336.29	53.846
336.66	54.824
337.02	52.489
337.38	54.722
337.75	53.387
338.11	53.268
338.47	55.801
338.84	54.629
339.20	55.872
339.56	57.482
339.93	56.364
340.29	55.435
340.65	56.684
341.02	57.504
341.38	57.028
341.74	57.018
342.11	59.563
342.47	60.088
342.83	57.534
343.20	59.654
343.56	58.888
343.92	59.474
344.28	61.395
344.65	62.081
345.01	58.502
345.37	59.005
345.73	59.983
346.10	60.699
346.46	60.085
346.82	60.544
347.19	61.153
347.55	60.099
347.91	61.327
348.27	62.695
348.63	62.876
349.00	61.731
349.36	62.644
349.72	62.149
350.08	61.345
350.45	62.897
350.81	62.226
351.17	61.183
351.53	63.554
351.89	61.469
352.26	62.273
352.62	62.390
352.98	62.237
353.34	63.763
353.70	62.111
354.07	62.661
354.43	62.222
354.79	62.671
355.15	63.607
355.51	65.228
355.87	64.327
356.24	64.984
356.60	62.871
356.96	64.441
357.32	64.922
357.68	63.780
358.04	63.737
358.40	64.925
358.77	63.928
359.13	63.062
359.49	65.020
359.85	64.603
360.21	65.391
360.57	64.280
360.93	64.923
361.29	64.248
361.66	63.467
362.02	63.060
362.38	64.487
362.74	63.542
363.10	64.397
363.46	63.316
363.82	64.097
364.18	62.702
364.54	64.487
364.90	64.306
365.26	64.853
365.62	64.207
365.98	63.550
366.35	63.324
366.71	63.485
367.07	64.093
367.43	66.110
367.79	64.668
368.15	65.445
368.51	63.881
368.87	65.096
369.23	65.033
369.59	66.546
369.95	64.485
370.31	65.028
370.67	63.478
371.03	66.217
371.39	65.160
371.75	64.706
372.11	63.727
372.47	64.809
372.83	66.571
373.19	65.173
373.55	66.371
373.91	65.538
374.27	63.436
374.63	65.091
374.99	65.537
375.35	64.131
375.71	64.085
376.07	64.060
376.42	65.268
376.78	66.203
377.14	64.925
377.50	65.960
377.86	64.029
378.22	64.223
378.58	63.409
378.94	63.796
379.30	65.649
379.66	64.404
380.02	65.111
380.38	64.056
380.74	63.926
381.09	64.792
381.45	65.519
381.81	64.926
382.17	66.178
382.53	65.031
382.89	66.111
383.25	64.728
383.61	66.171
383.97	64.415
384.32	64.192
384.68	65.613
385.04	64.352
385.40	64.582
385.76	65.233
386.12	65.026
386.48	65.009
386.83	66.325
387.19	66.790
387.55	64.873
387.91	64.692
388.27	63.826
388.62	64.167
388.98	65.233
389.34	65.144
389.70	64.010
390.06	65.019
390.42	65.240
390.77	63.168
391.13	66.496
391.49	65.102
391.85	64.609
392.20	64.101
392.56	64.836
392.92	65.509
393.28	65.385
393.64	64.089
393.99	64.508
394.35	63.896
394.71	64.178
395.07	63.925
395.42	65.822
395.78	63.232
396.14	64.308
396.50	65.100
396.85	64.463
397.21	63.687
397.57	65.220
397.92	64.844
398.28	63.845
398.64	63.560
399.00	64.745
399.35	64.467
399.71	63.715
400.07	63.217
400.42	63.313
400.78	64.475
401.14	64.024
401.49	64.657
401.85	63.460
402.21	63.653
402.57	63.541
402.92	65.385
403.28	65.584
403.63	64.604
403.99	63.439
404.35	63.879
404.70	63.729
405.06	63.716
405.42	63.943
405.77	64.629
406.13	63.036
406.49	62.980
406.84	63.556
407.20	61.939
407.55	62.476
407.91	64.333
408.27	63.306
408.62	61.890
408.98	63.235
409.34	62.977
409.69	65.677
410.05	62.701
410.40	62.080
410.76	63.082
411.11	61.761
411.47	61.917
411.83	63.653
412.18	62.276
412.54	61.831
412.89	61.084
413.25	62.515
413.60	61.334
413.96	60.838
414.31	62.090
414.67	61.660
415.03	62.318
415.38	62.693
415.74	61.672
416.09	63.553
416.45	60.776
416.80	60.608
417.16	61.193
417.51	62.508
417.87	60.886
418.22	62.650
418.58	62.040
418.93	62.592
419.29	61.171
419.64	61.020
420.00	60.305
420.35	60.580
420.71	61.207
421.06	60.084
421.42	60.000
421.77	60.426
422.12	59.517
422.48	61.036
422.83	60.687
423.19	60.000
423.54	60.070
423.90	60.638
424.25	59.296
424.61	59.643
424.96	59.825
425.31	60.188
425.67	59.382
426.02	58.857
426.38	60.317
426.73	57.695
427.09	58.967
427.44	59.402
427.79	58.079
428.15	59.345
428.50	59.508
428.85	59.178
429.21	58.863
429.56	60.031
429.92	59.134
430.27	58.788
430.62	58.474
430.98	57.966
431.33	57.680
431.68	58.691
432.04	57.295
432.39	57.853
432.74	57.750
433.10	57.216
433.45	58.659
433.80	58.537
434.16	57.051
434.51	58.316
434.86	58.096
435.22	57.588
435.57	57.264
435.92	58.514
436.28	58.304
436.63	57.174
436.98	56.211
437.34	57.662
437.69	58.110
438.04	58.010
438.39	57.612
438.75	57.350
439.10	56.145
439.45	56.730
439.81	57.644
440.16	57.312
440.51	57.118
440.86	55.704
441.22	56.897
441.57	55.786
441.92	56.090
442.27	57.374
442.63	56.819
442.98	56.225
443.33	55.598
443.68	56.221
444.03	55.686
444.39	55.209
444.74	56.169
445.09	55.256
445.44	55.604
445.79	54.824
446.15	54.897
446.50	54.927
446.85	54.779
447.20	54.666
447.55	56.449
447.91	54.330
448.26	56.093
448.61	54.551
448.96	54.596
449.31	54.218
449.66	53.967
450.02	53.259
450.37	54.082
450.72	55.386
451.07	54.723
451.42	53.435
451.77	54.903
452.12	52.945
452.47	53.234
452.83	53.555
453.18	52.506
453.53	52.999
453.88	53.455
454.23	52.421
454.58	53.786
454.93	53.655
455.28	53.180
455.63	53.762
455.98	54.762
456.34	53.392
456.69	52.348
457.04	53.375
457.39	51.198
457.74	51.828
458.09	52.444
458.44	52.338
458.79	50.542
459.14	53.160
459.49	52.014
459.84	51.856
460.19	51.090
460.54	50.752
460.89	51.344
461.24	53.734
461.59	52.644
461.94	50.925
462.29	52.107
462.64	50.096
462.99	49.577
463.34	50.267
463.69	51.595
464.04	50.667
464.39	50.609
464.74	50.267
465.09	50.905
465.44	50.305
465.79	49.832
466.14	50.137
466.49	49.611
466.84	50.204
467.19	50.030
467.54	51.000
467.89	49.760
468.24	49.855
468.59	49.939
468.94	47.526
469.29	48.843
469.64	50.134
469.99	49.662
470.34	48.415
470.68	48.922
471.03	48.027
471.38	49.896
471.73	47.901
472.08	49.539
472.43	48.367
472.78	48.519
473.13	48.395
473.48	48.190
473.83	49.024
474.17	47.729
474.52	47.891
474.87	49.212
475.22	47.649
475.57	46.910
475.92	47.424
476.27	47.012
476.61	47.049
476.96	47.389
477.31	45.474
477.66	47.648
478.01	45.740
478.36	47.065
478.70	45.691
479.05	46.699
479.40	46.827
479.75	46.823
480.10	47.018
480.45	45.978
480.79	45.581
481.14	45.499
481.49	46.512
481.84	46.411
482.19	46.343
482.53	46.239
482.88	46.626
483.23	45.561
483.58	45.177
483.92	44.986
484.27	44.314
484.62	44.871
484.97	44.580
485.31	45.445
485.66	46.460
486.01	47.660
486.36	47.293
486.70	47.310
487.05	45.760
487.40	44.816
487.75	43.894
488.09	42.766
488.44	42.195
488.79	42.532
489.13	42.781
489.48	42.007
489.83	42.771
490.17	43.446
490.52	43.180
490.87	43.374
491.22	42.610
491.56	42.141
491.91	42.206
492.26	42.627
492.60	43.041
492.95	41.628
493.30	42.477
493.64	43.164
493.99	41.783
494.34	42.368
494.68	41.850
495.03	42.998
495.37	41.880
495.72	41.764
496.07	42.181
496.41	41.814
496.76	42.260
497.11	41.918
497.45	42.292
497.80	41.219
498.14	39.952
498.49	40.976
498.84	41.659
499.18	40.810
499.53	41.690
499.87	40.680
500.22	40.132
500.56	41.359
500.91	40.625
501.26	41.015
501.60	41.908
501.95	40.742
502.29	41.518
502.64	40.829
502.98	40.486
503.33	39.671
503.67	40.046
504.02	40.225
504.36	39.869
504.71	39.521
505.06	38.988
505.40	38.600
505.75	38.717
506.09	39.116
506.44	40.207
506.78	39.747
507.13	40.182
507.47	38.838
507.82	39.007
508.16	38.956
508.51	39.472
508.85	38.928
509.19	40.204
509.54	38.571
509.88	38.382
510.23	38.201
510.57	39.164
510.92	38.788
511.26	37.205
511.61	38.900
511.95	37.787
512.30	36.957
512.64	37.346
512.98	37.513
513.33	37.634
513.67	36.713
514.02	36.418
514.36	37.957
514.70	36.967
515.05	36.196
515.39	37.072
515.74	36.599
516.08	38.010
516.42	37.014
516.77	37.514
517.11	36.293
517.46	37.190
517.80	37.050
518.14	35.263
518.49	36.873
518.83	36.648
519.17	36.605
519.52	36.446
519.86	36.395
520.20	36.358
520.55	36.086
520.89	36.436
521.23	36.550
521.58	35.474
521.92	34.354
522.26	34.594
522.61	35.016
522.95	35.298
523.29	34.693
523.64	34.817
523.98	36.537
524.32	35.223
524.66	36.140
525.01	34.804
525.35	35.626
525.69	33.929
526.04	35.576
526.38	34.411
526.72	34.540
527.06	35.217
527.41	33.540
527.75	34.855
528.09	34.746
528.43	34.736
528.78	34.726
529.12	34.485
529.46	34.354
529.80	35.210
530.15	33.583
530.49	32.985
530.83	34.051
531.17	34.334
531.51	34.695
531.86	33.677
532.20	34.355
532.54	33.889
532.88	34.275
533.22	33.791
533.57	33.457
533.91	34.136
534.25	34.022
534.59	33.374
534.93	33.611
535.27	33.977
535.62	33.822
535.96	34.149
536.30	33.630
536.64	33.097
536.98	33.577
537.32	32.916
537.66	34.000
538.01	34.101
538.35	33.161
538.69	34.269
539.03	32.489
539.37	32.971
539.71	33.441
540.05	33.333
540.39	32.757
540.73	32.471
541.07	33.355
541.42	32.355
541.76	33.613
542.10	33.312
542.44	33.113
542.78	32.411
543.12	32.118
543.46	32.852
543.80	33.572
544.14	32.092
544.48	33.524
544.82	31.751
545.16	32.661
545.50	32.134
545.84	31.855
546.18	31.515
546.52	30.970
546.86	31.753
547.20	32.704
547.54	32.265
547.88	32.462
548.22	31.507
548.56	31.761
548.90	31.178
549.24	31.380
549.58	32.401
549.92	32.280
550.26	31.960
550.60	31.328
550.94	31.127
551.28	29.115
551.62	31.776
551.96	29.684
552.30	30.580
552.64	31.778
552.98	32.000
553.32	31.827
553.66	30.743
554.00	31.984
554.34	31.194
554.68	31.688
555.02	30.395
555.36	30.550
555.69	30.582
556.03	30.485
556.37	30.423
556.71	30.150
557.05	30.882
557.39	30.091
557.73	30.558
558.07	30.674
558.41	31.114
558.75	30.272
559.08	30.872
559.42	29.781
559.76	28.603
560.10	30.121
560.44	29.350
560.78	30.007
561.12	31.069
561.45	30.183
561.79	29.730
562.13	29.510
562.47	29.781
562.81	30.404
563.15	29.699
563.48	30.040
563.82	30.202
564.16	29.823
564.50	30.078
564.84	30.405
565.17	29.794
565.51	29.776
565.85	29.822
566.19	29.555
566.52	31.222
566.86	30.078
567.20	29.894
567.54	30.936
567.88	29.386
568.21	30.741
568.55	31.092
568.89	31.566
569.23	31.194
569.56	31.700
569.90	30.981
570.24	32.400
570.57	31.384
570.91	30.575
571.25	30.852
571.59	31.429
571.92	31.250
572.26	31.542
572.60	31.201
572.93	30.285
573.27	30.997
573.61	31.128
573.95	31.214
574.28	31.106
574.62	31.220
574.96	31.087
575.29	30.941
575.63	30.513
575.97	30.409
576.30	30.324
576.64	30.427
576.98	30.579
577.31	30.776
577.65	31.422
577.98	31.343
578.32	30.759
578.66	31.111
578.99	30.724
579.33	30.114
579.67	29.652
580.00	30.400
580.34	30.541
580.67	29.615
581.01	30.313
581.35	31.131
581.68	31.356
582.02	30.838
582.35	30.886
582.69	31.135
583.02	30.341
583.36	30.021
583.70	29.296
584.03	29.545
584.37	28.986
584.70	29.676
585.04	29.501
585.37	30.196
585.71	30.193
586.04	30.273
586.38	29.990
586.72	29.743
587.05	29.394
587.39	29.446
587.72	29.297
588.06	29.536
588.39	29.410
588.73	29.774
589.06	29.854
589.40	28.687
589.73	29.356
590.07	28.577
590.40	28.645
590.73	28.806
591.07	28.571
591.40	28.806
591.74	29.481
592.07	28.272
592.41	29.268
592.74	29.176
593.08	29.913
593.41	30.149
593.75	29.107
594.08	29.065
594.41	29.268
594.75	28.909
595.08	28.311
595.42	29.352
595.75	28.526
596.09	28.577
596.42	29.155
596.75	27.902
597.09	27.749
597.42	27.361
597.75	28.504
598.09	28.391
598.42	28.351
598.76	28.212
599.09	28.240
599.42	27.984
599.76	28.624
600.09	28.306
600.42	28.780
600.76	27.679
601.09	28.306
601.42	28.082
601.76	27.932
602.09	28.142
602.42	27.866
602.76	28.416
603.09	28.127
603.42	28.153
603.76	27.630
604.09	27.569
604.42	28.373
604.76	28.174
605.09	28.222
605.42	26.507
605.75	27.525
606.09	28.264
606.42	28.116
606.75	28.080
607.09	27.459
607.42	27.942
607.75	27.173
608.08	27.312
608.42	27.880
608.75	27.412
609.08	27.197
609.41	26.606
609.75	27.585
610.08	27.992
610.41	27.281
610.74	27.673
611.07	27.619
611.41	27.036
611.74	27.602
612.07	26.915
612.40	27.964
612.73	27.474
613.07	26.886
613.40	27.646
613.73	26.324
614.06	27.151
614.39	26.481
614.72	26.684
615.06	27.206
615.39	27.282
615.72	26.636
616.05	26.209
616.38	26.737
616.71	26.306
617.05	27.326
617.38	27.060
617.71	26.547
618.04	27.163
618.37	26.493
618.70	26.073
619.03	26.842
619.36	25.255
619.69	25.493
620.03	26.305
620.36	25.668
620.69	27.603
621.02	26.106
621.35	26.077
621.68	25.000
622.01	25.697
622.34	25.643
622.67	25.475
623.00	25.459
623.33	25.518
623.66	26.948
623.99	26.804
624.32	25.036
624.65	25.071
624.99	25.779
625.32	25.272
625.65	25.319
625.98	26.211
626.31	25.350
626.64	25.551
626.97	25.769
627.30	25.270
627.63	24.774
627.96	24.895
628.29	24.759
628.62	24.794
628.95	24.528
629.28	24.453
629.61	25.940
629.94	24.952
630.26	24.690
630.59	25.262
630.92	23.563
631.25	23.001
631.58	23.123
631.91	23.732
632.24	23.629
632.57	23.820
632.90	22.588
633.23	24.161
633.56	24.520
633.89	24.009
634.22	26.107
634.55	24.497
634.88	23.353
635.20	24.014
635.53	25.542
635.86	24.134
636.19	23.294
636.52	24.567
636.85	23.482
637.18	23.502
637.51	25.414
637.83	22.072
638.16	24.041
638.49	23.929
638.82	24.020
639.15	25.875
639.48	23.317
639.81	24.933
640.13	23.958
640.46	22.953
640.79	25.231
641.12	22.696
641.45	25.279
641.77	24.595
642.10	25.292
642.43	23.423
642.76	22.446
643.09	23.160
643.41	22.914
643.74	23.920
644.07	22.866
644.40	25.000
644.73	22.835
645.05	25.515
645.38	22.907
645.71	22.383
646.04	24.585
646.36	26.544
646.69	24.415
647.02	22.959
647.35	22.680
647.67	23.540
648.00	21.301
648.33	22.607
648.66	24.091
648.98	24.888
649.31	22.571
649.64	25.859
649.96	25.335
650.29	22.749
650.62	24.110
650.94	25.446
651.27	24.831
651.60	22.962
651.92	24.281
652.25	24.430
652.58	23.520
652.90	26.066
653.23	23.421
653.56	24.724
653.88	24.881
654.21	25.118
654.54	22.772
654.86	23.832
655.19	24.459
655.52	23.670
655.84	27.079
656.17	34.525
656.49	45.668
656.82	44.636
657.15	32.319
657.47	23.532
657.80	17.211
658.13	16.986
658.45	24.183
658.78	22.776
659.10	22.489
659.43	21.409
659.75	21.438
660.08	21.329
660.41	21.043
660.73	22.363
661.06	21.815
661.38	23.091
661.71	24.615
662.03	24.852
662.36	23.062
662.68	23.695
663.01	25.455
663.33	22.718
663.66	23.529
663.98	22.678
664.31	21.008
664.63	21.457
664.96	20.322
665.28	23.975
665.61	24.561
665.93	21.328
666.26	22.515
666.58	23.849
666.91	25.370
667.23	21.798
667.56	21.598
667.88	23.718
668.21	20.256
668.53	23.427
668.86	23.810
669.18	26.226
669.50	24.130
669.83	24.619
670.15	23.111
670.48	23.094
670.80	24.138
671.13	22.930
671.45	24.894
671.77	23.829
672.10	25.323
672.42	24.558
672.75	24.876
673.07	23.592
673.39	22.604
673.72	23.438
674.04	24.902
674.37	23.107
674.69	21.472
675.01	22.594
675.34	24.025
675.66	25.895
675.98	23.218
676.31	26.050
676.63	25.478
676.95	24.738
677.28	22.664
677.60	23.516
677.92	26.371
678.25	25.051
678.57	24.900
678.89	23.046
679.22	24.951
679.54	26.718
679.86	25.321
680.18	22.898
680.51	24.823
680.83	26.512
681.15	23.774
681.48	25.142
681.80	22.824
682.12	23.755
682.44	21.277
682.77	25.662
683.09	24.893
683.41	25.055
683.73	24.503
684.06	24.174
684.38	23.288
684.70	24.806
685.02	25.328
685.34	24.725
685.67	22.902
685.99	25.258
686.31	24.573
686.63	22.615
686.96	24.821
687.28	23.827
687.60	22.645
687.92	24.132
688.24	24.525
688.56	22.892
688.89	24.274
689.21	23.581
689.53	25.052
689.85	23.947
690.17	20.911
690.49	23.567
690.82	27.103
691.14	22.545
691.46	24.684
691.78	24.699
692.10	25.413
692.42	25.349
692.74	21.784
693.06	25.319
693.39	24.025
693.71	24.454
694.03	24.842
694.35	24.459
694.67	22.883
694.99	23.171
695.31	21.078
695.63	26.077
695.95	27.384
696.27	21.574
696.59	25.648
696.91	25.648
697.23	21.596
697.56	26.226
697.88	24.744
698.20	24.167
698.52	24.946
698.84	24.722
699.16	23.733
699.48	25.178
699.80	26.087
700.12	25.195
700.44	25.995
700.76	25.138
701.08	25.000
701.40	24.302
701.72	26.822
702.04	26.420
702.36	23.229
702.68	25.496
703.00	27.147
703.32	23.936
703.64	25.737
703.96	25.070
704.28	26.453
704.60	26.393
704.91	23.145
705.23	22.874
705.55	23.256
705.87	30.565
706.19	22.968
706.51	23.364
706.83	27.879
707.15	27.731
707.47	24.242
707.79	28.501
708.11	28.311
708.43	26.429
708.74	25.510
709.06	25.974
709.38	27.822
709.70	26.453
710.02	29.970
710.34	20.303
710.66	24.179
710.98	23.864
711.29	25.872
711.61	28.614
711.93	26.282
712.25	29.582
712.57	31.250
712.89	26.990
713.20	27.052
713.52	29.276
713.84	25.316
714.16	25.610
714.48	23.851
714.80	29.179
715.11	26.513
715.43	27.300
715.75	26.087
716.07	25.240
716.39	26.959
716.70	30.897
717.02	26.978
717.34	26.502
717.66	28.731
717.97	28.287
718.29	26.667
718.61	28.102
718.93	26.838
719.24	26.990
719.56	24.746
719.88	26.441
720.20	27.703
720.51	29.965
720.83	26.766
721.15	25.373
721.46	26.596
721.78	29.749
722.10	25.283
722.42	30.827
722.73	25.468
723.05	29.098
723.37	26.316
723.68	27.027
724.00	30.488
724.32	27.016
724.63	27.236
724.95	26.360
725.27	30.364
725.58	32.031
725.90	33.942
726.22	31.321
726.53	26.042
726.85	25.939
727.16	27.758
727.48	28.369
727.80	24.242
728.11	27.174
728.43	26.538
728.74	30.108
729.06	30.657
729.38	28.309
729.69	32.028
730.01	22.867
730.32	26.389
730.64	29.097
730.96	27.723
731.27	30.464
731.59	28.440
731.90	25.364
732.22	27.329
732.53	26.625
732.85	30.769
733.16	26.688
733.48	30.233
733.80	27.922
734.11	32.803
734.43	26.331
734.74	27.714
735.06	27.221
735.37	31.503
735.69	25.478
736.00	27.778
736.32	30.218
736.63	28.435
736.95	28.435
737.26	21.769
737.58	26.129
737.89	30.435
738.21	29.352
738.52	27.857
738.83	24.528
739.15	25.385
739.46	30.292
739.78	29.514
740.09	31.077
740.41	31.290
740.72	27.178
741.04	29.630
741.35	25.000
741.66	35.111
741.98	25.472
742.29	36.364
742.61	36.638
742.92	29.412
743.23	28.632
743.55	29.600
743.86	27.632
744.18	34.956
744.49	26.316
744.80	30.047
745.12	33.182
745.43	35.242
745.74	33.784
746.06	33.028
746.37	34.978
746.68	32.579
747.00	31.944
747.31	32.381
747.62	25.664
747.94	29.075
748.25	28.511
748.56	33.921
748.88	26.733
749.19	35.500
749.50	28.372
749.82	32.114
750.13	28.980
750.44	29.562
750.75	28.772
751.07	35.691
751.38	27.526
751.69	31.769
752.01	30.451
752.32	29.242
752.63	29.078
752.94	31.148
753.26	33.200
753.57	28.455
753.88	31.641
754.19	27.143
754.51	29.861
754.82	28.159
755.13	32.830
755.44	30.075
755.75	27.737
756.07	28.014
756.38	31.022
756.69	28.188
757.00	28.144
757.31	30.564
757.63	27.193
757.94	29.223
758.25	28.186
758.56	25.926
758.87	27.957
759.18	28.485
759.50	28.840
759.81	28.037
760.12	29.375
760.43	30.086
760.74	31.793
761.05	32.203
761.36	27.540
761.67	32.670
761.99	27.640
762.30	28.819
762.61	28.626
762.92	31.641
763.23	28.571
763.54	32.800
763.85	29.687
764.16	28.846
764.47	28.137
764.78	28.975
765.10	24.684
765.41	29.499
765.72	26.946
766.03	29.781
766.34	30.667
766.65	31.489
766.96	30.769
767.27	31.980
767.58	26.042
767.89	34.211
768.20	35.632
768.51	32.995
768.82	32.110
769.13	28.862
769.44	27.935
769.75	34.764
770.06	21.101
770.37	37.557
770.68	38.889
770.99	29.333
771.30	29.918
771.61	31.390
771.92	27.869
772.23	35.714
772.54	34.359
772.85	31.937
773.16	40.957
773.47	37.500
773.78	32.995
774.09	32.738
774.39	45.029
774.70	35.802
775.01	34.058
775.32	40.523
775.63	37.500
775.94	38.129
776.25	44.094
776.56	35.075
776.87	40.984
777.18	39.062
777.48	41.985
777.79	34.848
778.10	41.481
778.41	37.500
778.72	40.876
779.03	35.570
779.34	36.242
779.65	27.703
779.95	35.583
780.26	38.562
780.57	38.621
780.88	39.844
781.19	42.105
781.50	45.946
781.80	35.220
782.11	34.463
782.42	35.443
782.73	37.423
783.04	32.432
783.34	40.141
783.65	45.205
783.96	41.045
784.27	32.867
784.57	38.129
784.88	30.556
785.19	46.032
785.50	44.340
785.81	37.313
786.11	42.623
786.42	39.535
786.73	44.248
787.04	45.283
787.34	49.107
787.65	43.000
787.96	44.144
788.26	47.934
788.57	43.220
788.88	47.934
789.19	43.750
789.49	47.727
789.80	44.275
790.11	57.143
790.41	43.564
790.72	49.398
791.03	43.478
791.33	43.023
791.64	43.299
791.95	52.475
792.25	56.667
792.56	68.831
792.87	60.256
793.17	54.430
793.48	57.471
793.79	54.023
794.09	50.000
794.40	39.496
794.70	52.206
795.01	36.296
795.32	36.691
795.62	33.858
795.93	48.276
796.23	43.363
796.54	48.235
796.85	36.486
797.15	70.423
797.46	46.970
797.76	60.241
798.07	48.101
798.37	49.231
798.68	51.515
798.99	45.070
799.29	55.844
799.60	57.955
799.90	68.493
800.21	58.209
800.51	75.862
800.82	85.965
801.12	55.738
801.43	54.545
801.73	39.189
802.04	57.143
802.34	55.556
802.65	54.688
802.95	62.712
803.26	62.500
803.56	54.286
803.87	56.923
804.17	54.412
804.48	74.074
804.78	63.793
805.09	51.471
805.39	67.308
805.70	42.857
806.00	62.295
806.30	51.515
806.61	63.415
806.91	53.165
807.22	56.579
807.52	41.791
807.83	71.831
808.13	71.875
808.43	75.000
808.74	60.526
809.04	53.623
809.35	65.672
809.65	63.158
809.95	77.419
810.26	59.322
810.56	63.492
810.86	84.091
811.17	88.095
811.47	75.000
811.77	57.407
812.08	87.273
812.38	86.000
812.69	102.778
812.99	111.364
813.29	81.633
813.59	57.143
813.90	85.714
814.20	54.545
814.50	41.538
814.81	72.059
815.11	61.224
815.41	80.328
815.72	100.000
816.02	74.545
816.32	90.476
816.62	70.000
816.93	65.854
817.23	102.381
817.53	81.818
817.84	96.970
818.14	117.391
818.44	75.556
818.74	91.176
819.04	97.500
819.35	94.286
819.65	102.941
819.95	121.429
820.25	85.000
820.56	102.564
820.86	86.364
821.16	83.721
821.46	97.436
821.76	90.000
822.07	117.143
822.37	100.000
822.67	87.879
822.97	74.510
823.27	125.000
823.57	94.595
823.88	105.000
824.18	126.667
824.48	95.238
824.78	116.000
825.08	104.167
825.38	94.595
825.69	82.927
825.99	133.333
826.29	79.310
826.59	110.526
826.89	76.316
827.19	138.235
827.49	119.355
827.79	100.000
828.09	81.818
828.39	74.468
828.70	75.510
829.00	70.370
829.30	141.935
829.60	85.000
829.90	200.000
830.20	96.429
830.50	100.000
830.80	139.130
831.10	123.333
831.40	116.667
831.70	152.174
832.00	142.308
832.30	114.815
832.60	175.000
832.90	146.667
833.20	228.571
833.50	122.581
833.80	89.655
834.10	140.625
834.40	142.308
834.70	133.333
835.00	204.762
835.30	117.143
835.60	153.846
835.90	110.345
836.20	157.143
836.50	103.448
836.80	116.000
837.10	116.667
837.40	147.619
837.70	164.706
838.00	133.333
838.30	147.619
838.60	176.190
838.90	153.846
839.19	210.000
839.49	235.714
839.79	195.000
840.09	155.000
840.39	185.714
840.69	165.217
840.99	144.444
841.29	250.000
841.59	175.000
841.88	118.750
842.18	100.000
842.48	142.857
842.78	100.000
843.08	160.870
843.38	140.625
843.68	416.667
843.97	126.923
844.27	89.655
844.57	161.905
844.87	175.000
845.17	148.148
845.47	633.333
845.76	288.889
846.06	176.471
846.36	212.500
846.66	192.857
846.96	200.000
847.25	218.182
847.55	145.455
847.85	134.783
848.15	320.000
848.44	200.000
848.74	150.000
849.04	100.000
849.34	320.000
849.63	121.053
849.93	190.909
850.23	480.000
850.53	200.000
850.82	850.000
851.12	-1700.000
851.42	1600.000
851.71	170.000
852.01	-400.000
852.31	145.833
852.61	866.667
852.90	138.095
853.20	156.000
853.50	205.882
853.79	176.190
854.09	129.167
854.39	193.750
854.68	102.703
854.98	135.484
855.28	106.667
855.57	124.138
855.87	125.926
856.17	147.368
856.46	60.000
856.76	147.059
857.05	100.000
857.35	129.167
857.65	193.333
857.94	130.435
858.24	173.077
858.53	195.000
858.83	136.364
859.13	160.000
859.42	0.000
859.72	333.333
860.01	145.455
860.31	159.091
860.60	115.789
860.90	147.826
861.20	344.444
861.49	283.333
861.79	-2700.000
862.08	362.500
862.38	166.667
862.67	115.385
862.97	229.412
863.26	377.778
863.56	111.111
863.85	283.333
864.15	350.000
864.44	193.333
864.74	516.667
865.03	337.500
865.33	163.158
865.62	172.727
865.92	269.231
866.21	225.000
866.51	0.000
866.80	327.273
867.10	680.000
867.39	284.615
867.69	227.273
867.98	173.684
868.27	172.727
868.57	200.000
868.86	-2200.000
869.16	231.250
869.45	1150.000
869.75	-2100.000
870.04	233.333
870.33	414.286
870.63	525.000
870.92	1550.000
871.22	328.571
871.51	152.941
871.80	100.000
872.10	214.286
>>>>>End Processed Spectral Data<<<<<
