SpectraSuite Data File
++++++++++++++++++++++++++++++++++++
Date: Wed May 13 21:30:42 PDT 2015
User: schluterlab
Dark Spectrum Present: Yes
Reference Spectrum Present: Yes
Number of Sampled Component Spectra: 1
Spectrometers: USB2E3373
Integration Time (usec): 3000 (USB2E3373)
Spectra Averaged: 3 (USB2E3373)
Boxcar Smoothing: 0 (USB2E3373)
Correct for Electrical Dark: No (USB2E3373)
Strobe/Lamp Enabled: No (USB2E3373)
Correct for Detector Non-linearity: No (USB2E3373)
Correct for Stray Light: No (USB2E3373)
Number of Pixels in Processed Spectrum: 2048
>>>>>Begin Processed Spectral Data<<<<<
178.53	0.000
178.91	550.000
179.29	150.000
179.67	-600.000
180.04	-433.333
180.42	280.000
180.80	1100.000
181.18	333.333
181.56	-650.000
181.94	-325.000
182.31	-27.273
182.69	123.077
183.07	-220.000
183.45	283.333
183.83	200.000
184.20	128.571
184.58	-166.667
184.96	300.000
185.34	271.429
185.72	0.000
186.09	-1400.000
186.47	-340.000
186.85	220.000
187.23	-550.000
187.61	750.000
187.98	1000.000
188.36	-162.500
188.74	0.000
189.12	-154.545
189.49	0.000
189.87	150.000
190.25	240.000
190.63	1600.000
191.00	-160.000
191.38	340.000
191.76	425.000
192.14	183.333
192.51	-15.789
192.89	700.000
193.27	100.000
193.65	-280.000
194.02	200.000
194.40	80.000
194.78	-1400.000
195.15	220.000
195.53	-240.000
195.91	-62.500
196.29	-166.667
196.66	0.000
197.04	450.000
197.42	-80.000
197.79	-40.000
198.17	-87.500
198.55	-200.000
198.92	450.000
199.30	-533.333
199.68	-50.000
200.05	600.000
200.43	200.000
200.81	-1100.000
201.18	-240.000
201.56	-300.000
201.94	525.000
202.31	17.391
202.69	-128.571
203.07	-766.667
203.44	-300.000
203.82	-566.667
204.19	-50.000
204.57	0.000
204.95	0.000
205.32	0.000
205.70	-150.000
206.08	-475.000
206.45	-66.667
206.83	275.000
207.20	-466.667
207.58	-20.000
207.96	-1600.000
208.33	-142.857
208.71	-1700.000
209.08	175.000
209.46	650.000
209.84	0.000
210.21	80.000
210.59	2000.000
210.96	380.000
211.34	500.000
211.71	-600.000
212.09	-316.667
212.46	-140.000
212.84	-266.667
213.22	50.000
213.59	-200.000
213.97	-700.000
214.34	-600.000
214.72	-23.077
215.09	262.500
215.47	111.111
215.84	1100.000
216.22	-112.500
216.59	-800.000
216.97	633.333
217.34	177.778
217.72	0.000
218.09	266.667
218.47	-400.000
218.84	-257.143
219.22	-137.500
219.59	-533.333
219.97	-500.000
220.34	-162.500
220.72	-80.000
221.09	0.000
221.47	-166.667
221.84	500.000
222.22	0.000
222.59	400.000
222.97	-366.667
223.34	-25.000
223.72	-1100.000
224.09	-800.000
224.46	-18.182
224.84	-37.500
225.21	-185.714
225.59	-350.000
225.96	-166.667
226.34	-100.000
226.71	-114.286
227.08	450.000
227.46	-62.500
227.83	-400.000
228.21	-37.500
228.58	-325.000
228.95	-47.059
229.33	6.250
229.70	-137.500
230.08	-76.923
230.45	-175.000
230.82	-25.000
231.20	142.857
231.57	-375.000
231.95	800.000
232.32	8.333
232.69	-70.588
233.07	-1100.000
233.44	-69.565
233.81	-950.000
234.19	12.500
234.56	-66.667
234.93	-133.333
235.31	-47.368
235.68	-115.385
236.05	-53.846
236.43	11.111
236.80	-24.242
237.17	-133.333
237.55	-64.706
237.92	-48.276
238.29	-51.852
238.67	-25.000
239.04	-45.161
239.41	-4.255
239.79	-17.021
240.16	-16.279
240.53	8.929
240.91	14.286
241.28	3.571
241.65	-3.226
242.02	6.579
242.40	14.493
242.77	13.043
243.14	-2.564
243.51	6.383
243.89	9.615
244.26	15.094
244.63	6.731
245.00	10.417
245.38	0.840
245.75	8.197
246.12	8.271
246.49	4.878
246.87	-1.681
247.24	10.811
247.61	11.921
247.98	8.333
248.36	7.101
248.73	3.371
249.10	13.636
249.47	5.376
249.84	11.579
250.22	8.955
250.59	10.748
250.96	13.182
251.33	1.914
251.70	13.389
252.08	9.623
252.45	16.461
252.82	12.167
253.19	10.506
253.56	15.108
253.94	13.167
254.31	14.789
254.68	13.423
255.05	12.541
255.42	9.441
255.79	12.577
256.16	13.249
256.54	13.968
256.91	9.177
257.28	11.321
257.65	8.917
258.02	11.144
258.39	11.696
258.76	13.372
259.14	10.795
259.51	8.708
259.88	12.737
260.25	13.056
260.62	8.708
260.99	13.263
261.36	15.026
261.73	10.617
262.10	11.450
262.47	11.111
262.85	11.194
263.22	13.846
263.59	14.286
263.96	11.679
264.33	13.462
264.70	13.023
265.07	14.815
265.44	14.943
265.81	10.755
266.18	11.845
266.55	13.974
266.92	10.805
267.29	11.728
267.66	14.225
268.03	13.992
268.40	13.771
268.77	13.223
269.14	12.653
269.51	16.838
269.88	12.220
270.25	14.407
270.62	10.861
270.99	12.402
271.36	11.706
271.73	13.253
272.10	12.381
272.47	11.708
272.84	13.780
273.21	12.524
273.58	11.885
273.95	11.321
274.32	12.687
274.69	13.297
275.06	15.548
275.43	13.748
275.80	13.121
276.17	13.260
276.54	12.611
276.91	13.066
277.28	12.455
277.65	14.336
278.02	11.607
278.39	13.321
278.76	15.886
279.13	11.321
279.50	12.414
279.87	12.138
280.23	11.712
280.60	11.592
280.97	11.526
281.34	13.249
281.71	12.683
282.08	10.598
282.45	10.492
282.82	12.141
283.19	13.415
283.56	13.281
283.92	12.232
284.29	10.920
284.66	12.356
285.03	11.726
285.40	11.178
285.77	12.462
286.14	12.918
286.51	11.694
286.87	10.615
287.24	11.504
287.61	12.199
287.98	12.794
288.35	11.773
288.72	12.626
289.08	12.678
289.45	11.894
289.82	11.498
290.19	12.623
290.56	12.074
290.93	12.293
291.29	12.585
291.66	10.792
292.03	11.172
292.40	10.363
292.77	12.450
293.13	11.158
293.50	10.980
293.87	13.733
294.24	10.053
294.60	11.443
294.97	12.963
295.34	10.290
295.71	9.198
296.08	10.995
296.44	10.204
296.81	10.475
297.18	11.875
297.55	11.203
297.91	12.547
298.28	10.654
298.65	11.823
299.02	12.332
299.38	10.920
299.75	10.577
300.12	9.535
300.48	11.462
300.85	10.162
301.22	11.034
301.59	10.094
301.95	9.175
302.32	10.268
302.69	8.814
303.05	9.413
303.42	9.545
303.79	11.567
304.15	9.748
304.52	12.151
304.89	9.302
305.25	8.013
305.62	10.195
305.99	11.099
306.35	10.972
306.72	9.257
307.09	9.698
307.45	10.543
307.82	9.474
308.19	8.986
308.55	10.235
308.92	12.377
309.29	9.710
309.65	10.190
310.02	10.239
310.38	11.077
310.75	10.158
311.12	10.690
311.48	10.188
311.85	10.039
312.22	11.509
312.58	9.952
312.95	10.547
313.31	11.387
313.68	11.450
314.05	11.437
314.41	11.816
314.78	11.480
315.14	11.574
315.51	11.798
315.87	12.048
316.24	12.764
316.61	12.511
316.97	11.944
317.34	12.656
317.70	13.381
318.07	13.842
318.43	13.098
318.80	12.740
319.16	11.671
319.53	13.441
319.89	11.743
320.26	14.603
320.62	13.346
320.99	13.372
321.35	13.658
321.72	12.993
322.08	15.129
322.45	15.449
322.81	14.972
323.18	15.027
323.54	16.516
323.91	15.086
324.27	16.292
324.64	16.028
325.00	15.136
325.37	17.747
325.73	14.983
326.10	16.905
326.46	16.472
326.83	17.233
327.19	17.236
327.56	18.372
327.92	17.619
328.29	19.366
328.65	19.982
329.01	17.502
329.38	20.435
329.74	19.657
330.11	18.485
330.47	18.490
330.84	19.404
331.20	18.702
331.56	19.112
331.93	19.724
332.29	20.417
332.66	20.254
333.02	20.504
333.38	19.649
333.75	19.710
334.11	20.052
334.48	20.052
334.84	20.936
335.20	20.069
335.57	20.104
335.93	19.931
336.29	20.578
336.66	20.684
337.02	21.130
337.38	20.017
337.75	19.897
338.11	19.641
338.47	19.777
338.84	20.704
339.20	21.340
339.56	19.881
339.93	20.830
340.29	20.068
340.65	21.557
341.02	20.632
341.38	20.946
341.74	19.412
342.11	20.727
342.47	20.502
342.83	20.016
343.20	20.812
343.56	21.504
343.92	20.796
344.28	20.860
344.65	19.755
345.01	20.016
345.37	20.559
345.73	20.752
346.10	21.027
346.46	21.463
346.82	20.225
347.19	19.778
347.55	21.082
347.91	20.343
348.27	20.978
348.63	21.074
349.00	20.991
349.36	21.350
349.72	20.495
350.08	21.841
350.45	20.908
350.81	21.283
351.17	21.401
351.53	21.367
351.89	20.095
352.26	20.463
352.62	21.240
352.98	20.847
353.34	21.981
353.70	21.963
354.07	20.392
354.43	21.540
354.79	21.394
355.15	21.506
355.51	20.881
355.87	22.830
356.24	21.910
356.60	21.267
356.96	22.026
357.32	20.898
357.68	20.932
358.04	22.110
358.40	22.403
358.77	22.324
359.13	22.179
359.49	21.347
359.85	21.986
360.21	22.591
360.57	21.673
360.93	23.065
361.29	22.280
361.66	22.627
362.02	21.497
362.38	21.935
362.74	21.102
363.10	23.572
363.46	22.839
363.82	23.503
364.18	21.682
364.54	22.319
364.90	22.160
365.26	21.939
365.62	22.869
365.98	22.562
366.35	23.262
366.71	22.397
367.07	23.033
367.43	23.136
367.79	22.307
368.15	22.996
368.51	23.136
368.87	23.308
369.23	22.705
369.59	23.749
369.95	22.424
370.31	23.152
370.67	23.461
371.03	24.499
371.39	23.492
371.75	24.214
372.11	23.077
372.47	24.513
372.83	22.885
373.19	23.525
373.55	23.338
373.91	25.106
374.27	23.167
374.63	23.613
374.99	23.468
375.35	24.795
375.71	24.185
376.07	25.497
376.42	23.930
376.78	24.042
377.14	25.017
377.50	25.554
377.86	25.033
378.22	25.917
378.58	25.095
378.94	25.438
379.30	25.359
379.66	25.462
380.02	25.368
380.38	25.422
380.74	25.224
381.09	26.417
381.45	25.816
381.81	26.556
382.17	25.646
382.53	26.215
382.89	25.392
383.25	26.667
383.61	25.908
383.97	27.437
384.32	24.827
384.68	26.650
385.04	26.573
385.40	26.837
385.76	27.251
386.12	27.179
386.48	26.646
386.83	26.783
387.19	26.527
387.55	27.406
387.91	27.552
388.27	27.435
388.62	27.341
388.98	27.409
389.34	27.506
389.70	27.534
390.06	27.875
390.42	28.157
390.77	27.931
391.13	27.273
391.49	27.261
391.85	28.371
392.20	28.070
392.56	28.571
392.92	27.618
393.28	27.775
393.64	28.318
393.99	27.907
394.35	28.704
394.71	29.551
395.07	27.673
395.42	28.824
395.78	27.928
396.14	29.550
396.50	28.662
396.85	28.553
397.21	29.463
397.57	28.634
397.92	28.683
398.28	29.047
398.64	28.476
399.00	30.246
399.35	30.363
399.71	29.645
400.07	28.494
400.42	29.028
400.78	29.486
401.14	29.859
401.49	29.479
401.85	30.037
402.21	29.907
402.57	30.288
402.92	30.413
403.28	30.769
403.63	30.688
403.99	30.326
404.35	30.237
404.70	29.789
405.06	30.769
405.42	30.465
405.77	30.818
406.13	29.943
406.49	30.557
406.84	30.220
407.20	29.959
407.55	32.013
407.91	31.039
408.27	29.944
408.62	32.167
408.98	30.703
409.34	30.507
409.69	31.579
410.05	30.784
410.40	30.615
410.76	31.107
411.11	31.903
411.47	32.780
411.83	31.067
412.18	31.423
412.54	31.078
412.89	31.536
413.25	30.914
413.60	32.476
413.96	31.273
414.31	31.689
414.67	30.222
415.03	33.153
415.38	31.308
415.74	30.799
416.09	32.783
416.45	33.630
416.80	32.349
417.16	32.928
417.51	31.279
417.87	32.738
418.22	32.967
418.58	32.194
418.93	32.454
419.29	34.323
419.64	32.443
420.00	33.651
420.35	32.576
420.71	32.907
421.06	32.903
421.42	32.725
421.77	33.295
422.12	32.779
422.48	32.388
422.83	32.782
423.19	33.525
423.54	34.099
423.90	33.610
424.25	33.391
424.61	33.703
424.96	33.885
425.31	32.978
425.67	34.098
426.02	34.393
426.38	34.266
426.73	33.293
427.09	34.021
427.44	34.351
427.79	33.729
428.15	34.006
428.50	33.414
428.85	34.563
429.21	32.977
429.56	33.103
429.92	34.513
430.27	34.254
430.62	34.627
430.98	35.378
431.33	33.369
431.68	35.037
432.04	34.873
432.39	34.180
432.74	34.457
433.10	35.038
433.45	33.787
433.80	34.828
434.16	34.080
434.51	35.272
434.86	35.571
435.22	35.597
435.57	34.582
435.92	35.103
436.28	34.474
436.63	35.046
436.98	34.489
437.34	34.982
437.69	35.360
438.04	35.088
438.39	35.118
438.75	34.923
439.10	35.628
439.45	34.443
439.81	35.653
440.16	36.754
440.51	36.564
440.86	35.981
441.22	35.915
441.57	35.087
441.92	35.718
442.27	35.119
442.63	35.899
442.98	35.764
443.33	35.497
443.68	35.530
444.03	35.320
444.39	36.391
444.74	35.892
445.09	34.857
445.44	36.901
445.79	36.345
446.15	35.663
446.50	36.123
446.85	36.077
447.20	35.755
447.55	36.150
447.91	36.180
448.26	36.364
448.61	36.133
448.96	36.731
449.31	36.665
449.66	35.628
450.02	37.635
450.37	36.369
450.72	36.510
451.07	36.489
451.42	36.931
451.77	36.823
452.12	36.007
452.47	35.765
452.83	36.203
453.18	37.174
453.53	37.011
453.88	36.627
454.23	35.909
454.58	35.907
454.93	36.818
455.28	36.802
455.63	36.494
455.98	36.336
456.34	34.711
456.69	37.061
457.04	35.542
457.39	36.320
457.74	36.744
458.09	36.078
458.44	36.134
458.79	36.683
459.14	36.180
459.49	37.073
459.84	35.626
460.19	35.714
460.54	36.557
460.89	36.993
461.24	36.621
461.59	36.957
461.94	37.737
462.29	36.213
462.64	35.752
462.99	36.620
463.34	37.362
463.69	36.662
464.04	36.495
464.39	36.608
464.74	35.688
465.09	35.958
465.44	36.308
465.79	37.493
466.14	36.374
466.49	36.129
466.84	36.820
467.19	37.261
467.54	37.719
467.89	37.838
468.24	37.677
468.59	37.604
468.94	37.037
469.29	38.268
469.64	38.006
469.99	38.414
470.34	38.166
470.68	37.918
471.03	38.717
471.38	37.622
471.73	37.517
472.08	38.351
472.43	38.127
472.78	38.945
473.13	37.863
473.48	38.291
473.83	38.795
474.17	38.216
474.52	39.223
474.87	37.334
475.22	36.594
475.57	37.535
475.92	38.168
476.27	38.403
476.61	36.467
476.96	37.693
477.31	37.433
477.66	37.684
478.01	37.418
478.36	38.474
478.70	38.292
479.05	39.179
479.40	38.170
479.75	38.151
480.10	38.093
480.45	37.371
480.79	38.178
481.14	39.362
481.49	38.431
481.84	37.182
482.19	37.934
482.53	37.952
482.88	38.015
483.23	37.151
483.58	37.854
483.92	37.257
484.27	38.609
484.62	36.795
484.97	38.407
485.31	37.210
485.66	35.562
486.01	35.357
486.36	35.587
486.70	36.027
487.05	37.276
487.40	37.178
487.75	38.013
488.09	37.035
488.44	37.680
488.79	38.077
489.13	38.131
489.48	37.879
489.83	37.919
490.17	37.676
490.52	38.616
490.87	37.320
491.22	38.059
491.56	38.285
491.91	37.302
492.26	38.540
492.60	37.807
492.95	37.852
493.30	37.355
493.64	36.882
493.99	38.164
494.34	38.054
494.68	38.282
495.03	37.698
495.37	37.372
495.72	39.098
496.07	39.795
496.41	37.857
496.76	38.711
497.11	38.685
497.45	38.084
497.80	38.768
498.14	38.992
498.49	37.872
498.84	38.512
499.18	38.726
499.53	38.306
499.87	37.749
500.22	38.576
500.56	38.566
500.91	38.632
501.26	38.818
501.60	37.500
501.95	38.333
502.29	39.320
502.64	40.501
502.98	39.017
503.33	38.929
503.67	38.851
504.02	38.725
504.36	38.980
504.71	38.720
505.06	39.328
505.40	38.660
505.75	40.183
506.09	39.704
506.44	39.869
506.78	39.868
507.13	39.241
507.47	39.236
507.82	39.194
508.16	40.158
508.51	39.463
508.85	39.606
509.19	39.788
509.54	40.054
509.88	39.570
510.23	40.053
510.57	40.784
510.92	41.541
511.26	41.034
511.61	40.999
511.95	41.069
512.30	40.478
512.64	41.544
512.98	40.554
513.33	42.310
513.67	41.283
514.02	41.505
514.36	40.843
514.70	41.859
515.05	41.837
515.39	41.333
515.74	41.859
516.08	42.360
516.42	41.590
516.77	40.890
517.11	42.210
517.46	42.677
517.80	43.160
518.14	41.825
518.49	41.471
518.83	42.601
519.17	41.205
519.52	43.667
519.86	42.744
520.20	42.814
520.55	44.465
520.89	43.454
521.23	44.038
521.58	43.869
521.92	43.055
522.26	43.201
522.61	43.762
522.95	43.653
523.29	42.730
523.64	43.357
523.98	43.647
524.32	43.478
524.66	43.896
525.01	45.085
525.35	44.898
525.69	44.400
526.04	42.801
526.38	44.933
526.72	43.524
527.06	42.940
527.41	43.878
527.75	43.992
528.09	45.813
528.43	44.573
528.78	44.315
529.12	44.308
529.46	44.466
529.80	44.207
530.15	43.436
530.49	44.609
530.83	44.753
531.17	45.205
531.51	42.414
531.86	43.631
532.20	43.556
532.54	42.621
532.88	44.112
533.22	45.589
533.57	44.305
533.91	44.258
534.25	44.857
534.59	44.530
534.93	42.857
535.27	43.121
535.62	44.079
535.96	43.787
536.30	43.883
536.64	42.652
536.98	43.518
537.32	43.986
537.66	44.711
538.01	44.313
538.35	44.544
538.69	43.679
539.03	43.020
539.37	43.528
539.71	43.520
540.05	43.050
540.39	43.427
540.73	43.296
541.07	43.673
541.42	42.963
541.76	42.422
542.10	42.654
542.44	43.798
542.78	43.164
543.12	44.205
543.46	41.603
543.80	43.041
544.14	43.772
544.48	42.867
544.82	42.838
545.16	43.475
545.50	42.336
545.84	43.198
546.18	42.216
546.52	42.766
546.86	41.625
547.20	43.174
547.54	42.816
547.88	42.645
548.22	41.368
548.56	42.762
548.90	42.219
549.24	43.194
549.58	42.705
549.92	43.874
550.26	43.985
550.60	43.318
550.94	42.687
551.28	42.468
551.62	42.406
551.96	42.679
552.30	42.504
552.64	41.314
552.98	43.395
553.32	43.691
553.66	43.434
554.00	42.621
554.34	42.125
554.68	41.760
555.02	41.243
555.36	43.343
555.69	41.879
556.03	41.673
556.37	40.185
556.71	41.416
557.05	40.886
557.39	41.296
557.73	42.284
558.07	41.748
558.41	42.316
558.75	42.340
559.08	41.620
559.42	42.172
559.76	40.826
560.10	42.352
560.44	41.341
560.78	41.439
561.12	40.785
561.45	40.544
561.79	42.091
562.13	41.842
562.47	42.143
562.81	41.053
563.15	41.076
563.48	39.780
563.82	40.698
564.16	40.894
564.50	40.841
564.84	40.068
565.17	41.457
565.51	40.441
565.85	39.840
566.19	40.993
566.52	39.384
566.86	39.633
567.20	40.195
567.54	38.515
567.88	38.690
568.21	39.055
568.55	39.541
568.89	38.485
569.23	38.588
569.56	37.589
569.90	37.653
570.24	36.679
570.57	37.120
570.91	37.084
571.25	37.006
571.59	36.530
571.92	36.902
572.26	36.501
572.60	36.957
572.93	37.145
573.27	36.380
573.61	36.309
573.95	35.537
574.28	36.118
574.62	35.695
574.96	36.048
575.29	35.532
575.63	35.379
575.97	36.087
576.30	36.178
576.64	35.682
576.98	36.377
577.31	36.117
577.65	34.946
577.98	35.113
578.32	35.104
578.66	35.568
578.99	36.150
579.33	36.107
579.67	36.125
580.00	35.205
580.34	35.288
580.67	35.595
581.01	35.564
581.35	35.274
581.68	34.545
582.02	34.685
582.35	34.877
582.69	34.860
583.02	34.529
583.36	34.770
583.70	35.874
584.03	35.616
584.37	35.574
584.70	34.780
585.04	35.374
585.37	35.286
585.71	34.877
586.04	35.288
586.38	34.754
586.72	34.785
587.05	34.856
587.39	35.542
587.72	34.176
588.06	34.747
588.39	34.845
588.73	34.747
589.06	34.982
589.40	35.535
589.73	34.819
590.07	34.889
590.40	35.138
590.73	35.656
591.07	35.604
591.40	34.522
591.74	35.349
592.07	35.646
592.41	35.092
592.74	35.069
593.08	33.846
593.41	34.618
593.75	34.109
594.08	34.024
594.41	34.406
594.75	34.258
595.08	35.026
595.42	34.288
595.75	33.948
596.09	35.142
596.42	34.477
596.75	34.357
597.09	34.941
597.42	35.576
597.75	35.200
598.09	34.517
598.42	34.139
598.76	34.467
599.09	34.254
599.42	33.837
599.76	33.834
600.09	34.526
600.42	33.522
600.76	33.075
601.09	33.936
601.42	34.183
601.76	33.514
602.09	33.766
602.42	34.626
602.76	33.599
603.09	34.661
603.42	33.786
603.76	33.515
604.09	33.518
604.42	33.529
604.76	32.737
605.09	34.255
605.42	33.693
605.75	32.420
606.09	32.740
606.42	33.458
606.75	32.814
607.09	32.890
607.42	33.975
607.75	32.254
608.08	33.363
608.42	33.411
608.75	34.257
609.08	33.758
609.41	34.029
609.75	33.434
610.08	33.876
610.41	33.479
610.74	32.964
611.07	33.417
611.41	34.954
611.74	33.696
612.07	32.934
612.40	34.000
612.73	33.699
613.07	33.259
613.40	33.700
613.73	32.719
614.06	33.167
614.39	32.518
614.72	33.815
615.06	32.889
615.39	32.230
615.72	32.343
616.05	32.320
616.38	32.818
616.71	32.154
617.05	33.661
617.38	32.532
617.71	33.272
618.04	33.455
618.37	33.438
618.70	33.053
619.03	32.577
619.36	33.665
619.69	33.553
620.03	32.155
620.36	33.333
620.69	32.120
621.02	32.385
621.35	34.424
621.68	33.170
622.01	33.738
622.34	32.593
622.67	33.438
623.00	33.739
623.33	32.984
623.66	34.201
623.99	33.608
624.32	31.108
624.65	32.344
624.99	31.962
625.32	33.010
625.65	31.395
625.98	31.675
626.31	32.653
626.64	32.674
626.97	33.737
627.30	32.335
627.63	33.045
627.96	32.294
628.29	34.419
628.62	35.687
628.95	32.565
629.28	33.300
629.61	32.919
629.94	32.785
630.26	34.483
630.59	33.267
630.92	32.530
631.25	33.677
631.58	34.582
631.91	32.556
632.24	32.931
632.57	34.111
632.90	33.956
633.23	32.854
633.56	34.772
633.89	32.057
634.22	35.336
634.55	35.201
634.88	32.108
635.20	34.375
635.53	34.496
635.86	33.333
636.19	34.119
636.52	32.439
636.85	32.207
637.18	32.156
637.51	33.084
637.83	34.073
638.16	33.867
638.49	31.909
638.82	32.941
639.15	33.910
639.48	34.759
639.81	34.306
640.13	33.662
640.46	33.475
640.79	32.230
641.12	32.544
641.45	30.713
641.77	33.284
642.10	34.039
642.43	34.591
642.76	31.861
643.09	31.949
643.41	33.971
643.74	32.795
644.07	32.524
644.40	35.655
644.73	34.576
645.05	32.984
645.38	30.565
645.71	33.673
646.04	29.798
646.36	35.938
646.69	33.916
647.02	33.515
647.35	35.466
647.67	33.087
648.00	33.152
648.33	32.373
648.66	32.721
648.98	33.230
649.31	30.521
649.64	32.238
649.96	33.649
650.29	30.882
650.62	31.301
650.94	30.000
651.27	31.625
651.60	34.266
651.92	33.154
652.25	32.496
652.58	32.178
652.90	32.155
653.23	30.221
653.56	30.083
653.88	30.887
654.21	30.205
654.54	29.402
654.86	29.431
655.19	29.972
655.52	30.110
655.84	26.082
656.17	30.837
656.49	41.232
656.82	41.251
657.15	31.314
657.47	23.553
657.80	17.625
658.13	18.923
658.45	28.187
658.78	28.848
659.10	28.503
659.43	29.188
659.75	29.487
660.08	29.448
660.41	29.412
660.73	29.752
661.06	29.592
661.38	30.426
661.71	29.713
662.03	31.501
662.36	29.646
662.68	32.258
663.01	32.203
663.33	30.886
663.66	29.268
663.98	31.011
664.31	31.429
664.63	27.703
664.96	29.103
665.28	32.189
665.61	28.294
665.93	29.764
666.26	34.388
666.58	30.407
666.91	30.942
667.23	32.719
667.56	32.874
667.88	31.542
668.21	28.795
668.53	31.494
668.86	32.134
669.18	34.279
669.50	31.106
669.83	30.549
670.15	24.762
670.48	29.655
670.80	32.166
671.13	28.604
671.45	29.452
671.77	29.957
672.10	29.825
672.42	28.626
672.75	27.500
673.07	30.182
673.39	30.037
673.72	30.140
674.04	28.074
674.37	30.488
674.69	26.955
675.01	29.701
675.34	29.322
675.66	30.065
675.98	27.876
676.31	28.054
676.63	33.333
676.95	27.529
677.28	28.440
677.60	28.676
677.92	26.608
678.25	29.718
678.57	31.365
678.89	26.226
679.22	27.950
679.54	26.939
679.86	27.148
680.18	25.769
680.51	27.692
680.83	27.485
681.15	26.719
681.48	28.858
681.80	26.789
682.12	27.083
682.44	25.352
682.77	25.474
683.09	26.339
683.41	27.442
683.73	26.563
684.06	27.212
684.38	27.350
684.70	28.513
685.02	28.512
685.34	27.984
685.67	27.580
685.99	26.512
686.31	28.966
686.63	28.676
686.96	28.386
687.28	26.747
687.60	28.166
687.92	27.237
688.24	27.000
688.56	27.632
688.89	25.390
689.21	23.767
689.53	28.604
689.85	26.742
690.17	25.275
690.49	27.295
690.82	26.492
691.14	26.329
691.46	29.234
691.78	25.495
692.10	26.327
692.42	26.593
692.74	26.739
693.06	23.146
693.39	28.337
693.71	29.333
694.03	27.955
694.35	27.928
694.67	26.000
694.99	29.381
695.31	28.165
695.63	26.585
695.95	25.191
696.27	26.575
696.59	26.344
696.91	28.212
697.23	24.365
697.56	26.139
697.88	27.443
698.20	26.350
698.52	25.935
698.84	27.512
699.16	27.187
699.48	27.654
699.80	26.615
700.12	26.005
700.44	21.690
700.76	25.000
701.08	25.076
701.40	24.850
701.72	26.769
702.04	26.101
702.36	25.305
702.68	26.220
703.00	26.608
703.32	25.348
703.64	25.000
703.96	26.979
704.28	19.277
704.60	25.915
704.91	20.376
705.23	27.848
705.55	21.034
705.87	28.873
706.19	20.513
706.51	22.887
706.83	23.885
707.15	23.780
707.47	26.171
707.79	23.858
708.11	23.136
708.43	26.142
708.74	24.734
709.06	22.727
709.38	25.360
709.70	26.126
710.02	25.234
710.34	20.000
710.66	23.453
710.98	24.768
711.29	22.403
711.61	21.613
711.93	22.581
712.25	21.678
712.57	22.456
712.89	25.275
713.20	26.596
713.52	23.723
713.84	23.548
714.16	22.977
714.48	21.519
714.80	21.725
715.11	23.547
715.43	18.323
715.75	23.602
716.07	23.795
716.39	25.253
716.70	21.942
717.02	19.216
717.34	24.242
717.66	17.672
717.97	23.016
718.29	24.803
718.61	20.601
718.93	20.930
719.24	23.616
719.56	22.846
719.88	22.388
720.20	21.739
720.51	23.437
720.83	23.735
721.15	20.325
721.46	22.901
721.78	18.327
722.10	19.920
722.42	20.161
722.73	20.849
723.05	22.449
723.37	23.109
723.68	19.600
724.00	19.574
724.32	24.268
724.63	23.868
724.95	17.521
725.27	27.848
725.58	24.691
725.90	22.594
726.22	22.826
726.53	16.863
726.85	23.358
727.16	21.852
727.48	22.222
727.80	23.828
728.11	21.721
728.43	24.219
728.74	20.635
729.06	22.400
729.38	20.949
729.69	22.776
730.01	20.074
730.32	23.247
730.64	18.561
730.96	20.979
731.27	18.729
731.59	24.127
731.90	18.447
732.22	17.628
732.53	22.297
732.85	22.148
733.16	18.812
733.48	18.581
733.80	20.270
734.11	25.338
734.43	20.124
734.74	22.823
735.06	21.902
735.37	21.884
735.69	21.036
736.00	19.802
736.32	23.404
736.63	19.655
736.95	20.890
737.26	19.655
737.58	19.097
737.89	18.213
738.21	19.573
738.52	19.011
738.83	24.082
739.15	23.207
739.46	19.066
739.78	14.789
740.09	19.178
740.41	23.214
740.72	15.603
741.04	18.800
741.35	17.105
741.66	20.000
741.98	23.558
742.29	26.733
742.61	17.073
742.92	18.421
743.23	18.396
743.55	21.171
743.86	11.659
744.18	18.627
744.49	22.843
744.80	15.306
745.12	14.953
745.43	24.171
745.74	20.270
746.06	15.888
746.37	17.431
746.68	19.712
747.00	22.967
747.31	24.038
747.62	21.101
747.94	20.087
748.25	23.394
748.56	21.778
748.88	28.169
749.19	19.048
749.50	18.932
749.82	17.840
750.13	15.417
750.44	18.462
750.75	13.284
751.07	23.132
751.38	22.340
751.69	21.236
752.01	17.969
752.32	15.385
752.63	19.403
752.94	20.800
753.26	18.410
753.57	20.833
753.88	24.291
754.19	17.928
754.51	16.917
754.82	18.681
755.13	17.826
755.44	17.073
755.75	15.200
756.07	15.867
756.38	22.302
756.69	15.358
757.00	16.511
757.31	15.534
757.63	19.136
757.94	15.819
758.25	19.577
758.56	17.391
758.87	21.429
759.18	23.659
759.50	14.815
759.81	23.077
760.12	22.769
760.43	16.964
760.74	20.621
761.05	17.680
761.36	18.911
761.67	19.335
761.99	16.151
762.30	17.153
762.61	16.872
762.92	16.239
763.23	18.443
763.54	18.182
763.85	18.367
764.16	17.073
764.47	18.000
764.78	19.643
765.10	19.672
765.41	17.933
765.72	21.429
766.03	16.502
766.34	18.846
766.65	17.155
766.96	18.310
767.27	20.792
767.58	8.989
767.89	22.840
768.20	18.232
768.51	23.618
768.82	20.673
769.13	22.124
769.44	24.268
769.75	11.111
770.06	13.453
770.37	12.255
770.68	18.932
770.99	15.534
771.30	18.067
771.61	15.102
771.92	19.917
772.23	20.721
772.54	14.365
772.85	19.186
773.16	21.164
773.47	13.018
773.78	24.713
774.09	16.875
774.39	18.012
774.70	19.728
775.01	13.793
775.32	15.000
775.63	17.293
775.94	15.038
776.25	12.000
776.56	14.876
776.87	15.079
777.18	11.712
777.48	9.009
777.79	13.386
778.10	12.844
778.41	18.421
778.72	6.723
779.03	10.563
779.34	18.919
779.65	8.451
779.95	5.960
780.26	16.547
780.57	19.424
780.88	10.563
781.19	12.605
781.50	17.450
781.80	18.713
782.11	13.372
782.42	16.981
782.73	17.647
783.04	17.241
783.34	12.977
783.65	14.094
783.96	15.385
784.27	17.857
784.57	15.603
784.88	0.962
785.19	23.636
785.50	10.909
785.81	15.238
786.11	10.084
786.42	11.504
786.73	10.377
787.04	7.339
787.34	10.891
787.65	14.167
787.96	10.744
788.26	13.043
788.57	15.873
788.88	11.382
789.19	4.000
789.49	11.450
789.80	18.182
790.11	5.660
790.41	24.752
790.72	13.830
791.03	0.000
791.33	9.412
791.64	9.877
791.95	17.391
792.25	2.273
792.56	32.051
792.87	6.410
793.17	3.846
793.48	0.000
793.79	6.250
794.09	17.308
794.40	6.250
794.70	6.306
795.01	12.500
795.32	13.913
795.62	-5.435
795.93	9.434
796.23	15.152
796.54	6.098
796.85	3.571
797.15	15.152
797.46	18.841
797.76	17.105
798.07	11.364
798.37	9.756
798.68	-6.452
798.99	-13.514
799.29	24.096
799.60	8.974
799.90	7.692
800.21	10.606
800.51	-4.000
800.82	14.667
801.12	-20.833
801.43	-15.000
801.73	5.405
802.04	27.143
802.34	-1.639
802.65	26.866
802.95	-5.455
803.26	-5.172
803.56	15.385
803.87	15.094
804.17	0.000
804.48	8.824
804.78	-2.439
805.09	21.739
805.39	-2.941
805.70	-10.638
806.00	8.772
806.30	15.385
806.61	10.526
806.91	1.351
807.22	-3.947
807.52	14.773
807.83	-11.864
808.13	-28.788
808.43	-6.667
808.74	-17.241
809.04	11.111
809.35	-2.041
809.65	3.333
809.95	-30.612
810.26	14.085
810.56	-4.167
810.86	-8.163
811.17	11.538
811.47	-25.532
811.77	2.083
812.08	11.321
812.38	3.125
812.69	3.636
812.99	-7.317
813.29	-8.108
813.59	-18.919
813.90	5.455
814.20	0.000
814.50	-10.000
814.81	-5.455
815.11	15.789
815.41	11.628
815.72	-2.500
816.02	-28.571
816.32	-16.216
816.62	6.250
816.93	2.222
817.23	-17.778
817.53	-33.333
817.84	-21.622
818.14	-12.195
818.44	-4.000
818.74	12.245
819.04	-7.317
819.35	-22.222
819.65	-11.364
819.95	-66.667
820.25	-12.121
820.56	-33.333
820.86	2.778
821.16	-11.364
821.46	-10.870
821.76	0.000
822.07	-2.174
822.37	12.121
822.67	-2.439
822.97	-29.730
823.27	-17.143
823.57	6.897
823.88	-11.765
824.18	8.333
824.48	-45.714
824.78	-38.095
825.08	-35.714
825.38	-44.444
825.69	-25.806
825.99	-19.512
826.29	-22.222
826.59	-6.250
826.89	-6.452
827.19	-34.783
827.49	-33.333
827.79	-82.609
828.09	-22.581
828.39	0.000
828.70	-62.500
829.00	-13.793
829.30	0.000
829.60	-20.833
829.90	-18.519
830.20	-15.625
830.50	4.545
830.80	-129.412
831.10	-18.182
831.40	-29.412
831.70	-15.385
832.00	-12.121
832.30	0.000
832.60	8.108
832.90	1800.000
833.20	-10.714
833.50	-95.000
833.80	-10.526
834.10	-58.333
834.40	-31.818
834.70	-93.333
835.00	-100.000
835.30	-70.833
835.60	-71.429
835.90	-42.857
836.20	-64.000
836.50	-29.167
836.80	-78.947
837.10	18.919
837.40	33.333
837.70	-17.391
838.00	0.000
838.30	-26.316
838.60	-90.000
838.90	-100.000
839.19	-100.000
839.49	-30.769
839.79	-52.632
840.09	-250.000
840.39	-150.000
840.69	-68.182
840.99	-38.095
841.29	-12.500
841.59	-76.923
841.88	-133.333
842.18	-92.857
842.48	13.333
842.78	-285.714
843.08	-100.000
843.38	-150.000
843.68	-93.750
843.97	-85.714
844.27	-55.556
844.57	-190.909
844.87	-126.667
845.17	-4.545
845.47	833.333
845.76	-100.000
846.06	-158.333
846.36	-1050.000
846.66	-105.263
846.96	-36.364
847.25	-50.000
847.55	-277.778
847.85	-38.095
848.15	-46.154
848.44	-116.667
848.74	-108.333
849.04	-76.923
849.34	-650.000
849.63	-245.455
849.93	-42.857
850.23	20.000
850.53	-112.500
850.82	-27.778
851.12	-33.333
851.42	-70.588
851.71	-162.500
852.01	29.412
852.31	-23.077
852.61	900.000
852.90	11.765
853.20	-60.000
853.50	-87.500
853.79	-121.429
854.09	-200.000
854.39	-35.000
854.68	-15.000
854.98	-85.714
855.28	-24.000
855.57	-29.167
855.87	-41.667
856.17	-48.000
856.46	-9.375
856.76	-40.000
857.05	-4.000
857.35	-133.333
857.65	-29.412
857.94	-108.333
858.24	-158.333
858.53	-15.000
858.83	-72.727
859.13	20.000
859.42	-50.000
859.72	-137.500
860.01	-16.667
860.31	-300.000
860.60	-56.250
860.90	-183.333
861.20	-116.667
861.49	-33.333
861.79	-87.500
862.08	375.000
862.38	-91.667
862.67	271.429
862.97	300.000
863.26	-118.182
863.56	-100.000
863.85	-52.632
864.15	17.647
864.44	-160.000
864.74	-80.000
865.03	-188.889
865.33	-35.714
865.62	114.286
865.92	36.842
866.21	-77.778
866.51	-136.364
866.80	-155.556
867.10	-225.000
867.39	18.750
867.69	-33.333
867.98	-170.000
868.27	29.412
868.57	0.000
868.86	750.000
869.16	-225.000
869.45	-328.571
869.75	500.000
870.04	20.000
870.33	-1300.000
870.63	-89.474
870.92	-83.333
871.22	-800.000
871.51	-257.143
871.80	-200.000
872.10	-325.000
>>>>>End Processed Spectral Data<<<<<
