SpectraSuite Data File
++++++++++++++++++++++++++++++++++++
Date: Wed May 13 21:33:21 PDT 2015
User: schluterlab
Dark Spectrum Present: Yes
Reference Spectrum Present: Yes
Number of Sampled Component Spectra: 1
Spectrometers: USB2E3373
Integration Time (usec): 3000 (USB2E3373)
Spectra Averaged: 3 (USB2E3373)
Boxcar Smoothing: 0 (USB2E3373)
Correct for Electrical Dark: No (USB2E3373)
Strobe/Lamp Enabled: No (USB2E3373)
Correct for Detector Non-linearity: No (USB2E3373)
Correct for Stray Light: No (USB2E3373)
Number of Pixels in Processed Spectrum: 2048
>>>>>Begin Processed Spectral Data<<<<<
178.53	0.000
178.91	600.000
179.29	158.333
179.67	-1000.000
180.04	-266.667
180.42	280.000
180.80	2000.000
181.18	283.333
181.56	-650.000
181.94	-200.000
182.31	-100.000
182.69	169.231
183.07	-300.000
183.45	266.667
183.83	300.000
184.20	128.571
184.58	-200.000
184.96	566.667
185.34	228.571
185.72	0.000
186.09	-1300.000
186.47	-300.000
186.85	220.000
187.23	-200.000
187.61	350.000
187.98	400.000
188.36	25.000
188.74	0.000
189.12	-54.545
189.49	50.000
189.87	158.333
190.25	380.000
190.63	1100.000
191.00	-300.000
191.38	160.000
191.76	250.000
192.14	158.333
192.51	-31.579
192.89	333.333
193.27	200.000
193.65	-200.000
194.02	127.273
194.40	170.000
194.78	-1600.000
195.15	340.000
195.53	-440.000
195.91	-25.000
196.29	-366.667
196.66	0.000
197.04	650.000
197.42	0.000
197.79	-70.000
198.17	-137.500
198.55	-466.667
198.92	300.000
199.30	-133.333
199.68	-130.000
200.05	550.000
200.43	333.333
200.81	-1900.000
201.18	60.000
201.56	-33.333
201.94	575.000
202.31	-8.696
202.69	-100.000
203.07	-266.667
203.44	-280.000
203.82	-633.333
204.19	-120.000
204.57	0.000
204.95	-233.333
205.32	0.000
205.70	-750.000
206.08	-100.000
206.45	-183.333
206.83	500.000
207.20	-700.000
207.58	-60.000
207.96	-800.000
208.33	-185.714
208.71	-2400.000
209.08	262.500
209.46	450.000
209.84	0.000
210.21	280.000
210.59	2900.000
210.96	380.000
211.34	1500.000
211.71	-1100.000
212.09	-400.000
212.46	-120.000
212.84	-166.667
213.22	-500.000
213.59	-1600.000
213.97	-850.000
214.34	-1050.000
214.72	-92.308
215.09	237.500
215.47	177.778
215.84	550.000
216.22	-75.000
216.59	-650.000
216.97	766.667
217.34	133.333
217.72	0.000
218.09	166.667
218.47	-600.000
218.84	-114.286
219.22	-212.500
219.59	-333.333
219.97	-600.000
220.34	-162.500
220.72	-360.000
221.09	0.000
221.47	-183.333
221.84	-300.000
222.22	0.000
222.59	1700.000
222.97	-200.000
223.34	-58.333
223.72	-1500.000
224.09	-550.000
224.46	-45.455
224.84	-100.000
225.21	-157.143
225.59	-250.000
225.96	-166.667
226.34	-100.000
226.71	-100.000
227.08	800.000
227.46	-162.500
227.83	-800.000
228.21	-25.000
228.58	-250.000
228.95	-35.294
229.33	-43.750
229.70	-62.500
230.08	-23.077
230.45	-75.000
230.82	-108.333
231.20	271.429
231.57	-425.000
231.95	1300.000
232.32	-125.000
232.69	0.000
233.07	-2100.000
233.44	-39.130
233.81	-650.000
234.19	-20.833
234.56	-86.667
234.93	-26.667
235.31	-21.053
235.68	-153.846
236.05	-130.769
236.43	-50.000
236.80	-36.364
237.17	-60.000
237.55	-135.294
237.92	-24.138
238.29	-44.444
238.67	0.000
239.04	-3.226
239.41	-14.894
239.79	-4.255
240.16	-18.605
240.53	-7.143
240.91	-5.357
241.28	-3.571
241.65	-12.903
242.02	-2.632
242.40	-4.348
242.77	-11.594
243.14	3.846
243.51	5.319
243.89	5.769
244.26	15.094
244.63	6.731
245.00	-4.167
245.38	-2.521
245.75	8.197
246.12	12.030
246.49	5.691
246.87	-1.681
247.24	8.784
247.61	11.258
247.98	5.769
248.36	5.325
248.73	2.809
249.10	9.091
249.47	5.376
249.84	11.053
250.22	8.955
250.59	12.150
250.96	11.818
251.33	2.392
251.70	13.808
252.08	11.297
252.45	7.407
252.82	10.646
253.19	10.506
253.56	8.273
253.94	10.320
254.31	10.915
254.68	6.711
255.05	9.241
255.42	10.490
255.79	7.975
256.16	11.987
256.54	13.333
256.91	10.127
257.28	14.151
257.65	10.191
258.02	10.557
258.39	13.158
258.76	11.628
259.14	12.500
259.51	12.079
259.88	12.195
260.25	12.222
260.62	10.955
260.99	12.467
261.36	11.658
261.73	8.642
262.10	9.924
262.47	10.864
262.85	8.955
263.22	12.821
263.59	10.649
263.96	12.409
264.33	9.135
264.70	12.093
265.07	11.574
265.44	12.644
265.81	11.442
266.18	11.617
266.55	8.734
266.92	10.805
267.29	9.877
267.66	11.677
268.03	12.963
268.40	10.593
268.77	11.364
269.14	12.857
269.51	13.758
269.88	10.183
270.25	11.017
270.62	9.426
270.99	12.598
271.36	12.302
271.73	12.048
272.10	12.571
272.47	13.244
272.84	11.220
273.21	12.720
273.58	11.885
273.95	11.509
274.32	14.366
274.69	12.933
275.06	13.604
275.43	9.981
275.80	11.879
276.17	11.786
276.54	11.723
276.91	12.544
277.28	9.025
277.65	13.811
278.02	11.429
278.39	9.947
278.76	11.037
279.13	11.492
279.50	12.414
279.87	12.681
280.23	12.252
280.60	13.149
280.97	11.688
281.34	12.934
281.71	11.220
282.08	11.453
282.45	12.623
282.82	12.300
283.19	12.652
283.56	12.031
283.92	12.080
284.29	9.828
284.66	10.544
285.03	10.749
285.40	12.085
285.77	13.814
286.14	12.310
286.51	13.943
286.87	9.538
287.24	11.947
287.61	12.199
287.98	12.353
288.35	9.687
288.72	12.195
289.08	12.963
289.45	12.041
289.82	12.708
290.19	12.202
290.56	9.517
290.93	10.635
291.29	10.123
291.66	10.519
292.03	11.172
292.40	10.094
292.77	11.780
293.13	10.600
293.50	11.373
293.87	9.733
294.24	11.243
294.60	12.094
294.97	10.979
295.34	8.707
295.71	9.724
296.08	9.817
296.44	8.163
296.81	10.353
297.18	10.875
297.55	10.024
297.91	10.683
298.28	9.927
298.65	10.345
299.02	10.745
299.38	9.693
299.75	9.976
300.12	8.953
300.48	9.123
300.85	9.122
301.22	8.479
301.59	7.512
301.95	8.130
302.32	8.985
302.69	9.605
303.05	9.745
303.42	8.977
303.79	9.253
304.15	8.105
304.52	10.108
304.89	8.416
305.25	9.001
305.62	9.761
305.99	9.032
306.35	11.076
306.72	9.257
307.09	9.593
307.45	9.372
307.82	9.684
308.19	8.882
308.55	7.984
308.92	10.904
309.29	9.109
309.65	9.590
310.02	8.648
310.38	9.451
310.75	8.580
311.12	9.038
311.48	9.001
311.85	9.350
312.22	9.381
312.58	8.116
312.95	8.358
313.31	9.826
313.68	8.397
314.05	10.019
314.41	8.934
314.78	10.531
315.14	8.889
315.51	9.610
315.87	9.175
316.24	10.744
316.61	9.680
316.97	8.796
317.34	8.913
317.70	9.456
318.07	10.470
318.43	8.853
318.80	9.162
319.16	8.311
319.53	9.319
319.89	8.401
320.26	9.612
320.62	9.361
320.99	9.109
321.35	8.326
321.72	7.892
322.08	8.948
322.45	11.193
322.81	8.965
323.18	9.302
323.54	9.657
323.91	9.575
324.27	9.271
324.64	9.059
325.00	9.274
325.37	10.239
325.73	8.923
326.10	9.588
326.46	9.783
326.83	10.599
327.19	9.268
327.56	10.637
327.92	9.010
328.29	10.351
328.65	9.816
329.01	9.235
329.38	10.087
329.74	10.472
330.11	8.747
330.47	9.115
330.84	9.025
331.20	10.077
331.56	8.605
331.93	9.733
332.29	10.339
332.66	9.576
333.02	10.165
333.38	9.211
333.75	9.727
334.11	8.854
334.48	9.677
334.84	9.011
335.20	9.777
335.57	9.312
335.93	8.505
336.29	9.107
336.66	9.573
337.02	9.130
337.38	10.096
337.75	9.991
338.11	9.735
338.47	8.048
338.84	9.794
339.20	9.612
339.56	9.130
339.93	8.557
340.29	9.650
340.65	10.351
341.02	9.651
341.38	9.459
341.74	8.739
342.11	9.331
342.47	8.285
342.83	8.578
343.20	9.983
343.56	9.812
343.92	9.586
344.28	10.633
344.65	9.306
345.01	8.636
345.37	10.362
345.73	9.722
346.10	9.872
346.46	8.699
346.82	8.748
347.19	9.415
347.55	9.208
347.91	8.262
348.27	8.596
348.63	8.814
349.00	9.198
349.36	8.948
349.72	10.363
350.08	9.204
350.45	9.084
350.81	9.468
351.17	10.778
351.53	8.877
351.89	8.975
352.26	7.490
352.62	9.457
352.98	8.227
353.34	8.776
353.70	9.112
354.07	8.471
354.43	8.320
354.79	8.734
355.15	9.084
355.51	8.884
355.87	8.679
356.24	8.507
356.60	8.131
356.96	8.826
357.32	9.443
357.68	9.473
358.04	10.240
358.40	9.147
358.77	8.869
359.13	8.794
359.49	8.706
359.85	9.401
360.21	8.558
360.57	9.354
360.93	8.801
361.29	9.400
361.66	8.656
362.02	9.044
362.38	9.306
362.74	8.774
363.10	8.460
363.46	8.357
363.82	8.721
364.18	8.847
364.54	8.607
364.90	8.014
365.26	9.271
365.62	8.523
365.98	8.826
366.35	9.078
366.71	8.131
367.07	8.646
367.43	8.780
367.79	8.826
368.15	8.790
368.51	7.947
368.87	8.583
369.23	8.114
369.59	8.386
369.95	7.692
370.31	8.717
370.67	8.110
371.03	9.577
371.39	8.588
371.75	8.571
372.11	8.476
372.47	9.012
372.83	8.738
373.19	7.914
373.55	9.393
373.91	8.699
374.27	7.815
374.63	8.393
374.99	9.262
375.35	8.288
375.71	8.764
376.07	9.390
376.42	8.356
376.78	9.313
377.14	7.729
377.50	8.735
377.86	8.167
378.22	8.154
378.58	9.016
378.94	8.562
379.30	8.807
379.66	9.309
380.02	8.027
380.38	8.494
380.74	9.325
381.09	8.504
381.45	8.525
381.81	8.626
382.17	8.318
382.53	9.046
382.89	8.263
383.25	8.148
383.61	9.262
383.97	8.562
384.32	7.435
384.68	8.575
385.04	7.636
385.40	8.842
385.76	9.307
386.12	8.393
386.48	8.025
386.83	8.323
387.19	8.760
387.55	8.645
387.91	8.364
388.27	8.693
388.62	7.928
388.98	8.824
389.34	8.208
389.70	8.486
390.06	9.188
390.42	8.634
390.77	8.969
391.13	8.902
391.49	9.108
391.85	8.371
392.20	8.020
392.56	8.444
392.92	7.958
393.28	8.948
393.64	8.135
393.99	7.956
394.35	8.395
394.71	8.654
395.07	7.673
395.42	8.897
395.78	8.301
396.14	9.258
396.50	7.800
396.85	9.624
397.21	8.302
397.57	8.634
397.92	7.186
398.28	8.742
398.64	8.925
399.00	9.542
399.35	9.024
399.71	8.503
400.07	8.675
400.42	7.461
400.78	8.520
401.14	7.848
401.49	8.688
401.85	8.231
402.21	8.483
402.57	8.645
402.92	9.825
403.28	8.630
403.63	8.679
403.99	8.893
404.35	7.668
404.70	8.218
405.06	9.043
405.42	8.543
405.77	8.468
406.13	8.286
406.49	8.388
406.84	8.852
407.20	7.934
407.55	9.026
407.91	8.339
408.27	8.359
408.62	9.515
408.98	8.385
409.34	7.550
409.69	9.032
410.05	8.644
410.40	8.704
410.76	9.146
411.11	8.209
411.47	9.290
411.83	8.734
412.18	8.312
412.54	8.709
412.89	7.837
413.25	8.555
413.60	8.088
413.96	8.677
414.31	9.186
414.67	8.381
415.03	8.931
415.38	8.256
415.74	8.382
416.09	9.055
416.45	8.271
416.80	8.456
417.16	9.514
417.51	7.904
417.87	8.267
418.22	8.145
418.58	8.607
418.93	8.663
419.29	9.043
419.64	8.842
420.00	8.190
420.35	8.488
420.71	8.897
421.06	8.672
421.42	9.124
421.77	9.249
422.12	9.169
422.48	8.615
422.83	9.096
423.19	8.971
423.54	9.069
423.90	9.204
424.25	8.434
424.61	8.811
424.96	7.924
425.31	8.861
425.67	8.995
426.02	8.893
426.38	8.271
426.73	8.491
427.09	8.318
427.44	8.925
427.79	8.551
428.15	8.869
428.50	8.580
428.85	9.471
429.21	8.948
429.56	9.245
429.92	8.641
430.27	8.793
430.62	9.444
430.98	9.201
431.33	9.081
431.68	9.531
432.04	8.901
432.39	9.180
432.74	8.706
433.10	9.297
433.45	9.053
433.80	7.874
434.16	8.738
434.51	9.293
434.86	8.657
435.22	8.715
435.57	9.337
435.92	9.047
436.28	8.949
436.63	8.256
436.98	9.048
437.34	8.425
437.69	9.091
438.04	8.998
438.39	9.091
438.75	8.641
439.10	9.601
439.45	8.414
439.81	8.805
440.16	10.435
440.51	8.561
440.86	9.899
441.22	8.376
441.57	8.406
441.92	9.228
442.27	8.658
442.63	8.881
442.98	8.854
443.33	9.086
443.68	8.118
444.03	9.240
444.39	9.073
444.74	8.227
445.09	8.921
445.44	9.183
445.79	8.570
446.15	8.819
446.50	8.425
446.85	9.514
447.20	8.939
447.55	9.345
447.91	8.596
448.26	8.176
448.61	9.091
448.96	8.827
449.31	8.909
449.66	8.791
450.02	9.494
450.37	9.048
450.72	9.242
451.07	9.028
451.42	8.359
451.77	9.251
452.12	8.853
452.47	9.167
452.83	8.314
453.18	8.211
453.53	9.332
453.88	9.036
454.23	8.962
454.58	8.640
454.93	8.852
455.28	9.056
455.63	8.297
455.98	8.278
456.34	8.773
456.69	9.137
457.04	9.412
457.39	8.779
457.74	8.977
458.09	8.768
458.44	7.932
458.79	8.731
459.14	8.596
459.49	9.268
459.84	8.230
460.19	8.523
460.54	9.428
460.89	9.065
461.24	9.494
461.59	8.454
461.94	8.850
462.29	8.578
462.64	9.235
462.99	8.987
463.34	9.323
463.69	9.085
464.04	8.283
464.39	9.335
464.74	8.415
465.09	9.175
465.44	9.091
465.79	9.488
466.14	9.749
466.49	8.798
466.84	9.085
467.19	8.408
467.54	9.462
467.89	9.491
468.24	9.711
468.59	9.178
468.94	10.089
469.29	9.914
469.64	9.484
469.99	9.862
470.34	9.171
470.68	8.178
471.03	9.097
471.38	9.736
471.73	10.219
472.08	9.210
472.43	9.697
472.78	10.210
473.13	8.377
473.48	9.067
473.83	9.479
474.17	9.570
474.52	8.932
474.87	9.409
475.22	9.118
475.57	8.924
475.92	9.433
476.27	8.450
476.61	9.400
476.96	9.252
477.31	9.817
477.66	9.266
478.01	8.956
478.36	9.046
478.70	9.452
479.05	9.711
479.40	9.828
479.75	8.555
480.10	9.485
480.45	8.975
480.79	9.607
481.14	9.676
481.49	8.929
481.84	8.812
482.19	8.291
482.53	8.810
482.88	9.492
483.23	8.662
483.58	9.546
483.92	8.804
484.27	8.829
484.62	9.454
484.97	9.664
485.31	9.561
485.66	8.872
486.01	9.060
486.36	9.033
486.70	9.186
487.05	9.554
487.40	9.327
487.75	9.704
488.09	9.290
488.44	9.569
488.79	9.614
489.13	9.821
489.48	9.448
489.83	9.469
490.17	9.033
490.52	9.397
490.87	9.643
491.22	9.750
491.56	9.583
491.91	9.458
492.26	9.188
492.60	9.428
492.95	10.253
493.30	9.448
493.64	8.345
493.99	9.275
494.34	9.634
494.68	9.499
495.03	8.547
495.37	10.122
495.72	10.226
496.07	9.742
496.41	8.891
496.76	9.598
497.11	9.202
497.45	9.582
497.80	9.743
498.14	10.378
498.49	9.329
498.84	9.666
499.18	9.706
499.53	9.749
499.87	9.219
500.22	9.955
500.56	9.278
500.91	9.457
501.26	9.409
501.60	9.020
501.95	9.823
502.29	10.146
502.64	9.740
502.98	9.586
503.33	9.635
503.67	9.834
504.02	9.216
504.36	10.154
504.71	9.451
505.06	9.679
505.40	10.000
505.75	10.173
506.09	10.015
506.44	9.526
506.78	9.192
507.13	9.511
507.47	9.756
507.82	9.576
508.16	10.818
508.51	9.452
508.85	9.694
509.19	9.312
509.54	10.295
509.88	9.355
510.23	10.263
510.57	9.799
510.92	9.806
511.26	10.011
511.61	10.154
511.95	9.316
512.30	9.717
512.64	10.613
512.98	9.474
513.33	10.535
513.67	9.767
514.02	10.091
514.36	10.112
514.70	9.527
515.05	9.713
515.39	10.024
515.74	9.651
516.08	9.381
516.42	9.850
516.77	9.900
517.11	9.877
517.46	10.144
517.80	11.320
518.14	10.043
518.49	9.644
518.83	9.964
519.17	10.361
519.52	9.831
519.86	10.625
520.20	9.218
520.55	10.510
520.89	9.677
521.23	10.385
521.58	10.430
521.92	10.245
522.26	9.759
522.61	10.407
522.95	10.622
523.29	10.286
523.64	9.854
523.98	10.102
524.32	9.578
524.66	10.065
525.01	10.026
525.35	10.665
525.69	10.603
526.04	9.511
526.38	10.389
526.72	10.454
527.06	9.800
527.41	9.993
527.75	10.280
528.09	10.415
528.43	10.312
528.78	10.594
529.12	10.349
529.46	11.196
529.80	11.327
530.15	10.746
530.49	10.580
530.83	10.088
531.17	9.658
531.51	10.384
531.86	10.772
532.20	10.269
532.54	10.069
532.88	10.143
533.22	10.774
533.57	9.934
533.91	10.839
534.25	10.352
534.59	9.395
534.93	10.395
535.27	11.210
535.62	10.000
535.96	10.735
536.30	10.106
536.64	9.706
536.98	9.250
537.32	10.463
537.66	11.072
538.01	10.472
538.35	10.152
538.69	10.502
539.03	9.732
539.37	9.859
539.71	9.550
540.05	10.459
540.39	9.979
540.73	10.056
541.07	11.361
541.42	10.707
541.76	11.231
542.10	9.140
542.44	10.118
542.78	10.062
543.12	10.714
543.46	9.606
543.80	9.640
544.14	9.773
544.48	9.887
544.82	9.280
545.16	9.060
545.50	10.263
545.84	9.607
546.18	9.888
546.52	10.233
546.86	9.611
547.20	9.578
547.54	10.579
547.88	10.256
548.22	10.814
548.56	9.940
548.90	10.217
549.24	11.458
549.58	10.463
549.92	10.345
550.26	11.882
550.60	10.586
550.94	9.328
551.28	9.538
551.62	10.376
551.96	10.322
552.30	9.825
552.64	9.534
552.98	10.014
553.32	9.805
553.66	10.858
554.00	10.151
554.34	10.256
554.68	9.993
555.02	10.479
555.36	10.590
555.69	10.197
556.03	10.007
556.37	10.953
556.71	11.282
557.05	9.963
557.39	10.023
557.73	10.666
558.07	10.098
558.41	10.522
558.75	10.547
559.08	8.340
559.42	10.307
559.76	10.398
560.10	10.069
560.44	10.464
560.78	9.928
561.12	9.460
561.45	9.660
561.79	10.248
562.13	10.900
562.47	9.857
562.81	9.740
563.15	9.915
563.48	9.291
563.82	9.918
564.16	9.749
564.50	10.380
564.84	9.865
565.17	10.199
565.51	9.693
565.85	10.127
566.19	10.066
566.52	10.354
566.86	9.671
567.20	9.469
567.54	10.248
567.88	9.630
568.21	10.538
568.55	9.807
568.89	10.020
569.23	10.449
569.56	10.096
569.90	10.238
570.24	9.350
570.57	9.826
570.91	9.687
571.25	9.650
571.59	9.591
571.92	9.534
572.26	10.217
572.60	9.855
572.93	9.622
573.27	9.991
573.61	10.107
573.95	9.757
574.28	9.977
574.62	9.603
574.96	9.843
575.29	9.529
575.63	9.747
575.97	9.973
576.30	9.912
576.64	9.667
576.98	9.712
577.31	9.814
577.65	9.233
577.98	9.849
578.32	9.501
578.66	9.830
578.99	9.460
579.33	9.945
579.67	9.852
580.00	9.689
580.34	9.598
580.67	9.971
581.01	9.865
581.35	9.518
581.68	9.824
582.02	9.730
582.35	9.537
582.69	9.662
583.02	9.892
583.36	9.988
583.70	9.751
584.03	9.841
584.37	9.836
584.70	10.093
585.04	9.828
585.37	9.672
585.71	10.130
586.04	9.850
586.38	9.524
586.72	9.722
587.05	10.152
587.39	10.128
587.72	9.309
588.06	9.767
588.39	9.964
588.73	9.657
589.06	9.311
589.40	9.838
589.73	9.666
590.07	9.989
590.40	9.618
590.73	10.008
591.07	9.862
591.40	9.783
591.74	9.471
592.07	9.813
592.41	10.511
592.74	9.838
593.08	9.162
593.41	9.859
593.75	9.625
594.08	9.775
594.41	9.616
594.75	10.382
595.08	9.522
595.42	9.198
595.75	10.484
596.09	9.854
596.42	10.172
596.75	10.136
597.09	10.510
597.42	10.139
597.75	10.356
598.09	10.018
598.42	9.664
598.76	10.202
599.09	9.764
599.42	9.856
599.76	9.425
600.09	9.714
600.42	9.718
600.76	9.387
601.09	9.831
601.42	10.388
601.76	9.691
602.09	10.782
602.42	10.153
602.76	9.354
603.09	10.349
603.42	9.996
603.76	9.899
604.09	9.684
604.42	9.627
604.76	9.385
605.09	10.331
605.42	10.751
605.75	9.722
606.09	9.478
606.42	9.975
606.75	9.524
607.09	9.087
607.42	9.676
607.75	8.928
608.08	9.919
608.42	9.466
608.75	9.890
609.08	10.093
609.41	9.786
609.75	9.481
610.08	9.813
610.41	10.690
610.74	10.058
611.07	10.170
611.41	9.826
611.74	10.197
612.07	10.214
612.40	10.108
612.73	10.154
613.07	9.534
613.40	10.132
613.73	9.751
614.06	10.392
614.39	9.616
614.72	10.938
615.06	9.944
615.39	10.486
615.72	9.233
616.05	8.953
616.38	9.966
616.71	9.118
617.05	9.889
617.38	9.982
617.71	9.743
618.04	9.445
618.37	9.464
618.70	9.961
619.03	9.003
619.36	9.466
619.69	10.526
620.03	10.247
620.36	9.603
620.69	8.423
621.02	8.692
621.35	9.894
621.68	9.372
622.01	9.951
622.34	9.120
622.67	9.397
623.00	9.878
623.33	8.975
623.66	8.996
623.99	9.152
624.32	10.125
624.65	10.015
624.99	10.287
625.32	9.783
625.65	9.070
625.98	9.874
626.31	9.469
626.64	9.372
626.97	9.948
627.30	10.094
627.63	9.602
627.96	8.745
628.29	11.070
628.62	10.251
628.95	9.820
629.28	9.557
629.61	10.048
629.94	8.994
630.26	9.261
630.59	9.890
630.92	10.341
631.25	9.475
631.58	10.600
631.91	9.650
632.24	8.452
632.57	8.444
632.90	10.618
633.23	8.753
633.56	11.871
633.89	10.048
634.22	11.190
634.55	10.840
634.88	9.926
635.20	11.750
635.53	9.044
635.86	9.359
636.19	9.801
636.52	8.537
636.85	9.047
637.18	8.648
637.51	7.740
637.83	10.313
638.16	7.067
638.49	8.545
638.82	9.281
639.15	9.043
639.48	9.759
639.81	9.583
640.13	9.577
640.46	11.441
640.79	8.921
641.12	8.580
641.45	10.044
641.77	9.573
642.10	9.834
642.43	10.220
642.76	8.991
643.09	9.585
643.41	11.164
643.74	9.047
644.07	8.414
644.40	10.116
644.73	9.661
645.05	8.726
645.38	8.638
645.71	10.204
646.04	7.744
646.36	10.417
646.69	10.140
647.02	9.290
647.35	8.775
647.67	7.948
648.00	7.609
648.33	8.983
648.66	6.845
648.98	9.006
649.31	8.896
649.64	8.607
649.96	9.637
650.29	6.536
650.62	9.226
650.94	9.138
651.27	9.187
651.60	8.566
651.92	9.498
652.25	8.878
652.58	10.066
652.90	8.923
653.23	8.319
653.56	9.917
653.88	4.949
654.21	7.509
654.54	8.472
654.86	8.455
655.19	8.543
655.52	11.154
655.84	9.335
656.17	11.279
656.49	15.060
656.82	14.953
657.15	11.501
657.47	8.525
657.80	6.320
658.13	6.798
658.45	10.259
658.78	10.098
659.10	9.529
659.43	10.111
659.75	10.416
660.08	9.448
660.41	9.736
660.73	9.780
661.06	8.844
661.38	6.977
661.71	9.221
662.03	8.879
662.36	6.637
662.68	9.032
663.01	9.746
663.33	7.343
663.66	5.987
663.98	8.764
664.31	9.890
664.63	4.505
664.96	9.409
665.28	9.227
665.61	7.127
665.93	8.137
666.26	10.338
666.58	5.782
666.91	10.314
667.23	9.677
667.56	9.195
667.88	9.579
668.21	8.705
668.53	9.195
668.86	7.434
669.18	8.038
669.50	9.677
669.83	6.444
670.15	5.952
670.48	6.207
670.80	8.753
671.13	10.069
671.45	10.502
671.77	8.190
672.10	7.018
672.42	6.870
672.75	9.107
673.07	10.182
673.39	7.836
673.72	9.381
674.04	8.402
674.37	8.740
674.69	7.819
675.01	9.188
675.34	9.409
675.66	10.458
675.98	7.301
676.31	9.050
676.63	7.710
676.95	8.000
677.28	8.945
677.60	6.863
677.92	9.313
678.25	7.158
678.57	10.591
678.89	6.397
679.22	9.731
679.54	7.347
679.86	8.398
680.18	8.846
680.51	9.423
680.83	7.407
681.15	9.823
681.48	8.617
681.80	7.771
682.12	6.875
682.44	7.646
682.77	7.158
683.09	7.589
683.41	5.814
683.73	7.813
684.06	9.292
684.38	6.624
684.70	7.332
685.02	8.471
685.34	6.849
685.67	6.754
685.99	8.185
686.31	7.414
686.63	9.191
686.96	9.276
687.28	5.988
687.60	11.720
687.92	7.977
688.24	8.400
688.56	7.456
688.89	6.904
689.21	8.072
689.53	8.108
689.85	5.843
690.17	6.374
690.49	6.280
690.82	5.489
691.14	6.522
691.46	6.032
691.78	8.352
692.10	9.554
692.42	6.374
692.74	10.000
693.06	9.213
693.39	6.089
693.71	8.444
694.03	7.273
694.35	10.135
694.67	10.000
694.99	9.021
695.31	8.269
695.63	7.805
695.95	6.616
696.27	5.753
696.59	6.720
696.91	10.056
697.23	6.599
697.56	5.516
697.88	9.356
698.20	10.151
698.52	5.841
698.84	7.177
699.16	5.910
699.48	6.914
699.80	11.111
700.12	8.579
700.44	6.761
700.76	7.584
701.08	9.668
701.40	5.090
701.72	8.308
702.04	4.717
702.36	3.963
702.68	5.488
703.00	9.064
703.32	4.178
703.64	5.422
703.96	7.331
704.28	6.024
704.60	5.183
704.91	6.270
705.23	4.430
705.55	7.931
705.87	10.915
706.19	7.692
706.51	2.817
706.83	3.503
707.15	8.232
707.47	7.438
707.79	6.345
708.11	4.884
708.43	10.406
708.74	6.649
709.06	6.684
709.38	10.086
709.70	10.511
710.02	5.919
710.34	4.333
710.66	6.840
710.98	7.740
711.29	7.468
711.61	6.452
711.93	6.774
712.25	5.594
712.57	4.912
712.89	1.832
713.20	5.674
713.52	4.745
713.84	5.161
714.16	7.120
714.48	5.380
714.80	2.875
715.11	11.919
715.43	2.484
715.75	7.453
716.07	8.735
716.39	8.754
716.70	10.432
717.02	2.353
717.34	5.303
717.66	6.466
717.97	2.381
718.29	5.906
718.61	5.579
718.93	5.814
719.24	8.856
719.56	2.247
719.88	2.239
720.20	0.791
720.51	7.422
720.83	11.284
721.15	2.439
721.46	2.290
721.78	9.163
722.10	6.773
722.42	1.210
722.73	3.861
723.05	8.571
723.37	7.983
723.68	7.600
724.00	3.404
724.32	4.184
724.63	6.173
724.95	2.564
725.27	8.439
725.58	6.584
725.90	5.021
726.22	4.710
726.53	2.745
726.85	7.664
727.16	5.926
727.48	6.513
727.80	6.250
728.11	4.508
728.43	4.297
728.74	4.762
729.06	7.200
729.38	1.581
729.69	8.185
730.01	4.089
730.32	7.380
730.64	3.788
730.96	10.839
731.27	1.672
731.59	6.984
731.90	7.120
732.22	4.167
732.53	3.378
732.85	0.336
733.16	7.921
733.48	5.068
733.80	2.703
734.11	7.432
734.43	5.882
734.74	4.805
735.06	6.340
735.37	8.511
735.69	6.796
736.00	7.591
736.32	7.801
736.63	4.138
736.95	7.534
737.26	4.138
737.58	8.681
737.89	3.780
738.21	7.473
738.52	4.183
738.83	6.939
739.15	5.063
739.46	1.946
739.78	2.817
740.09	7.192
740.41	1.786
740.72	7.801
741.04	6.400
741.35	4.825
741.66	4.889
741.98	6.250
742.29	4.455
742.61	3.415
742.92	14.912
743.23	4.717
743.55	11.712
743.86	6.726
744.18	4.412
744.49	5.076
744.80	0.510
745.12	3.738
745.43	9.479
745.74	9.009
746.06	7.009
746.37	2.752
746.68	3.846
747.00	5.742
747.31	3.365
747.62	8.257
747.94	10.480
748.25	9.633
748.56	9.333
748.88	8.920
749.19	10.952
749.50	1.456
749.82	0.939
750.13	2.500
750.44	4.615
750.75	6.273
751.07	10.676
751.38	7.092
751.69	5.405
752.01	4.297
752.32	2.692
752.63	7.463
752.94	6.800
753.26	5.858
753.57	4.167
753.88	2.834
754.19	1.992
754.51	8.647
754.82	1.465
755.13	-3.913
755.44	6.504
755.75	0.800
756.07	3.690
756.38	8.993
756.69	7.509
757.00	4.984
757.31	7.443
757.63	4.321
757.94	9.040
758.25	5.820
758.56	6.522
758.87	5.952
759.18	7.571
759.50	6.734
759.81	5.351
760.12	9.846
760.43	6.845
760.74	6.497
761.05	5.525
761.36	4.585
761.67	7.855
761.99	3.436
762.30	3.650
762.61	3.292
762.92	6.838
763.23	15.164
763.54	7.792
763.85	4.490
764.16	3.659
764.47	6.000
764.78	3.571
765.10	2.951
765.41	5.775
765.72	4.658
766.03	4.290
766.34	6.538
766.65	2.092
766.96	0.469
767.27	4.950
767.58	0.000
767.89	6.173
768.20	5.525
768.51	11.558
768.82	10.096
769.13	6.637
769.44	9.623
769.75	-3.846
770.06	6.278
770.37	3.922
770.68	3.883
770.99	0.000
771.30	6.303
771.61	3.265
771.92	9.129
772.23	5.405
772.54	-2.762
772.85	0.000
773.16	9.524
773.47	0.000
773.78	8.046
774.09	-1.250
774.39	5.590
774.70	-2.041
775.01	0.000
775.32	5.714
775.63	-5.263
775.94	0.752
776.25	4.000
776.56	-2.479
776.87	5.556
777.18	-2.703
777.48	-0.901
777.79	-2.362
778.10	-0.917
778.41	-8.772
778.72	-0.840
779.03	-7.042
779.34	8.784
779.65	0.000
779.95	0.662
780.26	0.000
780.57	5.036
780.88	4.930
781.19	-5.042
781.50	0.000
781.80	2.339
782.11	-1.744
782.42	3.774
782.73	3.922
783.04	2.759
783.34	1.527
783.65	-2.685
783.96	3.077
784.27	0.714
784.57	9.220
784.88	-15.385
785.19	10.909
785.50	-3.636
785.81	0.952
786.11	1.681
786.42	0.885
786.73	-2.830
787.04	-6.422
787.34	-6.931
787.65	8.333
787.96	0.826
788.26	4.348
788.57	3.175
788.88	-0.813
789.19	0.000
789.49	-0.763
789.80	10.606
790.11	-14.151
790.41	-2.970
790.72	1.064
791.03	-10.870
791.33	-3.529
791.64	0.000
791.95	2.174
792.25	-7.955
792.56	-6.410
792.87	-1.282
793.17	-16.667
793.48	-10.714
793.79	-11.250
794.09	8.654
794.40	-1.042
794.70	-0.901
795.01	-7.031
795.32	4.348
795.62	-14.130
795.93	5.660
796.23	-1.010
796.54	-7.317
796.85	1.190
797.15	-10.606
797.46	-5.797
797.76	-18.421
798.07	3.409
798.37	-8.537
798.68	-20.968
798.99	2.703
799.29	1.205
799.60	-2.564
799.90	3.077
800.21	-9.091
800.51	8.000
800.82	-5.333
801.12	-43.750
801.43	-30.000
801.73	-4.054
802.04	7.143
802.34	-21.311
802.65	4.478
802.95	-10.909
803.26	-20.690
803.56	1.538
803.87	-3.774
804.17	-11.290
804.48	-2.941
804.78	-34.146
805.09	-4.348
805.39	-7.353
805.70	-31.915
806.00	-15.789
806.30	10.256
806.61	5.263
806.91	-4.054
807.22	-15.789
807.52	-1.136
807.83	-23.729
808.13	-36.364
808.43	-10.000
808.74	-24.138
809.04	-6.349
809.35	-24.490
809.65	-11.667
809.95	-14.286
810.26	1.408
810.56	-12.500
810.86	-26.531
811.17	-13.462
811.47	-29.787
811.77	-22.917
812.08	0.000
812.38	-43.750
812.69	-14.545
812.99	-17.073
813.29	-48.649
813.59	-54.054
813.90	-21.818
814.20	-10.909
814.50	-16.667
814.81	-12.727
815.11	-17.544
815.41	2.326
815.72	-40.000
816.02	-11.429
816.32	-10.811
816.62	-4.167
816.93	-6.667
817.23	-28.889
817.53	-69.444
817.84	-43.243
818.14	-12.195
818.44	-16.000
818.74	0.000
819.04	-19.512
819.35	-2.778
819.65	-9.091
819.95	-127.778
820.25	-42.424
820.56	-35.714
820.86	-25.000
821.16	-20.455
821.46	-13.043
821.76	-6.897
822.07	-2.174
822.37	-24.242
822.67	2.439
822.97	-37.838
823.27	-51.429
823.57	3.448
823.88	-35.294
824.18	-13.889
824.48	-22.857
824.78	-47.619
825.08	3.571
825.38	-44.444
825.69	-35.484
825.99	-4.878
826.29	-14.815
826.59	-56.250
826.89	-29.032
827.19	-34.783
827.49	-52.778
827.79	-60.870
828.09	-29.032
828.39	-31.250
828.70	-43.750
829.00	-37.931
829.30	-13.514
829.60	-75.000
829.90	-40.741
830.20	-15.625
830.50	-36.364
830.80	-117.647
831.10	-40.909
831.40	-58.824
831.70	-50.000
832.00	-21.212
832.30	5.882
832.60	-27.027
832.90	2200.000
833.20	-35.714
833.50	-90.000
833.80	2.632
834.10	-54.167
834.40	-81.818
834.70	-93.333
835.00	-100.000
835.30	-50.000
835.60	-76.190
835.90	0.000
836.20	-32.000
836.50	-58.333
836.80	-68.421
837.10	-2.703
837.40	16.667
837.70	-39.130
838.00	-25.000
838.30	0.000
838.60	-230.000
838.90	-220.000
839.19	-133.333
839.49	-100.000
839.79	-63.158
840.09	-266.667
840.39	-120.000
840.69	-77.273
840.99	19.048
841.29	-50.000
841.59	-130.769
841.88	-73.333
842.18	-28.571
842.48	0.000
842.78	-214.286
843.08	-114.286
843.38	-187.500
843.68	-131.250
843.97	-50.000
844.27	-244.444
844.57	-136.364
844.87	-73.333
845.17	-27.273
845.47	1000.000
845.76	-100.000
846.06	-141.667
846.36	-900.000
846.66	-73.684
846.96	-72.727
847.25	-100.000
847.55	-100.000
847.85	-57.143
848.15	-76.923
848.44	-416.667
848.74	-125.000
849.04	-92.308
849.34	-475.000
849.63	-100.000
849.93	-135.714
850.23	-45.000
850.53	-275.000
850.82	-94.444
851.12	-60.000
851.42	-88.235
851.71	-125.000
852.01	-58.824
852.31	-69.231
852.61	500.000
852.90	0.000
853.20	-6.667
853.50	-68.750
853.79	-150.000
854.09	-425.000
854.39	-95.000
854.68	0.000
854.98	-80.952
855.28	-52.000
855.57	-8.333
855.87	-54.167
856.17	-40.000
856.46	-43.750
856.76	0.000
857.05	-4.000
857.35	-191.667
857.65	-35.294
857.94	-150.000
858.24	-66.667
858.53	-80.000
858.83	-227.273
859.13	-40.000
859.42	-92.857
859.72	-137.500
860.01	-37.500
860.31	-212.500
860.60	-81.250
860.90	-250.000
861.20	-266.667
861.49	-33.333
861.79	-112.500
862.08	425.000
862.38	-100.000
862.67	385.714
862.97	125.000
863.26	-118.182
863.56	-100.000
863.85	-26.316
864.15	-11.765
864.44	-300.000
864.74	-150.000
865.03	-155.556
865.33	-107.143
865.62	157.143
865.92	-42.105
866.21	-50.000
866.51	-54.545
866.80	-155.556
867.10	-262.500
867.39	-37.500
867.69	-106.667
867.98	-120.000
868.27	-11.765
868.57	0.000
868.86	900.000
869.16	-375.000
869.45	-142.857
869.75	650.000
870.04	-90.000
870.33	-1600.000
870.63	-84.211
870.92	8.333
871.22	-1600.000
871.51	-228.571
871.80	-300.000
872.10	-600.000
>>>>>End Processed Spectral Data<<<<<
