SpectraSuite Data File
++++++++++++++++++++++++++++++++++++
Date: Wed May 13 21:33:58 PDT 2015
User: schluterlab
Dark Spectrum Present: Yes
Reference Spectrum Present: Yes
Number of Sampled Component Spectra: 1
Spectrometers: USB2E3373
Integration Time (usec): 3000 (USB2E3373)
Spectra Averaged: 3 (USB2E3373)
Boxcar Smoothing: 0 (USB2E3373)
Correct for Electrical Dark: No (USB2E3373)
Strobe/Lamp Enabled: No (USB2E3373)
Correct for Detector Non-linearity: No (USB2E3373)
Correct for Stray Light: No (USB2E3373)
Number of Pixels in Processed Spectrum: 2048
>>>>>Begin Processed Spectral Data<<<<<
178.53	0.000
178.91	600.000
179.29	175.000
179.67	-1000.000
180.04	-366.667
180.42	200.000
180.80	1600.000
181.18	400.000
181.56	-425.000
181.94	-175.000
182.31	-54.545
182.69	130.769
183.07	-320.000
183.45	233.333
183.83	277.778
184.20	142.857
184.58	-166.667
184.96	466.667
185.34	242.857
185.72	0.000
186.09	-1200.000
186.47	-500.000
186.85	180.000
187.23	-450.000
187.61	850.000
187.98	1100.000
188.36	-37.500
188.74	0.000
189.12	-27.273
189.49	110.000
189.87	183.333
190.25	360.000
190.63	700.000
191.00	-120.000
191.38	260.000
191.76	450.000
192.14	225.000
192.51	-15.789
192.89	466.667
193.27	275.000
193.65	-300.000
194.02	127.273
194.40	160.000
194.78	-400.000
195.15	200.000
195.53	-320.000
195.91	-125.000
196.29	-100.000
196.66	0.000
197.04	750.000
197.42	-120.000
197.79	-70.000
198.17	-187.500
198.55	-366.667
198.92	475.000
199.30	-533.333
199.68	-90.000
200.05	450.000
200.43	183.333
200.81	-900.000
201.18	-220.000
201.56	-216.667
201.94	600.000
202.31	-26.087
202.69	-28.571
203.07	-300.000
203.44	-100.000
203.82	-233.333
204.19	-120.000
204.57	0.000
204.95	-100.000
205.32	0.000
205.70	-600.000
206.08	-325.000
206.45	-166.667
206.83	400.000
207.20	-500.000
207.58	-90.000
207.96	-2100.000
208.33	-271.429
208.71	-1000.000
209.08	250.000
209.46	500.000
209.84	0.000
210.21	140.000
210.59	1800.000
210.96	500.000
211.34	1200.000
211.71	-650.000
212.09	-166.667
212.46	-160.000
212.84	-400.000
213.22	-125.000
213.59	-500.000
213.97	-200.000
214.34	-1050.000
214.72	-76.923
215.09	287.500
215.47	222.222
215.84	900.000
216.22	-50.000
216.59	-400.000
216.97	1000.000
217.34	177.778
217.72	0.000
218.09	366.667
218.47	-400.000
218.84	-185.714
219.22	-150.000
219.59	-533.333
219.97	-425.000
220.34	-87.500
220.72	-200.000
221.09	0.000
221.47	-83.333
221.84	-1200.000
222.22	0.000
222.59	1200.000
222.97	-233.333
223.34	8.333
223.72	-700.000
224.09	-750.000
224.46	-109.091
224.84	-137.500
225.21	14.286
225.59	-325.000
225.96	-183.333
226.34	-60.000
226.71	-57.143
227.08	900.000
227.46	-87.500
227.83	-800.000
228.21	-62.500
228.58	-350.000
228.95	-41.176
229.33	-18.750
229.70	-125.000
230.08	-46.154
230.45	-175.000
230.82	-175.000
231.20	200.000
231.57	-250.000
231.95	700.000
232.32	41.667
232.69	-76.471
233.07	-1500.000
233.44	-21.739
233.81	-700.000
234.19	0.000
234.56	-26.667
234.93	6.667
235.31	5.263
235.68	-76.923
236.05	-61.538
236.43	-16.667
236.80	3.030
237.17	-80.000
237.55	-47.059
237.92	-44.828
238.29	-48.148
238.67	-16.667
239.04	-32.258
239.41	2.128
239.79	10.638
240.16	13.953
240.53	5.357
240.91	10.714
241.28	-1.786
241.65	16.129
242.02	19.737
242.40	21.739
242.77	13.043
243.14	12.821
243.51	27.660
243.89	20.192
244.26	32.075
244.63	0.962
245.00	23.958
245.38	11.765
245.75	22.951
246.12	18.045
246.49	22.764
246.87	25.210
247.24	31.757
247.61	23.179
247.98	21.795
248.36	24.260
248.73	22.472
249.10	16.667
249.47	26.882
249.84	25.789
250.22	26.368
250.59	30.374
250.96	28.636
251.33	22.967
251.70	28.870
252.08	28.870
252.45	31.687
252.82	28.517
253.19	30.739
253.56	31.295
253.94	30.961
254.31	25.352
254.68	31.544
255.05	31.353
255.42	26.923
255.79	26.687
256.16	29.653
256.54	31.111
256.91	25.633
257.28	34.591
257.65	25.478
258.02	32.258
258.39	27.485
258.76	31.686
259.14	29.261
259.51	28.933
259.88	30.623
260.25	31.111
260.62	31.461
260.99	32.095
261.36	29.275
261.73	26.914
262.10	27.990
262.47	28.642
262.85	28.607
263.22	29.744
263.59	28.831
263.96	32.117
264.33	28.365
264.70	31.163
265.07	32.639
265.44	30.575
265.81	31.350
266.18	33.941
266.55	27.293
266.92	30.932
267.29	28.601
267.66	31.210
268.03	31.893
268.40	30.297
268.77	32.231
269.14	29.184
269.51	31.006
269.88	29.939
270.25	31.568
270.62	30.738
270.99	31.102
271.36	30.357
271.73	32.530
272.10	29.905
272.47	29.559
272.84	32.283
273.21	30.724
273.58	31.557
273.95	30.566
274.32	30.410
274.69	29.144
275.06	31.979
275.43	31.638
275.80	28.723
276.17	29.282
276.54	28.774
276.91	29.094
277.28	28.881
277.65	29.021
278.02	31.607
278.39	30.728
278.76	30.435
279.13	29.846
279.50	31.034
279.87	30.435
280.23	29.369
280.60	30.450
280.97	30.357
281.34	32.019
281.71	29.593
282.08	29.915
282.45	30.328
282.82	29.712
283.19	30.183
283.56	30.938
283.92	31.040
284.29	28.549
284.66	27.842
285.03	28.339
285.40	29.305
285.77	29.279
286.14	28.723
286.51	31.334
286.87	27.385
287.24	28.171
287.61	28.313
287.98	28.529
288.35	27.869
288.72	28.264
289.08	28.632
289.45	27.606
289.82	28.593
290.19	26.367
290.56	26.705
290.93	26.796
291.29	26.265
291.66	26.503
292.03	27.929
292.40	25.976
292.77	26.104
293.13	27.615
293.50	27.190
293.87	26.000
294.24	26.852
294.60	25.748
294.97	25.265
295.34	24.538
295.71	25.756
296.08	24.346
296.44	24.617
296.81	24.239
297.18	25.875
297.55	24.646
297.91	26.460
298.28	25.787
298.65	24.754
299.02	24.786
299.38	23.436
299.75	23.438
300.12	23.837
300.48	21.988
300.85	22.633
301.22	23.229
301.59	23.474
301.95	22.880
302.32	23.104
302.69	21.695
303.05	21.152
303.42	21.932
303.79	24.290
304.15	23.220
304.52	23.333
304.89	22.481
305.25	20.637
305.62	21.367
305.99	22.307
306.35	22.048
306.72	22.787
307.09	22.106
307.45	21.832
307.82	22.632
308.19	21.839
308.55	23.132
308.92	23.870
309.29	22.122
309.65	21.878
310.02	20.577
310.38	22.866
310.75	22.189
311.12	21.866
311.48	21.365
311.85	21.457
312.22	22.824
312.58	21.063
312.95	22.488
313.31	22.590
313.68	22.137
314.05	23.629
314.41	23.439
314.78	22.391
315.14	22.870
315.51	23.026
315.87	23.540
316.24	23.324
316.61	24.292
316.97	23.148
317.34	23.886
317.70	23.996
318.07	24.667
318.43	24.481
318.80	23.386
319.16	24.050
319.53	23.746
319.89	22.764
320.26	25.601
320.62	25.487
320.99	25.194
321.35	25.725
321.72	25.313
322.08	25.092
322.45	26.457
322.81	25.139
323.18	26.476
323.54	28.339
323.91	26.649
324.27	26.553
324.64	25.697
325.00	26.072
325.37	27.901
325.73	26.768
326.10	27.754
326.46	27.926
326.83	27.508
327.19	28.374
327.56	29.492
327.92	28.721
328.29	29.382
328.65	29.798
329.01	27.968
329.38	31.391
329.74	28.841
330.11	30.117
330.47	28.125
330.84	29.603
331.20	30.316
331.56	29.348
331.93	30.060
332.29	30.582
332.66	28.644
333.02	29.366
333.38	29.386
333.75	28.840
334.11	30.122
334.48	29.207
334.84	29.505
335.20	29.417
335.57	29.852
335.93	29.381
336.29	29.072
336.66	29.316
337.02	29.043
337.38	28.634
337.75	29.285
338.11	29.547
338.47	27.997
338.84	29.983
339.20	28.131
339.56	29.096
339.93	29.041
340.29	28.096
340.65	27.802
341.02	29.534
341.38	28.970
341.74	28.067
342.11	27.746
342.47	28.201
342.83	28.023
343.20	29.272
343.56	29.109
343.92	28.595
344.28	29.140
344.65	28.898
345.01	28.087
345.37	29.276
345.73	29.493
346.10	28.411
346.46	28.618
346.82	28.090
347.19	27.769
347.55	29.241
347.91	26.890
348.27	27.524
348.63	27.724
349.00	28.145
349.36	28.964
349.72	29.080
350.08	28.393
350.45	27.016
350.81	29.577
351.17	27.637
351.53	27.651
351.89	27.959
352.26	28.263
352.62	28.682
352.98	28.275
353.34	27.697
353.70	28.037
354.07	28.706
354.43	29.393
354.79	29.167
355.15	28.494
355.51	27.335
355.87	28.616
356.24	27.769
356.60	28.147
356.96	28.319
357.32	28.251
357.68	28.266
358.04	27.696
358.40	28.450
358.77	28.287
359.13	27.782
359.49	27.782
359.85	28.431
360.21	28.604
360.57	27.072
360.93	27.769
361.29	28.275
361.66	27.866
362.02	27.502
362.38	27.696
362.74	27.049
363.10	28.561
363.46	27.450
363.82	28.160
364.18	27.339
364.54	28.228
364.90	27.317
365.26	28.096
365.62	27.983
365.98	26.975
366.35	28.369
366.71	28.816
367.07	27.498
367.43	28.153
367.79	27.033
368.15	28.481
368.51	27.567
368.87	28.332
369.23	26.690
369.59	27.696
369.95	28.520
370.31	27.406
370.67	28.023
371.03	27.320
371.39	27.466
371.75	28.429
372.11	28.561
372.47	27.325
372.83	28.502
373.19	27.050
373.55	29.191
373.91	27.581
374.27	27.248
374.63	28.378
374.99	28.064
375.35	28.767
375.71	27.174
376.07	27.690
376.42	27.941
376.78	27.411
377.14	27.661
377.50	28.292
377.86	28.884
378.22	28.255
378.58	28.562
378.94	27.875
379.30	27.545
379.66	29.100
380.02	29.167
380.38	28.554
380.74	29.229
381.09	28.649
381.45	28.416
381.81	28.527
382.17	27.284
382.53	28.369
382.89	27.021
383.25	29.383
383.61	28.571
383.97	28.625
384.32	27.851
384.68	29.056
385.04	28.528
385.40	28.829
385.76	28.406
386.12	28.664
386.48	28.276
386.83	28.723
387.19	29.488
387.55	29.798
387.91	28.659
388.27	28.175
388.62	28.277
388.98	28.536
389.34	29.135
389.70	27.228
390.06	27.938
390.42	29.317
390.77	29.020
391.13	28.409
391.49	29.285
391.85	28.498
392.20	27.882
392.56	29.524
392.92	28.672
393.28	28.588
393.64	29.174
393.99	28.519
394.35	28.827
394.71	29.808
395.07	27.925
395.42	28.458
395.78	28.443
396.14	29.360
396.50	29.169
396.85	29.892
397.21	29.401
397.57	28.634
397.92	29.341
398.28	28.483
398.64	28.597
399.00	28.962
399.35	30.023
399.71	27.956
400.07	29.036
400.42	29.655
400.78	27.613
401.14	28.633
401.49	28.939
401.85	28.993
402.21	29.102
402.57	28.694
402.92	30.038
403.28	29.081
403.63	28.704
403.99	29.111
404.35	28.990
404.70	28.701
405.06	28.831
405.42	28.266
405.77	28.917
406.13	28.000
406.49	28.700
406.84	29.243
407.20	28.834
407.55	28.766
407.91	29.715
408.27	28.010
408.62	29.834
408.98	28.853
409.34	28.342
409.69	30.474
410.05	28.918
410.40	28.241
410.76	28.700
411.11	29.167
411.47	29.529
411.83	28.384
412.18	28.652
412.54	28.759
412.89	28.903
413.25	28.614
413.60	27.962
413.96	27.341
414.31	28.237
414.67	29.270
415.03	29.432
415.38	28.798
415.74	29.305
416.09	29.676
416.45	28.640
416.80	28.389
417.16	29.825
417.51	28.332
417.87	29.233
418.22	28.184
418.58	28.581
418.93	28.500
419.29	29.043
419.64	29.453
420.00	28.444
420.35	29.647
420.71	27.422
421.06	28.721
421.42	28.832
421.77	29.017
422.12	28.825
422.48	28.517
422.83	29.415
423.19	29.155
423.54	28.916
423.90	29.097
424.25	29.347
424.61	29.020
424.96	28.918
425.31	28.772
425.67	29.924
426.02	30.271
426.38	29.975
426.73	28.161
427.09	27.955
427.44	29.243
427.79	28.563
428.15	29.052
428.50	28.338
428.85	29.336
429.21	27.800
429.56	28.905
429.92	29.620
430.27	29.346
430.62	29.276
430.98	29.402
431.33	29.500
431.68	28.275
432.04	29.746
432.39	29.330
432.74	28.326
433.10	29.343
433.45	29.290
433.80	28.851
434.16	28.509
434.51	30.326
434.86	29.741
435.22	29.825
435.57	29.607
435.92	28.951
436.28	28.649
436.63	29.099
436.98	29.788
437.34	29.792
437.69	28.985
438.04	28.749
438.39	29.639
438.75	29.201
439.10	29.265
439.45	29.237
439.81	29.557
440.16	29.623
440.51	29.489
440.86	29.461
441.22	28.916
441.57	29.067
441.92	29.238
442.27	29.383
442.63	28.364
442.98	29.167
443.33	30.023
443.68	28.782
444.03	29.906
444.39	29.103
444.74	30.094
445.09	28.744
445.44	29.127
445.79	29.066
446.15	28.952
446.50	28.910
446.85	29.075
447.20	29.430
447.55	28.875
447.91	28.146
448.26	29.274
448.61	29.056
448.96	30.125
449.31	30.097
449.66	30.133
450.02	30.074
450.37	29.612
450.72	29.162
451.07	29.781
451.42	29.757
451.77	29.397
452.12	28.996
452.47	30.665
452.83	29.068
453.18	30.363
453.53	29.634
453.88	28.916
454.23	28.986
454.58	29.473
454.93	28.993
455.28	29.351
455.63	29.133
455.98	29.823
456.34	28.481
456.69	30.032
457.04	29.598
457.39	29.345
457.74	29.743
458.09	29.858
458.44	29.730
458.79	28.007
459.14	28.034
459.49	29.451
459.84	29.200
460.19	28.691
460.54	29.136
460.89	29.561
461.24	28.977
461.59	29.348
461.94	29.646
462.29	28.922
462.64	29.354
462.99	29.510
463.34	29.765
463.69	29.317
464.04	28.271
464.39	28.798
464.74	28.010
465.09	28.766
465.44	29.237
465.79	30.420
466.14	28.677
466.49	29.443
466.84	29.289
467.19	28.726
467.54	28.775
467.89	28.284
468.24	29.072
468.59	28.617
468.94	28.863
469.29	28.751
469.64	29.079
469.99	29.793
470.34	28.793
470.68	28.550
471.03	28.914
471.38	28.929
471.73	28.258
472.08	28.729
472.43	28.958
472.78	29.006
473.13	26.913
473.48	28.050
473.83	28.625
474.17	28.060
474.52	28.414
474.87	28.347
475.22	28.744
475.57	29.392
475.92	28.735
476.27	28.730
476.61	28.596
476.96	27.870
477.31	28.749
477.66	29.209
478.01	28.791
478.36	28.065
478.70	28.947
479.05	28.857
479.40	28.757
479.75	28.215
480.10	28.761
480.45	28.936
480.79	28.472
481.14	29.585
481.49	28.268
481.84	27.191
482.19	28.346
482.53	29.190
482.88	28.907
483.23	27.093
483.58	28.970
483.92	27.626
484.27	28.317
484.62	27.652
484.97	28.743
485.31	29.112
485.66	28.223
486.01	29.004
486.36	29.714
486.70	29.681
487.05	29.329
487.40	28.639
487.75	28.941
488.09	27.713
488.44	28.111
488.79	28.160
489.13	28.270
489.48	28.174
489.83	28.361
490.17	27.826
490.52	28.378
490.87	27.446
491.22	27.697
491.56	28.606
491.91	27.124
492.26	27.466
492.60	27.273
492.95	28.328
493.30	26.502
493.64	26.091
493.99	28.261
494.34	27.601
494.68	26.874
495.03	27.520
495.37	27.299
495.72	27.118
496.07	27.667
496.41	26.813
496.76	27.651
497.11	28.122
497.45	27.529
497.80	27.966
498.14	27.254
498.49	26.525
498.84	27.328
499.18	26.879
499.53	26.834
499.87	26.735
500.22	27.377
500.56	27.533
500.91	26.710
501.26	27.783
501.60	26.667
501.95	27.024
502.29	27.621
502.64	27.965
502.98	26.782
503.33	27.397
503.67	27.313
504.02	26.814
504.36	27.538
504.71	26.931
505.06	27.560
505.40	26.289
505.75	27.009
506.09	26.827
506.44	26.764
506.78	27.171
507.13	27.287
507.47	26.776
507.82	26.845
508.16	26.755
508.51	25.981
508.85	26.439
509.19	26.508
509.54	27.399
509.88	26.022
510.23	25.632
510.57	26.854
510.92	27.209
511.26	26.898
511.61	25.960
511.95	25.579
512.30	26.374
512.64	27.072
512.98	26.648
513.33	25.634
513.67	26.689
514.02	26.454
514.36	26.067
514.70	25.866
515.05	26.273
515.39	26.356
515.74	26.229
516.08	25.487
516.42	25.518
516.77	25.015
517.11	25.985
517.46	27.071
517.80	26.695
518.14	25.536
518.49	25.316
518.83	25.597
519.17	25.843
519.52	26.598
519.86	26.533
520.20	25.106
520.55	25.684
520.89	25.617
521.23	26.026
521.58	26.802
521.92	25.896
522.26	25.179
522.61	25.533
522.95	26.360
523.29	25.587
523.64	25.620
523.98	25.413
524.32	25.394
524.66	24.740
525.01	26.081
525.35	25.346
525.69	25.911
526.04	25.733
526.38	25.303
526.72	24.721
527.06	25.403
527.41	24.950
527.75	24.499
528.09	26.140
528.43	26.594
528.78	25.323
529.12	27.102
529.46	26.552
529.80	24.401
530.15	26.384
530.49	26.011
530.83	25.389
531.17	25.342
531.51	25.017
531.86	25.745
532.20	25.086
532.54	25.793
532.88	24.779
533.22	25.522
533.57	25.695
533.91	26.452
534.25	26.562
534.59	25.354
534.93	26.339
535.27	25.669
535.62	26.053
535.96	26.936
536.30	25.066
536.64	24.607
536.98	24.947
537.32	24.911
537.66	25.882
538.01	24.965
538.35	25.276
538.69	25.418
539.03	25.034
539.37	25.419
539.71	25.171
540.05	24.899
540.39	25.740
540.73	25.070
541.07	25.374
541.42	25.185
541.76	24.696
542.10	24.645
542.44	25.572
542.78	25.954
543.12	25.606
543.46	25.294
543.80	25.662
544.14	26.015
544.48	25.017
544.82	25.757
545.16	25.761
545.50	25.388
545.84	24.965
546.18	24.544
546.52	25.053
546.86	23.887
547.20	24.660
547.54	24.660
547.88	26.046
548.22	24.886
548.56	24.550
548.90	25.304
549.24	24.931
549.58	24.342
549.92	26.266
550.26	25.240
550.60	24.249
550.94	23.209
551.28	24.224
551.62	25.714
551.96	24.524
552.30	22.926
552.64	23.588
552.98	24.858
553.32	25.018
553.66	24.945
554.00	24.478
554.34	24.469
554.68	23.937
555.02	24.027
555.36	24.357
555.69	24.326
556.03	24.803
556.37	24.324
556.71	23.966
557.05	24.207
557.39	24.039
557.73	24.054
558.07	23.888
558.41	24.375
558.75	24.403
559.08	22.294
559.42	24.312
559.76	23.547
560.10	23.520
560.44	24.908
560.78	23.094
561.12	24.317
561.45	23.469
561.79	24.140
562.13	24.613
562.47	23.714
562.81	24.098
563.15	23.796
563.48	23.606
563.82	24.692
564.16	23.561
564.50	24.152
564.84	23.649
565.17	23.576
565.51	23.463
565.85	23.251
566.19	24.570
566.52	23.132
566.86	23.262
567.20	23.824
567.54	24.064
567.88	22.844
568.21	24.661
568.55	25.248
568.89	23.679
569.23	24.565
569.56	24.489
569.90	25.192
570.24	24.729
570.57	25.111
570.91	25.266
571.25	24.363
571.59	24.354
571.92	24.846
572.26	24.978
572.60	24.731
572.93	24.492
573.27	24.324
573.61	24.676
573.95	25.198
574.28	24.929
574.62	24.932
574.96	24.754
575.29	24.925
575.63	24.605
575.97	24.946
576.30	24.890
576.64	24.784
576.98	24.596
577.31	24.676
577.65	24.807
577.98	24.829
578.32	25.215
578.66	25.135
578.99	25.258
579.33	24.513
579.67	24.389
580.00	24.000
580.34	24.358
580.67	24.596
581.01	24.184
581.35	24.859
581.68	24.323
582.02	25.441
582.35	25.193
582.69	25.043
583.02	24.383
583.36	24.193
583.70	24.326
584.03	24.454
584.37	24.044
584.70	23.808
585.04	24.723
585.37	24.447
585.71	24.288
586.04	24.085
586.38	23.757
586.72	24.052
587.05	24.676
587.39	24.600
587.72	24.282
588.06	23.393
588.39	24.237
588.73	23.947
589.06	24.022
589.40	23.667
589.73	22.745
590.07	23.441
590.40	22.491
590.73	22.934
591.07	22.649
591.40	23.304
591.74	22.721
592.07	22.638
592.41	24.196
592.74	23.495
593.08	23.350
593.41	24.021
593.75	23.579
594.08	23.385
594.41	23.693
594.75	23.201
595.08	23.600
595.42	22.942
595.75	22.957
596.09	22.902
596.42	23.121
596.75	23.080
597.09	23.203
597.42	23.643
597.75	22.622
598.09	23.452
598.42	22.998
598.76	23.048
599.09	23.729
599.42	23.301
599.76	23.019
600.09	22.929
600.42	23.616
600.76	22.395
601.09	22.750
601.42	23.638
601.76	22.510
602.09	22.781
602.42	22.864
602.76	22.987
603.09	23.326
603.42	22.671
603.76	22.564
604.09	22.925
604.42	22.813
604.76	22.741
605.09	23.516
605.42	23.257
605.75	22.741
606.09	21.813
606.42	22.943
606.75	22.338
607.09	22.252
607.42	22.285
607.75	21.400
608.08	22.453
608.42	22.774
608.75	23.029
609.08	22.048
609.41	22.305
609.75	22.239
610.08	22.732
610.41	22.109
610.74	22.522
611.07	22.144
611.41	23.030
611.74	21.325
612.07	21.939
612.40	22.703
612.73	21.460
613.07	21.563
613.40	22.026
613.73	21.343
614.06	22.167
614.39	21.623
614.72	22.599
615.06	21.556
615.39	22.185
615.72	21.652
616.05	21.396
616.38	22.279
616.71	21.656
617.05	21.744
617.38	21.442
617.71	20.404
618.04	21.694
618.37	21.199
618.70	21.863
619.03	20.069
619.36	20.569
619.69	20.541
620.03	20.424
620.36	20.877
620.69	21.056
621.02	20.231
621.35	19.951
621.68	21.108
622.01	20.712
622.34	19.746
622.67	21.300
623.00	21.049
623.33	21.616
623.66	21.041
623.99	21.830
624.32	20.910
624.65	20.994
624.99	21.308
625.32	19.940
625.65	20.620
625.98	19.747
626.31	20.735
626.64	20.722
626.97	20.502
627.30	21.215
627.63	19.377
627.96	19.048
628.29	19.628
628.62	19.729
628.95	18.838
629.28	20.493
629.61	21.244
629.94	19.439
630.26	19.704
630.59	20.180
630.92	20.080
631.25	19.773
631.58	20.878
631.91	18.664
632.24	18.222
632.57	18.778
632.90	18.670
633.23	17.506
633.56	18.345
633.89	19.856
634.22	19.317
634.55	18.392
634.88	20.098
635.20	18.875
635.53	18.863
635.86	19.744
636.19	19.603
636.52	16.829
636.85	18.094
637.18	18.392
637.51	19.101
637.83	19.843
638.16	17.467
638.49	16.956
638.82	17.778
639.15	17.553
639.48	20.053
639.81	19.306
640.13	19.296
640.46	19.774
640.79	15.540
641.12	16.124
641.45	17.613
641.77	18.557
642.10	17.549
642.43	19.497
642.76	15.773
643.09	16.933
643.41	19.617
643.74	17.286
644.07	17.152
644.40	16.750
644.73	16.780
645.05	15.358
645.38	15.449
645.71	17.517
646.04	15.825
646.36	18.229
646.69	15.909
647.02	15.847
647.35	16.819
647.67	16.636
648.00	15.942
648.33	17.458
648.66	16.861
648.98	16.149
649.31	17.485
649.64	17.840
649.96	18.009
650.29	16.503
650.62	17.463
650.94	16.207
651.27	16.784
651.60	16.783
651.92	16.308
652.25	16.080
652.58	17.657
652.90	16.162
653.23	16.129
653.56	15.868
653.88	16.553
654.21	18.942
654.54	17.608
654.86	16.748
655.19	18.347
655.52	22.953
655.84	24.252
656.17	29.358
656.49	38.050
656.82	36.451
657.15	26.814
657.47	19.074
657.80	14.350
658.13	14.683
658.45	21.116
658.78	20.149
659.10	19.682
659.43	19.151
659.75	18.533
660.08	17.034
660.41	16.633
660.73	15.152
661.06	16.156
661.38	15.504
661.71	17.213
662.03	17.970
662.36	15.708
662.68	16.559
663.01	16.314
663.33	16.199
663.66	11.752
663.98	19.551
664.31	14.725
664.63	13.514
664.96	17.724
665.28	19.528
665.61	14.471
665.93	16.274
666.26	14.768
666.58	13.919
666.91	15.695
667.23	15.438
667.56	17.471
667.88	14.252
668.21	17.187
668.53	18.621
668.86	17.506
669.18	15.839
669.50	16.129
669.83	15.274
670.15	15.952
670.48	14.253
670.80	19.912
671.13	15.332
671.45	15.753
671.77	18.534
672.10	15.789
672.42	16.603
672.75	17.143
673.07	16.000
673.39	17.164
673.72	15.968
674.04	15.369
674.37	15.244
674.69	16.667
675.01	15.385
675.34	17.505
675.66	17.865
675.98	16.814
676.31	16.516
676.63	15.646
676.95	15.059
677.28	18.578
677.60	11.520
677.92	16.630
678.25	17.787
678.57	19.756
678.89	17.058
679.22	16.770
679.54	16.327
679.86	21.484
680.18	17.692
680.51	15.577
680.83	15.205
681.15	17.878
681.48	15.631
681.80	16.155
682.12	15.833
682.44	16.097
682.77	13.684
683.09	18.080
683.41	14.419
683.73	12.946
684.06	17.257
684.38	15.171
684.70	16.497
685.02	16.529
685.34	17.808
685.67	17.824
685.99	16.904
686.31	17.069
686.63	16.912
686.96	18.924
687.28	16.367
687.60	17.013
687.92	18.093
688.24	16.800
688.56	20.614
688.89	13.140
689.21	16.143
689.53	12.162
689.85	15.730
690.17	16.044
690.49	15.459
690.82	13.604
691.14	15.700
691.46	17.169
691.78	18.681
692.10	17.834
692.42	14.505
692.74	17.826
693.06	14.607
693.39	14.052
693.71	17.111
694.03	17.273
694.35	16.216
694.67	17.250
694.99	15.464
695.31	14.212
695.63	18.780
695.95	14.504
696.27	10.137
696.59	12.366
696.91	11.453
697.23	12.183
697.56	18.465
697.88	17.256
698.20	17.927
698.52	15.654
698.84	15.550
699.16	13.239
699.48	15.309
699.80	17.313
700.12	15.818
700.44	14.648
700.76	14.045
701.08	17.523
701.40	14.371
701.72	10.462
702.04	14.780
702.36	14.329
702.68	13.720
703.00	15.205
703.32	14.763
703.64	15.964
703.96	14.076
704.28	12.349
704.60	14.634
704.91	12.226
705.23	15.506
705.55	12.759
705.87	11.972
706.19	11.722
706.51	15.845
706.83	14.013
707.15	17.378
707.47	14.325
707.79	14.721
708.11	16.967
708.43	16.497
708.74	16.489
709.06	14.973
709.38	17.291
709.70	15.015
710.02	16.822
710.34	9.000
710.66	14.984
710.98	13.932
711.29	13.636
711.61	12.581
711.93	13.548
712.25	10.140
712.57	13.333
712.89	14.286
713.20	15.957
713.52	13.139
713.84	14.516
714.16	14.887
714.48	12.342
714.80	14.377
715.11	15.116
715.43	11.801
715.75	17.391
716.07	14.759
716.39	14.478
716.70	16.906
717.02	10.196
717.34	18.182
717.66	9.483
717.97	11.111
718.29	13.780
718.61	12.017
718.93	7.364
719.24	12.915
719.56	10.112
719.88	9.701
720.20	11.462
720.51	13.281
720.83	16.342
721.15	6.098
721.46	13.359
721.78	12.749
722.10	10.757
722.42	12.903
722.73	16.216
723.05	12.245
723.37	15.546
723.68	8.400
724.00	8.936
724.32	10.042
724.63	14.403
724.95	8.120
725.27	13.502
725.58	15.638
725.90	11.297
726.22	13.406
726.53	12.157
726.85	19.343
727.16	11.481
727.48	14.559
727.80	14.062
728.11	11.885
728.43	15.234
728.74	13.889
729.06	10.800
729.38	15.020
729.69	12.100
730.01	13.755
730.32	16.974
730.64	10.985
730.96	16.084
731.27	12.040
731.59	16.190
731.90	11.327
732.22	12.179
732.53	11.824
732.85	16.107
733.16	15.182
733.48	15.878
733.80	11.824
734.11	15.878
734.43	17.337
734.74	16.517
735.06	16.138
735.37	16.413
735.69	14.239
736.00	12.211
736.32	14.539
736.63	16.897
736.95	16.096
737.26	15.862
737.58	14.583
737.89	12.371
738.21	15.302
738.52	14.829
738.83	16.327
739.15	17.300
739.46	10.895
739.78	11.972
740.09	14.041
740.41	11.786
740.72	12.057
741.04	16.400
741.35	9.211
741.66	13.333
741.98	9.135
742.29	14.356
742.61	16.098
742.92	17.105
743.23	11.321
743.55	17.568
743.86	10.314
744.18	10.784
744.49	10.660
744.80	10.204
745.12	11.215
745.43	11.848
745.74	15.766
746.06	8.879
746.37	14.220
746.68	15.865
747.00	12.919
747.31	15.865
747.62	15.596
747.94	14.410
748.25	7.339
748.56	13.778
748.88	15.493
749.19	11.905
749.50	14.563
749.82	8.451
750.13	9.167
750.44	15.000
750.75	11.070
751.07	14.947
751.38	15.603
751.69	14.672
752.01	14.844
752.32	11.154
752.63	14.552
752.94	18.400
753.26	15.063
753.57	15.000
753.88	13.360
754.19	14.343
754.51	14.286
754.82	12.821
755.13	10.000
755.44	9.756
755.75	10.400
756.07	15.867
756.38	16.906
756.69	14.334
757.00	16.822
757.31	12.945
757.63	11.420
757.94	17.797
758.25	18.783
758.56	15.489
758.87	15.476
759.18	18.297
759.50	14.815
759.81	15.050
760.12	18.769
760.43	13.393
760.74	14.407
761.05	17.680
761.36	14.613
761.67	15.710
761.99	13.058
762.30	15.693
762.61	11.111
762.92	14.957
763.23	16.803
763.54	17.316
763.85	18.776
764.16	10.976
764.47	11.600
764.78	17.857
765.10	14.754
765.41	17.629
765.72	15.839
766.03	11.881
766.34	17.692
766.65	13.808
766.96	11.268
767.27	13.366
767.58	3.933
767.89	13.580
768.20	8.287
768.51	13.568
768.82	12.500
769.13	8.850
769.44	18.410
769.75	11.538
770.06	12.556
770.37	14.706
770.68	19.417
770.99	5.825
771.30	15.546
771.61	11.837
771.92	17.842
772.23	9.459
772.54	6.630
772.85	15.116
773.16	11.111
773.47	7.101
773.78	15.517
774.09	1.875
774.39	16.149
774.70	14.966
775.01	14.483
775.32	6.429
775.63	15.789
775.94	6.015
776.25	5.600
776.56	12.397
776.87	10.317
777.18	2.703
777.48	4.505
777.79	7.087
778.10	9.174
778.41	11.404
778.72	10.924
779.03	0.000
779.34	13.514
779.65	6.338
779.95	8.609
780.26	4.317
780.57	12.950
780.88	13.380
781.19	0.840
781.50	18.121
781.80	15.205
782.11	4.070
782.42	11.321
782.73	8.497
783.04	8.966
783.34	6.870
783.65	6.711
783.96	6.154
784.27	12.857
784.57	4.255
784.88	-5.769
785.19	15.455
785.50	7.273
785.81	-2.857
786.11	12.605
786.42	19.469
786.73	1.887
787.04	0.917
787.34	-0.990
787.65	20.000
787.96	10.744
788.26	14.493
788.57	8.730
788.88	4.065
789.19	13.600
789.49	10.687
789.80	15.909
790.11	1.887
790.41	9.901
790.72	5.319
791.03	-1.087
791.33	0.000
791.64	7.407
791.95	3.261
792.25	11.364
792.56	14.103
792.87	3.846
793.17	-6.410
793.48	0.000
793.79	12.500
794.09	20.192
794.40	11.458
794.70	3.604
795.01	9.375
795.32	3.478
795.62	-9.783
795.93	5.660
796.23	18.182
796.54	10.976
796.85	2.381
797.15	6.061
797.46	5.797
797.76	11.842
798.07	3.409
798.37	-3.659
798.68	-4.839
798.99	8.108
799.29	3.614
799.60	0.000
799.90	-3.077
800.21	22.727
800.51	10.667
800.82	-2.667
801.12	-31.250
801.43	-10.000
801.73	-4.054
802.04	14.286
802.34	-3.279
802.65	4.478
802.95	-14.545
803.26	-8.621
803.56	6.154
803.87	9.434
804.17	-4.839
804.48	7.353
804.78	-39.024
805.09	4.348
805.39	-2.941
805.70	-21.277
806.00	-17.544
806.30	17.949
806.61	10.526
806.91	10.811
807.22	-7.895
807.52	11.364
807.83	-6.780
808.13	-24.242
808.43	-3.333
808.74	-29.310
809.04	0.000
809.35	-16.327
809.65	0.000
809.95	-12.245
810.26	4.225
810.56	-2.083
810.86	10.204
811.17	3.846
811.47	2.128
811.77	6.250
812.08	-9.434
812.38	-25.000
812.69	7.273
812.99	0.000
813.29	2.703
813.59	-16.216
813.90	-14.545
814.20	-1.818
814.50	15.000
814.81	0.000
815.11	-7.018
815.41	-2.326
815.72	-5.000
816.02	-11.429
816.32	-32.432
816.62	0.000
816.93	-22.222
817.23	-31.111
817.53	-50.000
817.84	-24.324
818.14	-17.073
818.44	0.000
818.74	-2.041
819.04	-12.195
819.35	-2.778
819.65	-13.636
819.95	-144.444
820.25	-21.212
820.56	-23.810
820.86	-11.111
821.16	-40.909
821.46	-23.913
821.76	-3.448
822.07	2.174
822.37	-6.061
822.67	7.317
822.97	2.703
823.27	-54.286
823.57	6.897
823.88	-38.235
824.18	-8.333
824.48	-37.143
824.78	-66.667
825.08	-39.286
825.38	-3.704
825.69	-9.677
825.99	-14.634
826.29	-29.630
826.59	-18.750
826.89	-16.129
827.19	-65.217
827.49	-52.778
827.79	-43.478
828.09	-35.484
828.39	2.083
828.70	-18.750
829.00	-31.034
829.30	-10.811
829.60	-58.333
829.90	-33.333
830.20	-62.500
830.50	-22.727
830.80	-52.941
831.10	-68.182
831.40	-50.000
831.70	3.846
832.00	-18.182
832.30	-20.588
832.60	-5.405
832.90	900.000
833.20	-21.429
833.50	-65.000
833.80	-10.526
834.10	-58.333
834.40	-68.182
834.70	-46.667
835.00	-80.000
835.30	-45.833
835.60	-47.619
835.90	-38.095
836.20	-48.000
836.50	-12.500
836.80	-100.000
837.10	5.405
837.40	10.000
837.70	-52.174
838.00	0.000
838.30	-42.105
838.60	-200.000
838.90	-140.000
839.19	-216.667
839.49	-130.769
839.79	-57.895
840.09	-316.667
840.39	-230.000
840.69	-54.545
840.99	-42.857
841.29	-66.667
841.59	-100.000
841.88	-106.667
842.18	-57.143
842.48	10.000
842.78	-185.714
843.08	-135.714
843.38	-75.000
843.68	-150.000
843.97	-71.429
844.27	-222.222
844.57	-127.273
844.87	-166.667
845.17	-22.727
845.47	966.667
845.76	-93.333
846.06	-158.333
846.36	-1000.000
846.66	-36.842
846.96	-45.455
847.25	-83.333
847.55	-211.111
847.85	-66.667
848.15	-92.308
848.44	-450.000
848.74	-58.333
849.04	-115.385
849.34	-400.000
849.63	-118.182
849.93	-185.714
850.23	-30.000
850.53	-150.000
850.82	-44.444
851.12	-93.333
851.42	-76.471
851.71	-112.500
852.01	-5.882
852.31	-76.923
852.61	1150.000
852.90	-105.882
853.20	-6.667
853.50	-56.250
853.79	-57.143
854.09	-275.000
854.39	-30.000
854.68	-22.500
854.98	-42.857
855.28	-40.000
855.57	-16.667
855.87	-33.333
856.17	-48.000
856.46	-28.125
856.76	-35.000
857.05	20.000
857.35	-116.667
857.65	-29.412
857.94	-158.333
858.24	-150.000
858.53	-35.000
858.83	-109.091
859.13	-20.000
859.42	-114.286
859.72	-212.500
860.01	-4.167
860.31	-287.500
860.60	-106.250
860.90	0.000
861.20	-83.333
861.49	-80.000
861.79	-25.000
862.08	525.000
862.38	-50.000
862.67	342.857
862.97	425.000
863.26	-181.818
863.56	-127.273
863.85	31.579
864.15	-17.647
864.44	-440.000
864.74	-50.000
865.03	-200.000
865.33	-28.571
865.62	157.143
865.92	15.789
866.21	-88.889
866.51	-81.818
866.80	-100.000
867.10	-212.500
867.39	-37.500
867.69	-146.667
867.98	-120.000
868.27	0.000
868.57	0.000
868.86	850.000
869.16	-250.000
869.45	-257.143
869.75	400.000
870.04	-60.000
870.33	-2100.000
870.63	-5.263
870.92	-133.333
871.22	-1100.000
871.51	-157.143
871.80	-100.000
872.10	-250.000
>>>>>End Processed Spectral Data<<<<<
