SpectraSuite Data File
++++++++++++++++++++++++++++++++++++
Date: Wed May 13 21:09:49 PDT 2015
User: schluterlab
Dark Spectrum Present: Yes
Reference Spectrum Present: Yes
Number of Sampled Component Spectra: 1
Spectrometers: USB2E3373
Integration Time (usec): 3000 (USB2E3373)
Spectra Averaged: 3 (USB2E3373)
Boxcar Smoothing: 0 (USB2E3373)
Correct for Electrical Dark: No (USB2E3373)
Strobe/Lamp Enabled: No (USB2E3373)
Correct for Detector Non-linearity: No (USB2E3373)
Correct for Stray Light: No (USB2E3373)
Number of Pixels in Processed Spectrum: 2048
>>>>>Begin Processed Spectral Data<<<<<
178.53	0.000
178.91	150.000
179.29	116.667
179.67	-750.000
180.04	-233.333
180.42	260.000
180.80	1700.000
181.18	166.667
181.56	-200.000
181.94	-325.000
182.31	18.182
182.69	84.615
183.07	-140.000
183.45	266.667
183.83	111.111
184.20	71.429
184.58	-200.000
184.96	333.333
185.34	85.714
185.72	0.000
186.09	-1100.000
186.47	-280.000
186.85	400.000
187.23	-50.000
187.61	1050.000
187.98	700.000
188.36	-25.000
188.74	0.000
189.12	-90.909
189.49	0.000
189.87	175.000
190.25	520.000
190.63	600.000
191.00	-160.000
191.38	280.000
191.76	275.000
192.14	208.333
192.51	-36.842
192.89	100.000
193.27	275.000
193.65	-380.000
194.02	163.636
194.40	230.000
194.78	-900.000
195.15	160.000
195.53	-340.000
195.91	-200.000
196.29	-400.000
196.66	0.000
197.04	650.000
197.42	60.000
197.79	-40.000
198.17	25.000
198.55	-333.333
198.92	250.000
199.30	-600.000
199.68	-50.000
200.05	-100.000
200.43	116.667
200.81	-700.000
201.18	-200.000
201.56	-166.667
201.94	850.000
202.31	-8.696
202.69	-171.429
203.07	-133.333
203.44	-300.000
203.82	-233.333
204.19	-80.000
204.57	0.000
204.95	-200.000
205.32	0.000
205.70	-350.000
206.08	-250.000
206.45	-150.000
206.83	650.000
207.20	-700.000
207.58	-130.000
207.96	-1600.000
208.33	-57.143
208.71	-1600.000
209.08	150.000
209.46	275.000
209.84	0.000
210.21	190.000
210.59	1200.000
210.96	320.000
211.34	1100.000
211.71	-650.000
212.09	-200.000
212.46	-140.000
212.84	-300.000
213.22	-100.000
213.59	-800.000
213.97	-300.000
214.34	-1100.000
214.72	15.385
215.09	275.000
215.47	133.333
215.84	400.000
216.22	-112.500
216.59	-500.000
216.97	833.333
217.34	222.222
217.72	0.000
218.09	466.667
218.47	-500.000
218.84	28.571
219.22	-87.500
219.59	33.333
219.97	-200.000
220.34	-125.000
220.72	-60.000
221.09	0.000
221.47	-100.000
221.84	-1600.000
222.22	0.000
222.59	1300.000
222.97	-333.333
223.34	-8.333
223.72	-2000.000
224.09	-550.000
224.46	-45.455
224.84	0.000
225.21	-100.000
225.59	-350.000
225.96	-166.667
226.34	40.000
226.71	-85.714
227.08	650.000
227.46	-112.500
227.83	-700.000
228.21	0.000
228.58	-700.000
228.95	-82.353
229.33	-50.000
229.70	-112.500
230.08	-53.846
230.45	-112.500
230.82	-58.333
231.20	242.857
231.57	-300.000
231.95	1500.000
232.32	0.000
232.69	-29.412
233.07	-1200.000
233.44	-26.087
233.81	-650.000
234.19	16.667
234.56	-80.000
234.93	-33.333
235.31	15.789
235.68	-23.077
236.05	7.692
236.43	-38.889
236.80	-24.242
237.17	-113.333
237.55	-88.235
237.92	-51.724
238.29	-37.037
238.67	-16.667
239.04	-25.806
239.41	-10.638
239.79	-6.383
240.16	-4.651
240.53	1.786
240.91	3.571
241.28	0.000
241.65	-9.677
242.02	-1.316
242.40	4.348
242.77	-20.290
243.14	-10.256
243.51	5.319
243.89	5.769
244.26	9.434
244.63	1.923
245.00	12.500
245.38	1.681
245.75	0.820
246.12	9.023
246.49	-2.439
246.87	-7.563
247.24	6.757
247.61	1.325
247.98	11.538
248.36	2.367
248.73	0.000
249.10	3.030
249.47	4.301
249.84	4.211
250.22	5.473
250.59	10.280
250.96	4.545
251.33	0.957
251.70	9.623
252.08	4.603
252.45	6.173
252.82	9.125
253.19	4.669
253.56	2.158
253.94	7.117
254.31	5.282
254.68	7.718
255.05	3.960
255.42	4.895
255.79	4.294
256.16	7.256
256.54	6.349
256.91	4.747
257.28	7.233
257.65	5.096
258.02	3.812
258.39	3.509
258.76	6.395
259.14	5.966
259.51	4.775
259.88	7.046
260.25	6.667
260.62	2.809
260.99	6.366
261.36	9.585
261.73	5.926
262.10	6.870
262.47	5.926
262.85	7.214
263.22	4.615
263.59	5.714
263.96	4.380
264.33	6.010
264.70	5.581
265.07	8.565
265.44	8.506
265.81	6.636
266.18	7.517
266.55	5.240
266.92	8.475
267.29	5.967
267.66	4.883
268.03	8.025
268.40	3.602
268.77	5.579
269.14	5.714
269.51	11.704
269.88	7.128
270.25	7.839
270.62	4.508
270.99	8.268
271.36	8.532
271.73	8.835
272.10	8.000
272.47	8.445
272.84	8.268
273.21	6.458
273.58	6.557
273.95	5.849
274.32	8.209
274.69	8.197
275.06	7.951
275.43	6.780
275.80	6.028
276.17	7.182
276.54	5.861
276.91	5.923
277.28	5.596
277.65	7.168
278.02	8.214
278.39	5.684
278.76	9.030
279.13	8.405
279.50	5.690
279.87	5.978
280.23	6.847
280.60	5.709
280.97	6.656
281.34	9.148
281.71	5.041
282.08	7.692
282.45	7.869
282.82	6.550
283.19	8.994
283.56	8.438
283.92	7.798
284.29	5.148
284.66	5.931
285.03	4.723
285.40	7.704
285.77	7.057
286.14	5.471
286.51	8.696
286.87	8.000
287.24	5.752
287.61	7.831
287.98	8.529
288.35	4.918
288.72	8.752
289.08	8.120
289.45	7.342
289.82	6.354
290.19	7.854
290.56	7.102
290.93	6.354
291.29	6.840
291.66	7.104
292.03	7.221
292.40	5.518
292.77	6.827
293.13	5.439
293.50	4.967
293.87	6.400
294.24	6.746
294.60	7.022
294.97	5.952
295.34	4.485
295.71	6.045
296.08	4.450
296.44	4.847
296.81	5.359
297.18	6.125
297.55	6.722
297.91	6.087
298.28	5.932
298.65	4.557
299.02	7.326
299.38	5.890
299.75	5.769
300.12	4.767
300.48	5.731
300.85	6.467
301.22	4.878
301.59	4.108
301.95	3.136
302.32	4.784
302.69	5.311
303.05	4.983
303.42	6.705
303.79	6.730
304.15	4.929
304.52	6.882
304.89	5.869
305.25	3.952
305.62	6.182
305.99	5.223
306.35	7.628
306.72	7.630
307.09	6.361
307.45	6.709
307.82	5.579
308.19	4.389
308.55	5.732
308.92	6.582
309.29	5.606
309.65	4.196
310.02	5.368
310.38	5.488
310.75	5.325
311.12	6.414
311.48	4.847
311.85	4.528
312.22	6.480
312.58	5.121
312.95	5.771
313.31	6.244
313.68	5.344
314.05	5.482
314.41	6.340
314.78	6.072
315.14	6.389
315.51	6.851
315.87	6.209
316.24	6.887
316.61	7.489
316.97	5.648
317.34	7.487
317.70	6.780
318.07	7.098
318.43	5.781
318.80	6.719
319.16	5.836
319.53	7.258
319.89	6.775
320.26	7.394
320.62	6.580
320.99	6.202
321.35	6.829
321.72	6.737
322.08	7.565
322.45	8.511
322.81	8.318
323.18	7.156
323.54	7.942
323.91	8.491
324.27	7.921
324.64	7.666
325.00	8.311
325.37	8.191
325.73	8.333
326.10	8.831
326.46	9.114
326.83	9.223
327.19	9.675
327.56	9.831
327.92	8.447
328.29	9.933
328.65	10.429
329.01	8.707
329.38	11.391
329.74	10.558
330.11	9.739
330.47	10.156
330.84	10.018
331.20	10.077
331.56	11.232
331.93	10.508
332.29	11.642
332.66	11.356
333.02	11.816
333.38	11.667
333.75	10.666
334.11	11.545
334.48	10.811
334.84	10.689
335.20	11.235
335.57	11.488
335.93	10.223
336.29	10.946
336.66	10.940
337.02	11.478
337.38	12.446
337.75	12.059
338.11	12.212
338.47	11.387
338.84	11.770
339.20	11.111
339.56	11.092
339.93	12.532
340.29	12.212
340.65	11.634
341.02	11.231
341.38	13.007
341.74	11.429
342.11	12.139
342.47	11.297
342.83	12.827
343.20	11.421
343.56	13.246
343.92	12.348
344.28	11.769
344.65	12.163
345.01	11.461
345.37	12.500
345.73	12.500
346.10	13.162
346.46	11.789
346.82	11.878
347.19	11.788
347.55	12.682
347.91	11.847
348.27	11.987
348.63	12.740
349.00	10.928
349.36	11.931
349.72	12.993
350.08	13.183
350.45	11.825
350.81	12.285
351.17	12.317
351.53	12.647
351.89	10.643
352.26	11.351
352.62	12.016
352.98	12.300
353.34	12.077
353.70	13.162
354.07	12.863
354.43	11.742
354.79	13.862
355.15	13.043
355.51	12.528
355.87	12.510
356.24	12.279
356.60	12.510
356.96	12.740
357.32	13.003
357.68	13.293
358.04	13.189
358.40	13.721
358.77	14.067
359.13	13.074
359.49	13.853
359.85	13.495
360.21	13.416
360.57	13.156
360.93	12.595
361.29	14.434
361.66	12.377
362.02	13.343
362.38	13.220
362.74	12.835
363.10	14.100
363.46	13.617
363.82	13.747
364.18	13.270
364.54	13.494
364.90	13.101
365.26	13.093
365.62	13.636
365.98	13.950
366.35	13.830
366.71	13.409
367.07	14.174
367.43	13.868
367.79	13.829
368.15	14.698
368.51	13.783
368.87	14.794
369.23	14.306
369.59	14.306
369.95	13.933
370.31	13.668
370.67	14.482
371.03	14.180
371.39	14.336
371.75	14.786
372.11	14.886
372.47	14.492
372.83	14.771
373.19	15.036
373.55	14.595
373.91	14.993
374.27	14.454
374.63	14.723
374.99	14.694
375.35	15.068
375.71	14.198
376.07	15.559
376.42	15.441
376.78	15.390
377.14	14.847
377.50	15.971
377.86	16.202
378.22	15.992
378.58	15.195
378.94	16.750
379.30	15.490
379.66	16.276
380.02	16.238
380.38	15.904
380.74	16.497
381.09	16.707
381.45	15.961
381.81	16.697
382.17	17.139
382.53	16.062
382.89	16.586
383.25	16.481
383.61	17.615
383.97	17.563
384.32	16.950
384.68	16.780
385.04	17.166
385.40	17.684
385.76	17.822
386.12	16.850
386.48	17.116
386.83	17.710
387.19	17.027
387.55	18.639
387.91	17.712
388.27	17.509
388.62	17.728
388.98	17.084
389.34	18.546
389.70	17.888
390.06	17.313
390.42	19.459
390.77	18.386
391.13	18.056
391.49	17.204
391.85	18.019
392.20	18.484
392.56	17.587
392.92	19.134
393.28	18.536
393.64	18.593
393.99	18.360
394.35	18.395
394.71	18.654
395.07	17.987
395.42	19.439
395.78	19.112
396.14	19.404
396.50	19.214
396.85	19.885
397.21	18.851
397.57	19.255
397.92	19.341
398.28	19.797
398.64	19.004
399.00	19.364
399.35	19.977
399.71	19.453
400.07	19.277
400.42	20.125
400.78	19.819
401.14	19.559
401.49	19.952
401.85	20.209
402.21	20.805
402.57	20.049
402.92	20.275
403.28	19.887
403.63	20.645
403.99	20.218
404.35	20.200
404.70	20.060
405.06	20.728
405.42	20.038
405.77	19.873
406.13	20.571
406.49	20.431
406.84	21.429
407.20	20.604
407.55	20.584
407.91	20.384
408.27	20.898
408.62	21.179
408.98	20.838
409.34	20.545
409.69	22.222
410.05	21.144
410.40	20.390
410.76	21.480
411.11	21.517
411.47	21.433
411.83	20.649
412.18	21.537
412.54	21.617
412.89	21.066
413.25	21.298
413.60	21.630
413.96	20.849
414.31	21.640
414.67	21.778
415.03	22.192
415.38	21.268
415.74	21.442
416.09	22.406
416.45	21.941
416.80	21.544
417.16	22.267
417.51	21.835
417.87	22.288
418.22	22.301
418.58	21.288
418.93	21.720
419.29	22.310
419.64	21.819
420.00	23.238
420.35	21.757
420.71	21.816
421.06	21.464
421.42	22.567
421.77	22.197
422.12	23.496
422.48	22.246
422.83	22.859
423.19	22.657
423.54	23.498
423.90	22.209
424.25	23.397
424.61	22.859
424.96	22.590
425.31	22.154
425.67	22.340
426.02	23.616
426.38	23.694
426.73	22.724
427.09	22.827
427.44	23.194
427.79	22.625
428.15	23.853
428.50	23.202
428.85	23.124
429.21	22.904
429.56	22.529
429.92	22.957
430.27	22.239
430.62	23.295
430.98	23.321
431.33	22.945
431.68	23.802
432.04	23.944
432.39	23.210
432.74	23.176
433.10	23.417
433.45	22.781
433.80	23.161
434.16	22.611
434.51	23.533
434.86	22.968
435.22	23.430
435.57	23.034
435.92	23.281
436.28	22.823
436.63	23.788
436.98	23.090
437.34	24.298
437.69	23.967
438.04	23.599
438.39	23.848
438.75	24.017
439.10	24.176
439.45	24.153
439.81	24.569
440.16	23.594
440.51	24.019
440.86	23.651
441.22	23.293
441.57	23.536
441.92	23.224
442.27	23.431
442.63	23.574
442.98	22.512
443.33	23.928
443.68	22.826
444.03	23.150
444.39	23.599
444.74	23.412
445.09	23.073
445.44	24.507
445.79	23.180
446.15	23.239
446.50	23.293
446.85	23.624
447.20	23.941
447.55	24.678
447.91	23.539
448.26	24.242
448.61	23.993
448.96	23.804
449.31	24.443
449.66	23.771
450.02	24.730
450.37	23.443
450.72	22.905
451.07	24.075
451.42	22.957
451.77	23.615
452.12	23.945
452.47	24.338
452.83	22.995
453.18	23.297
453.53	23.266
453.88	23.795
454.23	23.362
454.58	23.468
454.93	23.797
455.28	24.021
455.63	22.520
455.98	22.885
456.34	22.314
456.69	23.834
457.04	23.220
457.39	23.993
457.74	22.980
458.09	23.934
458.44	23.090
458.79	23.668
459.14	23.090
459.49	23.171
459.84	22.379
460.19	22.629
460.54	23.479
460.89	23.029
461.24	23.428
461.59	22.947
461.94	23.009
462.29	22.549
462.64	24.142
462.99	22.535
463.34	23.757
463.69	23.260
464.04	22.749
464.39	23.490
464.74	22.912
465.09	22.939
465.44	22.727
465.79	23.059
466.14	22.691
466.49	22.639
466.84	22.714
467.19	22.803
467.54	23.590
467.89	23.507
468.24	23.110
468.59	21.670
468.94	23.180
469.29	23.926
469.64	22.873
469.99	23.586
470.34	23.061
470.68	22.974
471.03	23.202
471.38	23.435
471.73	23.800
472.08	23.162
472.43	24.011
472.78	23.259
473.13	22.493
473.48	23.027
473.83	22.976
474.17	23.503
474.52	23.107
474.87	22.799
475.22	22.705
475.57	23.424
475.92	23.228
476.27	22.669
476.61	23.443
476.96	23.073
477.31	22.923
477.66	22.825
478.01	21.758
478.36	22.888
478.70	22.342
479.05	23.363
479.40	22.673
479.75	22.104
480.10	22.998
480.45	22.805
480.79	22.847
481.14	23.708
481.49	23.483
481.84	22.008
482.19	23.298
482.53	22.762
482.88	23.394
483.23	22.762
483.58	23.015
483.92	23.054
484.27	22.187
484.62	22.770
484.97	22.231
485.31	21.156
485.66	20.684
486.01	20.564
486.36	20.500
486.70	20.974
487.05	21.635
487.40	21.151
487.75	21.849
488.09	22.114
488.44	22.257
488.79	22.445
489.13	22.107
489.48	22.403
489.83	21.974
490.17	22.379
490.52	22.768
490.87	22.207
491.22	22.562
491.56	22.041
491.91	22.036
492.26	22.244
492.60	21.886
492.95	22.352
493.30	22.481
493.64	21.727
493.99	22.657
494.34	22.543
494.68	22.100
495.03	22.381
495.37	22.384
495.72	22.907
496.07	23.332
496.41	22.602
496.76	22.852
497.11	21.784
497.45	22.519
497.80	22.463
498.14	22.469
498.49	22.189
498.84	21.812
499.18	21.653
499.53	22.058
499.87	21.640
500.22	23.245
500.56	22.166
500.91	22.284
501.26	22.217
501.60	22.304
501.95	22.425
502.29	22.573
502.64	22.276
502.98	22.254
503.33	22.287
503.67	22.298
504.02	21.471
504.36	22.387
504.71	22.409
505.06	22.924
505.40	22.320
505.75	23.449
506.09	22.024
506.44	22.077
506.78	22.550
507.13	22.505
507.47	22.428
507.82	22.920
508.16	23.008
508.51	22.727
508.85	23.173
509.19	21.376
509.54	23.700
509.88	22.581
510.23	22.842
510.57	22.564
510.92	23.491
511.26	22.717
511.61	22.448
511.95	22.326
512.30	22.488
512.64	23.837
512.98	23.324
513.33	22.873
513.67	22.658
514.02	23.375
514.36	23.371
514.70	24.018
515.05	23.698
515.39	23.231
515.74	23.683
516.08	22.891
516.42	22.581
516.77	22.789
517.11	23.633
517.46	23.349
517.80	24.334
518.14	22.903
518.49	22.182
518.83	23.687
519.17	23.313
519.52	23.462
519.86	23.254
520.20	23.044
520.55	23.134
520.89	23.782
521.23	24.487
521.58	23.767
521.92	23.256
522.26	24.593
522.61	22.495
522.95	24.223
523.29	23.429
523.64	23.776
523.98	22.935
524.32	23.062
524.66	23.636
525.01	23.591
525.35	24.687
525.69	23.459
526.04	23.192
526.38	24.028
526.72	24.260
527.06	24.500
527.41	24.222
527.75	23.164
528.09	23.962
528.43	24.559
528.78	23.643
529.12	24.191
529.46	24.184
529.80	23.560
530.15	23.166
530.49	24.596
530.83	24.035
531.17	25.000
531.51	24.073
531.86	23.848
532.20	23.708
532.54	24.414
532.88	24.779
533.22	24.848
533.57	23.113
533.91	23.935
534.25	24.219
534.59	23.874
534.93	23.342
535.27	23.758
535.62	23.618
535.96	24.073
536.30	24.601
536.64	23.377
536.98	23.406
537.32	24.413
537.66	24.683
538.01	24.133
538.35	23.826
538.69	23.411
539.03	22.282
539.37	23.742
539.71	24.147
540.05	22.740
540.39	23.331
540.73	23.883
541.07	23.605
541.42	24.916
541.76	23.545
542.10	22.884
542.44	23.978
542.78	24.011
543.12	24.461
543.46	24.119
543.80	24.100
544.14	23.125
544.48	23.358
544.82	23.739
545.16	24.273
545.50	23.768
545.84	23.633
546.18	23.142
546.52	23.571
546.86	23.180
547.20	22.802
547.54	24.089
547.88	22.740
548.22	23.583
548.56	22.282
548.90	24.357
549.24	23.472
549.58	23.559
549.92	24.505
550.26	24.723
550.60	24.550
550.94	24.328
551.28	23.089
551.62	23.759
551.96	25.549
552.30	22.780
552.64	24.011
552.98	24.361
553.32	24.081
553.66	24.358
554.00	22.750
554.34	23.150
554.68	23.639
555.02	23.054
555.36	23.222
555.69	23.598
556.03	23.302
556.37	22.902
556.71	23.896
557.05	23.247
557.39	23.587
557.73	23.828
558.07	22.984
558.41	25.132
558.75	23.018
559.08	23.657
559.42	25.098
559.76	23.700
560.10	23.520
560.44	25.203
560.78	24.245
561.12	22.985
561.45	22.789
561.79	23.865
562.13	23.840
562.47	23.071
562.81	23.088
563.15	22.734
563.48	23.056
563.82	23.256
564.16	23.629
564.50	23.677
564.84	21.622
565.17	22.848
565.51	23.329
565.85	22.785
566.19	23.179
566.52	23.198
566.86	22.061
567.20	22.175
567.54	22.222
567.88	21.165
568.21	22.596
568.55	22.640
568.89	20.937
569.23	21.677
569.56	21.277
569.90	21.587
570.24	20.578
570.57	20.539
570.91	20.439
571.25	20.987
571.59	19.964
571.92	20.329
572.26	20.463
572.60	20.696
572.93	20.681
573.27	19.769
573.61	20.616
573.95	19.989
574.28	20.108
574.62	20.044
574.96	20.349
575.29	19.734
575.63	20.074
575.97	20.082
576.30	19.824
576.64	19.990
576.98	19.980
577.31	20.382
577.65	19.284
577.98	19.657
578.32	19.268
578.66	19.681
578.99	20.047
579.33	20.165
579.67	20.137
580.00	19.776
580.34	19.825
580.67	20.235
581.01	19.543
581.35	19.495
581.68	19.288
582.02	19.405
582.35	19.497
582.69	19.478
583.02	19.511
583.36	19.835
583.70	20.298
584.03	20.140
584.37	20.082
584.70	19.680
585.04	19.578
585.37	19.733
585.71	19.826
586.04	19.825
586.38	19.363
586.72	20.146
587.05	20.361
587.39	19.658
587.72	19.787
588.06	19.945
588.39	19.759
588.73	19.976
589.06	19.981
589.40	19.883
589.73	20.050
590.07	20.525
590.40	20.598
590.73	21.070
591.07	20.769
591.40	20.739
591.74	21.076
592.07	20.721
592.41	20.721
592.74	20.988
593.08	20.171
593.41	20.360
593.75	19.541
594.08	20.035
594.41	20.183
594.75	20.390
595.08	20.090
595.42	20.007
595.75	20.716
596.09	20.708
596.42	20.057
596.75	20.711
597.09	20.974
597.42	21.041
597.75	20.533
598.09	21.175
598.42	21.432
598.76	20.403
599.09	20.568
599.42	20.393
599.76	19.827
600.09	19.955
600.42	19.736
600.76	20.325
601.09	20.414
601.42	20.659
601.76	19.459
602.09	20.997
602.42	21.131
602.76	20.260
603.09	20.780
603.42	20.512
603.76	19.758
604.09	19.921
604.42	20.553
604.76	20.864
605.09	21.024
605.42	21.592
605.75	20.171
606.09	19.868
606.42	20.158
606.75	20.087
607.09	20.168
607.42	20.315
607.75	20.175
608.08	21.551
608.42	21.087
608.75	20.354
609.08	20.235
609.41	21.013
609.75	20.575
610.08	20.464
610.41	20.408
610.74	20.597
611.07	20.792
611.41	21.238
611.74	21.222
612.07	20.688
612.40	20.595
612.73	21.076
613.07	20.344
613.40	22.137
613.73	21.398
614.06	20.398
614.39	20.789
614.72	21.377
615.06	21.111
615.39	21.137
615.72	20.680
616.05	20.946
616.38	21.478
616.71	21.176
617.05	21.744
617.38	20.518
617.71	20.527
618.04	20.780
618.37	21.767
618.70	22.251
619.03	21.856
619.36	20.783
619.69	21.857
620.03	21.625
620.36	21.503
620.69	21.056
621.02	21.462
621.35	21.750
621.68	22.168
622.01	21.117
622.34	21.967
622.67	22.161
623.00	22.644
623.33	22.289
623.66	21.041
623.99	21.530
624.32	21.643
624.65	21.588
624.99	21.749
625.32	21.658
625.65	22.248
625.98	21.959
626.31	22.857
626.64	21.410
626.97	22.837
627.30	23.011
627.63	22.318
627.96	21.732
628.29	24.000
628.62	23.114
628.95	22.345
629.28	22.266
629.61	23.349
629.94	23.694
630.26	23.350
630.59	22.378
630.92	22.590
631.25	23.790
631.58	22.805
631.91	23.012
632.24	21.625
632.57	22.222
632.90	24.504
633.23	23.741
633.56	23.381
633.89	24.163
634.22	24.853
634.55	23.752
634.88	23.652
635.20	24.250
635.53	23.127
635.86	24.744
636.19	24.069
636.52	23.902
636.85	22.678
637.18	21.924
637.51	23.970
637.83	25.196
638.16	22.933
638.49	24.299
638.82	24.314
639.15	23.138
639.48	24.198
639.81	25.556
640.13	25.915
640.46	25.565
640.79	23.885
641.12	22.929
641.45	22.707
641.77	26.510
642.10	24.508
642.43	24.214
642.76	24.132
643.09	23.003
643.41	24.402
643.74	23.425
644.07	22.654
644.40	25.041
644.73	25.593
645.05	22.339
645.38	24.419
645.71	26.361
646.04	23.569
646.36	25.521
646.69	25.000
647.02	24.772
647.35	26.691
647.67	26.617
648.00	25.181
648.33	26.610
648.66	24.708
648.98	22.360
649.31	22.853
649.64	23.318
649.96	25.276
650.29	25.327
650.62	24.382
650.94	23.448
651.27	24.028
651.60	25.699
651.92	28.136
652.25	26.298
652.58	24.092
652.90	23.232
653.23	22.411
653.56	24.959
653.88	20.990
654.21	23.379
654.54	20.598
654.86	22.764
655.19	22.829
655.52	20.890
655.84	17.001
656.17	20.561
656.49	27.193
656.82	27.302
657.15	20.553
657.47	15.759
657.80	11.713
658.13	12.619
658.45	18.386
658.78	18.493
659.10	18.463
659.43	19.041
659.75	18.778
660.08	19.655
660.41	19.878
660.73	20.937
661.06	22.789
661.38	23.256
661.71	23.566
662.03	25.793
662.36	24.558
662.68	26.667
663.01	25.212
663.33	25.270
663.66	24.390
663.98	24.270
664.31	25.275
664.63	21.847
664.96	26.258
665.28	24.249
665.61	23.110
665.93	25.696
666.26	27.004
666.58	23.555
666.91	28.924
667.23	23.272
667.56	24.828
667.88	23.364
668.21	24.554
668.53	23.218
668.86	23.981
669.18	24.823
669.50	23.272
669.83	24.582
670.15	22.381
670.48	22.529
670.80	24.945
671.13	25.172
671.45	24.429
671.77	23.707
672.10	22.612
672.42	22.328
672.75	21.429
673.07	21.455
673.39	23.134
673.72	23.154
674.04	23.156
674.37	23.780
674.69	22.634
675.01	23.718
675.34	22.976
675.66	23.529
675.98	21.903
676.31	23.756
676.63	25.397
676.95	22.824
677.28	23.624
677.60	25.000
677.92	27.716
678.25	26.247
678.57	24.847
678.89	21.535
679.22	21.739
679.54	25.918
679.86	22.656
680.18	21.923
680.51	20.577
680.83	20.858
681.15	23.576
681.48	21.844
681.80	22.699
682.12	21.458
682.44	19.316
682.77	22.105
683.09	23.661
683.41	19.767
683.73	19.866
684.06	23.009
684.38	24.145
684.70	19.348
685.02	21.281
685.34	22.896
685.67	22.702
685.99	22.242
686.31	24.138
686.63	20.956
686.96	21.892
687.28	21.557
687.60	25.331
687.92	19.261
688.24	21.000
688.56	22.368
688.89	23.385
689.21	22.197
689.53	19.369
689.85	22.022
690.17	22.418
690.49	19.807
690.82	22.196
691.14	21.256
691.46	22.738
691.78	22.418
692.10	19.958
692.42	21.099
692.74	24.348
693.06	22.921
693.39	21.311
693.71	21.556
694.03	24.318
694.35	23.423
694.67	23.250
694.99	23.969
695.31	25.840
695.63	23.171
695.95	20.611
696.27	20.548
696.59	20.699
696.91	24.022
697.23	24.365
697.56	22.782
697.88	22.453
698.20	23.974
698.52	20.327
698.84	22.727
699.16	21.749
699.48	21.481
699.80	20.930
700.12	21.716
700.44	17.746
700.76	20.225
701.08	27.190
701.40	24.251
701.72	24.923
702.04	22.642
702.36	20.732
702.68	20.427
703.00	23.099
703.32	21.727
703.64	22.892
703.96	21.114
704.28	21.084
704.60	21.951
704.91	18.809
705.23	21.519
705.55	23.103
705.87	25.000
706.19	24.542
706.51	22.887
706.83	21.975
707.15	18.598
707.47	21.763
707.79	22.081
708.11	19.023
708.43	22.843
708.74	21.543
709.06	20.588
709.38	23.919
709.70	21.922
710.02	25.545
710.34	20.667
710.66	23.127
710.98	18.885
711.29	21.753
711.61	21.935
711.93	21.935
712.25	20.280
712.57	16.140
712.89	20.513
713.20	21.277
713.52	19.708
713.84	18.710
714.16	16.828
714.48	18.671
714.80	18.211
715.11	24.128
715.43	14.907
715.75	22.050
716.07	20.783
716.39	23.232
716.70	20.863
717.02	16.078
717.34	25.000
717.66	18.534
717.97	17.063
718.29	20.472
718.61	19.742
718.93	15.504
719.24	25.092
719.56	20.974
719.88	16.045
720.20	18.182
720.51	19.922
720.83	23.346
721.15	15.447
721.46	19.847
721.78	18.725
722.10	21.514
722.42	15.726
722.73	20.463
723.05	20.816
723.37	21.429
723.68	17.600
724.00	19.574
724.32	23.431
724.63	23.045
724.95	18.803
725.27	22.363
725.58	20.165
725.90	17.573
726.22	16.304
726.53	17.255
726.85	21.168
727.16	19.630
727.48	18.391
727.80	25.000
728.11	15.574
728.43	25.000
728.74	17.857
729.06	18.400
729.38	22.925
729.69	23.488
730.01	18.587
730.32	22.509
730.64	16.667
730.96	18.182
731.27	16.054
731.59	21.587
731.90	16.505
732.22	20.513
732.53	17.230
732.85	16.779
733.16	21.122
733.48	20.608
733.80	18.581
734.11	23.986
734.43	17.337
734.74	20.120
735.06	21.037
735.37	19.453
735.69	15.858
736.00	15.842
736.32	19.858
736.63	20.000
736.95	17.808
737.26	16.897
737.58	17.361
737.89	17.869
738.21	18.505
738.52	20.532
738.83	21.633
739.15	20.253
739.46	17.899
739.78	15.493
740.09	18.151
740.41	17.500
740.72	14.539
741.04	16.400
741.35	13.158
741.66	20.889
741.98	17.788
742.29	22.277
742.61	16.585
742.92	21.053
743.23	18.868
743.55	20.270
743.86	17.489
744.18	24.020
744.49	15.228
744.80	18.878
745.12	24.766
745.43	16.588
745.74	22.523
746.06	17.757
746.37	14.679
746.68	21.154
747.00	15.789
747.31	21.635
747.62	19.725
747.94	24.017
748.25	16.972
748.56	23.556
748.88	25.822
749.19	20.952
749.50	15.049
749.82	15.493
750.13	14.167
750.44	19.231
750.75	15.867
751.07	18.861
751.38	18.085
751.69	14.286
752.01	19.531
752.32	18.846
752.63	16.791
752.94	19.600
753.26	20.502
753.57	20.417
753.88	20.648
754.19	17.131
754.51	18.045
754.82	15.751
755.13	12.174
755.44	20.325
755.75	12.000
756.07	15.867
756.38	16.547
756.69	17.747
757.00	19.938
757.31	20.388
757.63	15.741
757.94	16.384
758.25	18.783
758.56	15.489
758.87	16.667
759.18	18.927
759.50	19.529
759.81	18.060
760.12	18.154
760.43	15.476
760.74	17.514
761.05	13.812
761.36	13.181
761.67	12.991
761.99	14.433
762.30	14.599
762.61	16.049
762.92	23.932
763.23	21.311
763.54	19.048
763.85	15.918
764.16	9.756
764.47	16.000
764.78	14.286
765.10	18.033
765.41	17.325
765.72	15.839
766.03	15.842
766.34	16.538
766.65	12.552
766.96	18.779
767.27	17.822
767.58	8.427
767.89	18.519
768.20	18.232
768.51	20.101
768.82	16.346
769.13	24.779
769.44	16.318
769.75	8.547
770.06	15.247
770.37	17.157
770.68	21.359
770.99	18.932
771.30	18.067
771.61	12.653
771.92	21.992
772.23	13.514
772.54	9.945
772.85	14.535
773.16	20.635
773.47	5.917
773.78	20.690
774.09	15.000
774.39	19.255
774.70	12.245
775.01	15.172
775.32	21.429
775.63	19.549
775.94	8.271
776.25	11.200
776.56	18.182
776.87	20.635
777.18	16.216
777.48	21.622
777.79	21.260
778.10	15.596
778.41	21.053
778.72	12.605
779.03	7.746
779.34	20.946
779.65	14.085
779.95	13.245
780.26	10.791
780.57	22.302
780.88	16.197
781.19	8.403
781.50	14.094
781.80	15.789
782.11	8.721
782.42	19.497
782.73	11.111
783.04	15.172
783.34	10.687
783.65	8.725
783.96	13.846
784.27	15.714
784.57	17.021
784.88	2.885
785.19	19.091
785.50	12.727
785.81	4.762
786.11	14.286
786.42	16.814
786.73	-0.943
787.04	5.505
787.34	5.941
787.65	17.500
787.96	11.570
788.26	7.971
788.57	3.968
788.88	6.504
789.19	6.400
789.49	8.397
789.80	20.455
790.11	8.491
790.41	11.881
790.72	15.957
791.03	8.696
791.33	8.235
791.64	8.642
791.95	11.957
792.25	14.773
792.56	12.821
792.87	6.410
793.17	-5.128
793.48	3.571
793.79	3.750
794.09	17.308
794.40	18.750
794.70	9.910
795.01	14.063
795.32	15.652
795.62	-3.261
795.93	9.434
796.23	19.192
796.54	2.439
796.85	10.714
797.15	10.606
797.46	10.145
797.76	1.316
798.07	17.045
798.37	8.537
798.68	-6.452
798.99	-4.054
799.29	19.277
799.60	14.103
799.90	16.923
800.21	12.121
800.51	5.333
800.82	8.000
801.12	-10.417
801.43	-11.667
801.73	4.054
802.04	14.286
802.34	-8.197
802.65	22.388
802.95	7.273
803.26	0.000
803.56	16.923
803.87	20.755
804.17	6.452
804.48	4.412
804.78	-9.756
805.09	15.942
805.39	11.765
805.70	-10.638
806.00	0.000
806.30	15.385
806.61	0.000
806.91	0.000
807.22	-5.263
807.52	28.409
807.83	-13.559
808.13	-18.182
808.43	13.333
808.74	-36.207
809.04	1.587
809.35	-12.245
809.65	5.000
809.95	-4.082
810.26	5.634
810.56	2.083
810.86	0.000
811.17	9.615
811.47	8.511
811.77	-10.417
812.08	9.434
812.38	12.500
812.69	5.455
812.99	-12.195
813.29	-2.703
813.59	-18.919
813.90	9.091
814.20	-1.818
814.50	6.667
814.81	20.000
815.11	-1.754
815.41	18.605
815.72	0.000
816.02	2.857
816.32	-32.432
816.62	12.500
816.93	13.333
817.23	-26.667
817.53	-11.111
817.84	-2.703
818.14	0.000
818.44	4.000
818.74	-6.122
819.04	4.878
819.35	8.333
819.65	-20.455
819.95	-38.889
820.25	-6.061
820.56	-21.429
820.86	0.000
821.16	-11.364
821.46	2.174
821.76	6.897
822.07	23.913
822.37	-36.364
822.67	29.268
822.97	2.703
823.27	-40.000
823.57	27.586
823.88	-5.882
824.18	-2.778
824.48	0.000
824.78	-14.286
825.08	-7.143
825.38	-33.333
825.69	-3.226
825.99	-2.439
826.29	0.000
826.59	3.125
826.89	-9.677
827.19	-30.435
827.49	2.778
827.79	-17.391
828.09	-41.935
828.39	4.167
828.70	-12.500
829.00	3.448
829.30	13.514
829.60	-45.833
829.90	-14.815
830.20	-15.625
830.50	-50.000
830.80	-82.353
831.10	-40.909
831.40	-26.471
831.70	3.846
832.00	18.182
832.30	11.765
832.60	16.216
832.90	1600.000
833.20	-14.286
833.50	-70.000
833.80	5.263
834.10	-41.667
834.40	-27.273
834.70	-66.667
835.00	-110.000
835.30	-50.000
835.60	-42.857
835.90	-33.333
836.20	-28.000
836.50	-20.833
836.80	-15.789
837.10	10.811
837.40	43.333
837.70	-8.696
838.00	66.667
838.30	-36.842
838.60	-150.000
838.90	-120.000
839.19	-75.000
839.49	-7.692
839.79	-15.789
840.09	-116.667
840.39	-40.000
840.69	-36.364
840.99	23.810
841.29	-37.500
841.59	-38.462
841.88	-73.333
842.18	7.143
842.48	10.000
842.78	-285.714
843.08	-71.429
843.38	-112.500
843.68	-87.500
843.97	-100.000
844.27	-11.111
844.57	-100.000
844.87	-86.667
845.17	31.818
845.47	700.000
845.76	-60.000
846.06	-66.667
846.36	-650.000
846.66	-57.895
846.96	-27.273
847.25	-55.556
847.55	-200.000
847.85	-47.619
848.15	-7.692
848.44	-400.000
848.74	-41.667
849.04	0.000
849.34	-250.000
849.63	-27.273
849.93	-85.714
850.23	5.000
850.53	-125.000
850.82	-27.778
851.12	-60.000
851.42	-64.706
851.71	-75.000
852.01	-5.882
852.31	-30.769
852.61	550.000
852.90	11.765
853.20	-6.667
853.50	-93.750
853.79	-121.429
854.09	-325.000
854.39	-60.000
854.68	-10.000
854.98	-14.286
855.28	12.000
855.57	4.167
855.87	-29.167
856.17	-16.000
856.46	-15.625
856.76	10.000
857.05	-24.000
857.35	-91.667
857.65	11.765
857.94	-116.667
858.24	-91.667
858.53	-35.000
858.83	-45.455
859.13	24.000
859.42	-50.000
859.72	-162.500
860.01	20.833
860.31	-62.500
860.60	-75.000
860.90	-216.667
861.20	-33.333
861.49	-33.333
861.79	-37.500
862.08	400.000
862.38	-150.000
862.67	228.571
862.97	-25.000
863.26	-154.545
863.56	-63.636
863.85	-5.263
864.15	-52.941
864.44	-260.000
864.74	-70.000
865.03	-66.667
865.33	-28.571
865.62	135.714
865.92	10.526
866.21	-66.667
866.51	-27.273
866.80	-66.667
867.10	-162.500
867.39	-75.000
867.69	-6.667
867.98	-190.000
868.27	-5.882
868.57	0.000
868.86	850.000
869.16	-225.000
869.45	-157.143
869.75	500.000
870.04	-110.000
870.33	-1300.000
870.63	-31.579
870.92	-116.667
871.22	-100.000
871.51	-71.429
871.80	-288.889
872.10	-250.000
>>>>>End Processed Spectral Data<<<<<
