SpectraSuite Data File
++++++++++++++++++++++++++++++++++++
Date: Wed May 13 21:28:39 PDT 2015
User: schluterlab
Dark Spectrum Present: Yes
Reference Spectrum Present: Yes
Number of Sampled Component Spectra: 1
Spectrometers: USB2E3373
Integration Time (usec): 3000 (USB2E3373)
Spectra Averaged: 3 (USB2E3373)
Boxcar Smoothing: 0 (USB2E3373)
Correct for Electrical Dark: No (USB2E3373)
Strobe/Lamp Enabled: No (USB2E3373)
Correct for Detector Non-linearity: No (USB2E3373)
Correct for Stray Light: No (USB2E3373)
Number of Pixels in Processed Spectrum: 2048
>>>>>Begin Processed Spectral Data<<<<<
178.53	0.000
178.91	300.000
179.29	175.000
179.67	-700.000
180.04	-166.667
180.42	140.000
180.80	2300.000
181.18	216.667
181.56	-450.000
181.94	-400.000
182.31	0.000
182.69	184.615
183.07	-260.000
183.45	250.000
183.83	266.667
184.20	171.429
184.58	-166.667
184.96	333.333
185.34	200.000
185.72	0.000
186.09	-300.000
186.47	-220.000
186.85	40.000
187.23	-400.000
187.61	500.000
187.98	-200.000
188.36	100.000
188.74	0.000
189.12	-100.000
189.49	150.000
189.87	100.000
190.25	240.000
190.63	1100.000
191.00	-180.000
191.38	260.000
191.76	225.000
192.14	183.333
192.51	31.579
192.89	400.000
193.27	500.000
193.65	-240.000
194.02	200.000
194.40	180.000
194.78	-700.000
195.15	220.000
195.53	-180.000
195.91	-37.500
196.29	-166.667
196.66	0.000
197.04	850.000
197.42	-80.000
197.79	-40.000
198.17	-62.500
198.55	-366.667
198.92	-25.000
199.30	-266.667
199.68	-100.000
200.05	100.000
200.43	183.333
200.81	-600.000
201.18	-40.000
201.56	-16.667
201.94	500.000
202.31	-26.087
202.69	-85.714
203.07	-366.667
203.44	-300.000
203.82	-433.333
204.19	-80.000
204.57	0.000
204.95	-50.000
205.32	0.000
205.70	-450.000
206.08	-225.000
206.45	-133.333
206.83	325.000
207.20	-466.667
207.58	60.000
207.96	-1700.000
208.33	-185.714
208.71	-1200.000
209.08	225.000
209.46	400.000
209.84	0.000
210.21	130.000
210.59	2300.000
210.96	360.000
211.34	800.000
211.71	-550.000
212.09	33.333
212.46	-170.000
212.84	-266.667
213.22	50.000
213.59	-1100.000
213.97	-200.000
214.34	-550.000
214.72	-100.000
215.09	275.000
215.47	155.556
215.84	500.000
216.22	-50.000
216.59	300.000
216.97	300.000
217.34	133.333
217.72	0.000
218.09	300.000
218.47	100.000
218.84	-28.571
219.22	-187.500
219.59	-366.667
219.97	-200.000
220.34	-75.000
220.72	80.000
221.09	0.000
221.47	16.667
221.84	-200.000
222.22	0.000
222.59	900.000
222.97	-666.667
223.34	-58.333
223.72	-1900.000
224.09	-200.000
224.46	-100.000
224.84	-112.500
225.21	-85.714
225.59	0.000
225.96	-50.000
226.34	-20.000
226.71	-128.571
227.08	500.000
227.46	-50.000
227.83	-500.000
228.21	-25.000
228.58	-350.000
228.95	-29.412
229.33	6.250
229.70	62.500
230.08	-61.538
230.45	-137.500
230.82	-66.667
231.20	28.571
231.57	-300.000
231.95	700.000
232.32	58.333
232.69	-5.882
233.07	-1300.000
233.44	-13.043
233.81	-950.000
234.19	20.833
234.56	-20.000
234.93	-6.667
235.31	68.421
235.68	-38.462
236.05	-123.077
236.43	-16.667
236.80	-21.212
237.17	-80.000
237.55	-23.529
237.92	-20.690
238.29	-25.926
238.67	16.667
239.04	9.677
239.41	4.255
239.79	46.809
240.16	2.326
240.53	8.929
240.91	19.643
241.28	44.643
241.65	33.871
242.02	28.947
242.40	43.478
242.77	20.290
243.14	12.821
243.51	28.723
243.89	25.000
244.26	39.623
244.63	18.269
245.00	23.958
245.38	21.849
245.75	35.246
246.12	32.331
246.49	34.146
246.87	26.050
247.24	39.189
247.61	33.113
247.98	32.051
248.36	36.686
248.73	37.640
249.10	34.343
249.47	37.097
249.84	34.737
250.22	39.801
250.59	35.047
250.96	37.273
251.33	35.407
251.70	41.004
252.08	34.310
252.45	36.626
252.82	41.825
253.19	33.463
253.56	35.252
253.94	39.502
254.31	35.915
254.68	40.940
255.05	37.624
255.42	32.867
255.79	42.025
256.16	39.432
256.54	39.048
256.91	37.975
257.28	35.849
257.65	36.943
258.02	39.003
258.39	38.012
258.76	33.721
259.14	38.920
259.51	38.483
259.88	39.295
260.25	40.000
260.62	36.517
260.99	41.114
261.36	38.083
261.73	36.296
262.10	39.186
262.47	37.037
262.85	34.080
263.22	41.026
263.59	39.481
263.96	37.226
264.33	35.817
264.70	37.907
265.07	40.972
265.44	38.621
265.81	37.300
266.18	37.358
266.55	39.301
266.92	38.559
267.29	36.831
267.66	39.278
268.03	39.095
268.40	37.712
268.77	37.190
269.14	38.163
269.51	41.684
269.88	39.919
270.25	39.195
270.62	39.549
270.99	38.189
271.36	36.905
271.73	39.157
272.10	37.524
272.47	36.660
272.84	38.189
273.21	39.726
273.58	38.934
273.95	36.038
274.32	40.112
274.69	38.069
275.06	39.753
275.43	37.288
275.80	35.461
276.17	36.648
276.54	37.123
276.91	35.540
277.28	40.253
277.65	36.538
278.02	40.893
278.39	37.300
278.76	38.462
279.13	39.623
279.50	38.448
279.87	37.500
280.23	39.820
280.60	36.505
280.97	35.877
281.34	39.748
281.71	35.772
282.08	37.607
282.45	36.885
282.82	37.380
283.19	36.585
283.56	38.906
283.92	38.379
284.29	36.349
284.66	37.727
285.03	35.993
285.40	35.801
285.77	38.138
286.14	35.410
286.51	37.631
286.87	35.692
287.24	35.251
287.61	37.048
287.98	34.412
288.35	34.724
288.72	36.155
289.08	35.328
289.45	32.452
289.82	33.737
290.19	34.783
290.56	32.528
290.93	33.978
291.29	34.747
291.66	35.246
292.03	34.605
292.40	32.974
292.77	31.861
293.13	32.497
293.50	34.248
293.87	32.267
294.24	31.746
294.60	30.429
294.97	32.804
295.34	31.662
295.71	31.537
296.08	31.675
296.44	31.122
296.81	28.745
297.18	31.500
297.55	31.250
297.91	30.559
298.28	30.387
298.65	31.404
299.02	32.601
299.38	30.920
299.75	30.889
300.12	28.605
300.48	28.655
300.85	28.522
301.22	28.571
301.59	28.521
301.95	28.920
302.32	28.005
302.69	27.571
303.05	27.685
303.42	28.977
303.79	29.443
304.15	28.368
304.52	28.710
304.89	28.239
305.25	26.564
305.62	27.983
305.99	28.400
306.35	28.840
306.72	28.688
307.09	28.154
307.45	27.263
307.82	26.842
308.19	26.123
308.55	27.329
308.92	27.701
309.29	25.726
309.65	26.374
310.02	26.938
310.38	27.439
310.75	26.824
311.12	26.919
311.48	26.409
311.85	27.264
312.22	27.660
312.58	26.763
312.95	27.363
313.31	26.905
313.68	26.908
314.05	27.883
314.41	27.281
314.78	27.704
315.14	26.111
315.51	26.641
315.87	26.228
316.24	26.446
316.61	26.393
316.97	26.481
317.34	26.471
317.70	26.673
318.07	27.329
318.43	26.920
318.80	26.789
319.16	26.260
319.53	24.462
319.89	25.384
320.26	26.802
320.62	26.691
320.99	26.550
321.35	25.164
321.72	25.602
322.08	25.369
322.45	27.105
322.81	25.323
323.18	26.118
323.54	27.256
323.91	27.010
324.27	26.193
324.64	26.481
325.00	26.334
325.37	27.474
325.73	24.074
326.10	26.325
326.46	25.585
326.83	27.265
327.19	26.585
327.56	27.720
327.92	26.388
328.29	27.462
328.65	27.432
329.01	25.594
329.38	28.000
329.74	27.039
330.11	27.232
330.47	25.694
330.84	27.256
331.20	25.534
331.56	26.902
331.93	26.184
332.29	26.064
332.66	26.356
333.02	26.846
333.38	27.193
333.75	26.109
334.11	25.868
334.48	25.981
334.84	25.442
335.20	26.844
335.57	25.849
335.93	25.000
336.29	24.869
336.66	25.214
337.02	25.826
337.38	24.717
337.75	26.012
338.11	25.192
338.47	25.428
338.84	26.203
339.20	25.044
339.56	25.341
339.93	24.201
340.29	25.619
340.65	24.722
341.02	24.792
341.38	24.071
341.74	23.782
342.11	25.103
342.47	24.017
342.83	25.327
343.20	24.958
343.56	25.348
343.92	24.370
344.28	25.649
344.65	25.959
345.01	24.294
345.37	25.905
345.73	24.755
346.10	24.398
346.46	24.634
346.82	24.157
347.19	23.101
347.55	25.525
347.91	24.162
348.27	24.132
348.63	24.599
349.00	25.000
349.36	24.882
349.72	25.599
350.08	24.337
350.45	25.215
350.81	24.648
351.17	24.788
351.53	24.195
351.89	22.955
352.26	23.089
352.62	23.101
352.98	23.083
353.34	24.638
353.70	23.287
354.07	24.863
354.43	24.106
354.79	23.958
355.15	24.379
355.51	24.146
355.87	22.987
356.24	24.559
356.60	23.690
356.96	24.328
357.32	24.071
357.68	24.293
358.04	24.282
358.40	23.953
358.77	23.624
359.13	24.436
359.49	23.164
359.85	23.275
360.21	24.287
360.57	23.878
360.93	22.838
361.29	23.834
361.66	23.311
362.02	22.832
362.38	23.781
362.74	23.640
363.10	22.921
363.46	22.839
363.82	23.947
364.18	23.640
364.54	23.997
364.90	22.439
365.26	23.425
365.62	23.651
365.98	25.196
366.35	24.894
366.71	23.039
367.07	22.962
367.43	23.693
367.79	23.211
368.15	23.769
368.51	23.136
368.87	23.796
369.23	23.559
369.59	23.679
369.95	22.569
370.31	23.710
370.67	22.737
371.03	23.534
371.39	23.066
371.75	23.071
372.11	24.217
372.47	23.864
372.83	23.717
373.19	23.597
373.55	24.061
373.91	22.348
374.27	23.721
374.63	23.257
374.99	22.772
375.35	23.082
375.71	22.418
376.07	23.852
376.42	22.660
376.78	22.985
377.14	23.322
377.50	22.881
377.86	22.444
378.22	22.693
378.58	23.834
378.94	22.813
379.30	23.298
379.66	24.168
380.02	21.875
380.38	23.072
380.74	23.969
381.09	21.894
381.45	23.579
381.81	23.475
382.17	22.243
382.53	23.569
382.89	23.643
383.25	22.593
383.61	23.002
383.97	22.312
384.32	22.810
384.68	22.640
385.04	22.908
385.40	23.225
385.76	22.506
386.12	23.112
386.48	22.947
386.83	22.528
387.19	22.517
387.55	23.176
387.91	22.755
388.27	22.133
388.62	22.597
388.98	23.091
389.34	22.243
389.70	23.138
390.06	22.250
390.42	23.647
390.77	23.126
391.13	22.790
391.49	22.834
391.85	22.173
392.20	22.870
392.56	22.921
392.92	22.820
393.28	22.719
393.64	22.936
393.99	22.338
394.35	22.222
394.71	22.500
395.07	21.698
395.42	21.816
395.78	22.587
396.14	22.448
396.50	22.384
396.85	22.690
397.21	22.160
397.57	22.733
397.92	21.497
398.28	21.827
398.64	22.647
399.00	23.214
399.35	21.396
399.71	21.899
400.07	22.831
400.42	22.320
400.78	22.236
401.14	23.115
401.49	23.307
401.85	22.297
402.21	23.096
402.57	22.563
402.92	23.342
403.28	22.452
403.63	22.257
403.99	21.881
404.35	23.005
404.70	22.054
405.06	23.488
405.42	22.864
405.77	22.005
406.13	21.829
406.49	22.648
406.84	22.955
407.20	22.380
407.55	22.208
407.91	22.700
408.27	21.959
408.62	23.082
408.98	22.441
409.34	22.092
409.69	22.807
410.05	21.331
410.40	21.972
410.76	21.961
411.11	22.761
411.47	23.225
411.83	22.146
412.18	22.229
412.54	22.619
412.89	21.567
413.25	21.475
413.60	21.693
413.96	22.409
414.31	22.626
414.67	23.048
415.03	21.922
415.38	22.193
415.74	22.092
416.09	22.406
416.45	22.351
416.80	22.819
417.16	23.009
417.51	21.634
417.87	22.817
418.22	22.172
418.58	22.208
418.93	21.783
419.29	21.716
419.64	21.756
420.00	21.524
420.35	22.355
420.71	22.974
421.06	22.386
421.42	22.384
421.77	22.717
422.12	22.808
422.48	22.301
422.83	23.331
423.19	22.139
423.54	21.790
423.90	22.447
424.25	22.935
424.61	21.935
424.96	21.703
425.31	21.649
425.67	23.163
426.02	23.263
426.38	22.886
426.73	21.930
427.09	22.827
427.44	22.666
427.79	22.565
428.15	22.813
428.50	22.054
428.85	22.509
429.21	21.553
429.56	22.370
429.92	22.436
430.27	23.057
430.62	22.455
430.98	22.528
431.33	22.407
431.68	22.577
432.04	22.535
432.39	22.055
432.74	21.643
433.10	21.383
433.45	21.834
433.80	22.069
434.16	22.993
434.51	22.772
434.86	22.438
435.22	22.128
435.57	22.543
435.92	22.135
436.28	21.742
436.63	21.767
436.98	21.622
437.34	22.589
437.69	21.606
438.04	21.902
438.39	22.790
438.75	22.288
439.10	22.152
439.45	22.579
439.81	22.352
440.16	22.029
440.51	21.760
440.86	21.636
441.22	22.433
441.57	22.017
441.92	22.343
442.27	21.429
442.63	22.336
442.98	21.181
443.33	22.009
443.68	21.719
444.03	22.603
444.39	23.352
444.74	22.363
445.09	21.971
445.44	22.873
445.79	22.251
446.15	22.518
446.50	22.137
446.85	23.036
447.20	21.955
447.55	22.048
447.91	21.910
448.26	22.527
448.61	22.094
448.96	23.007
449.31	21.245
449.66	23.424
450.02	23.024
450.37	22.209
450.72	21.929
451.07	22.006
451.42	21.585
451.77	22.215
452.12	22.282
452.47	23.176
452.83	21.698
453.18	21.897
453.53	21.564
453.88	22.108
454.23	21.446
454.58	22.243
454.93	22.514
455.28	22.929
455.63	22.271
455.98	22.094
456.34	22.123
456.69	21.981
457.04	21.920
457.39	22.129
457.74	22.202
458.09	21.860
458.44	22.209
458.79	22.350
459.14	22.079
459.49	21.585
459.84	21.195
460.19	22.209
460.54	22.263
460.89	22.354
461.24	22.318
461.59	22.826
461.94	22.377
462.29	22.304
462.64	21.240
462.99	22.602
463.34	22.030
463.69	22.358
464.04	21.128
464.39	22.026
464.74	21.867
465.09	21.203
465.44	21.493
465.79	22.772
466.14	22.520
466.49	22.874
466.84	22.654
467.19	21.529
467.54	22.618
467.89	22.502
468.24	22.618
468.59	21.670
468.94	22.350
469.29	21.877
469.64	21.967
469.99	22.552
470.34	22.117
470.68	22.379
471.03	21.721
471.38	21.905
471.73	21.879
472.08	21.306
472.43	23.087
472.78	22.583
473.13	22.361
473.48	22.962
473.83	21.846
474.17	22.656
474.52	22.460
474.87	21.773
475.22	22.041
475.57	22.476
475.92	21.974
476.27	22.028
476.61	22.027
476.96	22.159
477.31	21.953
477.66	22.316
478.01	22.088
478.36	22.452
478.70	21.751
479.05	22.198
479.40	22.153
479.75	22.104
480.10	22.387
480.45	21.579
480.79	22.897
481.14	23.100
481.49	22.694
481.84	20.924
482.19	22.140
482.53	22.190
482.88	21.285
483.23	21.704
483.58	22.023
483.92	21.547
484.27	21.500
484.62	21.660
484.97	21.941
485.31	21.334
485.66	22.518
486.01	23.139
486.36	22.886
486.70	22.634
487.05	22.600
487.40	22.648
487.75	22.194
488.09	21.551
488.44	21.732
488.79	22.369
489.13	22.028
489.48	21.248
489.83	21.795
490.17	21.607
490.52	22.581
490.87	21.558
491.22	22.186
491.56	22.472
491.91	22.084
492.26	21.567
492.60	21.356
492.95	22.983
493.30	21.560
493.64	22.062
493.99	22.754
494.34	21.965
494.68	22.243
495.03	21.838
495.37	21.800
495.72	22.206
496.07	22.845
496.41	21.572
496.76	22.715
497.11	22.770
497.45	22.082
497.80	22.514
498.14	21.763
498.49	21.785
498.84	22.014
499.18	22.200
499.53	22.846
499.87	21.155
500.22	23.594
500.56	22.668
500.91	22.133
501.26	22.660
501.60	21.471
501.95	22.425
502.29	21.796
502.64	22.565
502.98	22.592
503.33	22.676
503.67	22.006
504.02	22.647
504.36	22.239
504.71	22.002
505.06	22.567
505.40	22.423
505.75	23.042
506.09	20.950
506.44	22.127
506.78	22.600
507.13	22.245
507.47	21.792
507.82	21.873
508.16	22.216
508.51	21.643
508.85	21.773
509.19	21.852
509.54	22.842
509.88	22.043
510.23	22.053
510.57	22.352
510.92	22.144
511.26	23.432
511.61	21.844
511.95	21.720
512.30	21.821
512.64	22.815
512.98	21.662
513.33	22.592
513.67	22.544
514.02	22.577
514.36	21.517
514.70	22.286
515.05	21.767
515.39	22.524
515.74	21.906
516.08	20.767
516.42	21.832
516.77	21.851
517.11	21.282
517.46	23.589
517.80	22.094
518.14	21.739
518.49	21.640
518.83	21.659
519.17	22.892
519.52	23.100
519.86	22.769
520.20	21.649
520.55	22.388
520.89	22.391
521.23	22.821
521.58	22.946
521.92	22.062
522.26	22.446
522.61	21.526
522.95	22.539
523.29	21.905
523.64	22.823
523.98	22.554
524.32	22.117
524.66	22.403
525.01	22.805
525.35	22.251
525.69	22.266
526.04	22.541
526.38	22.116
526.72	21.893
527.06	22.244
527.41	20.715
527.75	22.029
528.09	23.145
528.43	22.456
528.78	23.127
529.12	22.833
529.46	21.817
529.80	22.913
530.15	21.429
530.49	22.642
530.83	22.139
531.17	22.603
531.51	21.780
531.86	21.409
532.20	22.398
532.54	22.345
532.88	23.281
533.22	22.088
533.57	22.848
533.91	22.968
534.25	23.438
534.59	22.909
534.93	22.449
535.27	22.803
535.62	21.711
535.96	22.837
536.30	23.737
536.64	22.283
536.98	20.813
537.32	23.416
537.66	21.791
538.01	22.469
538.35	22.514
538.69	22.140
539.03	21.745
539.37	21.462
539.71	22.715
540.05	20.985
540.39	21.542
540.73	22.556
541.07	22.381
541.42	23.098
541.76	22.666
542.10	22.478
542.44	23.077
542.78	21.374
543.12	22.642
543.46	21.700
543.80	21.589
544.14	22.299
544.48	22.296
544.82	22.260
545.16	21.771
545.50	22.485
545.84	20.687
546.18	22.370
546.52	21.877
546.86	21.767
547.20	21.158
547.54	21.587
547.88	22.537
548.22	22.150
548.56	21.748
548.90	21.651
549.24	22.083
549.58	22.349
549.92	22.450
550.26	23.026
550.60	21.697
550.94	21.940
551.28	20.515
551.62	21.579
551.96	22.255
552.30	20.597
552.64	22.316
552.98	22.301
553.32	21.629
553.66	22.377
554.00	22.030
554.34	21.465
554.68	22.371
555.02	22.156
555.36	21.936
555.69	22.651
556.03	22.802
556.37	22.404
556.71	20.883
557.05	21.845
557.39	22.683
557.73	22.088
558.07	21.025
558.41	21.575
558.75	22.248
559.08	20.449
559.42	21.873
559.76	20.948
560.10	22.444
560.44	22.255
560.78	22.518
561.12	22.495
561.45	22.109
561.79	22.696
562.13	21.027
562.47	22.643
562.81	21.789
563.15	21.530
563.48	22.505
563.82	21.341
564.16	21.462
564.50	22.252
564.84	22.095
565.17	22.781
565.51	21.858
565.85	21.785
566.19	21.987
566.52	21.429
566.86	21.997
567.20	22.419
567.54	22.337
567.88	20.661
568.21	21.782
568.55	21.909
568.89	22.283
569.23	22.227
569.56	22.653
569.90	22.891
570.24	21.986
570.57	22.279
570.91	22.770
571.25	22.516
571.59	21.798
571.92	21.942
572.26	22.097
572.60	22.051
572.93	22.243
573.27	22.047
573.61	21.854
573.95	22.290
574.28	22.532
574.62	21.846
574.96	22.884
575.29	22.317
575.63	22.418
575.97	22.364
576.30	21.999
576.64	21.692
576.98	22.023
577.31	21.986
577.65	22.200
577.98	22.181
578.32	22.252
578.66	22.526
578.99	21.972
579.33	22.239
579.67	21.767
580.00	21.963
580.34	22.055
580.67	22.489
581.01	22.132
581.35	22.584
581.68	22.449
582.02	22.649
582.35	22.547
582.69	22.068
583.02	22.400
583.36	21.555
583.70	21.940
584.03	21.758
584.37	21.421
584.70	21.571
585.04	22.434
585.37	22.430
585.71	22.118
586.04	22.030
586.38	21.363
586.72	21.523
587.05	22.927
587.39	22.590
587.72	22.394
588.06	22.818
588.39	22.110
588.73	22.232
589.06	22.017
589.40	22.497
589.73	21.955
590.07	21.509
590.40	21.658
590.73	21.880
591.07	21.605
591.40	21.696
591.74	21.343
592.07	22.136
592.41	21.965
592.74	22.145
593.08	22.222
593.41	22.126
593.75	22.578
594.08	22.522
594.41	21.938
594.75	22.226
595.08	21.807
595.42	21.868
595.75	22.090
596.09	21.478
596.42	21.936
596.75	22.071
597.09	21.838
597.42	22.521
597.75	22.178
598.09	22.040
598.42	22.685
598.76	21.914
599.09	22.569
599.42	22.168
599.76	21.817
600.09	21.988
600.42	21.695
600.76	21.693
601.09	21.733
601.42	21.560
601.76	21.081
602.09	22.213
602.42	22.493
602.76	21.686
603.09	21.766
603.42	22.031
603.76	21.941
604.09	22.134
604.42	21.180
604.76	21.563
605.09	21.658
605.42	22.672
605.75	22.355
606.09	21.440
606.42	21.613
606.75	21.688
607.09	21.365
607.42	22.285
607.75	21.094
608.08	22.453
608.42	22.024
608.75	22.312
609.08	22.097
609.41	21.858
609.75	21.684
610.08	22.288
610.41	22.157
610.74	21.607
611.07	21.743
611.41	22.416
611.74	22.205
612.07	22.043
612.40	21.892
612.73	21.844
613.07	20.787
613.40	21.586
613.73	22.427
614.06	21.780
614.39	21.790
614.72	22.099
615.06	21.500
615.39	21.909
615.72	21.868
616.05	21.509
616.38	21.821
616.71	20.636
617.05	21.437
617.38	21.134
617.71	21.017
618.04	20.414
618.37	21.640
618.70	21.992
619.03	20.962
619.36	21.566
619.69	21.053
620.03	20.989
620.36	21.155
620.69	20.485
621.02	21.000
621.35	19.542
621.68	20.375
622.01	21.845
622.34	21.332
622.67	21.691
623.00	21.581
623.33	21.242
623.66	19.777
623.99	22.131
624.32	21.203
624.65	23.071
624.99	21.602
625.32	21.509
625.65	20.388
625.98	20.695
626.31	21.143
626.64	21.840
626.97	20.502
627.30	22.412
627.63	20.848
627.96	19.740
628.29	21.767
628.62	21.857
628.95	21.042
629.28	21.478
629.61	21.914
629.94	21.663
630.26	21.281
630.59	21.379
630.92	21.084
631.25	19.773
631.58	22.377
631.91	20.467
632.24	20.307
632.57	20.000
632.90	20.070
633.23	19.544
633.56	21.942
633.89	23.445
634.22	21.555
634.55	21.803
634.88	20.588
635.20	21.625
635.53	21.318
635.86	20.897
636.19	21.712
636.52	21.341
636.85	20.869
637.18	19.976
637.51	21.598
637.83	22.063
638.16	20.667
638.49	20.828
638.82	21.569
639.15	20.346
639.48	21.123
639.81	19.583
640.13	22.113
640.46	22.316
640.79	20.576
641.12	19.527
641.45	19.068
641.77	19.440
642.10	19.818
642.43	22.327
642.76	20.662
643.09	20.927
643.41	19.298
643.74	20.840
644.07	21.521
644.40	19.569
644.73	19.322
645.05	19.546
645.38	18.106
645.71	20.068
646.04	18.519
646.36	19.965
646.69	19.056
647.02	20.401
647.35	20.293
647.67	18.299
648.00	19.928
648.33	20.508
648.66	21.202
648.98	19.565
649.31	19.939
649.64	19.092
649.96	21.485
650.29	19.771
650.62	18.946
650.94	17.069
651.27	20.848
651.60	21.853
651.92	20.789
652.25	22.446
652.58	20.132
652.90	19.360
653.23	17.827
653.56	19.008
653.88	21.672
654.21	18.259
654.54	20.764
654.86	18.862
655.19	19.888
655.52	24.371
655.84	24.493
656.17	29.520
656.49	37.846
656.82	36.145
657.15	26.176
657.47	18.793
657.80	13.950
658.13	14.089
658.45	20.179
658.78	19.450
659.10	19.229
659.43	19.114
659.75	19.658
660.08	18.897
660.41	17.546
660.73	19.421
661.06	17.687
661.38	20.155
661.71	20.492
662.03	20.507
662.36	21.903
662.68	20.215
663.01	19.492
663.33	18.575
663.66	15.743
663.98	17.978
664.31	21.978
664.63	16.441
664.96	19.256
665.28	19.742
665.61	18.790
665.93	18.415
666.26	19.409
666.58	18.415
666.91	22.422
667.23	19.124
667.56	17.241
667.88	16.355
668.21	17.187
668.53	17.931
668.86	18.705
669.18	19.622
669.50	18.203
669.83	21.957
670.15	18.333
670.48	18.161
670.80	24.070
671.13	18.535
671.45	21.233
671.77	21.121
672.10	19.298
672.42	20.802
672.75	16.964
673.07	20.182
673.39	22.761
673.72	20.160
674.04	21.311
674.37	21.748
674.69	18.930
675.01	19.017
675.34	20.788
675.66	23.312
675.98	15.929
676.31	16.968
676.63	22.449
676.95	18.824
677.28	18.578
677.60	16.912
677.92	21.729
678.25	19.089
678.57	22.200
678.89	20.043
679.22	19.876
679.54	22.449
679.86	21.094
680.18	21.346
680.51	19.231
680.83	17.154
681.15	21.415
681.48	18.437
681.80	19.427
682.12	18.750
682.44	18.310
682.77	16.421
683.09	18.973
683.41	19.070
683.73	17.857
684.06	19.690
684.38	16.453
684.70	20.570
685.02	19.008
685.34	20.939
685.67	19.137
685.99	21.174
686.31	18.793
686.63	18.934
686.96	20.037
687.28	19.162
687.60	22.117
687.92	18.872
688.24	17.800
688.56	19.079
688.89	19.376
689.21	17.937
689.53	16.441
689.85	20.449
690.17	20.659
690.49	21.014
690.82	17.900
691.14	19.082
691.46	20.186
691.78	19.780
692.10	21.444
692.42	20.220
692.74	21.304
693.06	19.326
693.39	16.393
693.71	20.222
694.03	21.364
694.35	19.595
694.67	21.500
694.99	20.876
695.31	19.897
695.63	20.000
695.95	21.120
696.27	18.904
696.59	15.323
696.91	19.274
697.23	21.320
697.56	21.103
697.88	20.582
698.20	18.575
698.52	18.925
698.84	19.617
699.16	17.730
699.48	19.506
699.80	20.672
700.12	21.984
700.44	17.183
700.76	16.854
701.08	19.335
701.40	20.060
701.72	18.154
702.04	16.352
702.36	15.244
702.68	16.768
703.00	19.298
703.32	16.713
703.64	16.566
703.96	19.648
704.28	16.265
704.60	18.902
704.91	16.928
705.23	17.405
705.55	13.793
705.87	23.944
706.19	17.582
706.51	16.549
706.83	16.879
707.15	18.902
707.47	21.488
707.79	19.543
708.11	18.509
708.43	20.051
708.74	21.543
709.06	18.182
709.38	22.190
709.70	15.015
710.02	18.380
710.34	16.333
710.66	17.915
710.98	18.266
711.29	17.532
711.61	16.774
711.93	19.032
712.25	18.881
712.57	13.333
712.89	18.681
713.20	21.631
713.52	18.248
713.84	18.065
714.16	19.741
714.48	20.253
714.80	16.613
715.11	20.349
715.43	14.286
715.75	23.292
716.07	17.169
716.39	18.519
716.70	20.504
717.02	10.980
717.34	19.318
717.66	14.224
717.97	16.270
718.29	18.110
718.61	14.163
718.93	15.891
719.24	16.974
719.56	16.854
719.88	20.522
720.20	17.787
720.51	20.313
720.83	18.288
721.15	15.447
721.46	18.321
721.78	18.327
722.10	15.139
722.42	20.565
722.73	20.849
723.05	21.224
723.37	15.966
723.68	17.600
724.00	14.894
724.32	14.644
724.63	17.284
724.95	11.966
725.27	21.941
725.58	18.519
725.90	15.900
726.22	17.029
726.53	14.118
726.85	17.518
727.16	17.037
727.48	14.176
727.80	16.406
728.11	15.574
728.43	20.313
728.74	20.635
729.06	15.600
729.38	19.763
729.69	16.014
730.01	19.703
730.32	19.188
730.64	16.288
730.96	24.126
731.27	18.395
731.59	19.683
731.90	18.447
732.22	16.346
732.53	15.541
732.85	17.450
733.16	22.442
733.48	17.230
733.80	17.568
734.11	18.581
734.43	14.861
734.74	23.123
735.06	19.020
735.37	20.669
735.69	19.094
736.00	17.492
736.32	19.858
736.63	17.241
736.95	19.521
737.26	18.276
737.58	15.972
737.89	16.151
738.21	15.302
738.52	16.730
738.83	22.857
739.15	19.409
739.46	18.677
739.78	17.606
740.09	19.178
740.41	18.571
740.72	13.121
741.04	14.400
741.35	11.404
741.66	16.444
741.98	20.673
742.29	21.782
742.61	16.098
742.92	19.298
743.23	15.566
743.55	17.568
743.86	16.592
744.18	20.098
744.49	10.660
744.80	14.286
745.12	19.159
745.43	21.327
745.74	18.468
746.06	14.019
746.37	15.138
746.68	12.019
747.00	19.139
747.31	15.865
747.62	21.560
747.94	17.904
748.25	14.220
748.56	24.000
748.88	18.779
749.19	22.857
749.50	12.621
749.82	17.840
750.13	13.750
750.44	20.000
750.75	17.712
751.07	21.708
751.38	20.567
751.69	17.375
752.01	16.797
752.32	15.000
752.63	21.269
752.94	24.000
753.26	16.318
753.57	20.000
753.88	18.219
754.19	13.944
754.51	20.301
754.82	14.286
755.13	14.348
755.44	19.512
755.75	20.400
756.07	14.760
756.38	18.705
756.69	19.795
757.00	19.315
757.31	17.476
757.63	18.827
757.94	23.164
758.25	20.370
758.56	19.022
758.87	19.643
759.18	18.612
759.50	19.529
759.81	18.729
760.12	19.692
760.43	19.345
760.74	20.621
761.05	20.166
761.36	16.046
761.67	18.731
761.99	17.182
762.30	18.978
762.61	13.580
762.92	18.376
763.23	21.311
763.54	16.883
763.85	14.694
764.16	14.634
764.47	20.800
764.78	19.286
765.10	20.656
765.41	16.109
765.72	18.634
766.03	16.502
766.34	20.769
766.65	14.226
766.96	16.901
767.27	22.277
767.58	7.865
767.89	19.136
768.20	13.260
768.51	19.095
768.82	23.077
769.13	23.894
769.44	18.410
769.75	14.103
770.06	11.659
770.37	14.216
770.68	15.534
770.99	16.019
771.30	23.109
771.61	16.327
771.92	19.087
772.23	17.568
772.54	10.497
772.85	11.628
773.16	15.873
773.47	7.692
773.78	21.839
774.09	15.625
774.39	24.224
774.70	13.605
775.01	17.241
775.32	14.286
775.63	12.782
775.94	9.774
776.25	7.200
776.56	18.182
776.87	12.698
777.18	11.712
777.48	16.216
777.79	10.236
778.10	21.101
778.41	17.544
778.72	15.966
779.03	16.197
779.34	12.838
779.65	15.493
779.95	13.907
780.26	11.511
780.57	18.705
780.88	12.676
781.19	15.126
781.50	22.819
781.80	21.053
782.11	5.814
782.42	18.868
782.73	16.340
783.04	11.034
783.34	9.160
783.65	13.423
783.96	17.692
784.27	20.714
784.57	12.766
784.88	6.731
785.19	23.636
785.50	17.273
785.81	10.476
786.11	10.084
786.42	11.504
786.73	16.038
787.04	5.505
787.34	1.980
787.65	21.667
787.96	9.917
788.26	22.464
788.57	11.905
788.88	7.317
789.19	4.800
789.49	5.344
789.80	25.758
790.11	12.264
790.41	19.802
790.72	21.277
791.03	-1.087
791.33	15.294
791.64	9.877
791.95	21.739
792.25	13.636
792.56	24.359
792.87	-2.564
793.17	-1.282
793.48	19.048
793.79	2.500
794.09	18.269
794.40	16.667
794.70	18.919
795.01	21.094
795.32	14.783
795.62	4.348
795.93	5.660
796.23	17.172
796.54	3.659
796.85	15.476
797.15	7.576
797.46	4.348
797.76	9.211
798.07	13.636
798.37	19.512
798.68	-1.613
798.99	0.000
799.29	16.867
799.60	1.282
799.90	9.231
800.21	12.121
800.51	2.667
800.82	4.000
801.12	-6.250
801.43	6.667
801.73	5.405
802.04	7.143
802.34	-1.639
802.65	8.955
802.95	7.273
803.26	-12.069
803.56	-1.538
803.87	7.547
804.17	0.000
804.48	1.471
804.78	-29.268
805.09	-2.899
805.39	19.118
805.70	-10.638
806.00	-7.018
806.30	11.538
806.61	7.895
806.91	25.676
807.22	11.842
807.52	12.500
807.83	-11.864
808.13	-15.152
808.43	5.000
808.74	-24.138
809.04	-9.524
809.35	0.000
809.65	-8.333
809.95	-14.286
810.26	15.493
810.56	-12.500
810.86	-4.082
811.17	26.923
811.47	-4.255
811.77	-8.333
812.08	5.660
812.38	-6.250
812.69	-7.273
812.99	-19.512
813.29	-2.703
813.59	-27.027
813.90	-7.273
814.20	-10.909
814.50	0.000
814.81	-5.455
815.11	7.018
815.41	25.581
815.72	0.000
816.02	-5.714
816.32	-13.514
816.62	22.917
816.93	4.444
817.23	-6.667
817.53	-41.667
817.84	-10.811
818.14	-19.512
818.44	4.000
818.74	4.082
819.04	-2.439
819.35	-44.444
819.65	-22.727
819.95	-55.556
820.25	-24.242
820.56	-11.905
820.86	-25.000
821.16	-25.000
821.46	-2.174
821.76	-10.345
822.07	-6.522
822.37	15.152
822.67	19.512
822.97	-16.216
823.27	-11.429
823.57	10.345
823.88	-20.588
824.18	2.778
824.48	0.000
824.78	-38.095
825.08	-10.714
825.38	-11.111
825.69	0.000
825.99	-9.756
826.29	-25.926
826.59	-31.250
826.89	-32.258
827.19	-21.739
827.49	-27.778
827.79	-43.478
828.09	-6.452
828.39	2.083
828.70	-28.125
829.00	-6.897
829.30	2.703
829.60	-54.167
829.90	3.704
830.20	-18.750
830.50	4.545
830.80	-135.294
831.10	-31.818
831.40	-11.765
831.70	11.538
832.00	-9.091
832.30	8.824
832.60	8.108
832.90	1100.000
833.20	-32.143
833.50	-80.000
833.80	-18.421
834.10	-29.167
834.40	0.000
834.70	-106.667
835.00	-50.000
835.30	-54.167
835.60	-23.810
835.90	-4.762
836.20	-20.000
836.50	-37.500
836.80	0.000
837.10	-13.514
837.40	26.667
837.70	-34.783
838.00	8.333
838.30	-5.263
838.60	-160.000
838.90	-170.000
839.19	-33.333
839.49	-76.923
839.79	-21.053
840.09	-200.000
840.39	-90.000
840.69	-4.545
840.99	-4.762
841.29	-8.333
841.59	-61.538
841.88	-40.000
842.18	-64.286
842.48	20.000
842.78	-185.714
843.08	-128.571
843.38	-100.000
843.68	-75.000
843.97	0.000
844.27	-144.444
844.57	-54.545
844.87	-113.333
845.17	27.273
845.47	566.667
845.76	-80.000
846.06	-91.667
846.36	-700.000
846.66	-42.105
846.96	-22.727
847.25	-105.556
847.55	-100.000
847.85	4.762
848.15	-84.615
848.44	-200.000
848.74	-116.667
849.04	-76.923
849.34	-500.000
849.63	-118.182
849.93	-100.000
850.23	-10.000
850.53	-125.000
850.82	-11.111
851.12	-26.667
851.42	-52.941
851.71	-125.000
852.01	-29.412
852.31	0.000
852.61	800.000
852.90	-17.647
853.20	13.333
853.50	12.500
853.79	-64.286
854.09	-325.000
854.39	-80.000
854.68	5.000
854.98	28.571
855.28	4.000
855.57	-29.167
855.87	-4.167
856.17	-68.000
856.46	-37.500
856.76	-20.000
857.05	-8.000
857.35	-16.667
857.65	-47.059
857.94	-100.000
858.24	0.000
858.53	5.000
858.83	-118.182
859.13	-4.000
859.42	-42.857
859.72	-175.000
860.01	-62.500
860.31	-187.500
860.60	-6.250
860.90	-150.000
861.20	-100.000
861.49	-53.333
861.79	-31.250
862.08	225.000
862.38	-91.667
862.67	357.143
862.97	325.000
863.26	-109.091
863.56	-127.273
863.85	-42.105
864.15	5.882
864.44	-140.000
864.74	-180.000
865.03	-166.667
865.33	-35.714
865.62	185.714
865.92	57.895
866.21	5.556
866.51	-18.182
866.80	-133.333
867.10	-262.500
867.39	-56.250
867.69	-33.333
867.98	-120.000
868.27	-5.882
868.57	0.000
868.86	1150.000
869.16	-100.000
869.45	-271.429
869.75	350.000
870.04	-30.000
870.33	-1700.000
870.63	15.789
870.92	-83.333
871.22	-1400.000
871.51	-100.000
871.80	-177.778
872.10	-450.000
>>>>>End Processed Spectral Data<<<<<
