SpectraSuite Data File
++++++++++++++++++++++++++++++++++++
Date: Wed May 13 21:06:38 PDT 2015
User: schluterlab
Dark Spectrum Present: Yes
Reference Spectrum Present: Yes
Number of Sampled Component Spectra: 1
Spectrometers: USB2E3373
Integration Time (usec): 3000 (USB2E3373)
Spectra Averaged: 3 (USB2E3373)
Boxcar Smoothing: 0 (USB2E3373)
Correct for Electrical Dark: No (USB2E3373)
Strobe/Lamp Enabled: No (USB2E3373)
Correct for Detector Non-linearity: No (USB2E3373)
Correct for Stray Light: No (USB2E3373)
Number of Pixels in Processed Spectrum: 2048
>>>>>Begin Processed Spectral Data<<<<<
178.53	0.000
178.91	350.000
179.29	200.000
179.67	-400.000
180.04	-400.000
180.42	80.000
180.80	400.000
181.18	233.333
181.56	-400.000
181.94	0.000
182.31	9.091
182.69	130.769
183.07	-180.000
183.45	183.333
183.83	200.000
184.20	171.429
184.58	-33.333
184.96	166.667
185.34	114.286
185.72	0.000
186.09	-200.000
186.47	-220.000
186.85	20.000
187.23	-400.000
187.61	300.000
187.98	1400.000
188.36	0.000
188.74	0.000
189.12	-27.273
189.49	100.000
189.87	83.333
190.25	300.000
190.63	1000.000
191.00	-240.000
191.38	320.000
191.76	300.000
192.14	75.000
192.51	-21.053
192.89	300.000
193.27	50.000
193.65	-220.000
194.02	63.636
194.40	170.000
194.78	-300.000
195.15	80.000
195.53	-120.000
195.91	0.000
196.29	-66.667
196.66	0.000
197.04	550.000
197.42	-40.000
197.79	-30.000
198.17	-100.000
198.55	0.000
198.92	200.000
199.30	-333.333
199.68	0.000
200.05	200.000
200.43	83.333
200.81	-700.000
201.18	-40.000
201.56	33.333
201.94	525.000
202.31	-4.348
202.69	-28.571
203.07	-366.667
203.44	-60.000
203.82	-33.333
204.19	50.000
204.57	0.000
204.95	-33.333
205.32	0.000
205.70	-350.000
206.08	-225.000
206.45	-16.667
206.83	175.000
207.20	-233.333
207.58	40.000
207.96	-1100.000
208.33	-114.286
208.71	-1100.000
209.08	162.500
209.46	250.000
209.84	0.000
210.21	110.000
210.59	500.000
210.96	180.000
211.34	1100.000
211.71	-800.000
212.09	-133.333
212.46	-60.000
212.84	-233.333
213.22	25.000
213.59	-400.000
213.97	-550.000
214.34	-250.000
214.72	30.769
215.09	162.500
215.47	155.556
215.84	800.000
216.22	-125.000
216.59	-50.000
216.97	400.000
217.34	188.889
217.72	0.000
218.09	333.333
218.47	0.000
218.84	-228.571
219.22	25.000
219.59	-233.333
219.97	-175.000
220.34	87.500
220.72	40.000
221.09	0.000
221.47	-116.667
221.84	500.000
222.22	0.000
222.59	900.000
222.97	133.333
223.34	0.000
223.72	-400.000
224.09	50.000
224.46	18.182
224.84	-12.500
225.21	-100.000
225.59	-275.000
225.96	-83.333
226.34	-70.000
226.71	-114.286
227.08	400.000
227.46	-25.000
227.83	-1000.000
228.21	-50.000
228.58	-400.000
228.95	-35.294
229.33	37.500
229.70	-25.000
230.08	-30.769
230.45	-75.000
230.82	-58.333
231.20	242.857
231.57	-125.000
231.95	1700.000
232.32	100.000
232.69	-29.412
233.07	-900.000
233.44	-21.739
233.81	-350.000
234.19	25.000
234.56	-13.333
234.93	-20.000
235.31	31.579
235.68	-69.231
236.05	7.692
236.43	0.000
236.80	18.182
237.17	-53.333
237.55	-5.882
237.92	13.793
238.29	0.000
238.67	-11.111
239.04	-12.903
239.41	14.894
239.79	21.277
240.16	37.209
240.53	33.929
240.91	35.714
241.28	41.071
241.65	32.258
242.02	22.368
242.40	36.232
242.77	20.290
243.14	25.641
243.51	22.340
243.89	29.808
244.26	39.623
244.63	27.885
245.00	28.125
245.38	26.891
245.75	31.148
246.12	38.346
246.49	19.512
246.87	21.849
247.24	35.811
247.61	33.113
247.98	30.128
248.36	30.769
248.73	30.337
249.10	35.859
249.47	32.258
249.84	33.158
250.22	33.831
250.59	33.645
250.96	33.182
251.33	27.751
251.70	33.473
252.08	34.728
252.45	33.745
252.82	32.700
253.19	32.685
253.56	33.094
253.94	33.452
254.31	33.099
254.68	38.255
255.05	33.333
255.42	36.364
255.79	34.356
256.16	37.224
256.54	32.698
256.91	37.342
257.28	35.535
257.65	29.936
258.02	30.499
258.39	35.965
258.76	29.360
259.14	32.955
259.51	32.865
259.88	39.295
260.25	34.444
260.62	34.270
260.99	33.687
261.36	33.679
261.73	34.815
262.10	34.606
262.47	33.827
262.85	30.348
263.22	35.641
263.59	34.805
263.96	32.603
264.33	34.135
264.70	35.349
265.07	37.037
265.44	34.253
265.81	35.698
266.18	34.852
266.55	32.096
266.92	34.110
267.29	32.922
267.66	31.635
268.03	34.774
268.40	32.415
268.77	32.645
269.14	33.061
269.51	34.292
269.88	32.179
270.25	35.169
270.62	32.172
270.99	32.480
271.36	32.540
271.73	34.739
272.10	32.381
272.47	33.013
272.84	33.661
273.21	31.703
273.58	33.607
273.95	32.642
274.32	33.955
274.69	33.515
275.06	34.629
275.43	31.073
275.80	30.496
276.17	34.438
276.54	32.504
276.91	33.101
277.28	31.588
277.65	31.818
278.02	33.393
278.39	30.551
278.76	32.776
279.13	32.075
279.50	33.448
279.87	27.899
280.23	31.712
280.60	31.488
280.97	32.143
281.34	33.912
281.71	31.707
282.08	31.966
282.45	33.443
282.82	31.310
283.19	32.317
283.56	32.344
283.92	31.193
284.29	32.761
284.66	31.137
285.03	31.107
285.40	32.628
285.77	31.532
286.14	31.459
286.51	31.334
286.87	28.462
287.24	29.351
287.61	31.627
287.98	29.853
288.35	30.402
288.72	30.129
289.08	30.199
289.45	30.396
289.82	29.803
290.19	29.453
290.56	28.551
290.93	27.762
291.29	28.181
291.66	29.235
292.03	28.610
292.40	27.995
292.77	27.443
293.13	29.289
293.50	29.542
293.87	27.600
294.24	27.646
294.60	27.438
294.97	29.365
295.34	25.066
295.71	25.756
296.08	26.832
296.44	24.872
296.81	24.604
297.18	27.375
297.55	24.646
297.91	25.466
298.28	25.908
298.65	25.862
299.02	26.252
299.38	27.730
299.75	25.721
300.12	24.070
300.48	26.316
300.85	24.249
301.22	25.087
301.59	25.117
301.95	24.158
302.32	24.387
302.69	23.616
303.05	23.920
303.42	23.977
303.79	24.501
304.15	24.535
304.52	24.946
304.89	23.699
305.25	23.052
305.62	25.054
305.99	23.286
306.35	24.451
306.72	22.787
307.09	23.045
307.45	23.642
307.82	22.211
308.19	22.466
308.55	23.439
308.92	23.772
309.29	24.224
309.65	23.477
310.02	23.559
310.38	23.171
310.75	22.288
311.12	22.935
311.48	24.233
311.85	21.949
312.22	23.017
312.58	22.802
312.95	22.488
313.31	23.049
313.68	22.042
314.05	24.197
314.41	23.151
314.78	22.770
315.14	22.037
315.51	22.931
315.87	23.911
316.24	22.314
316.61	23.653
316.97	21.296
317.34	21.747
317.70	23.104
318.07	22.893
318.43	21.680
318.80	21.815
319.16	22.104
319.53	21.953
319.89	22.493
320.26	21.165
320.62	22.799
320.99	20.349
321.35	20.393
321.72	21.752
322.08	21.771
322.45	22.202
322.81	21.257
323.18	20.930
323.54	20.758
323.91	22.222
324.27	21.782
324.64	21.516
325.00	22.222
325.37	23.208
325.73	21.801
326.10	20.942
326.46	21.237
326.83	21.278
327.19	21.626
327.56	22.401
327.92	20.595
328.29	21.703
328.65	21.385
329.01	20.580
329.38	22.261
329.74	22.232
330.11	21.371
330.47	20.486
330.84	21.751
331.20	21.349
331.56	21.105
331.93	21.102
332.29	21.807
332.66	20.593
333.02	22.415
333.38	21.053
333.75	20.990
334.11	21.701
334.48	22.406
334.84	20.318
335.20	20.755
335.57	20.104
335.93	20.876
336.29	20.315
336.66	20.513
337.02	21.826
337.38	21.410
337.75	20.758
338.11	20.922
338.47	20.120
338.84	21.134
339.20	20.988
339.56	20.137
339.93	20.916
340.29	20.666
340.65	20.274
341.02	20.632
341.38	21.284
341.74	19.832
342.11	20.314
342.47	20.167
342.83	20.425
343.20	20.305
343.56	21.014
343.92	21.933
344.28	20.455
344.65	20.000
345.01	20.500
345.37	21.793
345.73	21.242
346.10	20.144
346.46	19.756
346.82	21.108
347.19	19.304
347.55	21.405
347.91	19.018
348.27	20.899
348.63	19.872
349.00	20.362
349.36	19.780
349.72	20.495
350.08	19.501
350.45	20.439
350.81	19.092
351.17	21.170
351.53	20.581
351.89	19.380
352.26	19.382
352.62	20.078
352.98	19.808
353.34	20.129
353.70	20.249
354.07	20.000
354.43	18.740
354.79	20.353
355.15	19.798
355.51	19.590
355.87	20.954
356.24	19.823
356.60	19.625
356.96	19.417
357.32	20.511
357.68	20.015
358.04	19.317
358.40	19.535
358.77	18.960
359.13	19.533
359.49	19.985
359.85	19.333
360.21	20.046
360.57	19.620
360.93	19.499
361.29	19.689
361.66	21.033
362.02	19.792
362.38	20.310
362.74	18.564
363.10	19.884
363.46	18.804
363.82	20.473
364.18	18.999
364.54	19.183
364.90	19.721
365.26	19.179
365.62	19.886
365.98	19.217
366.35	20.071
366.71	18.688
367.07	19.277
367.43	19.164
367.79	19.944
368.15	19.620
368.51	18.917
368.87	21.563
369.23	19.217
369.59	18.816
369.95	18.360
370.31	18.410
370.67	17.886
371.03	20.193
371.39	19.092
371.75	19.143
372.11	19.658
372.47	18.169
372.83	19.417
373.19	18.129
373.55	19.653
373.91	19.448
374.27	18.880
374.63	19.701
374.99	17.758
375.35	18.973
375.71	18.886
376.07	19.123
376.42	18.182
376.78	18.824
377.14	18.712
377.50	19.557
377.86	18.858
378.22	19.406
378.58	18.474
378.94	18.375
379.30	18.926
379.66	19.605
380.02	19.056
380.38	18.133
380.74	18.410
381.09	18.456
381.45	18.984
381.81	18.608
382.17	18.463
382.53	19.138
382.89	18.637
383.25	18.210
383.61	19.189
383.97	19.062
384.32	18.463
384.68	19.247
385.04	17.654
385.40	19.116
385.76	18.431
386.12	18.980
386.48	17.931
386.83	18.398
387.19	18.692
387.55	18.332
387.91	18.635
388.27	18.249
388.62	18.227
388.98	19.024
389.34	18.734
389.70	18.315
390.06	18.875
390.42	19.394
390.77	18.834
391.13	18.624
391.49	17.837
391.85	17.572
392.20	18.233
392.56	18.095
392.92	18.256
393.28	18.536
393.64	18.532
393.99	17.503
394.35	18.333
394.71	17.885
395.07	17.484
395.42	18.038
395.78	18.404
396.14	18.960
396.50	18.136
396.85	19.057
397.21	18.539
397.57	18.075
397.92	18.862
398.28	18.331
398.64	18.276
399.00	18.694
399.35	17.367
399.71	17.647
400.07	18.253
400.42	18.056
400.78	17.644
401.14	17.658
401.49	18.035
401.85	18.550
402.21	17.771
402.57	18.823
402.92	19.462
403.28	18.199
403.63	18.103
403.99	18.618
404.35	17.955
404.70	16.979
405.06	18.790
405.42	18.216
405.77	18.145
406.13	18.114
406.49	17.436
406.84	17.888
407.20	17.407
407.55	18.442
407.91	18.332
408.27	18.091
408.62	18.478
408.98	17.139
409.34	17.760
409.69	18.324
410.05	17.848
410.40	17.346
410.76	17.990
411.11	17.040
411.47	18.580
411.83	17.342
412.18	18.388
412.54	18.296
412.89	18.119
413.25	17.699
413.60	17.555
413.96	18.227
414.31	17.818
414.67	18.667
415.03	17.794
415.38	17.503
415.74	16.764
416.09	17.978
416.45	18.113
416.80	17.718
417.16	18.084
417.51	17.549
417.87	17.262
418.22	17.453
418.58	18.463
418.93	17.389
419.29	18.086
419.64	17.748
420.00	18.222
420.35	18.350
420.71	17.550
421.06	18.696
421.42	18.917
421.77	17.572
422.12	17.937
422.48	16.739
422.83	17.366
423.19	17.711
423.54	18.139
423.90	16.865
424.25	17.273
424.61	17.683
424.96	17.209
425.31	17.386
425.67	18.166
426.02	17.962
426.38	17.662
426.73	17.654
427.09	17.573
427.44	16.676
427.79	17.102
428.15	17.982
428.50	16.858
428.85	17.897
429.21	17.107
429.56	17.535
429.92	17.491
430.27	18.098
430.62	17.471
430.98	17.398
431.33	18.055
431.68	17.359
432.04	16.676
432.39	17.206
432.74	17.719
433.10	17.374
433.45	16.923
433.80	17.184
434.16	17.804
434.51	17.446
434.86	17.138
435.22	17.827
435.57	17.629
435.92	17.008
436.28	16.456
436.63	17.090
436.98	17.509
437.34	17.155
437.69	17.237
438.04	16.865
438.39	16.812
438.75	16.508
439.10	17.640
439.45	17.312
439.81	17.303
440.16	16.812
440.51	17.241
440.86	16.775
441.22	16.236
441.57	17.842
441.92	17.574
442.27	16.342
442.63	16.416
442.98	16.956
443.33	17.664
443.68	17.238
444.03	17.635
444.39	17.700
444.74	17.338
445.09	16.630
445.44	17.803
445.79	17.811
446.15	17.360
446.50	18.062
446.85	17.745
447.20	17.303
447.55	17.571
447.91	17.022
448.26	17.439
448.61	17.434
448.96	17.426
449.31	17.704
449.66	17.814
450.02	17.567
450.37	17.391
450.72	17.049
451.07	17.868
451.42	17.280
451.77	17.346
452.12	15.983
452.47	17.495
452.83	16.922
453.18	16.996
453.53	16.393
453.88	16.687
454.23	18.047
454.58	16.728
454.93	16.613
455.28	17.213
455.63	16.407
455.98	17.346
456.34	16.720
456.69	17.252
457.04	16.718
457.39	16.657
457.74	15.919
458.09	17.121
458.44	16.980
458.79	16.255
459.14	15.899
459.49	17.561
459.84	16.573
460.19	16.206
460.54	17.883
460.89	16.779
461.24	16.523
461.59	16.365
461.94	17.383
462.29	16.299
462.64	16.557
462.99	16.901
463.34	16.436
463.69	17.719
464.04	16.267
464.39	17.755
464.74	16.892
465.09	17.111
465.44	17.228
465.79	17.251
466.14	16.477
466.49	16.364
466.84	16.019
467.19	16.943
467.54	16.915
467.89	16.279
468.24	16.841
468.59	16.380
468.94	16.475
469.29	17.118
469.64	16.318
469.99	16.966
470.34	15.711
470.68	16.283
471.03	16.220
471.38	17.385
471.73	16.735
472.08	15.876
472.43	16.953
472.78	16.903
473.13	15.501
473.48	15.917
473.83	16.698
474.17	16.276
474.52	16.699
474.87	16.466
475.22	16.304
475.57	17.066
475.92	16.249
476.27	16.200
476.61	16.025
476.96	16.619
477.31	16.451
477.66	16.667
478.01	16.099
478.36	15.913
478.70	16.004
479.05	16.537
479.40	16.277
479.75	16.312
480.10	16.471
480.45	16.430
480.79	16.675
481.14	17.021
481.49	16.330
481.84	15.457
482.19	16.119
482.53	16.476
482.88	15.916
483.23	15.640
483.58	16.304
483.92	15.856
484.27	16.560
484.62	16.067
484.97	16.093
485.31	16.732
485.66	17.517
486.01	18.195
486.36	18.032
486.70	17.654
487.05	17.570
487.40	17.078
487.75	17.083
488.09	16.891
488.44	16.088
488.79	16.276
489.13	15.984
489.48	15.861
489.83	16.391
490.17	15.615
490.52	16.597
490.87	15.809
491.22	16.392
491.56	16.195
491.91	15.843
492.26	15.861
492.60	15.344
492.95	16.035
493.30	15.843
493.64	15.492
493.99	15.845
494.34	16.667
494.68	15.800
495.03	15.563
495.37	15.426
495.72	16.190
496.07	16.025
496.41	15.817
496.76	15.905
497.11	15.634
497.45	15.807
497.80	15.750
498.14	15.718
498.49	15.835
498.84	15.739
499.18	15.231
499.53	16.347
499.87	15.623
500.22	15.182
500.56	15.898
500.91	15.543
501.26	15.665
501.60	15.784
501.95	16.052
502.29	16.117
502.64	16.345
502.98	16.474
503.33	15.766
503.67	15.920
504.02	15.784
504.36	15.255
504.71	14.990
505.06	15.996
505.40	15.979
505.75	16.734
506.09	15.534
506.44	15.927
506.78	16.252
507.13	16.112
507.47	15.854
507.82	16.327
508.16	16.042
508.51	16.167
508.85	15.863
509.19	15.344
509.54	15.603
509.88	16.075
510.23	15.368
510.57	15.890
510.92	15.356
511.26	15.457
511.61	14.984
511.95	15.270
512.30	14.714
512.64	16.288
512.98	15.069
513.33	15.606
513.67	14.651
514.02	15.450
514.36	15.955
514.70	15.820
515.05	15.331
515.39	14.446
515.74	14.920
516.08	15.103
516.42	14.747
516.77	15.173
517.11	14.638
517.46	16.447
517.80	17.010
518.14	14.268
518.49	14.647
518.83	15.394
519.17	14.699
519.52	15.139
519.86	14.815
520.20	14.494
520.55	15.236
520.89	14.042
521.23	15.321
521.58	15.550
521.92	14.205
522.26	15.810
522.61	15.385
522.95	15.026
523.29	15.048
523.64	14.940
523.98	15.311
524.32	15.249
524.66	15.130
525.01	15.334
525.35	14.352
525.69	14.911
526.04	14.984
526.38	14.723
526.72	14.596
527.06	14.700
527.41	14.758
527.75	14.419
528.09	15.385
528.43	15.265
528.78	15.310
529.12	15.524
529.46	14.715
529.80	15.793
530.15	14.607
530.49	15.970
530.83	14.692
531.17	15.137
531.51	14.700
531.86	15.041
532.20	14.404
532.54	13.655
532.88	15.180
533.22	14.343
533.57	14.570
533.91	16.000
534.25	15.885
534.59	14.801
534.93	15.625
535.27	15.541
535.62	15.000
535.96	16.526
536.30	15.359
536.64	15.038
536.98	13.805
537.32	14.947
537.66	15.233
538.01	14.702
538.35	14.848
538.69	15.853
539.03	14.631
539.37	14.286
539.71	15.553
540.05	13.563
540.39	14.591
540.73	14.455
541.07	14.626
541.42	15.286
541.76	14.682
542.10	15.166
542.44	14.761
542.78	15.267
543.12	14.892
543.46	14.720
543.80	15.479
544.14	15.279
544.48	14.930
544.82	15.871
545.16	15.010
545.50	15.530
545.84	15.147
546.18	14.586
546.52	14.044
546.86	14.558
547.20	14.510
547.54	14.939
547.88	15.789
548.22	15.179
548.56	15.477
548.90	15.223
549.24	15.625
549.58	14.733
549.92	15.627
550.26	16.974
550.60	14.264
550.94	14.403
551.28	14.610
551.62	15.564
551.96	14.934
552.30	14.920
552.64	14.477
552.98	14.418
553.32	15.429
553.66	15.701
554.00	14.399
554.34	13.919
554.68	15.660
555.02	15.269
555.36	15.431
555.69	14.712
556.03	15.082
556.37	15.078
556.71	14.926
557.05	14.760
557.39	14.846
557.73	15.204
558.07	14.921
558.41	15.443
558.75	14.781
559.08	13.953
559.42	14.713
559.76	14.144
560.10	13.836
560.44	15.254
560.78	15.036
561.12	16.258
561.45	14.218
561.79	14.993
562.13	14.487
562.47	15.143
562.81	14.430
563.15	14.943
563.48	15.348
563.82	15.595
564.16	15.843
564.50	16.282
564.84	14.865
565.17	15.762
565.51	16.176
565.85	15.123
566.19	15.629
566.52	15.727
566.86	15.360
567.20	16.005
567.54	16.292
567.88	15.789
568.21	16.024
568.55	17.162
568.89	15.952
569.23	16.499
569.56	16.771
569.90	17.638
570.24	16.570
570.57	16.957
570.91	17.776
571.25	17.357
571.59	17.288
571.92	17.571
572.26	17.850
572.60	17.308
572.93	17.182
573.27	17.279
573.61	17.708
573.95	17.742
574.28	17.891
574.62	17.749
574.96	17.913
575.29	17.828
575.63	17.677
575.97	17.446
576.30	16.905
576.64	17.658
576.98	17.735
577.31	18.235
577.65	18.091
577.98	17.939
578.32	18.104
578.66	18.258
578.99	17.394
579.33	18.216
579.67	17.668
580.00	16.969
580.34	17.644
580.67	18.177
581.01	17.957
581.35	18.201
581.68	18.739
582.02	18.450
582.35	18.559
582.69	18.106
583.02	18.013
583.36	17.762
583.70	17.732
584.03	17.552
584.37	16.831
584.70	17.870
585.04	17.520
585.37	17.521
585.71	17.824
586.04	17.945
586.38	17.522
586.72	17.842
587.05	17.597
587.39	17.947
587.72	17.846
588.06	17.866
588.39	17.940
588.73	17.238
589.06	17.038
589.40	17.131
589.73	16.852
590.07	17.718
590.40	17.266
590.73	17.747
591.07	17.133
591.40	16.217
591.74	16.763
592.07	17.389
592.41	17.589
592.74	17.245
593.08	17.470
593.41	17.694
593.75	17.668
594.08	17.444
594.41	17.660
594.75	17.954
595.08	16.804
595.42	17.394
595.75	17.462
596.09	17.206
596.42	17.320
596.75	16.542
597.09	17.106
597.42	17.586
597.75	17.067
598.09	17.122
598.42	16.913
598.76	16.583
599.09	17.367
599.42	17.598
599.76	17.649
600.09	17.319
600.42	17.213
600.76	17.295
601.09	17.552
601.42	17.131
601.76	17.104
602.09	17.673
602.42	17.375
602.76	16.904
603.09	17.741
603.42	18.073
603.76	17.810
604.09	17.115
604.42	16.618
604.76	16.936
605.09	16.991
605.42	17.499
605.75	17.088
606.09	17.094
606.42	17.165
606.75	16.667
607.09	17.021
607.42	17.075
607.75	16.718
608.08	16.772
608.42	16.261
608.75	16.961
609.08	16.365
609.41	17.486
609.75	16.742
610.08	16.174
610.41	17.638
610.74	17.469
611.07	17.234
611.41	16.888
611.74	16.667
612.07	16.415
612.40	17.297
612.73	16.630
613.07	16.685
613.40	17.015
613.73	16.035
614.06	16.750
614.39	16.398
614.72	17.157
615.06	16.833
615.39	16.280
615.72	16.577
616.05	15.709
616.38	17.010
616.71	15.657
617.05	16.708
617.38	16.020
617.71	16.483
618.04	16.514
618.37	16.404
618.70	16.171
619.03	15.533
619.36	16.157
619.69	15.497
620.03	15.406
620.36	16.006
620.69	15.275
621.02	15.077
621.35	14.800
621.68	14.751
622.01	15.615
622.34	15.464
622.67	15.818
623.00	16.489
623.33	15.931
623.66	15.539
623.99	17.179
624.32	15.627
624.65	15.950
624.99	15.283
625.32	17.252
625.65	16.124
625.98	16.035
626.31	16.000
626.64	15.133
626.97	14.360
627.30	15.398
627.63	15.398
627.96	14.026
628.29	14.791
628.62	14.990
628.95	14.228
629.28	14.089
629.61	15.885
629.94	14.410
630.26	14.877
630.59	14.685
630.92	14.558
631.25	15.757
631.58	14.454
631.91	12.725
632.24	12.843
632.57	13.444
632.90	14.702
633.23	13.189
633.56	13.909
633.89	14.474
634.22	15.665
634.55	13.276
634.88	13.603
635.20	16.000
635.53	13.049
635.86	13.590
636.19	13.896
636.52	13.780
636.85	15.199
637.18	12.424
637.51	13.109
637.83	13.838
638.16	15.067
638.49	13.218
638.82	13.595
639.15	14.628
639.48	15.241
639.81	14.306
640.13	13.803
640.46	14.124
640.79	12.230
641.12	11.391
641.45	14.119
641.77	12.813
642.10	12.708
642.43	14.151
642.76	11.514
643.09	13.578
643.41	13.557
643.74	14.055
644.07	12.460
644.40	14.096
644.73	11.525
645.05	13.787
645.38	10.631
645.71	10.714
646.04	11.448
646.36	11.979
646.69	13.112
647.02	14.936
647.35	11.883
647.67	10.351
648.00	12.319
648.33	12.203
648.66	12.187
648.98	13.199
649.31	13.344
649.64	12.363
649.96	16.114
650.29	11.111
650.62	12.850
650.94	12.931
651.27	13.251
651.60	15.385
651.92	14.158
652.25	13.735
652.58	14.191
652.90	12.795
653.23	10.526
653.56	11.074
653.88	11.775
654.21	12.628
654.54	12.292
654.86	13.008
655.19	14.426
655.52	19.665
655.84	20.847
656.17	25.533
656.49	33.625
656.82	32.009
657.15	23.216
657.47	16.736
657.80	12.079
658.13	12.350
658.45	17.550
658.78	16.558
659.10	16.421
659.43	15.609
659.75	14.621
660.08	14.345
660.41	12.373
660.73	14.601
661.06	12.585
661.38	11.822
661.71	12.090
662.03	13.108
662.36	11.726
662.68	14.194
663.01	15.042
663.33	10.151
663.66	10.200
663.98	11.685
664.31	12.747
664.63	6.982
664.96	15.755
665.28	14.163
665.61	12.095
665.93	11.349
666.26	13.713
666.58	10.921
666.91	12.556
667.23	11.982
667.56	10.115
667.88	9.813
668.21	13.170
668.53	13.563
668.86	14.628
669.18	11.111
669.50	13.134
669.83	11.217
670.15	12.143
670.48	11.724
670.80	13.129
671.13	10.069
671.45	13.014
671.77	14.440
672.10	12.476
672.42	15.458
672.75	14.643
673.07	12.909
673.39	13.246
673.72	14.371
674.04	14.139
674.37	11.789
674.69	13.169
675.01	15.598
675.34	12.035
675.66	13.508
675.98	11.283
676.31	11.312
676.63	16.100
676.95	9.882
677.28	13.073
677.60	11.275
677.92	15.521
678.25	14.317
678.57	15.071
678.89	13.006
679.22	12.008
679.54	12.857
679.86	15.039
680.18	14.808
680.51	12.692
680.83	11.696
681.15	13.752
681.48	13.226
681.80	11.247
682.12	10.000
682.44	12.274
682.77	11.368
683.09	11.607
683.41	9.767
683.73	11.607
684.06	12.168
684.38	14.103
684.70	13.035
685.02	15.083
685.34	11.742
685.67	12.946
685.99	16.370
686.31	15.690
686.63	12.316
686.96	15.955
687.28	12.575
687.60	16.824
687.92	13.619
688.24	13.000
688.56	15.132
688.89	15.145
689.21	11.883
689.53	11.486
689.85	11.685
690.17	12.527
690.49	11.836
690.82	12.649
691.14	11.836
691.46	10.209
691.78	13.626
692.10	15.287
692.42	11.209
692.74	17.174
693.06	9.888
693.39	11.944
693.71	14.889
694.03	13.636
694.35	14.865
694.67	13.000
694.99	11.082
695.31	12.920
695.63	14.878
695.95	12.468
696.27	7.945
696.59	11.559
696.91	10.894
697.23	11.168
697.56	16.547
697.88	18.087
698.20	13.607
698.52	11.215
698.84	10.766
699.16	14.894
699.48	13.827
699.80	14.470
700.12	13.137
700.44	13.239
700.76	11.236
701.08	10.574
701.40	11.078
701.72	14.769
702.04	8.805
702.36	9.756
702.68	10.976
703.00	14.620
703.32	12.256
703.64	13.253
703.96	15.836
704.28	12.349
704.60	13.415
704.91	13.480
705.23	12.975
705.55	9.655
705.87	14.437
706.19	5.495
706.51	13.028
706.83	7.325
707.15	12.805
707.47	14.601
707.79	13.452
708.11	13.111
708.43	16.497
708.74	12.766
709.06	12.834
709.38	10.951
709.70	10.511
710.02	16.511
710.34	9.667
710.66	15.309
710.98	16.718
711.29	12.013
711.61	9.032
711.93	11.613
712.25	9.441
712.57	7.368
712.89	12.088
713.20	12.057
713.52	9.854
713.84	13.871
714.16	14.563
714.48	13.924
714.80	9.265
715.11	19.186
715.43	17.702
715.75	15.528
716.07	14.759
716.39	11.448
716.70	16.547
717.02	11.373
717.34	9.848
717.66	9.483
717.97	7.143
718.29	11.024
718.61	12.017
718.93	9.302
719.24	12.546
719.56	12.734
719.88	8.955
720.20	9.881
720.51	14.844
720.83	13.230
721.15	10.163
721.46	13.359
721.78	13.546
722.10	9.163
722.42	13.710
722.73	15.058
723.05	14.694
723.37	9.244
723.68	6.400
724.00	8.936
724.32	13.808
724.63	16.872
724.95	15.385
725.27	19.831
725.58	17.284
725.90	10.460
726.22	12.681
726.53	9.020
726.85	13.139
727.16	13.333
727.48	18.008
727.80	15.234
728.11	19.672
728.43	12.500
728.74	13.095
729.06	7.200
729.38	14.625
729.69	16.370
730.01	12.268
730.32	15.129
730.64	14.773
730.96	15.385
731.27	12.709
731.59	12.381
731.90	14.887
732.22	13.141
732.53	11.149
732.85	12.752
733.16	16.502
733.48	16.216
733.80	12.838
734.11	16.216
734.43	17.957
734.74	18.318
735.06	14.697
735.37	18.541
735.69	14.239
736.00	13.531
736.32	13.121
736.63	15.517
736.95	13.356
737.26	14.138
737.58	12.847
737.89	18.213
738.21	14.235
738.52	13.308
738.83	13.469
739.15	12.658
739.46	12.062
739.78	10.915
740.09	14.384
740.41	14.286
740.72	13.475
741.04	14.400
741.35	11.404
741.66	14.667
741.98	14.423
742.29	19.802
742.61	11.220
742.92	16.667
743.23	9.434
743.55	12.613
743.86	13.004
744.18	15.196
744.49	14.721
744.80	16.327
745.12	15.421
745.43	15.166
745.74	18.468
746.06	12.150
746.37	8.716
746.68	10.096
747.00	14.833
747.31	12.019
747.62	11.468
747.94	19.651
748.25	15.138
748.56	20.889
748.88	19.718
749.19	18.095
749.50	6.311
749.82	9.390
750.13	10.000
750.44	14.615
750.75	11.439
751.07	18.149
751.38	14.184
751.69	9.653
752.01	13.281
752.32	6.923
752.63	17.537
752.94	17.200
753.26	10.460
753.57	11.250
753.88	18.219
754.19	15.936
754.51	12.406
754.82	12.454
755.13	6.957
755.44	12.602
755.75	14.800
756.07	12.546
756.38	14.748
756.69	18.771
757.00	13.707
757.31	15.534
757.63	14.198
757.94	17.514
758.25	18.783
758.56	16.304
758.87	16.964
759.18	17.035
759.50	14.815
759.81	13.378
760.12	18.462
760.43	13.393
760.74	14.689
761.05	13.812
761.36	15.186
761.67	15.710
761.99	14.433
762.30	14.599
762.61	11.934
762.92	19.658
763.23	20.082
763.54	22.078
763.85	13.061
764.16	10.976
764.47	12.800
764.78	15.000
765.10	17.049
765.41	21.884
765.72	16.460
766.03	17.822
766.34	14.615
766.65	12.552
766.96	10.798
767.27	16.832
767.58	11.236
767.89	17.284
768.20	9.945
768.51	16.080
768.82	14.423
769.13	16.372
769.44	18.410
769.75	9.402
770.06	17.937
770.37	13.725
770.68	15.049
770.99	8.738
771.30	18.487
771.61	16.327
771.92	16.598
772.23	15.315
772.54	11.050
772.85	13.953
773.16	17.989
773.47	11.243
773.78	15.517
774.09	14.375
774.39	10.559
774.70	14.966
775.01	10.345
775.32	15.000
775.63	15.789
775.94	12.030
776.25	4.000
776.56	18.182
776.87	6.349
777.18	9.009
777.48	12.613
777.79	9.449
778.10	17.431
778.41	10.526
778.72	10.084
779.03	12.676
779.34	13.514
779.65	7.746
779.95	17.219
780.26	7.194
780.57	15.108
780.88	8.451
781.19	7.563
781.50	16.107
781.80	12.281
782.11	11.628
782.42	12.579
782.73	11.765
783.04	5.517
783.34	12.214
783.65	10.738
783.96	12.308
784.27	20.000
784.57	9.929
784.88	-4.808
785.19	26.364
785.50	17.273
785.81	0.000
786.11	3.361
786.42	11.504
786.73	0.000
787.04	10.092
787.34	1.980
787.65	10.833
787.96	6.612
788.26	15.942
788.57	15.873
788.88	11.382
789.19	9.600
789.49	3.817
789.80	18.939
790.11	1.887
790.41	14.851
790.72	12.766
791.03	2.174
791.33	4.706
791.64	12.346
791.95	2.174
792.25	10.227
792.56	33.333
792.87	1.282
793.17	-5.128
793.48	1.190
793.79	6.250
794.09	14.423
794.40	15.625
794.70	16.216
795.01	10.156
795.32	15.652
795.62	6.522
795.93	6.604
796.23	12.121
796.54	7.317
796.85	15.476
797.15	6.061
797.46	13.043
797.76	-2.632
798.07	15.909
798.37	7.317
798.68	-11.290
798.99	2.703
799.29	18.072
799.60	16.667
799.90	0.000
800.21	6.061
800.51	1.333
800.82	29.333
801.12	-16.667
801.43	-13.333
801.73	4.054
802.04	17.143
802.34	-6.557
802.65	5.970
802.95	10.909
803.26	-3.448
803.56	4.615
803.87	0.000
804.17	-4.839
804.48	5.882
804.78	0.000
805.09	20.290
805.39	-2.941
805.70	-27.660
806.00	1.754
806.30	11.538
806.61	10.526
806.91	20.270
807.22	9.211
807.52	27.273
807.83	-16.949
808.13	-10.606
808.43	10.000
808.74	-12.069
809.04	-3.175
809.35	10.204
809.65	11.667
809.95	-24.490
810.26	12.676
810.56	18.750
810.86	-8.163
811.17	5.769
811.47	6.383
811.77	0.000
812.08	9.434
812.38	-37.500
812.69	1.818
812.99	-12.195
813.29	-2.703
813.59	-8.108
813.90	-1.818
814.20	10.909
814.50	6.667
814.81	12.727
815.11	3.509
815.41	18.605
815.72	25.000
816.02	-8.571
816.32	-8.108
816.62	8.333
816.93	-11.111
817.23	-4.444
817.53	-22.222
817.84	10.811
818.14	7.317
818.44	-6.000
818.74	6.122
819.04	41.463
819.35	-13.889
819.65	6.818
819.95	-27.778
820.25	6.061
820.56	-16.667
820.86	2.778
821.16	-9.091
821.46	10.870
821.76	13.793
822.07	15.217
822.37	12.121
822.67	43.902
822.97	27.027
823.27	-14.286
823.57	3.448
823.88	-14.706
824.18	11.111
824.48	0.000
824.78	-19.048
825.08	-7.143
825.38	-7.407
825.69	-9.677
825.99	0.000
826.29	-7.407
826.59	-9.375
826.89	9.677
827.19	-30.435
827.49	-8.333
827.79	-39.130
828.09	-29.032
828.39	4.167
828.70	-46.875
829.00	-24.138
829.30	5.405
829.60	-12.500
829.90	-11.111
830.20	-15.625
830.50	-9.091
830.80	-94.118
831.10	31.818
831.40	-5.882
831.70	15.385
832.00	-3.030
832.30	2.941
832.60	16.216
832.90	200.000
833.20	-7.143
833.50	-45.000
833.80	-2.632
834.10	-45.833
834.40	-54.545
834.70	-26.667
835.00	-120.000
835.30	12.500
835.60	-47.619
835.90	9.524
836.20	-40.000
836.50	-16.667
836.80	-63.158
837.10	24.324
837.40	6.667
837.70	30.435
838.00	41.667
838.30	-15.789
838.60	-200.000
838.90	-110.000
839.19	-91.667
839.49	0.000
839.79	-10.526
840.09	-233.333
840.39	-170.000
840.69	-40.909
840.99	9.524
841.29	-8.333
841.59	0.000
841.88	-60.000
842.18	-64.286
842.48	13.333
842.78	-228.571
843.08	0.000
843.38	-75.000
843.68	-50.000
843.97	-35.714
844.27	-111.111
844.57	-63.636
844.87	-40.000
845.17	9.091
845.47	533.333
845.76	-33.333
846.06	-66.667
846.36	-1000.000
846.66	-52.632
846.96	-36.364
847.25	-61.111
847.55	-122.222
847.85	-47.619
848.15	-38.462
848.44	-133.333
848.74	-66.667
849.04	-53.846
849.34	-475.000
849.63	-100.000
849.93	-71.429
850.23	55.000
850.53	-125.000
850.82	-11.111
851.12	46.667
851.42	5.882
851.71	25.000
852.01	-17.647
852.31	-46.154
852.61	550.000
852.90	5.882
853.20	6.667
853.50	-62.500
853.79	-142.857
854.09	-325.000
854.39	-85.000
854.68	-5.000
854.98	-28.571
855.28	-12.000
855.57	-8.333
855.87	-8.333
856.17	-36.000
856.46	-37.500
856.76	25.000
857.05	-8.000
857.35	-91.667
857.65	-35.294
857.94	-58.333
858.24	16.667
858.53	-20.000
858.83	-36.364
859.13	-8.000
859.42	-92.857
859.72	-125.000
860.01	-16.667
860.31	-100.000
860.60	-62.500
860.90	-433.333
861.20	-100.000
861.49	13.333
861.79	-50.000
862.08	300.000
862.38	-133.333
862.67	314.286
862.97	325.000
863.26	-72.727
863.56	-109.091
863.85	36.842
864.15	-11.765
864.44	-320.000
864.74	-110.000
865.03	-44.444
865.33	-35.714
865.62	157.143
865.92	0.000
866.21	-22.222
866.51	-27.273
866.80	-33.333
867.10	-87.500
867.39	-25.000
867.69	-46.667
867.98	-60.000
868.27	29.412
868.57	0.000
868.86	750.000
869.16	-150.000
869.45	-171.429
869.75	250.000
870.04	-40.000
870.33	-2300.000
870.63	-36.842
870.92	-100.000
871.22	-300.000
871.51	-157.143
871.80	-200.000
872.10	-275.000
>>>>>End Processed Spectral Data<<<<<
