SpectraSuite Data File
++++++++++++++++++++++++++++++++++++
Date: Wed May 13 21:26:12 PDT 2015
User: schluterlab
Dark Spectrum Present: Yes
Reference Spectrum Present: Yes
Number of Sampled Component Spectra: 1
Spectrometers: USB2E3373
Integration Time (usec): 3000 (USB2E3373)
Spectra Averaged: 3 (USB2E3373)
Boxcar Smoothing: 0 (USB2E3373)
Correct for Electrical Dark: No (USB2E3373)
Strobe/Lamp Enabled: No (USB2E3373)
Correct for Detector Non-linearity: No (USB2E3373)
Correct for Stray Light: No (USB2E3373)
Number of Pixels in Processed Spectrum: 2048
>>>>>Begin Processed Spectral Data<<<<<
178.53	0.000
178.91	50.000
179.29	141.667
179.67	-850.000
180.04	-533.333
180.42	240.000
180.80	2000.000
181.18	216.667
181.56	-400.000
181.94	-325.000
182.31	-36.364
182.69	200.000
183.07	-340.000
183.45	233.333
183.83	244.444
184.20	71.429
184.58	100.000
184.96	366.667
185.34	242.857
185.72	0.000
186.09	-1100.000
186.47	-180.000
186.85	80.000
187.23	-350.000
187.61	700.000
187.98	900.000
188.36	-62.500
188.74	0.000
189.12	-36.364
189.49	60.000
189.87	33.333
190.25	400.000
190.63	800.000
191.00	-100.000
191.38	220.000
191.76	425.000
192.14	258.333
192.51	15.789
192.89	566.667
193.27	200.000
193.65	-340.000
194.02	163.636
194.40	230.000
194.78	-200.000
195.15	240.000
195.53	-260.000
195.91	-12.500
196.29	-200.000
196.66	0.000
197.04	300.000
197.42	-100.000
197.79	-80.000
198.17	-100.000
198.55	-300.000
198.92	175.000
199.30	-366.667
199.68	-50.000
200.05	550.000
200.43	183.333
200.81	-1000.000
201.18	-60.000
201.56	-150.000
201.94	500.000
202.31	-8.696
202.69	-14.286
203.07	-500.000
203.44	-120.000
203.82	-366.667
204.19	-40.000
204.57	0.000
204.95	-266.667
205.32	0.000
205.70	-250.000
206.08	-350.000
206.45	-116.667
206.83	250.000
207.20	-133.333
207.58	-100.000
207.96	-2200.000
208.33	-214.286
208.71	-400.000
209.08	250.000
209.46	450.000
209.84	0.000
210.21	250.000
210.59	1500.000
210.96	340.000
211.34	1700.000
211.71	-650.000
212.09	-350.000
212.46	-180.000
212.84	0.000
213.22	-75.000
213.59	-1000.000
213.97	-500.000
214.34	-100.000
214.72	38.462
215.09	187.500
215.47	166.667
215.84	700.000
216.22	-12.500
216.59	-400.000
216.97	466.667
217.34	77.778
217.72	0.000
218.09	733.333
218.47	-900.000
218.84	-114.286
219.22	-37.500
219.59	-333.333
219.97	-300.000
220.34	-112.500
220.72	-260.000
221.09	0.000
221.47	-183.333
221.84	0.000
222.22	0.000
222.59	200.000
222.97	-200.000
223.34	-175.000
223.72	-1600.000
224.09	-250.000
224.46	-63.636
224.84	37.500
225.21	-242.857
225.59	-300.000
225.96	-166.667
226.34	-60.000
226.71	-142.857
227.08	700.000
227.46	-50.000
227.83	-800.000
228.21	-18.750
228.58	-425.000
228.95	-17.647
229.33	31.250
229.70	0.000
230.08	38.462
230.45	-37.500
230.82	-41.667
231.20	185.714
231.57	-200.000
231.95	1000.000
232.32	75.000
232.69	-35.294
233.07	-1100.000
233.44	4.348
233.81	-650.000
234.19	25.000
234.56	-100.000
234.93	-20.000
235.31	-94.737
235.68	0.000
236.05	15.385
236.43	-27.778
236.80	9.091
237.17	-46.667
237.55	-52.941
237.92	-10.345
238.29	-3.704
238.67	-22.222
239.04	-41.935
239.41	-8.511
239.79	10.638
240.16	23.256
240.53	19.643
240.91	3.571
241.28	7.143
241.65	12.903
242.02	10.526
242.40	14.493
242.77	1.449
243.14	6.410
243.51	18.085
243.89	11.538
244.26	25.472
244.63	14.423
245.00	23.958
245.38	16.807
245.75	18.852
246.12	24.060
246.49	17.886
246.87	11.765
247.24	23.649
247.61	16.556
247.98	25.000
248.36	23.077
248.73	20.225
249.10	22.222
249.47	17.742
249.84	18.947
250.22	28.856
250.59	24.766
250.96	25.909
251.33	20.574
251.70	23.431
252.08	24.268
252.45	21.399
252.82	28.137
253.19	23.735
253.56	22.662
253.94	24.555
254.31	25.000
254.68	23.826
255.05	24.752
255.42	23.077
255.79	24.233
256.16	26.814
256.54	25.397
256.91	22.468
257.28	24.214
257.65	25.478
258.02	23.754
258.39	24.269
258.76	26.453
259.14	25.568
259.51	23.596
259.88	22.493
260.25	24.722
260.62	26.124
260.99	29.973
261.36	27.720
261.73	22.469
262.10	23.919
262.47	24.444
262.85	22.139
263.22	25.897
263.59	23.636
263.96	22.141
264.33	21.875
264.70	23.488
265.07	24.074
265.44	25.977
265.81	22.883
266.18	26.879
266.55	23.144
266.92	25.424
267.29	24.897
267.66	25.690
268.03	25.926
268.40	24.364
268.77	25.620
269.14	23.673
269.51	31.417
269.88	22.607
270.25	26.271
270.62	24.180
270.99	27.362
271.36	23.611
271.73	27.108
272.10	26.095
272.47	24.760
272.84	28.937
273.21	26.419
273.58	27.254
273.95	23.774
274.32	25.373
274.69	26.594
275.06	24.912
275.43	25.235
275.80	25.355
276.17	26.888
276.54	23.623
276.91	24.564
277.28	23.827
277.65	25.000
278.02	27.143
278.39	23.623
278.76	26.589
279.13	24.871
279.50	25.862
279.87	25.000
280.23	25.405
280.60	25.433
280.97	25.487
281.34	26.656
281.71	21.138
282.08	23.761
282.45	25.246
282.82	24.121
283.19	24.695
283.56	24.219
283.92	24.771
284.29	24.961
284.66	23.394
285.03	23.941
285.40	24.018
285.77	24.925
286.14	22.948
286.51	27.886
286.87	23.846
287.24	25.074
287.61	25.151
287.98	22.794
288.35	22.951
288.72	22.669
289.08	24.786
289.45	22.173
289.82	22.693
290.19	24.123
290.56	22.301
290.93	22.099
291.29	21.751
291.66	22.404
292.03	23.569
292.40	21.803
292.77	21.954
293.13	19.944
293.50	21.046
293.87	21.867
294.24	20.899
294.60	21.586
294.97	23.016
295.34	20.317
295.71	21.156
296.08	19.634
296.44	19.898
296.81	20.706
297.18	20.875
297.55	19.575
297.91	20.000
298.28	21.308
298.65	20.813
299.02	21.368
299.38	20.491
299.75	20.673
300.12	19.302
300.48	17.895
300.85	19.746
301.22	19.164
301.59	21.127
301.95	17.886
302.32	19.253
302.69	19.548
303.05	18.272
303.42	18.295
303.79	19.348
304.15	19.715
304.52	20.108
304.89	17.497
305.25	17.563
305.62	18.113
305.99	18.934
306.35	19.227
306.72	18.515
307.09	19.187
307.45	19.382
307.82	17.368
308.19	16.614
308.55	18.526
308.92	19.843
309.29	18.719
309.65	18.482
310.02	19.185
310.38	18.598
310.75	17.653
311.12	18.076
311.48	18.299
311.85	18.898
312.22	18.762
312.58	18.357
312.95	18.706
313.31	18.457
313.68	19.370
314.05	19.093
314.41	18.732
314.78	18.880
315.14	19.815
315.51	19.029
315.87	19.462
316.24	19.835
316.61	19.909
316.97	19.537
317.34	20.143
317.70	21.053
318.07	20.674
318.43	21.319
318.80	20.332
319.16	20.336
319.53	21.864
319.89	20.867
320.26	22.458
320.62	21.316
320.99	21.415
321.35	20.954
321.72	24.158
322.08	23.339
322.45	24.607
322.81	25.139
323.18	24.687
323.54	25.812
323.91	25.745
324.27	27.453
324.64	27.962
325.00	28.259
325.37	29.181
325.73	28.114
326.10	28.680
326.46	29.348
326.83	31.068
327.19	31.301
327.56	32.957
327.92	32.985
328.29	33.806
328.65	35.758
329.01	34.828
329.38	36.870
329.74	37.082
330.11	36.519
330.47	35.938
330.84	37.455
331.20	38.258
331.56	38.225
331.93	39.190
332.29	41.268
332.66	38.729
333.02	41.008
333.38	40.614
333.75	40.614
334.11	42.969
334.48	42.459
334.84	41.519
335.20	42.796
335.57	40.470
335.93	40.893
336.29	42.732
336.66	42.906
337.02	43.391
337.38	43.690
337.75	43.755
338.11	42.357
338.47	42.979
338.84	44.244
339.20	45.503
339.56	45.137
339.93	44.685
340.29	45.090
340.65	44.996
341.02	43.344
341.38	46.453
341.74	44.538
342.11	44.344
342.47	44.519
342.83	43.137
343.20	46.108
343.56	46.034
343.92	44.517
344.28	44.968
344.65	45.143
345.01	44.552
345.37	47.039
345.73	46.895
346.10	45.746
346.46	45.528
346.82	47.111
347.19	45.491
347.55	47.092
347.91	46.298
348.27	46.215
348.63	46.715
349.00	46.541
349.36	48.509
349.72	46.945
350.08	45.632
350.45	46.829
350.81	48.435
351.17	46.882
351.53	46.897
351.89	45.909
352.26	46.564
352.62	46.124
352.98	47.524
353.34	47.987
353.70	46.651
354.07	46.980
354.43	48.445
354.79	48.397
355.15	47.826
355.51	47.608
355.87	47.928
356.24	47.191
356.60	47.850
356.96	47.045
357.32	47.988
357.68	47.746
358.04	47.324
358.40	47.829
358.77	47.936
359.13	48.949
359.49	48.524
359.85	48.370
360.21	49.190
360.57	48.669
360.93	49.317
361.29	48.779
361.66	49.431
362.02	48.554
362.38	48.301
362.74	49.239
363.10	48.373
363.46	48.631
363.82	49.593
364.18	48.731
364.54	48.796
364.90	49.408
365.26	48.337
365.62	48.509
365.98	49.609
366.35	49.504
366.71	49.287
367.07	49.539
367.43	49.199
367.79	49.618
368.15	49.156
368.51	50.281
368.87	50.454
369.23	49.822
369.59	49.049
369.95	50.145
370.31	48.257
370.67	48.878
371.03	49.889
371.39	50.532
371.75	48.714
372.11	50.926
372.47	49.531
372.83	49.723
373.19	50.719
373.55	50.506
373.91	49.434
374.27	51.314
374.63	50.142
374.99	49.582
375.35	48.356
375.71	49.932
376.07	49.897
376.42	49.666
376.78	50.330
377.14	51.322
377.50	50.717
377.86	50.199
378.22	49.684
378.58	50.441
378.94	51.188
379.30	50.968
379.66	50.555
380.02	50.061
380.38	50.301
380.74	50.807
381.09	51.086
381.45	51.451
381.81	50.400
382.17	50.095
382.53	49.908
382.89	50.784
383.25	50.926
383.61	49.879
383.97	50.438
384.32	49.149
384.68	49.784
385.04	49.236
385.40	50.311
385.76	50.791
386.12	50.291
386.48	49.781
386.83	51.940
387.19	50.709
387.55	50.399
387.91	51.538
388.27	50.247
388.62	50.936
388.98	50.751
389.34	49.624
389.70	50.183
390.06	49.625
390.42	50.902
390.77	49.776
391.13	50.379
391.49	51.297
391.85	50.927
392.20	49.812
392.56	50.730
392.92	51.083
393.28	50.436
393.64	51.682
393.99	50.122
394.35	50.370
394.71	50.256
395.07	49.560
395.42	49.665
395.78	49.163
396.14	50.095
396.50	49.651
396.85	49.777
397.21	49.625
397.57	48.758
397.92	48.802
398.28	48.393
398.64	48.755
399.00	48.270
399.35	49.376
399.71	48.923
400.07	50.422
400.42	50.345
400.78	47.432
401.14	48.988
401.49	49.790
401.85	48.956
402.21	49.412
402.57	48.927
402.92	49.374
403.28	49.156
403.63	48.543
403.99	49.008
404.35	49.626
404.70	47.009
405.06	48.855
405.42	47.299
405.77	48.329
406.13	47.371
406.49	47.633
406.84	49.206
407.20	46.596
407.55	48.831
407.91	48.246
408.27	46.725
408.62	48.926
408.98	48.397
409.34	47.958
409.69	50.162
410.05	47.761
410.40	47.413
410.76	48.616
411.11	48.507
411.47	48.507
411.83	48.347
412.18	47.481
412.54	48.747
412.89	47.147
413.25	45.959
413.60	47.774
413.96	47.503
414.31	47.534
414.67	46.857
415.03	47.226
415.38	46.697
415.74	47.368
416.09	47.323
416.45	45.865
416.80	47.852
417.16	47.841
417.51	48.024
417.87	46.627
418.22	47.835
418.58	45.138
418.93	45.135
419.29	47.723
419.64	47.137
420.00	46.286
420.35	45.786
420.71	46.618
421.06	47.355
421.42	47.749
421.77	46.012
422.12	47.794
422.48	46.292
422.83	46.367
423.19	46.694
423.54	47.762
423.90	46.081
424.25	46.736
424.61	48.367
424.96	46.836
425.31	45.485
425.67	46.855
426.02	46.702
426.38	46.331
426.73	47.954
427.09	47.029
427.44	46.506
427.79	46.200
428.15	46.789
428.50	46.405
428.85	46.617
429.21	46.145
429.56	47.184
429.92	45.601
430.27	46.881
430.62	45.226
430.98	46.007
431.33	46.857
431.68	46.912
432.04	46.197
432.39	46.882
432.74	46.413
433.10	46.949
433.45	46.864
433.80	47.299
434.16	44.620
434.51	46.359
434.86	46.054
435.22	46.293
435.57	45.946
435.92	47.045
436.28	45.826
436.63	46.651
436.98	46.181
437.34	46.459
437.69	46.104
438.04	46.689
438.39	46.326
438.75	46.663
439.10	46.674
439.45	46.610
439.81	45.813
440.16	47.362
440.51	47.503
440.86	47.303
441.22	46.472
441.57	47.017
441.92	46.501
442.27	46.591
442.63	45.587
442.98	46.701
443.33	46.614
443.68	46.231
444.03	46.995
444.39	47.000
444.74	47.267
445.09	45.980
445.44	47.211
445.79	45.741
446.15	46.811
446.50	47.797
446.85	47.408
447.20	48.301
447.55	46.558
447.91	46.685
448.26	47.170
448.61	46.375
448.96	47.551
449.31	46.316
449.66	45.807
450.02	46.276
450.37	47.062
450.72	45.867
451.07	47.774
451.42	45.602
451.77	46.622
452.12	46.227
452.47	46.482
452.83	46.226
453.18	47.040
453.53	47.415
453.88	47.229
454.23	46.230
454.58	46.814
454.93	45.029
455.28	46.050
455.63	46.912
455.98	46.439
456.34	45.772
456.69	47.412
457.04	45.325
457.39	46.362
457.74	45.661
458.09	45.853
458.44	46.769
458.79	45.634
459.14	44.663
459.49	46.646
459.84	45.096
460.19	45.498
460.54	45.681
460.89	46.002
461.24	46.054
461.59	45.169
461.94	46.018
462.29	45.221
462.64	46.042
462.99	45.339
463.34	45.373
463.69	46.843
464.04	46.098
464.39	46.065
464.74	43.428
465.09	44.637
465.44	44.949
465.79	46.348
466.14	44.527
466.49	46.393
466.84	44.650
467.19	45.796
467.54	44.653
467.89	45.380
468.24	46.159
468.59	44.105
468.94	44.572
469.29	45.671
469.64	45.328
469.99	44.897
470.34	44.235
470.68	45.130
471.03	45.980
471.38	45.202
471.73	44.513
472.08	45.498
472.43	45.251
472.78	44.287
473.13	44.393
473.48	44.684
473.83	44.068
474.17	44.531
474.52	45.437
474.87	43.546
475.22	44.384
475.57	43.558
475.92	43.293
476.27	44.580
476.61	43.715
476.96	43.689
477.31	43.366
477.66	43.164
478.01	44.725
478.36	42.561
478.70	44.468
479.05	43.785
479.40	43.214
479.75	42.933
480.10	43.600
480.45	43.011
480.79	43.654
481.14	44.326
481.49	44.401
481.84	42.319
482.19	42.566
482.53	43.333
482.88	43.528
483.23	42.252
483.58	43.289
483.92	43.288
484.27	42.726
484.62	41.944
484.97	41.891
485.31	41.955
485.66	39.357
486.01	38.835
486.36	40.030
486.70	40.915
487.05	41.571
487.40	42.197
487.75	43.583
488.09	43.291
488.44	42.236
488.79	43.338
489.13	42.584
489.48	42.454
489.83	42.474
490.17	42.306
490.52	43.572
490.87	42.049
491.22	43.052
491.56	42.741
491.91	42.055
492.26	42.795
492.60	42.039
492.95	42.566
493.30	41.521
493.64	41.439
493.99	41.787
494.34	42.197
494.68	42.196
495.03	41.551
495.37	41.898
495.72	42.657
496.07	41.987
496.41	41.039
496.76	41.133
497.11	41.268
497.45	41.342
497.80	42.201
498.14	42.317
498.49	41.553
498.84	42.206
499.18	41.812
499.53	41.211
499.87	41.048
500.22	41.264
500.56	41.224
500.91	41.650
501.26	40.049
501.60	40.441
501.95	41.830
502.29	40.825
502.64	41.273
502.98	40.607
503.33	41.314
503.67	40.896
504.02	40.588
504.36	40.862
504.71	40.295
505.06	40.092
505.40	40.928
505.75	41.455
506.09	41.288
506.44	40.171
506.78	40.630
507.13	41.008
507.47	41.304
507.82	40.398
508.16	41.003
508.51	40.134
508.85	40.695
509.19	39.683
509.54	41.448
509.88	39.785
510.23	39.789
510.57	40.201
510.92	41.541
511.26	40.979
511.61	39.956
511.95	40.298
512.30	39.756
512.64	41.941
512.98	40.222
513.33	39.718
513.67	39.239
514.02	40.365
514.36	40.000
514.70	39.492
515.05	41.018
515.39	40.212
515.74	40.201
516.08	39.705
516.42	38.882
516.77	38.840
517.11	39.212
517.46	41.597
517.80	40.133
518.14	39.314
518.49	38.879
518.83	40.274
519.17	39.940
519.52	39.566
519.86	40.923
520.20	39.660
520.55	40.236
520.89	39.911
521.23	40.128
521.58	39.823
521.92	37.901
522.26	38.452
522.61	38.849
522.95	40.091
523.29	39.175
523.64	39.352
523.98	39.327
524.32	38.248
524.66	38.766
525.01	40.433
525.35	40.750
525.69	40.093
526.04	38.958
526.38	39.771
526.72	39.645
527.06	38.298
527.41	38.319
527.75	38.318
528.09	39.619
528.43	38.467
528.78	38.178
529.12	39.392
529.46	38.388
529.80	38.317
530.15	38.546
530.49	39.488
530.83	38.389
531.17	39.041
531.51	38.436
531.86	37.331
532.20	38.870
532.54	37.862
532.88	37.509
533.22	38.047
533.57	37.483
533.91	38.774
534.25	39.453
534.59	37.387
534.93	37.883
535.27	37.516
535.62	36.645
535.96	37.541
536.30	37.500
536.64	36.637
536.98	39.313
537.32	38.221
537.66	38.928
538.01	37.725
538.35	37.362
538.69	36.856
539.03	37.651
539.37	37.290
539.71	36.903
540.05	36.977
540.39	37.371
540.73	36.802
541.07	37.483
541.42	37.306
541.76	35.995
542.10	36.764
542.44	36.729
542.78	37.058
543.12	35.984
543.46	35.591
543.80	36.999
544.14	36.545
544.48	35.368
544.82	37.323
545.16	36.646
545.50	36.192
545.84	35.835
546.18	36.185
546.52	36.415
546.86	34.982
547.20	35.740
547.54	35.096
547.88	37.112
548.22	35.179
548.56	36.291
548.90	36.062
549.24	35.972
549.58	35.658
549.92	37.271
550.26	37.417
550.60	36.111
550.94	36.119
551.28	35.352
551.62	36.767
551.96	36.384
552.30	34.207
552.64	34.746
552.98	36.506
553.32	36.410
553.66	36.317
554.00	35.277
554.34	34.725
554.68	36.167
555.02	36.003
555.36	36.309
555.69	34.523
556.03	35.239
556.37	34.851
556.71	34.057
557.05	36.089
557.39	35.041
557.73	35.703
558.07	35.192
558.41	35.428
558.75	36.182
559.08	33.921
559.42	34.618
559.76	34.404
560.10	33.590
560.44	35.888
560.78	34.317
561.12	33.497
561.45	34.150
561.79	34.319
562.13	34.248
562.47	35.500
562.81	33.622
563.15	34.207
563.48	33.655
563.82	35.089
564.16	32.837
564.50	34.464
564.84	34.392
565.17	34.503
565.51	33.489
565.85	33.178
566.19	34.238
566.52	33.814
566.86	33.312
567.20	33.170
567.54	33.218
567.88	31.803
568.21	32.700
568.55	32.603
568.89	32.702
569.23	32.722
569.56	32.624
569.90	31.672
570.24	30.975
570.57	31.389
570.91	31.358
571.25	31.115
571.59	30.848
571.92	30.859
572.26	31.215
572.60	31.136
572.93	31.584
573.27	30.823
573.61	31.385
573.95	31.015
574.28	30.910
574.62	30.511
574.96	30.536
575.29	31.294
575.63	30.506
575.97	31.005
576.30	30.865
576.64	30.521
576.98	30.626
577.31	30.385
577.65	30.440
577.98	30.188
578.32	30.384
578.66	30.610
578.99	31.080
579.33	31.234
579.67	31.365
580.00	31.081
580.34	30.950
580.67	31.088
581.01	30.387
581.35	30.140
581.68	29.813
582.02	30.234
582.35	30.724
582.69	30.300
583.02	30.500
583.36	30.742
583.70	30.973
584.03	31.140
584.37	31.011
584.70	30.413
585.04	30.383
585.37	29.745
585.71	29.812
586.04	29.799
586.38	29.676
586.72	30.093
587.05	30.964
587.39	29.758
587.72	30.080
588.06	30.479
588.39	30.563
588.73	30.535
589.06	29.583
589.40	30.788
589.73	30.004
590.07	30.186
590.40	30.935
590.73	30.754
591.07	30.965
591.40	30.913
591.74	30.636
592.07	31.127
592.41	30.845
592.74	29.552
593.08	29.744
593.41	29.608
593.75	29.619
594.08	30.363
594.41	29.799
594.75	29.873
595.08	29.948
595.42	29.313
595.75	30.260
596.09	30.100
596.42	30.392
596.75	30.496
597.09	30.528
597.42	31.539
597.75	30.267
598.09	30.373
598.42	30.917
598.76	30.017
599.09	29.612
599.42	29.494
599.76	29.553
600.09	29.782
600.42	29.529
600.76	29.120
601.09	30.358
601.42	29.596
601.76	29.691
602.09	30.604
602.42	30.087
602.76	30.159
603.09	30.185
603.42	29.708
603.76	29.384
604.09	29.447
604.42	29.971
604.76	29.681
605.09	30.630
605.42	30.409
605.75	29.036
606.09	28.891
606.42	28.969
606.75	29.567
607.09	29.566
607.42	29.641
607.75	29.059
608.08	30.117
608.42	31.068
608.75	29.623
609.08	29.789
609.41	29.707
609.75	29.551
610.08	30.079
610.41	29.203
610.74	29.933
611.07	29.108
611.41	30.553
611.74	30.021
612.07	29.703
612.40	29.514
612.73	29.308
613.07	29.047
613.40	30.066
613.73	28.765
614.06	29.685
614.39	29.072
614.72	29.206
615.06	30.000
615.39	29.801
615.72	28.996
616.05	29.786
616.38	29.496
616.71	29.154
617.05	29.300
617.38	29.452
617.71	29.105
618.04	28.336
618.37	28.833
618.70	29.431
619.03	29.759
619.36	29.822
619.69	28.436
620.03	27.774
620.36	28.392
620.69	28.194
621.02	29.231
621.35	30.499
621.68	29.340
622.01	28.560
622.34	29.104
622.67	29.131
623.00	28.040
623.33	29.020
623.66	28.550
623.99	30.458
624.32	28.247
624.65	28.783
624.99	28.068
625.32	29.350
625.65	29.457
625.98	28.673
626.31	31.102
626.64	29.063
626.97	29.931
627.30	30.026
627.63	29.412
627.96	26.407
628.29	31.163
628.62	28.530
628.95	29.359
629.28	29.458
629.61	29.761
629.94	30.948
630.26	29.951
630.59	30.070
630.92	29.418
631.25	28.939
631.58	28.587
631.91	28.632
632.24	28.650
632.57	28.667
632.90	30.455
633.23	30.456
633.56	31.775
633.89	31.340
634.22	32.744
634.55	29.354
634.88	28.186
635.20	30.250
635.53	29.328
635.86	28.590
636.19	29.777
636.52	29.756
636.85	29.192
637.18	27.771
637.51	28.464
637.83	30.548
638.16	28.667
638.49	27.904
638.82	29.935
639.15	31.250
639.48	31.016
639.81	29.722
640.13	29.296
640.46	28.814
640.79	27.770
641.12	26.775
641.45	29.112
641.77	29.750
642.10	29.652
642.43	30.031
642.76	27.918
643.09	29.393
643.41	31.260
643.74	30.048
644.07	27.346
644.40	29.022
644.73	28.305
645.05	30.017
645.38	27.076
645.71	29.762
646.04	29.293
646.36	29.167
646.69	29.371
647.02	27.869
647.35	29.068
647.67	29.205
648.00	29.167
648.33	27.966
648.66	27.713
648.98	29.193
649.31	26.380
649.64	27.387
649.96	29.858
650.29	26.797
650.62	27.512
650.94	26.897
651.27	30.035
651.60	30.769
651.92	28.853
652.25	29.648
652.58	29.373
652.90	29.293
653.23	24.618
653.56	27.769
653.88	25.939
654.21	27.474
654.54	25.249
654.86	27.154
655.19	26.611
655.52	26.435
655.84	23.665
656.17	28.627
656.49	38.994
656.82	40.009
657.15	30.829
657.47	23.544
657.80	17.940
658.13	19.428
658.45	29.024
658.78	29.081
659.10	29.212
659.43	29.668
659.75	28.704
660.08	28.621
660.41	27.383
660.73	27.824
661.06	27.211
661.38	27.519
661.71	28.689
662.03	29.810
662.36	28.097
662.68	26.452
663.01	29.237
663.33	25.918
663.66	25.499
663.98	29.438
664.31	28.791
664.63	24.550
664.96	29.322
665.28	30.258
665.61	26.998
665.93	29.122
666.26	27.848
666.58	25.482
666.91	27.354
667.23	25.115
667.56	29.885
667.88	28.037
668.21	26.786
668.53	28.506
668.86	26.379
669.18	26.005
669.50	29.032
669.83	27.685
670.15	30.000
670.48	25.977
670.80	29.103
671.13	24.714
671.45	25.799
671.77	25.216
672.10	27.485
672.42	28.244
672.75	25.714
673.07	25.455
673.39	27.799
673.72	28.343
674.04	30.123
674.37	29.268
674.69	25.926
675.01	26.068
675.34	26.258
675.66	29.194
675.98	24.558
676.31	26.244
676.63	29.025
676.95	27.765
677.28	27.294
677.60	26.961
677.92	27.494
678.25	27.766
678.57	29.939
678.89	24.947
679.22	25.052
679.54	24.286
679.86	25.586
680.18	26.346
680.51	25.000
680.83	23.002
681.15	26.916
681.48	25.852
681.80	25.767
682.12	25.625
682.44	24.145
682.77	22.316
683.09	22.321
683.41	26.512
683.73	25.670
684.06	26.991
684.38	22.222
684.70	23.625
685.02	25.207
685.34	24.070
685.67	24.953
685.99	25.979
686.31	25.517
686.63	25.551
686.96	24.675
687.28	25.349
687.60	26.087
687.92	26.459
688.24	27.200
688.56	26.316
688.89	21.604
689.21	23.543
689.53	22.072
689.85	27.865
690.17	25.055
690.49	25.121
690.82	23.628
691.14	27.053
691.46	21.346
691.78	25.055
692.10	24.204
692.42	22.198
692.74	25.435
693.06	22.247
693.39	25.059
693.71	24.889
694.03	29.773
694.35	24.775
694.67	26.500
694.99	26.289
695.31	26.357
695.63	26.585
695.95	23.664
696.27	22.740
696.59	26.344
696.91	24.581
697.23	23.858
697.56	24.700
697.88	23.285
698.20	22.894
698.52	23.598
698.84	27.751
699.16	24.113
699.48	25.926
699.80	27.132
700.12	26.005
700.44	20.563
700.76	22.191
701.08	26.888
701.40	26.647
701.72	25.538
702.04	23.585
702.36	24.085
702.68	21.341
703.00	24.561
703.32	22.284
703.64	24.096
703.96	22.581
704.28	21.386
704.60	24.085
704.91	24.138
705.23	24.367
705.55	20.690
705.87	26.408
706.19	21.978
706.51	17.606
706.83	16.879
707.15	27.134
707.47	22.865
707.79	23.096
708.11	22.879
708.43	22.843
708.74	24.202
709.06	20.053
709.38	26.225
709.70	24.625
710.02	22.741
710.34	23.333
710.66	26.384
710.98	18.266
711.29	25.974
711.61	21.613
711.93	21.935
712.25	19.231
712.57	18.596
712.89	20.513
713.20	20.922
713.52	24.453
713.84	20.968
714.16	21.359
714.48	23.418
714.80	22.364
715.11	29.070
715.43	20.807
715.75	21.739
716.07	24.398
716.39	22.896
716.70	21.583
717.02	18.824
717.34	24.242
717.66	18.966
717.97	17.063
718.29	23.622
718.61	24.034
718.93	19.380
719.24	19.926
719.56	20.599
719.88	20.522
720.20	22.530
720.51	21.875
720.83	24.125
721.15	16.260
721.46	22.137
721.78	21.912
722.10	20.717
722.42	20.565
722.73	20.077
723.05	17.143
723.37	25.210
723.68	23.600
724.00	14.468
724.32	20.921
724.63	26.337
724.95	13.675
725.27	21.519
725.58	30.041
725.90	25.523
726.22	18.478
726.53	14.902
726.85	22.263
727.16	18.889
727.48	26.820
727.80	21.484
728.11	20.082
728.43	22.656
728.74	19.841
729.06	20.000
729.38	19.763
729.69	20.641
730.01	21.561
730.32	19.926
730.64	24.242
730.96	24.126
731.27	21.070
731.59	20.000
731.90	24.272
732.22	19.872
732.53	18.919
732.85	22.483
733.16	22.442
733.48	22.973
733.80	18.919
734.11	21.959
734.43	23.220
734.74	23.123
735.06	20.461
735.37	17.933
735.69	21.683
736.00	23.102
736.32	22.340
736.63	22.069
736.95	22.260
737.26	24.828
737.58	22.917
737.89	19.931
738.21	15.658
738.52	20.152
738.83	26.122
739.15	24.473
739.46	17.510
739.78	17.606
740.09	15.753
740.41	20.000
740.72	20.213
741.04	18.000
741.35	18.860
741.66	21.778
741.98	19.231
742.29	21.782
742.61	21.463
742.92	21.491
743.23	18.868
743.55	22.523
743.86	15.695
744.18	20.588
744.49	22.335
744.80	20.408
745.12	18.224
745.43	23.697
745.74	25.225
746.06	18.692
746.37	15.138
746.68	21.154
747.00	26.316
747.31	23.077
747.62	18.807
747.94	20.961
748.25	17.890
748.56	24.889
748.88	20.188
749.19	23.333
749.50	16.505
749.82	17.371
750.13	17.083
750.44	17.692
750.75	15.498
751.07	23.488
751.38	19.504
751.69	18.533
752.01	21.875
752.32	16.923
752.63	22.015
752.94	18.000
753.26	20.084
753.57	22.500
753.88	18.623
754.19	20.717
754.51	19.925
754.82	21.245
755.13	14.783
755.44	17.886
755.75	18.800
756.07	19.557
756.38	19.424
756.69	21.160
757.00	19.003
757.31	18.123
757.63	19.136
757.94	18.079
758.25	18.519
758.56	18.750
758.87	22.917
759.18	17.981
759.50	18.519
759.81	19.064
760.12	21.231
760.43	16.071
760.74	21.751
761.05	18.508
761.36	20.057
761.67	20.242
761.99	19.588
762.30	18.978
762.61	15.226
762.92	21.368
763.23	18.033
763.54	20.346
763.85	16.327
764.16	16.667
764.47	22.000
764.78	17.857
765.10	16.721
765.41	23.708
765.72	19.565
766.03	21.122
766.34	20.385
766.65	18.828
766.96	17.371
767.27	22.277
767.58	8.989
767.89	19.136
768.20	12.707
768.51	20.603
768.82	23.077
769.13	18.584
769.44	19.247
769.75	11.538
770.06	22.870
770.37	17.647
770.68	17.476
770.99	18.447
771.30	20.588
771.61	15.102
771.92	25.311
772.23	18.018
772.54	17.127
772.85	16.860
773.16	21.693
773.47	10.059
773.78	23.563
774.09	18.750
774.39	17.391
774.70	20.408
775.01	16.552
775.32	17.857
775.63	12.030
775.94	10.526
776.25	18.400
776.56	13.223
776.87	22.222
777.18	10.811
777.48	14.414
777.79	9.449
778.10	19.266
778.41	4.386
778.72	14.286
779.03	10.563
779.34	16.892
779.65	15.493
779.95	13.245
780.26	8.633
780.57	19.424
780.88	11.268
781.19	15.966
781.50	25.503
781.80	15.205
782.11	10.465
782.42	22.642
782.73	16.993
783.04	13.793
783.34	15.267
783.65	14.765
783.96	19.231
784.27	15.000
784.57	23.404
784.88	7.692
785.19	19.091
785.50	12.727
785.81	10.476
786.11	9.244
786.42	16.814
786.73	8.491
787.04	-4.587
787.34	2.970
787.65	14.167
787.96	14.876
788.26	17.391
788.57	3.968
788.88	12.195
789.19	5.600
789.49	7.634
789.80	19.697
790.11	-4.717
790.41	16.832
790.72	12.766
791.03	7.609
791.33	15.294
791.64	14.815
791.95	20.652
792.25	25.000
792.56	14.103
792.87	-1.282
793.17	-3.846
793.48	13.095
793.79	2.500
794.09	21.154
794.40	17.708
794.70	9.009
795.01	3.906
795.32	6.957
795.62	9.783
795.93	16.038
796.23	8.081
796.54	13.415
796.85	14.286
797.15	9.091
797.46	5.797
797.76	5.263
798.07	9.091
798.37	3.659
798.68	4.839
798.99	-12.162
799.29	22.892
799.60	17.949
799.90	21.538
800.21	9.091
800.51	5.333
800.82	20.000
801.12	-31.250
801.43	5.000
801.73	18.919
802.04	11.429
802.34	1.639
802.65	22.388
802.95	1.818
803.26	18.966
803.56	10.769
803.87	11.321
804.17	14.516
804.48	5.882
804.78	-7.317
805.09	20.290
805.39	23.529
805.70	-19.149
806.00	10.526
806.30	10.256
806.61	5.263
806.91	20.270
807.22	17.105
807.52	19.318
807.83	-13.559
808.13	-25.758
808.43	5.000
808.74	-1.724
809.04	-1.587
809.35	-6.122
809.65	6.667
809.95	-16.327
810.26	21.127
810.56	4.167
810.86	10.204
811.17	21.154
811.47	12.766
811.77	8.333
812.08	30.189
812.38	12.500
812.69	25.455
812.99	12.195
813.29	2.703
813.59	-32.432
813.90	1.818
814.20	18.182
814.50	3.333
814.81	12.727
815.11	7.018
815.41	6.977
815.72	-7.500
816.02	20.000
816.32	-8.108
816.62	-2.083
816.93	0.000
817.23	-8.889
817.53	-16.667
817.84	-10.811
818.14	-17.073
818.44	10.000
818.74	-4.082
819.04	-9.756
819.35	-8.333
819.65	6.818
819.95	-100.000
820.25	-30.303
820.56	-30.952
820.86	-30.556
821.16	-2.273
821.46	-4.348
821.76	-5.172
822.07	21.739
822.37	24.242
822.67	21.951
822.97	-13.514
823.27	-28.571
823.57	13.793
823.88	-29.412
824.18	-25.000
824.48	-5.714
824.78	0.000
825.08	-28.571
825.38	-11.111
825.69	29.032
825.99	2.439
826.29	-7.407
826.59	-18.750
826.89	-22.581
827.19	-52.174
827.49	-38.889
827.79	-56.522
828.09	-29.032
828.39	-12.500
828.70	-28.125
829.00	6.897
829.30	-10.811
829.60	-25.000
829.90	11.111
830.20	-12.500
830.50	0.000
830.80	-76.471
831.10	-9.091
831.40	5.882
831.70	-3.846
832.00	-6.061
832.30	5.882
832.60	32.432
832.90	1700.000
833.20	-10.714
833.50	-80.000
833.80	15.789
834.10	-33.333
834.40	-81.818
834.70	-93.333
835.00	-70.000
835.30	-20.833
835.60	-47.619
835.90	-23.810
836.20	-28.000
836.50	-4.167
836.80	-63.158
837.10	-2.703
837.40	26.667
837.70	-17.391
838.00	-8.333
838.30	10.526
838.60	-80.000
838.90	-170.000
839.19	-91.667
839.49	-46.154
839.79	-57.895
840.09	-300.000
840.39	-150.000
840.69	-54.545
840.99	0.000
841.29	-83.333
841.59	-76.923
841.88	-106.667
842.18	-42.857
842.48	20.000
842.78	-171.429
843.08	-85.714
843.38	-50.000
843.68	-81.250
843.97	7.143
844.27	-155.556
844.57	-90.909
844.87	-73.333
845.17	45.455
845.47	633.333
845.76	-20.000
846.06	-66.667
846.36	-1100.000
846.66	-57.895
846.96	-13.636
847.25	-105.556
847.55	-222.222
847.85	-47.619
848.15	-46.154
848.44	-183.333
848.74	-58.333
849.04	-76.923
849.34	-100.000
849.63	-172.727
849.93	-128.571
850.23	20.000
850.53	-225.000
850.82	16.667
851.12	-40.000
851.42	-52.941
851.71	-137.500
852.01	-29.412
852.31	-100.000
852.61	800.000
852.90	17.647
853.20	-26.667
853.50	-75.000
853.79	-121.429
854.09	-225.000
854.39	-55.000
854.68	-2.500
854.98	-9.524
855.28	-20.000
855.57	-50.000
855.87	-16.667
856.17	-20.000
856.46	-6.250
856.76	-35.000
857.05	-4.000
857.35	-25.000
857.65	-47.059
857.94	-158.333
858.24	-41.667
858.53	-10.000
858.83	-227.273
859.13	-8.000
859.42	-100.000
859.72	-212.500
860.01	-29.167
860.31	-162.500
860.60	-68.750
860.90	-83.333
861.20	-100.000
861.49	20.000
861.79	-56.250
862.08	125.000
862.38	-75.000
862.67	328.571
862.97	350.000
863.26	-45.455
863.56	-27.273
863.85	0.000
864.15	11.765
864.44	-160.000
864.74	-110.000
865.03	-100.000
865.33	-35.714
865.62	157.143
865.92	-10.526
866.21	-38.889
866.51	-18.182
866.80	-100.000
867.10	-262.500
867.39	-50.000
867.69	-53.333
867.98	-120.000
868.27	-11.765
868.57	0.000
868.86	1050.000
869.16	-375.000
869.45	-200.000
869.75	400.000
870.04	30.000
870.33	-500.000
870.63	-26.316
870.92	-83.333
871.22	-1000.000
871.51	-157.143
871.80	-177.778
872.10	-450.000
>>>>>End Processed Spectral Data<<<<<
