SpectraSuite Data File
++++++++++++++++++++++++++++++++++++
Date: Wed May 13 21:13:35 PDT 2015
User: schluterlab
Dark Spectrum Present: Yes
Reference Spectrum Present: Yes
Number of Sampled Component Spectra: 1
Spectrometers: USB2E3373
Integration Time (usec): 3000 (USB2E3373)
Spectra Averaged: 3 (USB2E3373)
Boxcar Smoothing: 0 (USB2E3373)
Correct for Electrical Dark: No (USB2E3373)
Strobe/Lamp Enabled: No (USB2E3373)
Correct for Detector Non-linearity: No (USB2E3373)
Correct for Stray Light: No (USB2E3373)
Number of Pixels in Processed Spectrum: 2048
>>>>>Begin Processed Spectral Data<<<<<
178.53	0.000
178.91	650.000
179.29	208.333
179.67	-350.000
180.04	-633.333
180.42	200.000
180.80	1200.000
181.18	366.667
181.56	-625.000
181.94	-225.000
182.31	-63.636
182.69	153.846
183.07	-280.000
183.45	233.333
183.83	211.111
184.20	100.000
184.58	-33.333
184.96	366.667
185.34	214.286
185.72	0.000
186.09	-1200.000
186.47	-440.000
186.85	140.000
187.23	-600.000
187.61	550.000
187.98	1400.000
188.36	-37.500
188.74	0.000
189.12	-27.273
189.49	40.000
189.87	158.333
190.25	540.000
190.63	500.000
191.00	-160.000
191.38	320.000
191.76	325.000
192.14	141.667
192.51	-47.368
192.89	500.000
193.27	225.000
193.65	-320.000
194.02	100.000
194.40	170.000
194.78	-400.000
195.15	260.000
195.53	-220.000
195.91	-62.500
196.29	-33.333
196.66	0.000
197.04	500.000
197.42	-20.000
197.79	-60.000
198.17	-137.500
198.55	-300.000
198.92	425.000
199.30	-300.000
199.68	-150.000
200.05	250.000
200.43	166.667
200.81	-1600.000
201.18	-300.000
201.56	-283.333
201.94	750.000
202.31	-21.739
202.69	-42.857
203.07	-266.667
203.44	-280.000
203.82	-400.000
204.19	-20.000
204.57	0.000
204.95	-216.667
205.32	0.000
205.70	-100.000
206.08	-125.000
206.45	-133.333
206.83	500.000
207.20	-233.333
207.58	-70.000
207.96	-2200.000
208.33	-257.143
208.71	-900.000
209.08	112.500
209.46	425.000
209.84	0.000
210.21	190.000
210.59	1500.000
210.96	360.000
211.34	1700.000
211.71	-750.000
212.09	-83.333
212.46	-190.000
212.84	-100.000
213.22	-100.000
213.59	-600.000
213.97	-400.000
214.34	-750.000
214.72	-7.692
215.09	262.500
215.47	144.444
215.84	700.000
216.22	0.000
216.59	-450.000
216.97	500.000
217.34	100.000
217.72	0.000
218.09	400.000
218.47	-400.000
218.84	-142.857
219.22	-150.000
219.59	-466.667
219.97	-275.000
220.34	-50.000
220.72	-60.000
221.09	0.000
221.47	-166.667
221.84	-300.000
222.22	0.000
222.59	600.000
222.97	-633.333
223.34	-33.333
223.72	-1000.000
224.09	-450.000
224.46	18.182
224.84	-75.000
225.21	-171.429
225.59	-475.000
225.96	-133.333
226.34	-40.000
226.71	-300.000
227.08	950.000
227.46	-137.500
227.83	-800.000
228.21	-62.500
228.58	-300.000
228.95	-52.941
229.33	-62.500
229.70	-25.000
230.08	-46.154
230.45	-187.500
230.82	-125.000
231.20	242.857
231.57	-475.000
231.95	1200.000
232.32	-16.667
232.69	-82.353
233.07	-2100.000
233.44	-47.826
233.81	-500.000
234.19	-16.667
234.56	-113.333
234.93	-60.000
235.31	-5.263
235.68	-107.692
236.05	-69.231
236.43	-33.333
236.80	-24.242
237.17	-133.333
237.55	-70.588
237.92	-37.931
238.29	-55.556
238.67	-27.778
239.04	-48.387
239.41	-31.915
239.79	12.766
240.16	-13.953
240.53	-8.929
240.91	-3.571
241.28	-26.786
241.65	-9.677
242.02	-2.632
242.40	-7.246
242.77	-15.942
243.14	-20.513
243.51	-5.319
243.89	-0.962
244.26	2.830
244.63	-18.269
245.00	-16.667
245.38	-10.924
245.75	-4.918
246.12	-6.015
246.49	-17.886
246.87	-17.647
247.24	0.676
247.61	-7.947
247.98	-5.128
248.36	-5.325
248.73	-3.933
249.10	-2.020
249.47	-9.140
249.84	-2.632
250.22	-9.950
250.59	-0.467
250.96	0.909
251.33	-6.699
251.70	1.255
252.08	1.255
252.45	-2.881
252.82	-1.521
253.19	-6.226
253.56	-1.439
253.94	3.915
254.31	-3.873
254.68	3.356
255.05	1.320
255.42	-2.797
255.79	-1.840
256.16	-0.631
256.54	0.952
256.91	-2.532
257.28	0.629
257.65	-1.911
258.02	-0.880
258.39	0.000
258.76	0.291
259.14	0.000
259.51	-2.809
259.88	-0.542
260.25	-1.111
260.62	-3.652
260.99	1.061
261.36	1.813
261.73	-0.247
262.10	-1.527
262.47	-1.481
262.85	-0.498
263.22	-1.795
263.59	-2.338
263.96	0.243
264.33	0.721
264.70	1.163
265.07	0.000
265.44	-0.690
265.81	-1.373
266.18	0.000
266.55	-2.183
266.92	-1.695
267.29	-1.029
267.66	0.637
268.03	1.235
268.40	-1.483
268.77	0.826
269.14	-0.612
269.51	3.080
269.88	0.815
270.25	-0.847
270.62	-1.639
270.99	1.378
271.36	1.190
271.73	0.201
272.10	1.333
272.47	0.576
272.84	-0.591
273.21	0.000
273.58	-0.615
273.95	0.377
274.32	0.746
274.69	0.546
275.06	2.297
275.43	0.565
275.80	-0.887
276.17	-0.184
276.54	1.421
276.91	2.265
277.28	-0.903
277.65	2.273
278.02	0.536
278.39	0.000
278.76	2.676
279.13	1.544
279.50	1.379
279.87	-1.630
280.23	-1.081
280.60	-0.346
280.97	0.974
281.34	2.366
281.71	-0.325
282.08	-0.342
282.45	-0.492
282.82	-0.799
283.19	2.439
283.56	0.156
283.92	-0.153
284.29	0.468
284.66	-0.659
285.03	0.489
285.40	1.057
285.77	1.652
286.14	0.456
286.51	1.049
286.87	0.615
287.24	0.147
287.61	-0.602
287.98	1.029
288.35	-1.341
288.72	0.430
289.08	3.419
289.45	0.587
289.82	0.454
290.19	1.543
290.56	0.568
290.93	0.138
291.29	-0.137
291.66	0.820
292.03	1.362
292.40	0.673
292.77	0.134
293.13	1.116
293.50	2.092
293.87	2.000
294.24	1.323
294.60	1.951
294.97	2.646
295.34	-0.660
295.71	-0.131
296.08	0.131
296.44	-0.255
296.81	0.487
297.18	1.000
297.55	1.651
297.91	0.248
298.28	0.847
298.65	0.246
299.02	1.343
299.38	1.350
299.75	0.601
300.12	0.116
300.48	0.351
300.85	0.462
301.22	1.858
301.59	0.352
301.95	0.581
302.32	0.583
302.69	0.904
303.05	0.886
303.42	1.705
303.79	2.524
304.15	0.876
304.52	1.613
304.89	-0.886
305.25	-0.988
305.62	0.325
305.99	1.632
306.35	1.463
306.72	1.322
307.09	1.356
307.45	1.065
307.82	0.947
308.19	0.731
308.55	0.819
308.92	3.340
309.29	1.301
309.65	2.198
310.02	2.982
310.38	2.337
310.75	1.578
311.12	3.207
311.48	1.978
311.85	3.248
312.22	3.675
312.58	3.188
312.95	2.587
313.31	4.683
313.68	3.912
314.05	4.064
314.41	4.803
314.78	4.744
315.14	4.815
315.51	5.899
315.87	6.024
316.24	6.887
316.61	7.123
316.97	6.111
317.34	7.576
317.70	8.207
318.07	10.736
318.43	10.298
318.80	9.511
319.16	9.284
319.53	10.573
319.89	11.743
320.26	12.939
320.62	13.531
320.99	14.147
321.35	15.061
321.72	16.458
322.08	17.620
322.45	19.241
322.81	20.055
323.18	20.841
323.54	21.480
323.91	24.119
324.27	24.032
324.64	25.784
325.00	27.209
325.37	29.949
325.73	28.956
326.10	31.876
326.46	31.605
326.83	33.738
327.19	34.553
327.56	36.825
327.92	37.007
328.29	40.150
328.65	41.104
329.01	42.656
329.38	44.957
329.74	43.777
330.11	44.995
330.47	45.226
330.84	46.390
331.20	47.652
331.56	49.094
331.93	48.751
332.29	50.478
332.66	49.068
333.02	51.434
333.38	52.895
333.75	52.218
334.11	53.038
334.48	55.100
334.84	54.947
335.20	53.859
335.57	53.612
335.93	53.436
336.29	57.005
336.66	55.812
337.02	57.304
337.38	57.354
337.75	57.795
338.11	57.985
338.47	57.791
338.84	58.076
339.20	60.582
339.56	59.727
339.93	61.193
340.29	59.863
340.65	61.506
341.02	60.483
341.38	61.824
341.74	60.588
342.11	61.024
342.47	61.674
342.83	61.193
343.20	63.029
343.56	62.551
343.92	62.145
344.28	62.256
344.65	62.286
345.01	61.501
345.37	63.651
345.73	63.889
346.10	62.199
346.46	62.602
346.82	64.848
347.19	63.528
347.55	65.832
347.91	63.601
348.27	66.009
348.63	65.304
349.00	65.016
349.36	65.306
349.72	64.965
350.08	65.601
350.45	66.014
350.81	66.275
351.17	64.973
351.53	65.357
351.89	65.766
352.26	64.402
352.62	66.357
352.98	67.891
353.34	66.747
353.70	66.277
354.07	67.137
354.43	65.863
354.79	66.987
355.15	67.547
355.51	66.211
355.87	67.318
356.24	67.978
356.60	65.598
356.96	67.306
357.32	66.718
357.68	66.310
358.04	67.261
358.40	66.357
358.77	67.278
359.13	68.093
359.49	67.373
359.85	67.551
360.21	68.620
360.57	68.213
360.93	67.678
361.29	68.320
361.66	66.667
362.02	68.866
362.38	69.129
362.74	68.093
363.10	67.968
363.46	68.732
363.82	69.549
364.18	67.730
364.54	68.563
364.90	68.432
365.26	67.799
365.62	68.821
365.98	67.972
366.35	68.723
366.71	67.903
367.07	68.604
367.43	68.502
367.79	68.172
368.15	68.917
368.51	68.003
368.87	68.667
369.23	70.036
369.59	67.935
369.95	68.578
370.31	68.340
370.67	70.384
371.03	70.007
371.39	69.837
371.75	68.643
372.11	68.875
372.47	69.214
372.83	69.001
373.19	69.928
373.55	69.509
373.91	66.549
374.27	68.326
374.63	67.994
374.99	68.593
375.35	68.562
375.71	69.429
376.07	68.883
376.42	68.650
376.78	69.617
377.14	70.644
377.50	68.123
377.86	69.057
378.22	68.963
378.58	69.483
378.94	69.562
379.30	69.644
379.66	68.126
380.02	68.689
380.38	68.373
380.74	69.396
381.09	68.335
381.45	68.984
381.81	68.330
382.17	68.179
382.53	67.138
382.89	66.767
383.25	67.963
383.61	67.797
383.97	68.500
384.32	68.305
384.68	66.626
385.04	66.524
385.40	68.742
385.76	67.092
386.12	67.786
386.48	66.395
386.83	66.521
387.19	68.229
387.55	66.953
387.91	67.589
388.27	67.571
388.62	66.979
388.98	69.337
389.34	67.043
389.70	65.446
390.06	67.000
390.42	67.848
390.77	66.688
391.13	66.982
391.49	65.655
391.85	67.476
392.20	64.787
392.56	67.556
392.92	66.589
393.28	65.078
393.64	65.810
393.99	63.647
394.35	66.111
394.71	65.897
395.07	63.962
395.42	66.484
395.78	65.315
396.14	66.138
396.50	65.631
396.85	65.902
397.21	64.419
397.57	62.795
397.92	65.150
398.28	63.452
398.64	63.752
399.00	64.286
399.35	64.245
399.71	63.366
400.07	64.217
400.42	64.828
400.78	62.054
401.14	61.987
401.49	62.912
401.85	62.715
402.21	62.786
402.57	62.968
402.92	62.265
403.28	64.103
403.63	62.492
403.99	63.084
404.35	63.342
404.70	61.692
405.06	62.419
405.42	61.746
405.77	61.521
406.13	61.086
406.49	62.013
406.84	62.271
407.20	60.568
407.55	61.818
407.91	60.821
408.27	60.075
408.62	60.282
408.98	59.864
409.34	59.777
409.69	59.649
410.05	60.634
410.40	59.404
410.76	59.868
411.11	59.453
411.47	59.987
411.83	58.890
412.18	59.572
412.54	59.023
412.89	58.558
413.25	57.522
413.60	59.436
413.96	58.427
414.31	57.768
414.67	57.079
415.03	58.796
415.38	57.794
415.74	58.804
416.09	58.890
416.45	57.963
416.80	57.718
417.16	57.962
417.51	58.875
417.87	58.796
418.22	57.983
418.58	57.819
418.93	57.376
419.29	57.888
419.64	56.170
420.00	57.841
420.35	57.203
420.71	55.698
421.06	56.519
421.42	56.995
421.77	55.838
422.12	56.046
422.48	55.125
422.83	55.641
423.19	57.159
423.54	55.771
423.90	54.869
424.25	55.806
424.61	55.514
424.96	55.115
425.31	54.683
425.67	56.026
426.02	55.771
426.38	55.970
426.73	54.612
427.09	55.285
427.44	55.138
427.79	53.800
428.15	54.190
428.50	54.864
428.85	54.920
429.21	53.067
429.56	54.145
429.92	53.358
430.27	53.476
430.62	53.200
430.98	52.512
431.33	53.143
431.68	54.260
432.04	53.183
432.39	52.309
432.74	52.238
433.10	52.934
433.45	53.195
433.80	51.724
434.16	50.737
434.51	52.663
434.86	53.592
435.22	53.084
435.57	52.088
435.92	53.016
436.28	51.712
436.63	51.386
436.98	50.881
437.34	52.747
437.69	50.590
438.04	51.443
438.39	51.432
438.75	51.490
439.10	52.169
439.45	50.484
439.81	51.355
440.16	50.957
440.51	50.713
440.86	51.215
441.22	50.775
441.57	49.837
441.92	49.819
442.27	48.485
442.63	49.839
442.98	49.942
443.33	50.959
443.68	49.815
444.03	50.174
444.39	50.223
444.74	49.531
445.09	49.945
445.44	50.197
445.79	49.819
446.15	49.584
446.50	50.220
446.85	50.241
447.20	49.817
447.55	50.140
447.91	49.157
448.26	48.656
448.61	49.540
448.96	49.772
449.31	50.371
449.66	49.682
450.02	48.948
450.37	48.942
450.72	48.393
451.07	49.718
451.42	46.413
451.77	48.691
452.12	48.128
452.47	49.709
452.83	48.290
453.18	48.122
453.53	48.424
453.88	48.012
454.23	48.022
454.58	48.529
454.93	47.274
455.28	49.775
455.63	47.598
455.98	48.813
456.34	47.362
456.69	48.243
457.04	46.563
457.39	47.865
457.74	48.414
458.09	46.860
458.44	49.412
458.79	46.952
459.14	47.135
459.49	48.232
459.84	46.618
460.19	46.399
460.54	46.533
460.89	47.410
461.24	46.671
461.59	45.411
461.94	46.018
462.29	46.385
462.64	46.768
462.99	46.613
463.34	46.616
463.69	46.070
464.04	44.898
464.39	46.126
464.74	44.840
465.09	45.195
465.44	44.837
465.79	45.543
466.14	45.211
466.49	45.572
466.84	44.889
467.19	45.032
467.54	45.690
467.89	45.757
468.24	45.360
468.59	45.124
468.94	43.934
469.29	45.010
469.64	44.003
469.99	45.517
470.34	43.628
470.68	44.610
471.03	45.134
471.38	44.367
471.73	44.513
472.08	44.124
472.43	45.053
472.78	44.422
473.13	42.942
473.48	42.857
473.83	43.628
474.17	43.880
474.52	44.725
474.87	43.667
475.22	43.357
475.57	42.331
475.92	43.239
476.27	42.191
476.61	44.451
476.96	43.746
477.31	43.581
477.66	42.599
478.01	42.308
478.36	42.616
478.70	43.072
479.05	43.507
479.40	42.434
479.75	43.092
480.10	42.478
480.45	41.442
480.79	41.364
481.14	42.604
481.49	42.477
481.84	42.083
482.19	41.640
482.53	42.381
482.88	41.994
483.23	41.530
483.58	42.486
483.92	41.196
484.27	41.354
484.62	40.568
484.97	41.269
485.31	39.351
485.66	37.798
486.01	37.989
486.36	38.055
486.70	38.462
487.05	39.642
487.40	40.095
487.75	40.511
488.09	40.475
488.44	40.414
488.79	41.181
489.13	40.318
489.48	41.086
489.83	40.420
490.17	40.899
490.52	41.421
490.87	39.731
491.22	40.838
491.56	41.447
491.91	39.990
492.26	40.571
492.60	40.115
492.95	40.914
493.30	40.552
493.64	39.233
493.99	40.145
494.34	40.366
494.68	40.286
495.03	39.180
495.37	39.951
495.72	40.000
496.07	39.747
496.41	39.027
496.76	39.717
497.11	39.765
497.45	39.786
497.80	40.989
498.14	40.605
498.49	39.233
498.84	39.069
499.18	39.572
499.53	38.552
499.87	38.331
500.22	39.572
500.56	39.368
500.91	37.827
501.26	38.374
501.60	38.382
501.95	38.716
502.29	37.330
502.64	38.766
502.98	38.006
503.33	38.978
503.67	37.877
504.02	38.235
504.36	38.237
504.71	37.246
505.06	38.258
505.40	38.041
505.75	38.199
506.09	37.864
506.44	38.508
506.78	38.090
507.13	37.006
507.47	38.123
507.82	37.991
508.16	38.100
508.51	36.829
508.85	37.636
509.19	37.407
509.54	38.123
509.88	37.796
510.23	37.789
510.57	37.765
510.92	37.554
511.26	38.174
511.61	37.157
511.95	37.707
512.30	37.424
512.64	37.684
512.98	37.452
513.33	36.789
513.67	37.195
514.02	37.685
514.36	36.685
514.70	37.875
515.05	37.917
515.39	37.087
515.74	36.767
516.08	36.991
516.42	35.945
516.77	35.677
517.11	35.509
517.46	36.915
517.80	37.409
518.14	36.007
518.49	36.166
518.83	35.859
519.17	36.265
519.52	37.093
519.86	37.705
520.20	35.476
520.55	36.878
520.89	36.369
521.23	37.628
521.58	36.536
521.92	36.581
522.26	36.630
522.61	36.522
522.95	36.917
523.29	35.619
523.64	36.872
523.98	36.785
524.32	35.539
524.66	35.844
525.01	36.239
525.35	36.274
525.69	35.586
526.04	35.896
526.38	36.010
526.72	35.832
527.06	34.816
527.41	34.679
527.75	35.581
528.09	36.283
528.43	36.024
528.78	35.594
529.12	35.576
529.46	35.381
529.80	34.757
530.15	33.333
530.49	35.445
530.83	35.410
531.17	35.342
531.51	34.794
531.86	34.350
532.20	35.837
532.54	35.379
532.88	34.037
533.22	34.815
533.57	34.106
533.91	34.710
534.25	35.091
534.59	34.685
534.93	34.247
535.27	34.331
535.62	34.737
535.96	33.897
536.30	33.910
536.64	32.673
536.98	34.268
537.32	34.093
537.66	33.568
538.01	34.189
538.35	33.564
538.69	33.445
539.03	32.550
539.37	33.400
539.71	33.629
540.05	33.063
540.39	32.829
540.73	33.520
541.07	33.401
541.42	33.603
541.76	33.491
542.10	33.040
542.44	32.640
542.78	32.477
543.12	32.817
543.46	33.103
543.80	32.111
544.14	32.897
544.48	32.316
544.82	32.011
545.16	32.184
545.50	32.951
545.84	32.889
546.18	30.996
546.52	32.534
546.86	31.519
547.20	32.595
547.54	31.165
547.88	31.377
548.22	31.010
548.56	31.488
548.90	31.394
549.24	32.083
549.58	30.819
549.92	31.695
550.26	31.734
550.60	32.132
550.94	32.015
551.28	31.870
551.62	31.805
551.96	30.747
552.30	30.932
552.64	31.073
552.98	31.534
553.32	30.786
553.66	31.475
554.00	31.102
554.34	30.110
554.68	31.394
555.02	30.165
555.36	31.316
555.69	30.808
556.03	29.950
556.37	29.943
556.71	30.133
557.05	30.554
557.39	31.047
557.73	31.165
558.07	31.198
558.41	31.264
558.75	31.178
559.08	28.949
559.42	30.685
559.76	29.434
560.10	30.515
560.44	30.803
560.78	30.360
561.12	29.432
561.45	29.320
561.79	29.711
562.13	31.083
562.47	30.286
562.81	29.654
563.15	28.895
563.48	28.699
563.82	29.549
564.16	29.655
564.50	30.054
564.84	29.324
565.17	29.470
565.51	29.679
565.85	28.181
566.19	29.404
566.52	29.489
566.86	29.520
567.20	28.650
567.54	28.267
567.88	26.988
568.21	27.376
568.55	27.491
568.89	27.617
569.23	27.498
569.56	26.992
569.90	26.457
570.24	26.498
570.57	26.032
570.91	26.198
571.25	25.573
571.59	25.586
571.92	25.873
572.26	26.017
572.60	25.901
572.93	25.742
573.27	25.660
573.61	25.684
573.95	25.516
574.28	25.703
574.62	25.006
574.96	25.787
575.29	25.226
575.63	25.316
575.97	26.005
576.30	24.559
576.64	25.046
576.98	24.823
577.31	25.313
577.65	24.696
577.98	24.622
578.32	24.377
578.66	24.768
578.99	25.423
579.33	25.262
579.67	24.949
580.00	24.547
580.34	24.673
580.67	24.792
581.01	24.977
581.35	24.525
581.68	24.134
582.02	23.784
582.35	24.458
582.69	24.850
583.02	24.362
583.36	24.782
583.70	25.225
584.03	25.425
584.37	24.809
584.70	24.447
585.04	24.209
585.37	23.888
585.71	24.313
586.04	24.536
586.38	24.441
586.72	24.220
587.05	24.365
587.39	24.545
587.72	24.362
588.06	24.925
588.39	24.797
588.73	24.850
589.06	25.057
589.40	25.284
589.73	24.398
590.07	23.988
590.40	24.650
590.73	25.203
591.07	25.616
591.40	24.826
591.74	24.722
592.07	25.513
592.41	25.354
592.74	24.344
593.08	23.350
593.41	23.699
593.75	23.611
594.08	24.249
594.41	24.132
594.75	24.475
595.08	24.533
595.42	24.230
595.75	24.910
596.09	25.096
596.42	25.041
596.75	24.353
597.09	24.977
597.42	25.079
597.75	24.578
598.09	25.182
598.42	24.519
598.76	24.097
599.09	24.290
599.42	23.489
599.76	24.333
600.09	23.908
600.42	24.218
600.76	23.540
601.09	24.068
601.42	23.834
601.76	23.359
602.09	24.483
602.42	25.464
602.76	24.119
603.09	24.066
603.42	23.591
603.76	22.759
604.09	24.348
604.42	23.190
604.76	23.396
605.09	24.196
605.42	24.202
605.75	23.426
606.09	23.137
606.42	24.106
606.75	23.203
607.09	23.582
607.42	23.949
607.75	22.845
608.08	24.752
608.42	23.430
608.75	24.224
609.08	24.057
609.41	23.944
609.75	23.348
610.08	24.112
610.41	24.150
610.74	24.013
611.07	23.848
611.41	24.923
611.74	24.120
612.07	23.814
612.40	24.054
612.73	23.052
613.07	23.670
613.40	24.725
613.73	23.402
614.06	23.936
614.39	23.346
614.72	24.708
615.06	23.444
615.39	22.958
615.72	22.786
616.05	23.818
616.38	23.883
616.71	23.815
617.05	24.570
617.38	23.475
617.71	23.775
618.04	23.278
618.37	23.407
618.70	24.386
619.03	23.436
619.36	23.559
619.69	23.465
620.03	24.311
620.36	23.452
620.69	23.198
621.02	23.615
621.35	23.467
621.68	23.879
622.01	24.676
622.34	23.632
622.67	24.511
623.00	24.392
623.33	24.458
623.66	23.569
623.99	24.231
624.32	23.991
624.65	24.926
624.99	23.365
625.32	23.898
625.65	23.178
625.98	24.250
626.31	24.653
626.64	23.990
626.97	24.221
627.30	25.235
627.63	23.702
627.96	22.597
628.29	24.744
628.62	24.952
628.95	24.048
629.28	25.419
629.61	24.211
629.94	26.209
630.26	25.025
630.59	23.776
630.92	22.490
631.25	24.923
631.58	25.482
631.91	24.284
632.24	24.259
632.57	24.111
632.90	24.621
633.23	25.540
633.56	25.180
633.89	24.163
634.22	27.326
634.55	25.335
634.88	24.387
635.20	25.250
635.53	24.548
635.86	24.744
636.19	25.931
636.52	23.293
636.85	24.970
637.18	23.264
637.51	23.845
637.83	25.979
638.16	24.667
638.49	23.899
638.82	24.575
639.15	25.266
639.48	24.465
639.81	26.250
640.13	27.042
640.46	25.141
640.79	25.755
641.12	25.000
641.45	23.581
641.77	24.890
642.10	25.719
642.43	24.528
642.76	22.240
643.09	25.240
643.41	26.475
643.74	24.879
644.07	24.272
644.40	24.876
644.73	24.746
645.05	24.258
645.38	23.754
645.71	25.340
646.04	22.054
646.36	25.347
646.69	25.699
647.02	28.233
647.35	24.497
647.67	25.139
648.00	22.826
648.33	24.746
648.66	22.204
648.98	23.913
649.31	24.387
649.64	22.692
649.96	24.487
650.29	21.895
650.62	20.758
650.94	23.276
651.27	24.735
651.60	27.273
651.92	22.939
652.25	25.293
652.58	24.917
652.90	22.727
653.23	21.732
653.56	22.149
653.88	22.696
654.21	20.819
654.54	20.764
654.86	22.114
655.19	21.569
655.52	21.277
655.84	17.962
656.17	21.878
656.49	28.657
656.82	28.749
657.15	22.144
657.47	16.464
657.80	12.598
658.13	13.225
658.45	19.920
658.78	20.196
659.10	20.476
659.43	20.664
659.75	20.831
660.08	20.897
660.41	20.487
660.73	21.488
661.06	21.259
661.38	22.868
661.71	24.795
662.03	23.679
662.36	22.124
662.68	21.290
663.01	24.153
663.33	22.030
663.66	21.729
663.98	21.573
664.31	23.516
664.63	17.793
664.96	25.164
665.28	25.107
665.61	22.678
665.93	22.484
666.26	23.418
666.58	20.985
666.91	23.991
667.23	23.963
667.56	22.989
667.88	25.234
668.21	22.545
668.53	22.299
668.86	24.940
669.18	25.296
669.50	22.811
669.83	21.480
670.15	23.095
670.48	22.299
670.80	27.790
671.13	21.510
671.45	22.603
671.77	22.198
672.10	21.442
672.42	22.328
672.75	20.714
673.07	19.636
673.39	21.082
673.72	20.160
674.04	22.131
674.37	21.341
674.69	20.988
675.01	20.299
675.34	23.632
675.66	25.054
675.98	20.354
676.31	20.588
676.63	24.943
676.95	23.765
677.28	22.477
677.60	24.510
677.92	22.838
678.25	22.126
678.57	23.829
678.89	18.124
679.22	20.290
679.54	21.020
679.86	21.289
680.18	18.077
680.51	20.769
680.83	17.154
681.15	21.022
681.48	18.637
681.80	20.245
682.12	16.875
682.44	19.316
682.77	19.368
683.09	18.527
683.41	18.605
683.73	18.080
684.06	22.566
684.38	22.436
684.70	19.145
685.02	20.868
685.34	21.135
685.67	19.700
685.99	21.352
686.31	19.483
686.63	17.647
686.96	22.263
687.28	18.164
687.60	20.983
687.92	21.984
688.24	19.600
688.56	22.149
688.89	20.045
689.21	20.628
689.53	17.117
689.85	22.247
690.17	23.736
690.49	18.599
690.82	20.286
691.14	19.324
691.46	17.865
691.78	20.879
692.10	18.471
692.42	17.582
692.74	19.130
693.06	18.876
693.39	19.906
693.71	21.333
694.03	19.318
694.35	20.946
694.67	21.500
694.99	22.938
695.31	19.638
695.63	19.756
695.95	19.338
696.27	14.795
696.59	20.699
696.91	16.480
697.23	20.558
697.56	21.583
697.88	19.543
698.20	19.222
698.52	17.991
698.84	18.900
699.16	19.385
699.48	23.704
699.80	19.897
700.12	20.912
700.44	19.437
700.76	17.978
701.08	18.731
701.40	17.964
701.72	20.000
702.04	15.723
702.36	21.951
702.68	14.939
703.00	17.836
703.32	17.549
703.64	17.169
703.96	17.595
704.28	18.675
704.60	18.598
704.91	15.987
705.23	21.519
705.55	18.276
705.87	19.366
706.19	13.187
706.51	16.197
706.83	15.924
707.15	17.378
707.47	19.835
707.79	13.959
708.11	17.481
708.43	21.320
708.74	15.691
709.06	16.845
709.38	19.020
709.70	17.117
710.02	16.511
710.34	15.667
710.66	13.029
710.98	15.789
711.29	20.455
711.61	17.097
711.93	15.484
712.25	11.189
712.57	16.491
712.89	19.780
713.20	19.149
713.52	15.328
713.84	12.903
714.16	17.152
714.48	17.722
714.80	16.933
715.11	20.640
715.43	16.770
715.75	15.839
716.07	17.169
716.39	18.519
716.70	20.504
717.02	13.725
717.34	18.182
717.66	16.379
717.97	11.905
718.29	15.354
718.61	12.876
718.93	12.403
719.24	18.450
719.56	12.734
719.88	19.776
720.20	13.043
720.51	15.234
720.83	18.288
721.15	13.008
721.46	13.740
721.78	17.131
722.10	17.530
722.42	19.758
722.73	16.602
723.05	18.776
723.37	17.227
723.68	11.600
724.00	11.915
724.32	15.481
724.63	18.930
724.95	16.239
725.27	21.941
725.58	18.107
725.90	15.063
726.22	14.855
726.53	12.549
726.85	18.613
727.16	15.185
727.48	16.475
727.80	16.016
728.11	11.066
728.43	12.500
728.74	13.889
729.06	13.200
729.38	19.763
729.69	17.082
730.01	15.242
730.32	20.664
730.64	14.394
730.96	17.133
731.27	16.054
731.59	14.603
731.90	14.239
732.22	12.179
732.53	10.811
732.85	11.745
733.16	16.502
733.48	16.216
733.80	16.216
734.11	15.878
734.43	13.622
734.74	15.916
735.06	12.968
735.37	18.237
735.69	15.210
736.00	17.822
736.32	13.475
736.63	15.862
736.95	11.986
737.26	16.552
737.58	14.236
737.89	14.777
738.21	11.744
738.52	14.068
738.83	16.327
739.15	12.236
739.46	11.284
739.78	11.620
740.09	16.438
740.41	10.000
740.72	13.475
741.04	15.200
741.35	11.842
741.66	17.778
741.98	18.750
742.29	12.871
742.61	8.780
742.92	14.912
743.23	13.679
743.55	14.865
743.86	13.453
744.18	13.235
744.49	14.721
744.80	13.265
745.12	11.215
745.43	17.536
745.74	17.568
746.06	13.084
746.37	12.844
746.68	18.750
747.00	14.833
747.31	18.750
747.62	16.514
747.94	16.594
748.25	11.009
748.56	12.444
748.88	18.310
749.19	19.524
749.50	10.194
749.82	7.512
750.13	9.167
750.44	13.077
750.75	9.963
751.07	18.149
751.38	15.957
751.69	12.355
752.01	12.500
752.32	11.154
752.63	12.313
752.94	13.600
753.26	13.808
753.57	12.917
753.88	12.551
754.19	13.147
754.51	12.030
754.82	14.286
755.13	8.696
755.44	19.106
755.75	11.200
756.07	11.439
756.38	13.669
756.69	13.652
757.00	13.396
757.31	10.680
757.63	14.815
757.94	13.559
758.25	14.286
758.56	11.685
758.87	16.964
759.18	12.618
759.50	15.152
759.81	15.050
760.12	12.923
760.43	11.905
760.74	12.147
761.05	12.431
761.36	9.742
761.67	9.366
761.99	8.591
762.30	10.584
762.61	11.523
762.92	14.957
763.23	16.393
763.54	16.883
763.85	14.286
764.16	7.317
764.47	11.200
764.78	12.143
765.10	11.475
765.41	13.982
765.72	12.112
766.03	12.211
766.34	14.615
766.65	9.205
766.96	9.859
767.27	15.842
767.58	10.674
767.89	12.346
768.20	12.707
768.51	17.085
768.82	12.500
769.13	12.389
769.44	14.226
769.75	10.256
770.06	12.556
770.37	7.353
770.68	13.592
770.99	9.709
771.30	12.185
771.61	9.796
771.92	12.448
772.23	9.910
772.54	7.735
772.85	11.047
773.16	18.519
773.47	10.059
773.78	11.494
774.09	13.125
774.39	11.801
774.70	17.007
775.01	5.517
775.32	12.143
775.63	11.278
775.94	3.008
776.25	-4.000
776.56	5.785
776.87	19.841
777.18	3.604
777.48	2.703
777.79	9.449
778.10	13.761
778.41	2.632
778.72	4.202
779.03	3.521
779.34	16.216
779.65	3.521
779.95	9.934
780.26	6.475
780.57	10.791
780.88	6.338
781.19	5.882
781.50	9.396
781.80	5.848
782.11	0.581
782.42	7.547
782.73	13.072
783.04	0.690
783.34	3.053
783.65	5.369
783.96	5.385
784.27	12.143
784.57	9.220
784.88	-6.731
785.19	11.818
785.50	18.182
785.81	-0.952
786.11	7.563
786.42	2.655
786.73	10.377
787.04	-7.339
787.34	-2.970
787.65	10.833
787.96	4.132
788.26	13.043
788.57	11.905
788.88	7.317
789.19	12.800
789.49	4.580
789.80	15.909
790.11	5.660
790.41	13.861
790.72	8.511
791.03	-5.435
791.33	-9.412
791.64	1.235
791.95	-1.087
792.25	5.682
792.56	-1.282
792.87	0.000
793.17	-16.667
793.48	3.571
793.79	-6.250
794.09	15.385
794.40	1.042
794.70	7.207
795.01	3.125
795.32	10.435
795.62	-11.957
795.93	-2.830
796.23	14.141
796.54	1.220
796.85	7.143
797.15	-6.061
797.46	2.899
797.76	-9.211
798.07	14.773
798.37	3.659
798.68	-8.065
798.99	-5.405
799.29	4.819
799.60	6.410
799.90	7.692
800.21	9.091
800.51	-8.000
800.82	17.333
801.12	-14.583
801.43	-18.333
801.73	-10.811
802.04	14.286
802.34	4.918
802.65	8.955
802.95	0.000
803.26	6.897
803.56	20.000
803.87	9.434
804.17	-14.516
804.48	-11.765
804.78	-31.707
805.09	10.145
805.39	2.941
805.70	-31.915
806.00	-3.509
806.30	15.385
806.61	-1.316
806.91	-2.703
807.22	2.632
807.52	18.182
807.83	-15.254
808.13	-22.727
808.43	-8.333
808.74	-20.690
809.04	1.587
809.35	-20.408
809.65	1.667
809.95	-22.449
810.26	12.676
810.56	14.583
810.86	-20.408
811.17	13.462
811.47	-10.638
811.77	-27.083
812.08	-1.887
812.38	-6.250
812.69	9.091
812.99	-26.829
813.29	2.703
813.59	-16.216
813.90	1.818
814.20	3.636
814.50	0.000
814.81	-10.909
815.11	-8.772
815.41	4.651
815.72	-2.500
816.02	-8.571
816.32	-5.405
816.62	0.000
816.93	-22.222
817.23	-48.889
817.53	13.889
817.84	-18.919
818.14	2.439
818.44	4.000
818.74	-2.041
819.04	7.317
819.35	-8.333
819.65	0.000
819.95	-83.333
820.25	-12.121
820.56	-19.048
820.86	-2.778
821.16	-22.727
821.46	-32.609
821.76	-22.414
822.07	0.000
822.37	-9.091
822.67	4.878
822.97	-16.216
823.27	-40.000
823.57	-3.448
823.88	-32.353
824.18	-22.222
824.48	-8.571
824.78	-33.333
825.08	-7.143
825.38	-14.815
825.69	-6.452
825.99	19.512
826.29	-22.222
826.59	-18.750
826.89	-6.452
827.19	-30.435
827.49	-33.333
827.79	-52.174
828.09	-41.935
828.39	-8.333
828.70	-56.250
829.00	-3.448
829.30	-29.730
829.60	-120.833
829.90	-44.444
830.20	-6.250
830.50	0.000
830.80	-100.000
831.10	-22.727
831.40	-8.824
831.70	-23.077
832.00	-9.091
832.30	0.000
832.60	-29.730
832.90	1300.000
833.20	-35.714
833.50	-95.000
833.80	-26.316
834.10	-54.167
834.40	-81.818
834.70	-100.000
835.00	20.000
835.30	-66.667
835.60	-52.381
835.90	-33.333
836.20	-12.000
836.50	-29.167
836.80	-42.105
837.10	8.108
837.40	3.333
837.70	-26.087
838.00	20.833
838.30	-36.842
838.60	-270.000
838.90	-200.000
839.19	-91.667
839.49	-69.231
839.79	-15.789
840.09	-300.000
840.39	0.000
840.69	-90.909
840.99	-52.381
841.29	-29.167
841.59	-53.846
841.88	-66.667
842.18	-14.286
842.48	23.333
842.78	-142.857
843.08	-64.286
843.38	-112.500
843.68	-68.750
843.97	-35.714
844.27	-200.000
844.57	-163.636
844.87	-100.000
845.17	-22.727
845.47	533.333
845.76	-46.667
846.06	-33.333
846.36	-1450.000
846.66	-57.895
846.96	-50.000
847.25	-66.667
847.55	-188.889
847.85	-100.000
848.15	-46.154
848.44	-366.667
848.74	-58.333
849.04	-100.000
849.34	-275.000
849.63	-127.273
849.93	-157.143
850.23	-20.000
850.53	-237.500
850.82	-33.333
851.12	-60.000
851.42	-76.471
851.71	-125.000
852.01	11.765
852.31	-30.769
852.61	400.000
852.90	-17.647
853.20	-20.000
853.50	-62.500
853.79	-107.143
854.09	-400.000
854.39	-45.000
854.68	-17.500
854.98	-28.571
855.28	-20.000
855.57	20.833
855.87	-8.333
856.17	-36.000
856.46	-15.625
856.76	-75.000
857.05	4.000
857.35	-141.667
857.65	-41.176
857.94	-91.667
858.24	-75.000
858.53	-25.000
858.83	-218.182
859.13	0.000
859.42	-28.571
859.72	-75.000
860.01	-4.167
860.31	-237.500
860.60	-56.250
860.90	-216.667
861.20	-166.667
861.49	0.000
861.79	-131.250
862.08	225.000
862.38	-158.333
862.67	371.429
862.97	350.000
863.26	-145.455
863.56	-9.091
863.85	-5.263
864.15	-41.176
864.44	-340.000
864.74	-100.000
865.03	-155.556
865.33	-92.857
865.62	71.429
865.92	-36.842
866.21	-33.333
866.51	-72.727
866.80	-111.111
867.10	-175.000
867.39	6.250
867.69	-113.333
867.98	-110.000
868.27	-5.882
868.57	0.000
868.86	950.000
869.16	-475.000
869.45	-100.000
869.75	900.000
870.04	-60.000
870.33	-2200.000
870.63	-47.368
870.92	-166.667
871.22	-1800.000
871.51	-114.286
871.80	-166.667
872.10	-375.000
>>>>>End Processed Spectral Data<<<<<
