SpectraSuite Data File
++++++++++++++++++++++++++++++++++++
Date: Wed May 13 21:13:30 PDT 2015
User: schluterlab
Dark Spectrum Present: Yes
Reference Spectrum Present: Yes
Number of Sampled Component Spectra: 1
Spectrometers: USB2E3373
Integration Time (usec): 3000 (USB2E3373)
Spectra Averaged: 3 (USB2E3373)
Boxcar Smoothing: 0 (USB2E3373)
Correct for Electrical Dark: No (USB2E3373)
Strobe/Lamp Enabled: No (USB2E3373)
Correct for Detector Non-linearity: No (USB2E3373)
Correct for Stray Light: No (USB2E3373)
Number of Pixels in Processed Spectrum: 2048
>>>>>Begin Processed Spectral Data<<<<<
178.53	0.000
178.91	350.000
179.29	233.333
179.67	-950.000
180.04	-600.000
180.42	280.000
180.80	1500.000
181.18	283.333
181.56	-475.000
181.94	-325.000
182.31	-18.182
182.69	138.462
183.07	-120.000
183.45	200.000
183.83	200.000
184.20	71.429
184.58	-200.000
184.96	233.333
185.34	214.286
185.72	0.000
186.09	-1000.000
186.47	-300.000
186.85	80.000
187.23	-700.000
187.61	600.000
187.98	900.000
188.36	-62.500
188.74	0.000
189.12	-72.727
189.49	-10.000
189.87	133.333
190.25	340.000
190.63	1100.000
191.00	-200.000
191.38	380.000
191.76	400.000
192.14	216.667
192.51	-21.053
192.89	466.667
193.27	250.000
193.65	-280.000
194.02	181.818
194.40	170.000
194.78	-800.000
195.15	340.000
195.53	-400.000
195.91	25.000
196.29	66.667
196.66	0.000
197.04	750.000
197.42	60.000
197.79	-60.000
198.17	-87.500
198.55	-300.000
198.92	350.000
199.30	-500.000
199.68	-60.000
200.05	400.000
200.43	183.333
200.81	-300.000
201.18	-400.000
201.56	-83.333
201.94	700.000
202.31	17.391
202.69	-14.286
203.07	-466.667
203.44	-280.000
203.82	-333.333
204.19	-40.000
204.57	0.000
204.95	-66.667
205.32	0.000
205.70	-150.000
206.08	-300.000
206.45	-250.000
206.83	550.000
207.20	-233.333
207.58	-40.000
207.96	-1500.000
208.33	-271.429
208.71	-1200.000
209.08	262.500
209.46	475.000
209.84	0.000
210.21	150.000
210.59	2100.000
210.96	260.000
211.34	1100.000
211.71	-500.000
212.09	-133.333
212.46	-60.000
212.84	-66.667
213.22	25.000
213.59	-800.000
213.97	-550.000
214.34	-850.000
214.72	-84.615
215.09	275.000
215.47	222.222
215.84	900.000
216.22	-175.000
216.59	-250.000
216.97	633.333
217.34	155.556
217.72	0.000
218.09	200.000
218.47	-600.000
218.84	-114.286
219.22	-50.000
219.59	-266.667
219.97	-200.000
220.34	-25.000
220.72	-300.000
221.09	0.000
221.47	-416.667
221.84	-600.000
222.22	0.000
222.59	900.000
222.97	33.333
223.34	-75.000
223.72	-200.000
224.09	-450.000
224.46	-145.455
224.84	-12.500
225.21	-114.286
225.59	-225.000
225.96	16.667
226.34	-60.000
226.71	-228.571
227.08	250.000
227.46	-62.500
227.83	-400.000
228.21	0.000
228.58	-275.000
228.95	-64.706
229.33	0.000
229.70	-150.000
230.08	-53.846
230.45	-137.500
230.82	-41.667
231.20	257.143
231.57	-350.000
231.95	600.000
232.32	16.667
232.69	-11.765
233.07	-800.000
233.44	0.000
233.81	-850.000
234.19	0.000
234.56	-80.000
234.93	-13.333
235.31	21.053
235.68	-153.846
236.05	-69.231
236.43	-16.667
236.80	-9.091
237.17	-86.667
237.55	-11.765
237.92	-48.276
238.29	0.000
238.67	0.000
239.04	-9.677
239.41	-2.128
239.79	17.021
240.16	11.628
240.53	14.286
240.91	19.643
241.28	10.714
241.65	12.903
242.02	9.211
242.40	34.783
242.77	-8.696
243.14	-5.128
243.51	17.021
243.89	12.500
244.26	26.415
244.63	6.731
245.00	10.417
245.38	7.563
245.75	9.016
246.12	16.541
246.49	13.008
246.87	6.723
247.24	25.000
247.61	18.543
247.98	18.590
248.36	17.160
248.73	14.045
249.10	18.182
249.47	17.742
249.84	15.789
250.22	16.418
250.59	21.028
250.96	22.727
251.33	11.962
251.70	20.084
252.08	20.502
252.45	24.280
252.82	19.392
253.19	20.233
253.56	18.345
253.94	22.776
254.31	19.366
254.68	20.470
255.05	21.122
255.42	22.378
255.79	22.086
256.16	20.505
256.54	20.952
256.91	17.722
257.28	22.956
257.65	20.064
258.02	22.287
258.39	21.345
258.76	19.477
259.14	18.750
259.51	19.663
259.88	20.596
260.25	21.111
260.62	20.225
260.99	20.690
261.36	20.466
261.73	20.741
262.10	21.374
262.47	19.012
262.85	20.149
263.22	22.308
263.59	20.519
263.96	22.384
264.33	21.875
264.70	23.721
265.07	22.917
265.44	22.989
265.81	20.824
266.18	18.223
266.55	19.214
266.92	19.492
267.29	20.782
267.66	23.992
268.03	22.840
268.40	20.551
268.77	22.107
269.14	22.449
269.51	24.025
269.88	18.126
270.25	22.669
270.62	19.262
270.99	22.835
271.36	23.810
271.73	21.687
272.10	20.190
272.47	20.921
272.84	21.063
273.21	21.918
273.58	22.336
273.95	21.698
274.32	22.575
274.69	20.583
275.06	23.145
275.43	22.411
275.80	21.277
276.17	20.074
276.54	21.670
276.91	17.247
277.28	20.578
277.65	20.280
278.02	21.964
278.39	19.183
278.76	20.736
279.13	22.470
279.50	20.862
279.87	20.471
280.23	21.982
280.60	20.069
280.97	20.292
281.34	25.079
281.71	20.650
282.08	20.513
282.45	19.508
282.82	21.086
283.19	20.884
283.56	21.719
283.92	20.795
284.29	20.749
284.66	21.252
285.03	19.544
285.40	19.940
285.77	20.270
286.14	19.453
286.51	22.939
286.87	20.462
287.24	19.027
287.61	20.331
287.98	19.118
288.35	18.927
288.72	18.938
289.08	18.946
289.45	19.383
289.82	21.180
290.19	18.093
290.56	18.608
290.93	19.061
291.29	20.109
291.66	17.623
292.03	20.572
292.40	19.919
292.77	18.340
293.13	19.247
293.50	16.863
293.87	18.000
294.24	19.841
294.60	18.596
294.97	18.386
295.34	17.810
295.71	15.900
296.08	15.838
296.44	16.071
296.81	16.565
297.18	17.125
297.55	18.986
297.91	16.273
298.28	17.918
298.65	16.502
299.02	17.094
299.38	16.074
299.75	17.067
300.12	16.744
300.48	17.076
300.85	16.513
301.22	16.957
301.59	15.845
301.95	15.796
302.32	15.053
302.69	15.706
303.05	15.725
303.42	15.227
303.79	17.455
304.15	16.210
304.52	17.097
304.89	15.725
305.25	15.368
305.62	16.269
305.99	18.172
306.35	16.823
306.72	16.887
307.09	15.641
307.45	15.442
307.82	16.737
308.19	14.525
308.55	15.251
308.92	16.699
309.29	15.816
309.65	14.685
310.02	16.799
310.38	16.768
310.75	15.976
311.12	15.646
311.48	16.222
311.85	15.748
312.22	16.925
312.58	16.425
312.95	16.617
313.31	16.896
313.68	17.939
314.05	15.974
314.41	18.060
314.78	17.078
315.14	16.574
315.51	17.031
315.87	18.258
316.24	17.998
316.61	17.808
316.97	18.333
317.34	17.112
317.70	17.930
318.07	19.698
318.43	18.970
318.80	19.459
319.16	19.540
319.53	19.444
319.89	18.790
320.26	20.795
320.62	20.389
320.99	19.961
321.35	21.048
321.72	21.367
322.08	23.063
322.45	22.387
322.81	23.383
323.18	22.809
323.54	24.278
323.91	24.210
324.27	25.203
324.64	23.693
325.00	25.459
325.37	26.451
325.73	24.663
326.10	27.586
326.46	27.341
326.83	27.832
327.19	28.780
327.56	29.170
327.92	29.686
328.29	30.801
328.65	31.025
329.01	30.079
329.38	32.348
329.74	31.674
330.11	31.921
330.47	32.205
330.84	32.852
331.20	33.817
331.56	34.420
331.93	33.936
332.29	35.361
332.66	33.559
333.02	34.318
333.38	35.175
333.75	35.068
334.11	35.069
334.48	36.617
334.84	34.011
335.20	35.163
335.57	35.683
335.93	34.536
336.29	34.151
336.66	35.214
337.02	35.652
337.38	35.596
337.75	35.831
338.11	35.611
338.47	35.616
338.84	36.942
339.20	36.508
339.56	35.410
339.93	36.560
340.29	36.465
340.65	36.612
341.02	36.273
341.38	36.402
341.74	35.714
342.11	36.168
342.47	36.569
342.83	36.601
343.20	36.294
343.56	38.185
343.92	36.149
344.28	36.769
344.65	37.143
345.01	37.530
345.37	36.842
345.73	38.317
346.10	38.363
346.46	36.585
346.82	38.604
347.19	38.291
347.55	38.772
347.91	37.958
348.27	38.801
348.63	38.381
349.00	38.601
349.36	39.403
349.72	38.979
350.08	39.548
350.45	38.215
350.81	39.124
351.17	39.184
351.53	38.649
351.89	38.205
352.26	39.073
352.62	39.612
352.98	38.578
353.34	39.775
353.70	38.629
354.07	39.373
354.43	38.569
354.79	39.984
355.15	39.519
355.51	39.408
355.87	39.953
356.24	39.165
356.60	38.702
356.96	40.215
357.32	41.176
357.68	40.183
358.04	39.566
358.40	41.008
358.77	40.673
359.13	41.556
359.49	41.635
359.85	40.788
360.21	41.635
360.57	41.597
360.93	41.730
361.29	42.191
361.66	41.989
362.02	41.290
362.38	41.285
362.74	42.132
363.10	42.516
363.46	41.282
363.82	42.720
364.18	42.495
364.54	42.524
364.90	42.369
365.26	41.472
365.62	43.963
365.98	42.206
366.35	42.908
366.71	42.439
367.07	43.019
367.43	44.111
367.79	44.058
368.15	44.093
368.51	42.897
368.87	44.173
369.23	45.196
369.59	43.340
369.95	44.267
370.31	44.840
370.67	44.316
371.03	45.954
371.39	45.706
371.75	45.857
372.11	45.014
372.47	44.773
372.83	45.215
373.19	44.820
373.55	45.303
373.91	46.535
374.27	46.196
374.63	47.013
374.99	46.309
375.35	46.918
375.71	46.739
376.07	47.430
376.42	47.326
376.78	48.151
377.14	48.271
377.50	46.871
377.86	48.938
378.22	47.724
378.58	48.108
378.94	49.438
379.30	49.094
379.66	48.027
380.02	48.346
380.38	48.434
380.74	48.894
381.09	48.552
381.45	48.609
381.81	49.107
382.17	49.275
382.53	48.800
382.89	50.724
383.25	49.568
383.61	50.545
383.97	49.937
384.32	50.410
384.68	51.511
385.04	49.908
385.40	50.934
385.76	50.365
386.12	51.711
386.48	51.223
386.83	51.439
387.19	51.511
387.55	51.870
387.91	53.137
388.27	52.466
388.62	51.498
388.98	52.753
389.34	52.256
389.70	52.015
390.06	52.625
390.42	52.191
390.77	53.748
391.13	53.788
391.49	52.815
391.85	52.332
392.20	52.068
392.56	54.794
392.92	53.482
393.28	54.213
393.64	54.801
393.99	51.958
394.35	53.951
394.71	54.231
395.07	52.013
395.42	53.626
395.78	53.990
396.14	54.914
396.50	54.851
396.85	56.150
397.21	54.057
397.57	54.286
397.92	53.174
398.28	54.315
398.64	55.191
399.00	54.688
399.35	56.243
399.71	56.377
400.07	55.723
400.42	56.614
400.78	55.166
401.14	56.223
401.49	55.842
401.85	55.160
402.21	56.904
402.57	56.652
402.92	55.257
403.28	56.348
403.63	56.231
403.99	57.774
404.35	56.484
404.70	56.073
405.06	56.547
405.42	56.721
405.77	55.991
406.13	55.943
406.49	55.842
406.84	56.838
407.20	56.720
407.55	57.987
407.91	57.114
408.27	54.835
408.62	56.967
408.98	57.090
409.34	56.931
409.69	58.155
410.05	56.405
410.40	56.360
410.76	57.461
411.11	57.338
411.47	59.589
411.83	57.268
412.18	58.375
412.54	57.644
412.89	56.865
413.25	55.221
413.60	57.743
413.96	57.678
414.31	57.830
414.67	57.016
415.03	59.134
415.38	56.737
415.74	58.674
416.09	59.088
416.45	59.535
416.80	58.255
417.16	57.962
417.51	59.344
417.87	58.598
418.22	59.858
418.58	59.855
418.93	59.385
419.29	59.538
419.64	58.206
420.00	59.683
420.35	59.235
420.71	58.927
421.06	59.594
421.42	60.219
421.77	58.266
422.12	58.968
422.48	58.833
422.83	59.421
423.19	58.712
423.54	60.424
423.90	59.679
424.25	59.619
424.61	59.704
424.96	59.846
425.31	58.777
425.67	59.906
426.02	61.190
426.38	61.381
426.73	61.332
427.09	59.475
427.44	59.836
427.79	61.105
428.15	60.183
428.50	60.483
428.85	60.763
429.21	59.764
429.56	60.627
429.92	60.437
430.27	60.225
430.62	61.333
430.98	60.286
431.33	60.881
431.68	60.383
432.04	62.085
432.39	60.855
432.74	60.822
433.10	61.360
433.45	61.183
433.80	60.517
434.16	61.169
434.51	61.033
434.86	62.426
435.22	61.121
435.57	60.995
435.92	61.339
436.28	63.063
436.63	61.201
436.98	61.692
437.34	62.149
437.69	62.043
438.04	60.555
438.39	63.014
438.75	61.561
439.10	62.580
439.45	61.804
439.81	62.623
440.16	61.623
440.51	62.247
440.86	61.114
441.22	61.675
441.57	61.714
441.92	61.742
442.27	60.660
442.63	60.441
442.98	62.442
443.33	61.851
443.68	60.358
444.03	61.500
444.39	62.122
444.74	61.071
445.09	61.123
445.44	61.465
445.79	62.932
446.15	62.063
446.50	61.344
446.85	62.266
447.20	62.154
447.55	61.947
447.91	60.955
448.26	62.550
448.61	61.795
448.96	61.105
449.31	62.307
449.66	62.290
450.02	61.569
450.37	62.985
450.72	61.883
451.07	63.448
451.42	61.634
451.77	62.751
452.12	60.606
452.47	62.556
452.83	62.382
453.18	62.317
453.53	62.926
453.88	62.048
454.23	62.546
454.58	62.377
454.93	62.668
455.28	61.785
455.63	62.445
455.98	62.325
456.34	62.810
456.69	63.834
457.04	61.424
457.39	61.936
457.74	61.281
458.09	62.737
458.44	62.573
458.79	60.956
459.14	59.944
459.49	63.415
459.84	60.879
460.19	61.465
460.54	62.105
460.89	61.768
461.24	60.666
461.59	62.319
461.94	61.315
462.29	62.377
462.64	61.544
462.99	61.704
463.34	62.569
463.69	60.760
464.04	60.924
464.39	61.379
464.74	60.012
465.09	59.888
465.44	60.157
465.79	61.645
466.14	60.205
466.49	61.584
466.84	60.550
467.19	60.510
467.54	60.985
467.89	61.785
468.24	61.463
468.59	60.803
468.94	60.600
469.29	60.212
469.64	62.204
469.99	62.483
470.34	61.160
470.68	60.818
471.03	61.566
471.38	60.431
471.73	61.043
472.08	62.612
472.43	63.456
472.78	60.784
473.13	59.169
473.48	59.622
473.83	60.891
474.17	61.523
474.52	61.683
474.87	59.831
475.22	60.930
475.57	60.011
475.92	60.523
476.27	60.548
476.61	60.193
476.96	59.909
477.31	59.331
477.66	59.209
478.01	58.736
478.36	61.144
478.70	60.634
479.05	59.767
479.40	59.594
479.75	59.936
480.10	59.765
480.45	58.656
480.79	59.632
481.14	61.145
481.49	59.743
481.84	58.435
482.19	58.731
482.53	59.762
482.88	60.163
483.23	58.951
483.58	59.263
483.92	58.998
484.27	58.463
484.62	58.633
484.97	58.565
485.31	56.547
485.66	53.983
486.01	54.079
486.36	54.311
486.70	55.857
487.05	56.844
487.40	56.963
487.75	57.594
488.09	56.866
488.44	57.168
488.79	58.365
489.13	57.893
489.48	58.187
489.83	57.972
490.17	58.738
490.52	58.953
490.87	57.441
491.22	58.267
491.56	59.559
491.91	57.801
492.26	60.106
492.60	58.153
492.95	59.427
493.30	58.188
493.64	58.993
493.99	59.469
494.34	58.333
494.68	58.616
495.03	58.893
495.37	58.540
495.72	58.396
496.07	60.010
496.41	57.370
496.76	58.501
497.11	58.920
497.45	58.901
497.80	60.172
498.14	57.935
498.49	57.943
498.84	58.148
499.18	57.790
499.53	57.262
499.87	57.496
500.22	59.134
500.56	57.823
500.91	58.803
501.26	58.522
501.60	57.500
501.95	57.499
502.29	57.913
502.64	58.341
502.98	57.274
503.33	58.345
503.67	58.033
504.02	57.206
504.36	57.801
504.71	58.486
505.06	59.348
505.40	57.423
505.75	58.037
506.09	58.355
506.44	57.712
506.78	57.897
507.13	57.588
507.47	58.165
507.82	57.928
508.16	57.573
508.51	57.541
508.85	57.543
509.19	57.407
509.54	57.909
509.88	58.118
510.23	57.474
510.57	57.256
510.92	57.920
511.26	58.636
511.61	58.178
511.95	59.151
512.30	58.634
512.64	57.548
512.98	56.898
513.33	57.239
513.67	57.694
514.02	58.039
514.36	56.966
514.70	57.968
515.05	59.099
515.39	59.021
515.74	59.088
516.08	58.820
516.42	57.200
516.77	58.231
517.11	59.788
517.46	59.004
517.80	58.838
518.14	58.604
518.49	57.866
518.83	58.353
519.17	57.590
519.52	58.082
519.86	58.591
520.20	57.611
520.55	57.960
520.89	59.519
521.23	60.064
521.58	58.597
521.92	58.140
522.26	58.165
522.61	58.759
522.95	59.909
523.29	57.270
523.64	57.978
523.98	58.132
524.32	58.223
524.66	59.286
525.01	60.223
525.35	58.723
525.69	58.449
526.04	58.241
526.38	58.126
526.72	58.251
527.06	57.834
527.41	58.703
527.75	57.677
528.09	59.632
528.43	59.905
528.78	58.204
529.12	59.250
529.46	58.669
529.80	57.735
530.15	56.628
530.49	59.838
530.83	58.429
531.17	59.452
531.51	58.058
531.86	57.317
532.20	58.925
532.54	57.034
532.88	58.203
533.22	56.700
533.57	57.881
533.91	58.129
534.25	57.552
534.59	56.757
534.93	56.059
535.27	57.006
535.62	58.355
535.96	57.710
536.30	58.444
536.64	56.596
536.98	57.323
537.32	58.149
537.66	58.181
538.01	56.033
538.35	57.390
538.69	55.385
539.03	55.570
539.37	56.942
539.71	56.685
540.05	55.533
540.39	56.022
540.73	58.380
541.07	56.395
541.42	57.239
541.76	55.683
542.10	54.976
542.44	56.272
542.78	57.252
543.12	56.065
543.46	55.771
543.80	55.261
544.14	57.811
544.48	54.479
544.82	54.876
545.16	56.457
545.50	55.773
545.84	55.820
546.18	55.750
546.52	54.058
546.86	56.537
547.20	55.826
547.54	56.183
547.88	54.858
548.22	54.593
548.56	54.436
548.90	55.413
549.24	56.667
549.58	56.014
549.92	57.153
550.26	57.565
550.60	56.982
550.94	55.896
551.28	55.413
551.62	56.391
551.96	54.758
552.30	56.332
552.64	55.226
552.98	56.960
553.32	55.083
553.66	56.126
554.00	56.731
554.34	55.311
554.68	56.078
555.02	55.389
555.36	56.430
555.69	55.790
556.03	54.610
556.37	55.761
556.71	54.029
557.05	55.572
557.39	55.539
557.73	56.354
558.07	54.861
558.41	55.942
558.75	55.812
559.08	55.814
559.42	55.389
559.76	54.740
560.10	55.111
560.44	55.048
560.78	54.245
561.12	55.011
561.45	53.946
561.79	54.952
562.13	54.360
562.47	55.643
562.81	55.195
563.15	53.895
563.48	52.856
563.82	53.420
564.16	53.284
564.50	55.224
564.84	54.527
565.17	52.781
565.51	53.877
565.85	52.765
566.19	53.907
566.52	52.949
566.86	51.770
567.20	53.268
567.54	51.295
567.88	50.840
568.21	51.114
568.55	50.861
568.89	50.299
569.23	50.412
569.56	49.103
569.90	49.540
570.24	47.509
570.57	47.834
570.91	47.670
571.25	47.166
571.59	46.813
571.92	46.671
572.26	47.876
572.60	47.644
572.93	47.235
573.27	46.705
573.61	47.481
573.95	46.510
574.28	46.326
574.62	45.199
574.96	46.506
575.29	46.640
575.63	45.890
575.97	46.848
576.30	46.393
576.64	46.502
576.98	46.140
577.31	45.813
577.65	44.908
577.98	46.038
578.32	45.260
578.66	44.923
578.99	46.197
579.33	46.202
579.67	46.309
580.00	45.590
580.34	45.613
580.67	46.007
581.01	45.079
581.35	45.043
581.68	43.971
582.02	44.901
582.35	44.892
582.69	45.353
583.02	44.822
583.36	45.889
583.70	46.343
584.03	45.807
584.37	45.929
584.70	45.353
585.04	45.511
585.37	45.589
585.71	44.814
586.04	44.687
586.38	45.435
586.72	44.591
587.05	46.136
587.39	45.343
587.72	45.186
588.06	45.198
588.39	45.900
588.73	45.066
589.06	46.395
589.40	45.958
589.73	44.951
590.07	46.373
590.40	46.422
590.73	47.771
591.07	48.015
591.40	46.609
591.74	46.821
592.07	47.284
592.41	45.345
592.74	45.988
593.08	44.581
593.41	45.151
593.75	45.284
594.08	45.734
594.41	46.069
594.75	45.877
595.08	46.004
595.42	44.846
595.75	45.589
596.09	46.382
596.42	46.364
596.75	47.082
597.09	47.634
597.42	46.164
597.75	46.533
598.09	45.902
598.42	45.861
598.76	45.340
599.09	45.618
599.42	45.053
599.76	45.775
600.09	45.444
600.42	44.595
600.76	44.050
601.09	44.896
601.42	45.080
601.76	44.247
602.09	46.210
602.42	46.265
602.76	45.554
603.09	46.407
603.42	45.942
603.76	44.622
604.09	44.822
604.42	45.793
604.76	45.701
605.09	46.035
605.42	46.469
605.75	45.353
606.09	45.571
606.42	45.885
606.75	45.152
607.09	45.301
607.42	45.184
607.75	44.420
608.08	46.078
608.42	46.111
608.75	46.106
609.08	45.909
609.41	45.902
609.75	46.394
610.08	46.203
610.41	46.064
610.74	45.428
611.07	45.842
611.41	46.929
611.74	46.170
612.07	45.076
612.40	47.135
612.73	45.829
613.07	45.843
613.40	47.467
613.73	46.154
614.06	46.434
614.39	45.247
614.72	46.141
615.06	45.667
615.39	46.413
615.72	44.816
616.05	47.185
616.38	46.163
616.71	45.171
617.05	46.806
617.38	46.519
617.71	45.772
618.04	45.704
618.37	48.013
618.70	46.313
619.03	47.010
619.36	46.975
619.69	47.003
620.03	47.633
620.36	45.999
620.69	45.753
621.02	47.923
621.35	47.915
621.68	48.085
622.01	48.139
622.34	47.264
622.67	49.021
623.00	46.960
623.33	47.494
623.66	46.691
623.99	45.986
624.32	47.395
624.65	46.365
624.99	46.804
625.32	48.170
625.65	46.279
625.98	47.077
626.31	48.490
626.64	48.237
626.97	47.405
627.30	47.990
627.63	47.232
627.96	47.273
628.29	49.302
628.62	49.420
628.95	50.902
629.28	49.557
629.61	49.665
629.94	48.936
630.26	50.049
630.59	48.751
630.92	47.189
631.25	50.051
631.58	51.178
631.91	48.144
632.24	49.177
632.57	48.444
632.90	49.708
633.23	49.281
633.56	51.918
633.89	50.718
634.22	51.001
634.55	52.497
634.88	49.510
635.20	49.750
635.53	50.517
635.86	52.436
636.19	51.365
636.52	48.415
636.85	49.216
637.18	47.138
637.51	48.689
637.83	50.261
638.16	49.733
638.49	48.598
638.82	49.673
639.15	51.862
639.48	49.465
639.81	51.667
640.13	50.704
640.46	51.412
640.79	51.079
641.12	50.000
641.45	50.655
641.77	49.190
642.10	50.076
642.43	51.730
642.76	47.476
643.09	51.278
643.41	51.037
643.74	53.473
644.07	51.294
644.40	51.410
644.73	50.847
645.05	50.611
645.38	51.827
645.71	51.020
646.04	46.801
646.36	51.910
646.69	51.399
647.02	53.552
647.35	55.210
647.67	54.159
648.00	51.630
648.33	51.356
648.66	50.417
648.98	48.913
649.31	50.307
649.64	48.044
649.96	48.973
650.29	49.510
650.62	48.270
650.94	49.138
651.27	51.237
651.60	50.699
651.92	51.613
652.25	49.916
652.58	48.515
652.90	50.337
653.23	49.236
653.56	48.430
653.88	47.440
654.21	47.611
654.54	47.508
654.86	46.667
655.19	44.678
655.52	44.294
655.84	38.021
656.17	44.853
656.49	59.091
656.82	59.243
657.15	45.385
657.47	34.348
657.80	26.012
658.13	27.437
658.45	40.538
658.78	40.019
659.10	40.357
659.43	41.292
659.75	41.663
660.08	42.828
660.41	42.191
660.73	45.041
661.06	46.599
661.38	49.419
661.71	50.205
662.03	49.683
662.36	50.442
662.68	49.247
663.01	51.695
663.33	44.492
663.66	48.780
663.98	49.213
664.31	50.330
664.63	45.270
664.96	51.204
665.28	50.858
665.61	48.380
665.93	45.824
666.26	52.743
666.58	49.893
666.91	52.466
667.23	47.235
667.56	51.264
667.88	53.037
668.21	49.330
668.53	54.483
668.86	52.278
669.18	50.355
669.50	49.770
669.83	52.029
670.15	50.238
670.48	47.586
670.80	49.672
671.13	48.284
671.45	50.913
671.77	47.629
672.10	46.394
672.42	48.664
672.75	44.643
673.07	44.000
673.39	47.948
673.72	48.902
674.04	50.410
674.37	47.764
674.69	47.119
675.01	47.222
675.34	50.328
675.66	48.584
675.98	50.000
676.31	48.869
676.63	53.288
676.95	47.059
677.28	46.789
677.60	49.265
677.92	47.007
678.25	45.553
678.57	47.454
678.89	49.254
679.22	48.240
679.54	46.939
679.86	46.484
680.18	45.769
680.51	44.038
680.83	46.199
681.15	47.741
681.48	45.090
681.80	43.763
682.12	42.917
682.44	43.662
682.77	44.000
683.09	46.652
683.41	48.605
683.73	45.313
684.06	43.805
684.38	46.154
684.70	43.992
685.02	44.421
685.34	45.988
685.67	44.465
685.99	42.349
686.31	41.379
686.63	45.221
686.96	45.640
687.28	42.914
687.60	46.692
687.92	42.802
688.24	41.800
688.56	42.325
688.89	42.094
689.21	43.049
689.53	43.919
689.85	45.169
690.17	44.176
690.49	44.928
690.82	43.437
691.14	46.377
691.46	46.172
691.78	41.758
692.10	43.100
692.42	45.495
692.74	42.609
693.06	40.449
693.39	43.560
693.71	42.667
694.03	43.864
694.35	43.694
694.67	44.750
694.99	45.876
695.31	45.995
695.63	44.146
695.95	44.529
696.27	43.836
696.59	43.548
696.91	43.855
697.23	45.178
697.56	41.487
697.88	43.659
698.20	44.276
698.52	40.654
698.84	42.105
699.16	42.553
699.48	42.716
699.80	43.928
700.12	43.164
700.44	44.507
700.76	44.382
701.08	46.526
701.40	42.216
701.72	42.462
702.04	46.855
702.36	40.854
702.68	46.341
703.00	47.953
703.32	39.554
703.64	44.880
703.96	41.349
704.28	45.482
704.60	41.159
704.91	45.455
705.23	48.418
705.55	42.414
705.87	46.831
706.19	42.491
706.51	41.901
706.83	41.401
707.15	44.512
707.47	41.598
707.79	40.863
708.11	42.931
708.43	43.401
708.74	41.223
709.06	38.235
709.38	44.092
709.70	42.042
710.02	43.302
710.34	42.667
710.66	40.065
710.98	42.724
711.29	40.584
711.61	41.290
711.93	40.000
712.25	41.608
712.57	41.754
712.89	37.363
713.20	42.553
713.52	42.701
713.84	41.290
714.16	39.806
714.48	39.873
714.80	38.339
715.11	45.349
715.43	37.578
715.75	43.478
716.07	38.855
716.39	41.077
716.70	46.043
717.02	38.431
717.34	42.045
717.66	46.121
717.97	38.095
718.29	41.732
718.61	41.631
718.93	41.860
719.24	45.018
719.56	39.700
719.88	42.164
720.20	42.292
720.51	39.453
720.83	48.249
721.15	34.959
721.46	37.405
721.78	35.857
722.10	35.857
722.42	41.129
722.73	38.996
723.05	39.592
723.37	37.395
723.68	42.000
724.00	36.170
724.32	41.004
724.63	40.741
724.95	37.607
725.27	42.194
725.58	43.621
725.90	43.515
726.22	39.130
726.53	36.078
726.85	44.526
727.16	40.741
727.48	37.931
727.80	37.500
728.11	39.344
728.43	37.891
728.74	36.905
729.06	37.600
729.38	35.178
729.69	35.587
730.01	36.803
730.32	40.221
730.64	37.879
730.96	41.608
731.27	36.789
731.59	38.413
731.90	34.628
732.22	35.577
732.53	36.824
732.85	35.570
733.16	35.974
733.48	37.838
733.80	40.878
734.11	43.581
734.43	37.771
734.74	35.135
735.06	33.141
735.37	34.043
735.69	36.893
736.00	32.673
736.32	37.943
736.63	37.931
736.95	35.274
737.26	34.828
737.58	35.417
737.89	39.863
738.21	33.808
738.52	41.065
738.83	38.776
739.15	34.177
739.46	30.739
739.78	34.155
740.09	35.616
740.41	35.000
740.72	35.106
741.04	38.800
741.35	32.456
741.66	39.556
741.98	39.904
742.29	43.564
742.61	38.537
742.92	39.474
743.23	31.132
743.55	39.189
743.86	38.565
744.18	36.275
744.49	38.579
744.80	39.286
745.12	33.178
745.43	43.602
745.74	40.090
746.06	35.514
746.37	32.569
746.68	37.500
747.00	38.278
747.31	35.577
747.62	40.826
747.94	37.555
748.25	38.532
748.56	40.889
748.88	36.150
749.19	39.524
749.50	28.155
749.82	30.986
750.13	32.083
750.44	30.769
750.75	38.007
751.07	34.875
751.38	36.525
751.69	33.977
752.01	34.375
752.32	35.769
752.63	36.194
752.94	35.600
753.26	34.728
753.57	39.583
753.88	38.462
754.19	33.068
754.51	35.714
754.82	33.333
755.13	30.435
755.44	38.618
755.75	28.400
756.07	32.103
756.38	30.216
756.69	37.884
757.00	33.022
757.31	33.333
757.63	28.395
757.94	31.638
758.25	30.688
758.56	33.696
758.87	32.440
759.18	34.385
759.50	31.650
759.81	33.445
760.12	32.615
760.43	30.060
760.74	31.073
761.05	30.663
761.36	30.086
761.67	32.326
761.99	30.241
762.30	35.401
762.61	32.510
762.92	36.325
763.23	32.377
763.54	27.273
763.85	28.980
764.16	30.488
764.47	36.000
764.78	29.286
765.10	29.836
765.41	31.003
765.72	29.193
766.03	29.043
766.34	33.077
766.65	29.707
766.96	31.455
767.27	35.149
767.58	26.404
767.89	33.951
768.20	27.072
768.51	34.171
768.82	37.981
769.13	37.168
769.44	28.452
769.75	22.650
770.06	35.874
770.37	26.471
770.68	30.583
770.99	28.155
771.30	36.975
771.61	31.837
771.92	36.100
772.23	32.883
772.54	27.072
772.85	33.721
773.16	30.688
773.47	23.669
773.78	34.483
774.09	30.625
774.39	34.161
774.70	31.973
775.01	35.172
775.32	30.714
775.63	26.316
775.94	27.068
776.25	24.000
776.56	28.926
776.87	30.952
777.18	24.324
777.48	26.126
777.79	37.795
778.10	33.945
778.41	31.579
778.72	24.370
779.03	23.239
779.34	27.703
779.65	27.465
779.95	30.464
780.26	21.583
780.57	30.935
780.88	23.944
781.19	15.126
781.50	28.859
781.80	29.240
782.11	23.837
782.42	31.447
782.73	34.641
783.04	28.276
783.34	26.718
783.65	22.148
783.96	23.846
784.27	30.000
784.57	29.787
784.88	23.077
785.19	40.909
785.50	27.273
785.81	21.905
786.11	31.092
786.42	35.398
786.73	18.868
787.04	16.514
787.34	16.832
787.65	32.500
787.96	23.140
788.26	26.812
788.57	33.333
788.88	32.520
789.19	23.200
789.49	19.847
789.80	34.848
790.11	16.038
790.41	30.693
790.72	26.596
791.03	18.478
791.33	21.176
791.64	33.333
791.95	34.783
792.25	32.955
792.56	41.026
792.87	5.128
793.17	6.410
793.48	27.381
793.79	21.250
794.09	35.577
794.40	32.292
794.70	31.532
795.01	19.531
795.32	32.174
795.62	6.522
795.93	19.811
796.23	27.273
796.54	17.073
796.85	8.333
797.15	24.242
797.46	30.435
797.76	14.474
798.07	26.136
798.37	23.171
798.68	16.129
798.99	17.568
799.29	28.916
799.60	16.667
799.90	24.615
800.21	36.364
800.51	13.333
800.82	18.667
801.12	4.167
801.43	1.667
801.73	17.568
802.04	28.571
802.34	-8.197
802.65	25.373
802.95	40.000
803.26	13.793
803.56	21.538
803.87	20.755
804.17	9.677
804.48	11.765
804.78	-21.951
805.09	17.391
805.39	17.647
805.70	-6.383
806.00	24.561
806.30	32.051
806.61	28.947
806.91	18.919
807.22	32.895
807.52	22.727
807.83	1.695
808.13	0.000
808.43	-1.667
808.74	-8.621
809.04	11.111
809.35	8.163
809.65	11.667
809.95	-6.122
810.26	28.169
810.56	8.333
810.86	10.204
811.17	38.462
811.47	6.383
811.77	-4.167
812.08	13.208
812.38	25.000
812.69	20.000
812.99	7.317
813.29	13.514
813.59	21.622
813.90	14.545
814.20	20.000
814.50	5.000
814.81	10.909
815.11	-8.772
815.41	18.605
815.72	0.000
816.02	14.286
816.32	24.324
816.62	16.667
816.93	8.889
817.23	-33.333
817.53	0.000
817.84	64.865
818.14	2.439
818.44	24.000
818.74	14.286
819.04	17.073
819.35	-2.778
819.65	6.818
819.95	-72.222
820.25	0.000
820.56	-9.524
820.86	5.556
821.16	-13.636
821.46	4.348
821.76	-8.621
822.07	10.870
822.37	15.152
822.67	41.463
822.97	-2.703
823.27	-5.714
823.57	13.793
823.88	2.941
824.18	0.000
824.48	14.286
824.78	14.286
825.08	-3.571
825.38	-14.815
825.69	-12.903
825.99	4.878
826.29	-3.704
826.59	12.500
826.89	19.355
827.19	-4.348
827.49	-25.000
827.79	-26.087
828.09	12.903
828.39	20.833
828.70	-9.375
829.00	13.793
829.30	5.405
829.60	-54.167
829.90	7.407
830.20	-25.000
830.50	-50.000
830.80	-117.647
831.10	-27.273
831.40	-20.588
831.70	23.077
832.00	-12.121
832.30	-5.882
832.60	16.216
832.90	1200.000
833.20	-3.571
833.50	-45.000
833.80	-21.053
834.10	-4.167
834.40	-45.455
834.70	-93.333
835.00	-110.000
835.30	-41.667
835.60	-23.810
835.90	-19.048
836.20	-20.000
836.50	-12.500
836.80	-63.158
837.10	16.216
837.40	33.333
837.70	-43.478
838.00	37.500
838.30	-31.579
838.60	-100.000
838.90	-230.000
839.19	-83.333
839.49	-92.308
839.79	-10.526
840.09	-200.000
840.39	-90.000
840.69	4.545
840.99	38.095
841.29	-41.667
841.59	-7.692
841.88	-40.000
842.18	28.571
842.48	-16.667
842.78	-185.714
843.08	-92.857
843.38	-50.000
843.68	-31.250
843.97	64.286
844.27	-255.556
844.57	-100.000
844.87	-66.667
845.17	4.545
845.47	900.000
845.76	-40.000
846.06	-75.000
846.36	-1000.000
846.66	21.053
846.96	-40.909
847.25	-100.000
847.55	-144.444
847.85	-76.190
848.15	53.846
848.44	-383.333
848.74	-66.667
849.04	-23.077
849.34	-450.000
849.63	-163.636
849.93	-64.286
850.23	0.000
850.53	-237.500
850.82	-33.333
851.12	60.000
851.42	-47.059
851.71	-137.500
852.01	-35.294
852.31	-46.154
852.61	550.000
852.90	-17.647
853.20	0.000
853.50	-43.750
853.79	-107.143
854.09	-250.000
854.39	-25.000
854.68	7.500
854.98	-23.810
855.28	-16.000
855.57	-4.167
855.87	-20.833
856.17	-44.000
856.46	-12.500
856.76	40.000
857.05	0.000
857.35	-75.000
857.65	0.000
857.94	-91.667
858.24	-108.333
858.53	-40.000
858.83	-36.364
859.13	16.000
859.42	-121.429
859.72	-137.500
860.01	-4.167
860.31	-250.000
860.60	-50.000
860.90	-100.000
861.20	-216.667
861.49	40.000
861.79	25.000
862.08	350.000
862.38	-100.000
862.67	385.714
862.97	200.000
863.26	-54.545
863.56	-72.727
863.85	-26.316
864.15	-5.882
864.44	-240.000
864.74	-90.000
865.03	-77.778
865.33	-21.429
865.62	185.714
865.92	-10.526
866.21	-77.778
866.51	-127.273
866.80	-33.333
867.10	-212.500
867.39	-18.750
867.69	-93.333
867.98	-60.000
868.27	-58.824
868.57	0.000
868.86	950.000
869.16	-350.000
869.45	-171.429
869.75	800.000
870.04	30.000
870.33	-1200.000
870.63	-47.368
870.92	-150.000
871.22	-1300.000
871.51	-271.429
871.80	-133.333
872.10	-200.000
>>>>>End Processed Spectral Data<<<<<
