SpectraSuite Data File
++++++++++++++++++++++++++++++++++++
Date: Wed May 13 21:07:14 PDT 2015
User: schluterlab
Dark Spectrum Present: Yes
Reference Spectrum Present: Yes
Number of Sampled Component Spectra: 1
Spectrometers: USB2E3373
Integration Time (usec): 3000 (USB2E3373)
Spectra Averaged: 3 (USB2E3373)
Boxcar Smoothing: 0 (USB2E3373)
Correct for Electrical Dark: No (USB2E3373)
Strobe/Lamp Enabled: No (USB2E3373)
Correct for Detector Non-linearity: No (USB2E3373)
Correct for Stray Light: No (USB2E3373)
Number of Pixels in Processed Spectrum: 2048
>>>>>Begin Processed Spectral Data<<<<<
178.53	0.000
178.91	900.000
179.29	191.667
179.67	-500.000
180.04	-233.333
180.42	260.000
180.80	1500.000
181.18	83.333
181.56	-225.000
181.94	-75.000
182.31	63.636
182.69	184.615
183.07	-240.000
183.45	216.667
183.83	144.444
184.20	171.429
184.58	-433.333
184.96	100.000
185.34	257.143
185.72	0.000
186.09	400.000
186.47	-40.000
186.85	100.000
187.23	250.000
187.61	400.000
187.98	1100.000
188.36	50.000
188.74	0.000
189.12	0.000
189.49	-30.000
189.87	83.333
190.25	240.000
190.63	1100.000
191.00	-40.000
191.38	180.000
191.76	350.000
192.14	108.333
192.51	-5.263
192.89	400.000
193.27	275.000
193.65	-200.000
194.02	163.636
194.40	180.000
194.78	-300.000
195.15	260.000
195.53	-40.000
195.91	-25.000
196.29	33.333
196.66	0.000
197.04	600.000
197.42	-40.000
197.79	-50.000
198.17	-137.500
198.55	-233.333
198.92	175.000
199.30	66.667
199.68	30.000
200.05	400.000
200.43	266.667
200.81	-1700.000
201.18	-440.000
201.56	-300.000
201.94	300.000
202.31	39.130
202.69	-100.000
203.07	-33.333
203.44	-80.000
203.82	-200.000
204.19	-50.000
204.57	0.000
204.95	-116.667
205.32	0.000
205.70	-400.000
206.08	0.000
206.45	-16.667
206.83	250.000
207.20	0.000
207.58	-80.000
207.96	-1500.000
208.33	-114.286
208.71	-1500.000
209.08	175.000
209.46	325.000
209.84	0.000
210.21	200.000
210.59	600.000
210.96	180.000
211.34	1500.000
211.71	-700.000
212.09	-33.333
212.46	-150.000
212.84	66.667
213.22	200.000
213.59	-700.000
213.97	-50.000
214.34	-250.000
214.72	53.846
215.09	125.000
215.47	88.889
215.84	700.000
216.22	-50.000
216.59	-50.000
216.97	700.000
217.34	66.667
217.72	0.000
218.09	33.333
218.47	-100.000
218.84	-200.000
219.22	-112.500
219.59	33.333
219.97	0.000
220.34	0.000
220.72	60.000
221.09	0.000
221.47	0.000
221.84	-1000.000
222.22	0.000
222.59	300.000
222.97	-433.333
223.34	-25.000
223.72	-1300.000
224.09	-950.000
224.46	18.182
224.84	-25.000
225.21	-142.857
225.59	-225.000
225.96	-16.667
226.34	-70.000
226.71	-128.571
227.08	100.000
227.46	0.000
227.83	0.000
228.21	31.250
228.58	-150.000
228.95	-35.294
229.33	31.250
229.70	12.500
230.08	-7.692
230.45	-50.000
230.82	-58.333
231.20	100.000
231.57	-225.000
231.95	1200.000
232.32	25.000
232.69	17.647
233.07	-400.000
233.44	-4.348
233.81	-500.000
234.19	16.667
234.56	-20.000
234.93	20.000
235.31	0.000
235.68	-7.692
236.05	-30.769
236.43	16.667
236.80	9.091
237.17	-73.333
237.55	-23.529
237.92	17.241
238.29	-3.704
238.67	30.556
239.04	19.355
239.41	8.511
239.79	19.149
240.16	2.326
240.53	21.429
240.91	26.786
241.28	16.071
241.65	30.645
242.02	17.105
242.40	18.841
242.77	0.000
243.14	5.128
243.51	12.766
243.89	22.115
244.26	33.019
244.63	4.808
245.00	15.625
245.38	16.807
245.75	15.574
246.12	22.556
246.49	10.569
246.87	10.084
247.24	26.351
247.61	15.232
247.98	23.718
248.36	18.343
248.73	11.798
249.10	21.212
249.47	17.742
249.84	20.000
250.22	19.403
250.59	12.150
250.96	22.273
251.33	12.919
251.70	24.686
252.08	19.665
252.45	23.868
252.82	24.335
253.19	21.790
253.56	18.705
253.94	24.555
254.31	19.718
254.68	24.497
255.05	20.792
255.42	20.979
255.79	19.632
256.16	22.713
256.54	18.095
256.91	18.987
257.28	19.497
257.65	16.561
258.02	21.408
258.39	19.883
258.76	18.023
259.14	19.034
259.51	19.101
259.88	21.951
260.25	19.444
260.62	19.382
260.99	21.485
261.36	20.466
261.73	20.494
262.10	19.847
262.47	18.519
262.85	18.657
263.22	21.026
263.59	18.442
263.96	20.925
264.33	19.952
264.70	23.488
265.07	21.296
265.44	23.908
265.81	18.535
266.18	20.957
266.55	20.306
266.92	20.975
267.29	18.107
267.66	21.444
268.03	21.193
268.40	19.068
268.77	20.868
269.14	20.816
269.51	21.561
269.88	19.348
270.25	19.703
270.62	17.623
270.99	18.701
271.36	20.635
271.73	18.675
272.10	19.429
272.47	21.113
272.84	22.047
273.21	20.744
273.58	19.057
273.95	20.566
274.32	22.201
274.69	20.583
275.06	22.792
275.43	19.021
275.80	20.745
276.17	20.074
276.54	17.762
276.91	19.164
277.28	19.495
277.65	20.280
278.02	20.000
278.39	19.183
278.76	19.565
279.13	20.583
279.50	18.448
279.87	19.928
280.23	20.721
280.60	18.685
280.97	18.831
281.34	22.240
281.71	17.886
282.08	19.145
282.45	19.344
282.82	18.850
283.19	19.817
283.56	17.344
283.92	20.795
284.29	18.721
284.66	19.769
285.03	19.218
285.40	17.674
285.77	19.369
286.14	20.365
286.51	22.189
286.87	18.154
287.24	19.027
287.61	19.277
287.98	18.824
288.35	17.884
288.72	17.934
289.08	19.801
289.45	18.649
289.82	22.390
290.19	18.373
290.56	17.614
290.93	18.094
291.29	17.510
291.66	18.306
292.03	18.937
292.40	17.362
292.77	18.876
293.13	18.410
293.50	18.170
293.87	16.800
294.24	16.799
294.60	18.205
294.97	15.079
295.34	15.172
295.71	15.375
296.08	17.932
296.44	15.434
296.81	16.931
297.18	18.500
297.55	15.802
297.91	17.267
298.28	16.465
298.65	15.394
299.02	15.385
299.38	15.215
299.75	16.346
300.12	15.116
300.48	16.842
300.85	14.665
301.22	15.215
301.59	15.493
301.95	14.866
302.32	15.053
302.69	15.819
303.05	15.393
303.42	14.773
303.79	15.878
304.15	14.677
304.52	16.022
304.89	15.061
305.25	12.953
305.62	15.076
305.99	16.866
306.35	16.614
306.72	16.785
307.09	14.703
307.45	14.377
307.82	15.789
308.19	14.107
308.55	16.070
308.92	17.485
309.29	14.715
309.65	14.985
310.02	16.600
310.38	16.768
310.75	16.075
311.12	16.521
311.48	16.123
311.85	16.831
312.22	18.375
312.58	17.101
312.95	17.711
313.31	17.264
313.68	16.889
314.05	18.431
314.41	18.348
314.78	20.304
315.14	18.333
315.51	20.552
315.87	19.462
316.24	20.294
316.61	21.005
316.97	21.204
317.34	21.390
317.70	23.194
318.07	23.514
318.43	24.029
318.80	23.560
319.16	25.287
319.53	25.179
319.89	25.113
320.26	26.525
320.62	27.433
320.99	27.519
321.35	29.186
321.72	29.451
322.08	29.797
322.45	31.822
322.81	31.331
323.18	32.200
323.54	33.303
323.91	35.050
324.27	35.554
324.64	36.760
325.00	37.358
325.37	37.287
325.73	38.973
326.10	40.370
326.46	41.973
326.83	42.476
327.19	43.252
327.56	44.883
327.92	44.811
328.29	46.077
328.65	49.430
329.01	48.637
329.38	51.652
329.74	49.270
330.11	51.398
330.47	49.653
330.84	50.812
331.20	50.470
331.56	53.442
331.93	52.972
332.29	53.866
332.66	52.542
333.02	54.127
333.38	56.140
333.75	55.290
334.11	56.771
334.48	56.321
334.84	57.420
335.20	56.089
335.57	56.832
335.93	55.670
336.29	57.005
336.66	57.265
337.02	58.783
337.38	56.397
337.75	57.537
338.11	57.301
338.47	57.449
338.84	57.131
339.20	59.436
339.56	57.423
339.93	60.588
340.29	58.839
340.65	59.367
341.02	58.319
341.38	60.389
341.74	56.807
342.11	57.473
342.47	58.577
342.83	59.395
343.20	59.222
343.56	59.199
343.92	57.920
344.28	58.847
344.65	58.776
345.01	58.192
345.37	60.033
345.73	59.477
346.10	59.551
346.46	60.163
346.82	59.149
347.19	60.206
347.55	59.532
347.91	60.483
348.27	60.174
348.63	58.654
349.00	59.513
349.36	59.890
349.72	59.242
350.08	59.828
350.45	59.749
350.81	60.016
351.17	59.892
351.53	59.073
351.89	58.936
352.26	59.614
352.62	61.473
352.98	60.942
353.34	62.319
353.70	60.826
354.07	59.843
354.43	61.820
354.79	61.458
355.15	60.404
355.51	60.061
355.87	59.891
356.24	62.039
356.60	58.014
356.96	60.629
357.32	60.372
357.68	61.421
358.04	60.357
358.40	62.481
358.77	60.245
359.13	61.401
359.49	61.771
359.85	61.334
360.21	61.912
360.57	61.977
360.93	62.140
361.29	61.954
361.66	62.263
362.02	61.824
362.38	62.112
362.74	61.421
363.10	63.557
363.46	61.095
363.82	61.567
364.18	62.292
364.54	62.144
364.90	60.976
365.26	62.562
365.62	63.281
365.98	61.993
366.35	62.199
366.71	61.555
367.07	63.855
367.43	62.997
367.79	63.238
368.15	62.518
368.51	62.940
368.87	63.224
369.23	63.345
369.59	63.073
369.95	63.716
370.31	62.552
370.67	64.301
371.03	63.474
371.39	65.153
371.75	64.214
372.11	65.028
372.47	64.600
372.83	63.870
373.19	64.317
373.55	65.751
373.91	63.791
374.27	64.523
374.63	65.363
374.99	65.808
375.35	63.699
375.71	64.334
376.07	66.004
376.42	64.773
376.78	65.918
377.14	65.966
377.50	66.102
377.86	65.936
378.22	67.067
378.58	67.213
378.94	67.188
379.30	66.458
379.66	66.893
380.02	66.238
380.38	65.904
380.74	66.408
381.09	65.802
381.45	67.715
381.81	66.667
382.17	65.532
382.53	67.015
382.89	66.466
383.25	67.346
383.61	68.523
383.97	68.937
384.32	67.108
384.68	68.723
385.04	66.952
385.40	67.559
385.76	67.883
386.12	68.044
386.48	69.342
386.83	69.775
387.19	69.340
387.55	67.075
387.91	69.557
388.27	68.496
388.62	69.413
388.98	70.526
389.34	68.296
389.70	68.437
390.06	68.813
390.42	70.425
390.77	68.802
391.13	69.823
391.49	69.323
391.85	70.160
392.20	68.045
392.56	69.016
392.92	68.227
393.28	69.146
393.64	71.254
393.99	68.666
394.35	69.815
394.71	69.231
395.07	68.805
395.42	69.348
395.78	70.013
396.14	70.006
396.50	70.260
396.85	70.236
397.21	69.351
397.57	69.752
397.92	70.659
398.28	70.615
398.64	71.403
399.00	70.312
399.35	71.510
399.71	70.297
400.07	70.000
400.42	72.351
400.78	70.695
401.14	70.999
401.49	70.461
401.85	71.499
402.21	71.765
402.57	72.655
402.92	70.776
403.28	70.857
403.63	70.924
403.99	71.145
404.35	71.820
404.70	70.332
405.06	71.403
405.42	71.420
405.77	72.062
406.13	71.086
406.49	72.319
406.84	72.650
407.20	70.870
407.55	72.273
407.91	71.807
408.27	70.867
408.62	72.314
408.98	71.517
409.34	71.597
409.69	73.619
410.05	72.886
410.40	71.637
410.76	72.503
411.11	72.388
411.47	73.988
411.83	73.862
412.18	73.615
412.54	72.556
412.89	72.476
413.25	71.091
413.60	72.414
413.96	71.660
414.31	72.750
414.67	70.984
415.03	73.342
415.38	72.523
415.74	73.034
416.09	75.545
416.45	74.778
416.80	73.691
417.16	73.144
417.51	73.543
417.87	73.280
418.22	75.760
418.58	73.325
418.93	74.890
419.29	75.908
419.64	74.173
420.00	75.302
420.35	74.656
420.71	74.406
421.06	74.231
421.42	75.426
421.77	74.913
422.12	75.244
422.48	74.700
422.83	74.247
423.19	75.216
423.54	76.148
423.90	75.534
424.25	77.239
424.61	75.724
424.96	75.340
425.31	74.649
425.67	76.837
426.02	76.443
426.38	77.488
426.73	75.687
427.09	77.674
427.44	76.923
427.79	76.485
428.15	77.064
428.50	77.825
428.85	77.737
429.21	76.421
429.56	76.993
429.92	77.980
430.27	76.125
430.62	76.285
430.98	76.150
431.33	78.291
431.68	78.328
432.04	78.535
432.39	78.002
432.74	78.541
433.10	79.431
433.45	79.231
433.80	78.333
434.16	78.755
434.51	80.163
434.86	79.800
435.22	79.966
435.57	79.054
435.92	80.881
436.28	79.099
436.63	79.388
436.98	81.022
437.34	80.220
437.69	79.634
438.04	79.853
438.39	82.254
438.75	81.585
439.10	82.765
439.45	80.206
439.81	82.574
440.16	82.667
440.51	81.391
440.86	81.269
441.22	82.100
441.57	81.887
441.92	81.078
442.27	81.115
442.63	81.755
442.98	82.928
443.33	84.819
443.68	82.393
444.03	82.861
444.39	82.251
444.74	84.870
445.09	83.040
445.44	83.831
445.79	84.719
446.15	84.969
446.50	82.930
446.85	86.211
447.20	84.841
447.55	83.772
447.91	83.146
448.26	85.363
448.61	85.213
448.96	85.421
449.31	86.522
449.66	85.020
450.02	86.413
450.37	85.899
450.72	84.099
451.07	86.771
451.42	85.714
451.77	86.671
452.12	85.264
452.47	86.830
452.83	85.259
453.18	87.142
453.53	87.264
453.88	86.627
454.23	87.886
454.58	86.091
454.93	87.877
455.28	88.311
455.63	88.771
455.98	87.401
456.34	87.095
456.69	87.476
457.04	86.935
457.39	88.515
457.74	87.911
458.09	87.322
458.44	90.012
458.79	87.205
459.14	86.011
459.49	90.366
459.84	88.895
460.19	88.715
460.54	88.686
460.89	88.795
461.24	88.718
461.59	89.674
461.94	89.064
462.29	89.767
462.64	87.863
462.99	89.738
463.34	90.055
463.69	90.786
464.04	90.336
464.39	90.116
464.74	87.469
465.09	89.523
465.44	87.598
465.79	87.924
466.14	89.168
466.49	91.261
466.84	88.225
467.19	89.873
467.54	90.084
467.89	91.578
468.24	90.596
468.59	91.141
468.94	91.507
469.29	91.077
469.64	92.538
469.99	91.034
470.34	92.380
470.68	92.491
471.03	91.608
471.38	91.446
471.73	91.564
472.08	93.471
472.43	93.602
472.78	92.901
473.13	90.435
473.48	93.412
473.83	92.279
474.17	92.383
474.52	92.816
474.87	92.159
475.22	91.969
475.57	90.853
475.92	92.257
476.27	92.424
476.61	91.846
476.96	93.147
477.31	92.233
477.66	93.333
478.01	91.319
478.36	91.608
478.70	92.535
479.05	93.341
479.40	91.472
479.75	94.474
480.10	92.708
480.45	91.810
480.79	92.235
481.14	93.364
481.49	93.685
481.84	92.460
482.19	92.682
482.53	94.286
482.88	91.946
483.23	92.108
483.58	92.250
483.92	92.899
484.27	92.635
484.62	92.055
484.97	93.737
485.31	91.081
485.66	85.172
486.01	85.545
486.36	85.390
486.70	87.917
487.05	89.136
487.40	90.121
487.75	92.018
488.09	89.365
488.44	91.938
488.79	93.755
489.13	92.485
489.48	93.373
489.83	93.033
490.17	95.552
490.52	96.821
490.87	92.721
491.22	93.547
491.56	96.167
491.91	95.007
492.26	95.261
492.60	93.410
492.95	95.967
493.30	93.895
493.64	93.717
493.99	94.589
494.34	95.665
494.68	95.227
495.03	95.158
495.37	93.723
495.72	95.990
496.07	96.298
496.41	93.964
496.76	94.424
497.11	94.225
497.45	95.477
497.80	96.668
498.14	96.776
498.49	95.260
498.84	97.267
499.18	95.968
499.53	94.584
499.87	95.294
500.22	96.715
500.56	96.991
500.91	97.032
501.26	95.271
501.60	93.725
501.95	94.058
502.29	95.534
502.64	95.757
502.98	94.509
503.33	96.204
503.67	97.079
504.02	97.255
504.36	95.740
504.71	95.224
505.06	96.536
505.40	97.165
505.75	97.202
506.09	96.576
506.44	95.161
506.78	96.089
507.13	99.532
507.47	97.084
507.82	96.913
508.16	97.045
508.51	96.023
508.85	96.630
509.19	96.296
509.54	98.499
509.88	95.753
510.23	97.158
510.57	96.451
510.92	97.683
511.26	99.340
511.61	96.762
511.95	98.456
512.30	97.557
512.64	99.376
512.98	97.562
513.33	98.423
513.67	98.126
514.02	100.057
514.36	98.933
514.70	97.517
515.05	99.649
515.39	98.526
515.74	98.934
516.08	99.115
516.42	98.157
516.77	99.356
517.11	101.235
517.46	101.861
517.80	100.969
518.14	99.939
518.49	99.638
518.83	99.523
519.17	100.904
519.52	100.362
519.86	101.093
520.20	99.818
520.55	100.995
520.89	101.834
521.23	102.821
521.58	102.339
521.92	99.246
522.26	99.349
522.61	99.418
522.95	100.972
523.29	101.206
523.64	101.335
523.98	102.414
524.32	99.937
524.66	101.299
525.01	101.900
525.35	101.448
525.69	102.651
526.04	101.042
526.38	101.147
526.72	100.920
527.06	99.097
527.41	99.404
527.75	99.800
528.09	103.063
528.43	102.307
528.78	100.581
529.12	100.906
529.46	100.832
529.80	100.129
530.15	98.134
530.49	101.887
530.83	100.271
531.17	101.370
531.51	99.528
531.86	97.900
532.20	99.380
532.54	99.655
532.88	99.251
533.22	101.886
533.57	100.993
533.91	98.839
534.25	101.172
534.59	98.134
534.93	97.577
535.27	97.516
535.62	98.092
535.96	99.219
536.30	99.269
536.64	99.658
536.98	99.369
537.32	102.349
537.66	99.436
538.01	98.128
538.35	99.793
538.69	97.258
539.03	97.987
539.37	96.378
539.71	98.840
540.05	96.626
540.39	96.696
540.73	99.232
541.07	96.871
541.42	96.364
541.76	96.955
542.10	97.292
542.44	98.337
542.78	98.820
543.12	97.035
543.46	98.272
543.80	96.809
544.14	97.798
544.48	96.218
544.82	97.848
545.16	96.957
545.50	97.637
545.84	97.616
546.18	95.302
546.52	95.836
546.86	96.749
547.20	97.927
547.54	98.284
547.88	97.436
548.22	95.635
548.56	97.131
548.90	97.158
549.24	96.319
549.58	96.299
549.92	99.486
550.26	99.852
550.60	99.700
550.94	97.910
551.28	95.609
551.62	97.218
551.96	96.047
552.30	97.089
552.64	96.540
552.98	96.591
553.32	96.828
553.66	97.652
554.00	96.544
554.34	97.875
554.68	95.526
555.02	97.380
555.36	98.260
555.69	94.538
556.03	95.139
556.37	96.302
556.71	94.534
557.05	97.269
557.39	97.589
557.73	97.126
558.07	97.061
558.41	95.534
558.75	98.383
559.08	99.278
559.42	99.607
559.76	97.018
560.10	98.616
560.44	96.168
560.78	98.273
561.12	95.725
561.45	92.721
561.79	95.598
562.13	94.796
562.47	96.071
562.81	95.382
563.15	95.255
563.48	93.806
563.82	94.938
564.16	93.500
564.50	93.216
564.84	93.649
565.17	94.503
565.51	94.118
565.85	92.205
566.19	93.311
566.52	92.857
566.86	92.035
567.20	91.020
567.54	89.292
567.88	89.362
568.21	88.322
568.55	88.263
568.89	87.188
569.23	86.022
569.56	84.898
569.90	83.397
570.24	81.841
570.57	81.269
570.91	81.591
571.25	81.083
571.59	80.036
571.92	80.199
572.26	82.002
572.60	82.261
572.93	81.131
573.27	79.532
573.61	80.334
573.95	78.689
574.28	78.886
574.62	78.203
574.96	78.937
575.29	78.862
575.63	79.110
575.97	80.000
576.30	78.827
576.64	79.067
576.98	78.734
577.31	77.636
577.65	77.380
577.98	76.743
578.32	76.849
578.66	76.978
578.99	77.746
579.33	78.586
579.67	78.742
580.00	76.994
580.34	75.667
580.67	77.242
581.01	76.329
581.35	76.059
581.68	75.715
582.02	75.928
582.35	75.450
582.69	76.077
583.02	75.406
583.36	76.820
583.70	77.162
584.03	76.921
584.37	77.077
584.70	76.751
585.04	76.640
585.37	76.306
585.71	76.073
586.04	76.617
586.38	75.901
586.72	76.876
587.05	77.157
587.39	76.324
587.72	76.277
588.06	76.580
588.39	76.210
588.73	75.632
589.06	76.625
589.40	77.812
589.73	77.075
590.07	76.850
590.40	77.092
590.73	78.930
591.07	79.148
591.40	78.043
591.74	79.591
592.07	79.598
592.41	78.893
592.74	76.813
593.08	74.906
593.41	75.337
593.75	74.419
594.08	76.891
594.41	76.197
594.75	75.937
595.08	76.139
595.42	75.555
595.75	74.693
596.09	76.174
596.42	75.694
596.75	76.832
597.09	77.980
597.42	78.017
597.75	76.889
598.09	77.914
598.42	76.913
598.76	74.895
599.09	76.991
599.42	75.415
599.76	74.728
600.09	73.983
600.42	74.313
600.76	72.875
601.09	75.254
601.42	73.814
601.76	74.826
602.09	74.868
602.42	75.155
602.76	75.126
603.09	76.140
603.42	74.170
603.76	73.500
604.09	73.755
604.42	74.592
604.76	73.811
605.09	74.989
605.42	74.494
605.75	73.833
606.09	73.800
606.42	73.982
606.75	73.636
607.09	74.645
607.42	74.168
607.75	72.210
608.08	74.662
608.42	74.649
608.75	74.916
609.08	74.081
609.41	74.019
609.75	74.987
610.08	74.408
610.41	74.295
610.74	73.484
611.07	73.447
611.41	74.156
611.74	74.741
612.07	73.528
612.40	75.135
612.73	73.765
613.07	74.169
613.40	75.055
613.73	74.594
614.06	73.853
614.39	73.374
614.72	74.181
615.06	74.222
615.39	73.455
615.72	72.948
616.05	73.255
616.38	72.910
616.71	73.005
617.05	75.000
617.38	74.430
617.71	73.100
618.04	72.517
618.37	75.394
618.70	74.515
619.03	74.502
619.36	76.085
619.69	75.292
620.03	74.558
620.36	74.669
620.69	74.375
621.02	76.077
621.35	77.514
621.68	74.980
622.01	77.346
622.34	76.289
622.67	77.212
623.00	75.912
623.33	75.991
623.66	74.721
623.99	75.919
624.32	72.781
624.65	76.261
624.99	73.769
625.32	73.936
625.65	75.581
625.98	72.591
626.31	74.857
626.64	76.526
626.97	76.903
627.30	75.706
627.63	76.903
627.96	75.411
628.29	79.442
628.62	79.497
628.95	78.858
629.28	78.128
629.61	76.555
629.94	76.402
630.26	78.621
630.59	76.224
630.92	77.108
631.25	78.888
631.58	80.193
631.91	78.049
632.24	77.387
632.57	76.222
632.90	80.397
633.23	80.456
633.56	82.014
633.89	80.502
634.22	81.154
634.55	79.781
634.88	79.289
635.20	81.250
635.53	81.137
635.86	79.359
636.19	78.040
636.52	79.390
636.85	79.131
637.18	73.812
637.51	77.278
637.83	81.201
638.16	78.267
638.49	77.570
638.82	75.817
639.15	77.527
639.48	76.471
639.81	77.639
640.13	79.859
640.46	78.814
640.79	78.705
641.12	79.882
641.45	77.001
641.77	81.591
642.10	79.425
642.43	82.862
642.76	77.918
643.09	81.949
643.41	79.266
643.74	79.160
644.07	79.612
644.40	80.763
644.73	78.983
645.05	82.024
645.38	77.076
645.71	79.932
646.04	78.788
646.36	79.861
646.69	79.545
647.02	82.332
647.35	81.718
647.67	80.776
648.00	81.522
648.33	75.254
648.66	77.462
648.98	75.155
649.31	75.307
649.64	73.865
649.96	75.355
650.29	74.346
650.62	75.453
650.94	76.207
651.27	76.855
651.60	77.273
651.92	78.136
652.25	76.047
652.58	76.073
652.90	75.589
653.23	75.382
653.56	75.207
653.88	73.720
654.21	75.597
654.54	72.259
654.86	71.870
655.19	70.588
655.52	62.218
655.84	55.369
656.17	65.032
656.49	84.455
656.82	82.391
657.15	62.339
657.47	46.519
657.80	34.799
658.13	36.736
658.45	54.502
658.78	54.594
659.10	54.453
659.43	55.646
659.75	56.724
660.08	59.103
660.41	61.968
660.73	67.218
661.06	70.748
661.38	74.031
661.71	74.385
662.03	73.362
662.36	75.000
662.68	75.914
663.01	76.695
663.33	74.946
663.66	72.727
663.98	75.955
664.31	78.462
664.63	72.973
664.96	76.586
665.28	73.605
665.61	77.106
665.93	75.589
666.26	75.105
666.58	74.304
666.91	75.561
667.23	72.120
667.56	75.632
667.88	76.636
668.21	72.768
668.53	73.563
668.86	76.019
669.18	73.286
669.50	73.963
669.83	74.463
670.15	69.762
670.48	73.103
670.80	72.867
671.13	70.938
671.45	73.973
671.77	73.060
672.10	67.057
672.42	70.992
672.75	66.607
673.07	68.000
673.39	67.164
673.72	68.463
674.04	70.287
674.37	67.276
674.69	67.695
675.01	67.308
675.34	70.897
675.66	71.678
675.98	69.469
676.31	69.910
676.63	72.109
676.95	72.235
677.28	68.578
677.60	75.245
677.92	71.619
678.25	70.282
678.57	66.599
678.89	68.443
679.22	65.424
679.54	66.122
679.86	67.578
680.18	63.077
680.51	64.038
680.83	62.768
681.15	66.012
681.48	64.329
681.80	64.622
682.12	66.458
682.44	64.789
682.77	65.053
683.09	64.955
683.41	65.814
683.73	64.509
684.06	68.584
684.38	66.239
684.70	62.729
685.02	67.562
685.34	67.906
685.67	62.477
685.99	62.278
686.31	60.517
686.63	61.397
686.96	63.451
687.28	62.275
687.60	64.461
687.92	61.284
688.24	61.600
688.56	65.132
688.89	62.138
689.21	63.453
689.53	59.459
689.85	64.270
690.17	63.516
690.49	65.217
690.82	63.246
691.14	65.700
691.46	66.821
691.78	62.857
692.10	64.119
692.42	61.758
692.74	62.391
693.06	62.921
693.39	63.934
693.71	59.778
694.03	64.773
694.35	62.838
694.67	63.250
694.99	65.979
695.31	62.532
695.63	66.585
695.95	63.359
696.27	62.740
696.59	60.753
696.91	64.246
697.23	61.168
697.56	64.029
697.88	61.123
698.20	58.531
698.52	60.047
698.84	56.459
699.16	58.392
699.48	64.691
699.80	62.791
700.12	61.662
700.44	61.127
700.76	65.730
701.08	65.861
701.40	66.168
701.72	64.615
702.04	62.893
702.36	63.415
702.68	60.976
703.00	62.281
703.32	60.724
703.64	65.663
703.96	63.050
704.28	59.940
704.60	61.585
704.91	67.398
705.23	61.392
705.55	61.379
705.87	61.620
706.19	61.905
706.51	59.155
706.83	59.554
707.15	60.671
707.47	61.983
707.79	59.137
708.11	57.326
708.43	56.853
708.74	57.447
709.06	55.080
709.38	59.654
709.70	57.057
710.02	59.502
710.34	60.667
710.66	59.283
710.98	60.681
711.29	62.662
711.61	57.097
711.93	57.742
712.25	56.294
712.57	55.789
712.89	54.945
713.20	58.865
713.52	60.219
713.84	59.677
714.16	57.282
714.48	60.759
714.80	55.272
715.11	54.651
715.43	52.174
715.75	58.075
716.07	55.723
716.39	57.576
716.70	55.396
717.02	58.824
717.34	59.848
717.66	60.345
717.97	54.762
718.29	56.299
718.61	61.803
718.93	56.589
719.24	56.458
719.56	51.685
719.88	52.985
720.20	62.846
720.51	57.422
720.83	61.868
721.15	54.472
721.46	59.160
721.78	57.769
722.10	57.371
722.42	57.661
722.73	55.985
723.05	62.041
723.37	59.664
723.68	50.400
724.00	57.872
724.32	57.322
724.63	58.025
724.95	54.274
725.27	56.962
725.58	59.671
725.90	57.741
726.22	53.623
726.53	53.333
726.85	52.920
727.16	48.148
727.48	52.490
727.80	60.937
728.11	53.689
728.43	55.078
728.74	51.587
729.06	52.800
729.38	54.545
729.69	54.093
730.01	51.673
730.32	54.982
730.64	51.894
730.96	54.895
731.27	51.505
731.59	53.016
731.90	52.427
732.22	49.359
732.53	51.351
732.85	46.644
733.16	46.865
733.48	51.014
733.80	47.297
734.11	55.743
734.43	50.464
734.74	53.453
735.06	46.974
735.37	51.672
735.69	49.515
736.00	46.535
736.32	48.582
736.63	51.379
736.95	51.027
737.26	50.690
737.58	54.167
737.89	46.735
738.21	50.178
738.52	45.627
738.83	53.878
739.15	54.430
739.46	52.529
739.78	50.000
740.09	47.260
740.41	43.214
740.72	44.326
741.04	50.400
741.35	52.193
741.66	49.778
741.98	51.442
742.29	64.851
742.61	60.488
742.92	53.947
743.23	54.717
743.55	53.153
743.86	51.121
744.18	58.824
744.49	58.376
744.80	57.653
745.12	47.664
745.43	55.450
745.74	54.054
746.06	52.804
746.37	45.872
746.68	52.404
747.00	50.239
747.31	48.077
747.62	48.165
747.94	48.035
748.25	53.211
748.56	58.222
748.88	56.808
749.19	58.571
749.50	51.942
749.82	54.930
750.13	53.333
750.44	48.462
750.75	46.125
751.07	51.246
751.38	44.326
751.69	52.510
752.01	46.094
752.32	49.231
752.63	47.761
752.94	51.200
753.26	46.025
753.57	49.167
753.88	48.988
754.19	45.817
754.51	47.368
754.82	43.590
755.13	44.348
755.44	48.374
755.75	52.800
756.07	43.542
756.38	42.446
756.69	50.853
757.00	47.664
757.31	46.926
757.63	44.753
757.94	47.740
758.25	42.328
758.56	46.467
758.87	47.321
759.18	47.003
759.50	42.761
759.81	50.836
760.12	46.769
760.43	41.071
760.74	45.480
761.05	42.265
761.36	38.968
761.67	45.921
761.99	47.079
762.30	38.686
762.61	44.444
762.92	46.581
763.23	45.902
763.54	51.948
763.85	46.939
764.16	41.057
764.47	40.000
764.78	46.429
765.10	42.951
765.41	42.553
765.72	46.273
766.03	45.215
766.34	45.000
766.65	40.167
766.96	47.418
767.27	47.030
767.58	44.382
767.89	51.852
768.20	41.989
768.51	48.744
768.82	51.442
769.13	45.575
769.44	41.841
769.75	38.034
770.06	47.982
770.37	43.137
770.68	45.146
770.99	47.573
771.30	45.798
771.61	43.673
771.92	44.398
772.23	43.694
772.54	39.779
772.85	45.349
773.16	42.857
773.47	36.095
773.78	47.126
774.09	46.875
774.39	46.584
774.70	54.422
775.01	51.034
775.32	55.000
775.63	51.880
775.94	42.105
776.25	36.000
776.56	42.975
776.87	44.444
777.18	44.144
777.48	42.342
777.79	40.157
778.10	51.376
778.41	39.474
778.72	52.941
779.03	38.028
779.34	37.162
779.65	39.437
779.95	47.682
780.26	37.410
780.57	41.007
780.88	39.437
781.19	43.697
781.50	45.638
781.80	46.199
782.11	32.558
782.42	47.170
782.73	48.366
783.04	46.207
783.34	41.221
783.65	37.584
783.96	47.692
784.27	42.143
784.57	43.972
784.88	31.731
785.19	56.364
785.50	43.636
785.81	38.095
786.11	34.454
786.42	42.478
786.73	41.509
787.04	36.697
787.34	37.624
787.65	33.333
787.96	41.322
788.26	44.203
788.57	36.508
788.88	48.780
789.19	28.800
789.49	32.824
789.80	49.242
790.11	33.019
790.41	42.574
790.72	45.745
791.03	45.652
791.33	43.529
791.64	39.506
791.95	38.043
792.25	43.182
792.56	55.128
792.87	35.897
793.17	28.205
793.48	34.524
793.79	33.750
794.09	38.462
794.40	43.750
794.70	47.748
795.01	39.844
795.32	40.000
795.62	28.261
795.93	37.736
796.23	27.273
796.54	41.463
796.85	36.905
797.15	34.848
797.46	37.681
797.76	36.842
798.07	22.727
798.37	34.146
798.68	32.258
798.99	33.784
799.29	42.169
799.60	33.333
799.90	43.077
800.21	48.485
800.51	46.667
800.82	28.000
801.12	16.667
801.43	30.000
801.73	37.838
802.04	44.286
802.34	27.869
802.65	37.313
802.95	34.545
803.26	36.207
803.56	33.846
803.87	41.509
804.17	35.484
804.48	48.529
804.78	36.585
805.09	50.725
805.39	30.882
805.70	29.787
806.00	38.596
806.30	44.872
806.61	36.842
806.91	31.081
807.22	36.842
807.52	45.455
807.83	27.119
808.13	18.182
808.43	40.000
808.74	25.862
809.04	38.095
809.35	48.980
809.65	31.667
809.95	10.204
810.26	43.662
810.56	16.667
810.86	26.531
811.17	38.462
811.47	34.043
811.77	29.167
812.08	32.075
812.38	3.125
812.69	20.000
812.99	29.268
813.29	5.405
813.59	2.703
813.90	18.182
814.20	45.455
814.50	25.000
814.81	38.182
815.11	33.333
815.41	60.465
815.72	2.500
816.02	51.429
816.32	27.027
816.62	45.833
816.93	33.333
817.23	4.444
817.53	19.444
817.84	35.135
818.14	36.585
818.44	32.000
818.74	38.776
819.04	34.146
819.35	38.889
819.65	36.364
819.95	-55.556
820.25	45.455
820.56	11.905
820.86	22.222
821.16	13.636
821.46	43.478
821.76	25.862
822.07	39.130
822.37	48.485
822.67	48.780
822.97	21.622
823.27	11.429
823.57	48.276
823.88	23.529
824.18	44.444
824.48	34.286
824.78	9.524
825.08	25.000
825.38	33.333
825.69	48.387
825.99	41.463
826.29	29.630
826.59	31.250
826.89	29.032
827.19	13.043
827.49	27.778
827.79	39.130
828.09	19.355
828.39	47.917
828.70	3.125
829.00	34.483
829.30	24.324
829.60	-41.667
829.90	55.556
830.20	15.625
830.50	-18.182
830.80	58.824
831.10	4.545
831.40	-14.706
831.70	50.000
832.00	39.394
832.30	50.000
832.60	32.432
832.90	-1000.000
833.20	3.571
833.50	-15.000
833.80	36.842
834.10	33.333
834.40	13.636
834.70	33.333
835.00	30.000
835.30	16.667
835.60	-4.762
835.90	9.524
836.20	48.000
836.50	37.500
836.80	36.842
837.10	37.838
837.40	33.333
837.70	39.130
838.00	29.167
838.30	21.053
838.60	-30.000
838.90	-40.000
839.19	0.000
839.49	-46.154
839.79	63.158
840.09	-66.667
840.39	-100.000
840.69	22.727
840.99	33.333
841.29	-4.167
841.59	46.154
841.88	-6.667
842.18	92.857
842.48	43.333
842.78	-257.143
843.08	-50.000
843.38	75.000
843.68	-75.000
843.97	100.000
844.27	-122.222
844.57	-45.455
844.87	-20.000
845.17	63.636
845.47	600.000
845.76	0.000
846.06	-66.667
846.36	-900.000
846.66	-5.263
846.96	9.091
847.25	-72.222
847.55	-77.778
847.85	-9.524
848.15	69.231
848.44	-50.000
848.74	50.000
849.04	-7.692
849.34	-150.000
849.63	0.000
849.93	-107.143
850.23	40.000
850.53	-37.500
850.82	33.333
851.12	20.000
851.42	-17.647
851.71	75.000
852.01	35.294
852.31	-38.462
852.61	-0.000
852.90	47.059
853.20	80.000
853.50	-6.250
853.79	-142.857
854.09	-200.000
854.39	-10.000
854.68	-2.500
854.98	9.524
855.28	8.000
855.57	16.667
855.87	-12.500
856.17	8.000
856.46	3.125
856.76	65.000
857.05	28.000
857.35	-91.667
857.65	-35.294
857.94	-100.000
858.24	-66.667
858.53	-15.000
858.83	-72.727
859.13	32.000
859.42	-21.429
859.72	-112.500
860.01	37.500
860.31	-187.500
860.60	6.250
860.90	-83.333
861.20	133.333
861.49	13.333
861.79	43.750
862.08	125.000
862.38	-108.333
862.67	171.429
862.97	75.000
863.26	45.455
863.56	127.273
863.85	47.368
864.15	41.176
864.44	-120.000
864.74	-20.000
865.03	-44.444
865.33	0.000
865.62	164.286
865.92	5.263
866.21	11.111
866.51	-45.455
866.80	11.111
867.10	-137.500
867.39	37.500
867.69	-80.000
867.98	10.000
868.27	5.882
868.57	0.000
868.86	1000.000
869.16	-100.000
869.45	-157.143
869.75	-300.000
870.04	0.000
870.33	-1000.000
870.63	-10.526
870.92	66.667
871.22	200.000
871.51	-142.857
871.80	-122.222
872.10	-200.000
>>>>>End Processed Spectral Data<<<<<
