SpectraSuite Data File
++++++++++++++++++++++++++++++++++++
Date: Wed May 13 21:35:33 PDT 2015
User: schluterlab
Dark Spectrum Present: Yes
Reference Spectrum Present: Yes
Number of Sampled Component Spectra: 1
Spectrometers: USB2E3373
Integration Time (usec): 3000 (USB2E3373)
Spectra Averaged: 3 (USB2E3373)
Boxcar Smoothing: 0 (USB2E3373)
Correct for Electrical Dark: No (USB2E3373)
Strobe/Lamp Enabled: No (USB2E3373)
Correct for Detector Non-linearity: No (USB2E3373)
Correct for Stray Light: No (USB2E3373)
Number of Pixels in Processed Spectrum: 2048
>>>>>Begin Processed Spectral Data<<<<<
178.53	0.000
178.91	750.000
179.29	191.667
179.67	-1000.000
180.04	-466.667
180.42	240.000
180.80	1500.000
181.18	250.000
181.56	-475.000
181.94	-275.000
182.31	-90.909
182.69	169.231
183.07	-280.000
183.45	433.333
183.83	200.000
184.20	285.714
184.58	-333.333
184.96	800.000
185.34	128.571
185.72	0.000
186.09	-1300.000
186.47	-320.000
186.85	260.000
187.23	-800.000
187.61	600.000
187.98	1100.000
188.36	-137.500
188.74	0.000
189.12	-127.273
189.49	-40.000
189.87	141.667
190.25	180.000
190.63	1400.000
191.00	-20.000
191.38	320.000
191.76	250.000
192.14	125.000
192.51	-47.368
192.89	433.333
193.27	375.000
193.65	-440.000
194.02	145.455
194.40	270.000
194.78	-700.000
195.15	300.000
195.53	-360.000
195.91	-62.500
196.29	-500.000
196.66	0.000
197.04	1050.000
197.42	0.000
197.79	-100.000
198.17	-175.000
198.55	-333.333
198.92	325.000
199.30	-533.333
199.68	-80.000
200.05	1050.000
200.43	216.667
200.81	-1900.000
201.18	-420.000
201.56	-16.667
201.94	550.000
202.31	-52.174
202.69	-71.429
203.07	-400.000
203.44	-260.000
203.82	-700.000
204.19	-50.000
204.57	0.000
204.95	-83.333
205.32	0.000
205.70	-200.000
206.08	-450.000
206.45	-150.000
206.83	625.000
207.20	-333.333
207.58	-90.000
207.96	-1500.000
208.33	-228.571
208.71	-2700.000
209.08	337.500
209.46	400.000
209.84	0.000
210.21	230.000
210.59	1200.000
210.96	460.000
211.34	1200.000
211.71	-800.000
212.09	-266.667
212.46	-160.000
212.84	-233.333
213.22	-150.000
213.59	-2700.000
213.97	-950.000
214.34	-650.000
214.72	-76.923
215.09	337.500
215.47	155.556
215.84	1050.000
216.22	-112.500
216.59	-500.000
216.97	666.667
217.34	188.889
217.72	0.000
218.09	566.667
218.47	-1900.000
218.84	-314.286
219.22	-37.500
219.59	-500.000
219.97	-450.000
220.34	-125.000
220.72	-160.000
221.09	0.000
221.47	-266.667
221.84	-400.000
222.22	0.000
222.59	1100.000
222.97	-333.333
223.34	-25.000
223.72	-1400.000
224.09	-800.000
224.46	-27.273
224.84	-100.000
225.21	-185.714
225.59	-325.000
225.96	-333.333
226.34	-190.000
226.71	-114.286
227.08	750.000
227.46	-100.000
227.83	-1100.000
228.21	-37.500
228.58	-400.000
228.95	-52.941
229.33	12.500
229.70	-100.000
230.08	-38.462
230.45	-125.000
230.82	-116.667
231.20	157.143
231.57	-350.000
231.95	1200.000
232.32	-8.333
232.69	-17.647
233.07	-2100.000
233.44	-69.565
233.81	-650.000
234.19	-45.833
234.56	-100.000
234.93	-26.667
235.31	47.368
235.68	-23.077
236.05	-100.000
236.43	-27.778
236.80	-9.091
237.17	-13.333
237.55	-17.647
237.92	-31.034
238.29	-33.333
238.67	0.000
239.04	19.355
239.41	14.894
239.79	29.787
240.16	23.256
240.53	26.786
240.91	30.357
241.28	12.500
241.65	30.645
242.02	11.842
242.40	13.043
242.77	18.841
243.14	24.359
243.51	38.298
243.89	24.038
244.26	44.340
244.63	20.192
245.00	30.208
245.38	28.571
245.75	30.328
246.12	31.579
246.49	21.951
246.87	27.731
247.24	29.730
247.61	31.788
247.98	28.205
248.36	35.503
248.73	32.584
249.10	31.818
249.47	37.097
249.84	35.263
250.22	35.323
250.59	33.178
250.96	35.909
251.33	24.880
251.70	33.473
252.08	32.636
252.45	34.979
252.82	34.981
253.19	32.685
253.56	33.813
253.94	37.011
254.31	32.746
254.68	37.919
255.05	36.964
255.42	35.664
255.79	34.356
256.16	40.063
256.54	36.825
256.91	32.278
257.28	37.107
257.65	35.350
258.02	38.710
258.39	35.380
258.76	35.465
259.14	34.375
259.51	36.798
259.88	34.146
260.25	38.611
260.62	35.674
260.99	37.666
261.36	36.528
261.73	34.815
262.10	34.097
262.47	35.556
262.85	35.572
263.22	36.667
263.59	38.442
263.96	34.793
264.33	36.058
264.70	38.140
265.07	35.417
265.44	39.540
265.81	37.529
266.18	37.130
266.55	35.808
266.92	38.983
267.29	36.626
267.66	39.490
268.03	35.185
268.40	35.805
268.77	36.157
269.14	37.959
269.51	39.425
269.88	35.234
270.25	36.653
270.62	36.475
270.99	37.598
271.36	34.325
271.73	36.345
272.10	34.857
272.47	36.276
272.84	37.795
273.21	33.464
273.58	36.475
273.95	34.151
274.32	36.754
274.69	38.251
275.06	34.982
275.43	37.853
275.80	36.879
276.17	36.832
276.54	35.524
276.91	35.540
277.28	35.921
277.65	37.413
278.02	34.643
278.39	36.767
278.76	38.127
279.13	36.021
279.50	37.069
279.87	37.681
280.23	36.396
280.60	36.159
280.97	34.416
281.34	38.170
281.71	32.358
282.08	35.726
282.45	35.082
282.82	34.665
283.19	35.061
283.56	36.094
283.92	34.709
284.29	35.569
284.66	33.608
285.03	32.899
285.40	33.535
285.77	34.234
286.14	33.891
286.51	37.181
286.87	34.462
287.24	34.956
287.61	33.735
287.98	34.559
288.35	34.277
288.72	34.720
289.08	34.473
289.45	32.452
289.82	32.980
290.19	31.978
290.56	33.381
290.93	33.149
291.29	30.643
291.66	32.514
292.03	31.744
292.40	31.898
292.77	30.388
293.13	32.357
293.50	31.503
293.87	30.667
294.24	30.820
294.60	29.649
294.97	30.688
295.34	29.288
295.71	28.778
296.08	28.665
296.44	30.867
296.81	29.111
297.18	29.625
297.55	29.599
297.91	28.944
298.28	28.571
298.65	29.064
299.02	31.746
299.38	28.466
299.75	28.846
300.12	26.860
300.48	28.889
300.85	27.829
301.22	27.991
301.59	27.934
301.95	26.481
302.32	26.604
302.69	25.763
303.05	26.689
303.42	29.659
303.79	26.498
304.15	28.478
304.52	28.817
304.89	27.353
305.25	25.906
305.62	27.332
305.99	27.312
306.35	28.318
306.72	26.653
307.09	28.050
307.45	28.328
307.82	27.263
308.19	25.705
308.55	25.896
308.92	26.916
309.29	26.827
309.65	27.672
310.02	26.044
310.38	27.439
310.75	25.838
311.12	28.377
311.48	27.102
311.85	27.067
312.22	27.273
312.58	26.570
312.95	26.070
313.31	27.456
313.68	26.336
314.05	26.087
314.41	26.609
314.78	26.660
315.14	27.870
315.51	26.736
315.87	27.155
316.24	26.446
316.61	26.393
316.97	26.296
317.34	26.471
317.70	27.921
318.07	28.394
318.43	28.726
318.80	28.272
319.16	26.879
319.53	27.509
319.89	28.365
320.26	29.113
320.62	29.286
320.99	28.876
321.35	28.999
321.72	29.933
322.08	29.336
322.45	29.232
322.81	30.869
323.18	29.249
323.54	32.401
323.91	30.533
324.27	29.883
324.64	29.878
325.00	31.146
325.37	31.997
325.73	31.061
326.10	31.455
326.46	31.522
326.83	31.796
327.19	33.252
327.56	32.716
327.92	31.376
328.29	33.055
328.65	33.304
329.01	31.838
329.38	32.609
329.74	33.476
330.11	32.642
330.47	32.118
330.84	33.394
331.20	33.049
331.56	33.424
331.93	34.195
332.29	34.579
332.66	32.966
333.02	33.710
333.38	33.070
333.75	33.532
334.11	34.288
334.48	34.438
334.84	34.276
335.20	33.877
335.57	33.333
335.93	32.131
336.29	33.538
336.66	33.761
337.02	33.391
337.38	33.420
337.75	33.333
338.11	34.159
338.47	32.449
338.84	33.935
339.20	34.568
339.56	33.447
339.93	33.362
340.29	33.134
340.65	31.908
341.02	33.860
341.38	33.446
341.74	32.605
342.11	33.278
342.47	32.720
342.83	33.415
343.20	33.756
343.56	33.524
343.92	32.006
344.28	34.010
344.65	32.490
345.01	32.042
345.37	34.046
345.73	33.088
346.10	33.868
346.46	32.358
346.82	32.424
347.19	32.358
347.55	33.926
347.91	31.645
348.27	32.729
348.63	32.292
349.00	32.862
349.36	33.359
349.72	32.560
350.08	32.293
350.45	33.359
350.81	32.238
351.17	32.717
351.53	32.050
351.89	32.248
352.26	31.506
352.62	32.713
352.98	32.109
353.34	32.850
353.70	31.231
354.07	32.078
354.43	31.960
354.79	33.494
355.15	32.531
355.51	33.030
355.87	32.525
356.24	32.584
356.60	31.587
356.96	33.154
357.32	31.889
357.68	32.391
358.04	32.739
358.40	32.481
358.77	32.492
359.13	32.840
359.49	33.157
359.85	32.600
360.21	32.151
360.57	32.167
360.93	33.308
361.29	32.791
361.66	32.118
362.02	32.987
362.38	32.275
362.74	32.342
363.10	32.249
363.46	31.988
363.82	32.668
364.18	32.342
364.54	31.947
364.90	31.707
365.26	32.626
365.62	32.741
365.98	32.242
366.35	32.340
366.71	31.954
367.07	31.609
367.43	32.195
367.79	32.523
368.15	32.349
368.51	31.927
368.87	33.775
369.23	33.096
369.59	32.629
369.95	32.801
370.31	32.357
370.67	32.151
371.03	32.962
371.39	31.086
371.75	33.357
372.11	32.764
372.47	32.444
372.83	31.900
373.19	32.734
373.55	33.598
373.91	32.603
374.27	31.812
374.63	33.001
374.99	32.312
375.35	33.425
375.71	33.220
376.07	32.694
376.42	32.821
376.78	33.157
377.14	33.627
377.50	34.029
377.86	33.068
378.22	34.008
378.58	33.670
378.94	33.562
379.30	34.166
379.66	33.046
380.02	34.559
380.38	33.855
380.74	33.533
381.09	33.233
381.45	34.281
381.81	34.073
382.17	33.963
382.53	33.108
382.89	34.017
383.25	34.136
383.61	34.988
383.97	33.625
384.32	32.766
384.68	34.978
385.04	33.476
385.40	33.562
385.76	34.611
386.12	33.635
386.48	33.793
386.83	33.917
387.19	34.917
387.55	35.316
387.91	34.440
388.27	34.032
388.62	33.833
388.98	33.605
389.34	34.461
389.70	34.188
390.06	33.813
390.42	35.180
390.77	34.849
391.13	34.848
391.49	33.966
391.85	35.080
392.20	34.023
392.56	35.302
392.92	34.172
393.28	34.922
393.64	36.024
393.99	33.660
394.35	35.309
394.71	35.256
395.07	34.340
395.42	34.186
395.78	36.165
396.14	35.510
396.50	35.130
396.85	36.010
397.21	35.019
397.57	35.590
397.92	34.671
398.28	34.913
398.64	34.851
399.00	35.212
399.35	36.549
399.71	35.352
400.07	35.361
400.42	35.172
400.78	34.622
401.14	35.438
401.49	36.129
401.85	35.381
402.21	35.356
402.57	35.806
402.92	36.421
403.28	36.085
403.63	36.020
403.99	36.660
404.35	36.284
404.70	35.710
405.06	36.700
405.42	35.302
405.77	36.118
406.13	35.943
406.49	37.028
406.84	36.203
407.20	35.287
407.55	37.013
407.91	35.672
408.27	34.311
408.62	35.114
408.98	36.067
409.34	36.139
409.69	37.687
410.05	36.629
410.40	34.875
410.76	36.402
411.11	36.381
411.47	36.032
411.83	36.432
412.18	36.209
412.54	36.341
412.89	37.241
413.25	34.690
413.60	36.740
413.96	36.392
414.31	36.621
414.67	36.889
415.03	37.280
415.38	35.931
415.74	36.517
416.09	37.872
416.45	37.047
416.80	36.913
417.16	37.922
417.51	37.040
417.87	36.971
418.22	37.557
418.58	37.385
418.93	37.728
419.29	38.020
419.64	36.832
420.00	38.349
420.35	36.940
420.71	37.051
421.06	37.146
421.42	37.774
421.77	37.688
422.12	37.822
422.48	37.732
422.83	38.689
423.19	38.355
423.54	39.223
423.90	36.758
424.25	37.262
424.61	38.694
424.96	38.084
425.31	37.409
425.67	38.566
426.02	39.282
426.38	39.179
426.73	38.546
427.09	39.525
427.44	39.166
427.79	39.014
428.15	38.654
428.50	38.610
428.85	37.331
429.21	39.055
429.56	37.885
429.92	39.250
430.27	38.957
430.62	37.618
430.98	38.075
431.33	39.441
431.68	39.670
432.04	39.775
432.39	38.279
432.74	39.362
433.10	39.163
433.45	39.172
433.80	38.448
434.16	40.033
434.51	39.402
434.86	40.577
435.22	39.955
435.57	39.312
435.92	39.445
436.28	38.919
436.63	39.838
436.98	39.072
437.34	39.988
437.69	39.965
438.04	39.842
438.39	40.535
438.75	39.928
439.10	41.064
439.45	39.225
439.81	40.702
440.16	40.580
440.51	39.655
440.86	40.071
441.22	39.702
441.57	40.239
441.92	41.006
442.27	40.097
442.63	40.474
442.98	39.988
443.33	41.027
443.68	40.959
444.03	40.487
444.39	40.059
444.74	40.751
445.09	39.097
445.44	41.127
445.79	41.404
446.15	39.878
446.50	39.868
446.85	40.780
447.20	41.296
447.55	41.242
447.91	39.775
448.26	40.595
448.61	40.564
448.96	40.831
449.31	41.119
449.66	40.833
450.02	41.160
450.37	41.363
450.72	40.069
451.07	41.630
451.42	39.551
451.77	41.631
452.12	40.642
452.47	42.156
452.83	40.566
453.18	40.802
453.53	41.299
453.88	41.084
454.23	41.533
454.58	40.257
454.93	40.924
455.28	41.554
455.63	41.734
455.98	41.753
456.34	41.640
456.69	41.981
457.04	40.681
457.39	40.589
457.74	40.934
458.09	40.403
458.44	42.421
458.79	41.186
459.14	40.618
459.49	42.744
459.84	40.417
460.19	39.796
460.54	41.119
460.89	41.047
461.24	41.677
461.59	42.693
461.94	41.466
462.29	40.441
462.64	41.161
462.99	41.851
463.34	42.196
463.69	42.010
464.04	41.477
464.39	41.794
464.74	42.076
465.09	41.352
465.44	41.975
465.79	41.806
466.14	40.935
466.49	42.405
466.84	42.020
467.19	42.102
467.54	42.903
467.89	41.986
468.24	42.717
468.59	42.511
468.94	42.337
469.29	41.507
469.64	42.538
469.99	43.517
470.34	42.212
470.68	42.379
471.03	42.595
471.38	41.864
471.73	42.798
472.08	43.711
472.43	44.063
472.78	42.867
473.13	41.293
473.48	42.792
473.83	42.247
474.17	42.839
474.52	42.524
474.87	42.702
475.22	43.237
475.57	42.331
475.92	42.312
476.27	41.958
476.61	42.129
476.96	43.347
477.31	42.665
477.66	43.616
478.01	42.967
478.36	42.561
478.70	42.374
479.05	43.396
479.40	42.746
479.75	42.827
480.10	42.682
480.45	41.050
480.79	43.554
481.14	43.769
481.49	43.759
481.84	41.847
482.19	42.149
482.53	42.762
482.88	43.816
483.23	42.156
483.58	43.006
483.92	42.996
484.27	42.086
484.62	41.411
484.97	42.389
485.31	40.599
485.66	39.558
486.01	40.564
486.36	39.980
486.70	41.524
487.05	41.847
487.40	41.802
487.75	41.832
488.09	42.008
488.44	42.236
488.79	43.338
489.13	42.187
489.48	42.411
489.83	42.698
490.17	43.259
490.52	43.432
490.87	41.307
491.22	43.194
491.56	44.322
491.91	42.199
492.26	43.133
492.60	42.761
492.95	44.169
493.30	42.248
493.64	42.446
493.99	43.575
494.34	43.834
494.68	43.103
495.03	42.935
495.37	43.358
495.72	43.409
496.07	43.838
496.41	42.068
496.76	42.916
497.11	44.085
497.45	43.580
497.80	44.876
498.14	44.181
498.49	43.419
498.84	43.725
499.18	44.151
499.53	42.688
499.87	42.746
500.22	44.350
500.56	44.283
500.91	43.662
501.26	44.729
501.60	43.578
501.95	42.405
502.29	44.078
502.64	43.250
502.98	42.293
503.33	44.088
503.67	43.379
504.02	45.343
504.36	44.477
504.71	44.360
505.06	45.033
505.40	44.072
505.75	44.557
506.09	43.894
506.44	43.700
506.78	44.642
507.13	45.634
507.47	44.963
507.82	44.793
508.16	43.852
508.51	44.215
508.85	43.857
509.19	44.550
509.54	44.987
509.88	44.301
510.23	44.368
510.57	45.710
510.92	45.636
511.26	46.095
511.61	45.335
511.95	45.480
512.30	45.752
512.64	45.687
512.98	45.817
513.33	46.085
513.67	45.826
514.02	46.636
514.36	45.056
514.70	46.940
515.05	46.284
515.39	46.403
515.74	46.300
516.08	45.369
516.42	45.680
516.77	45.929
517.11	46.678
517.46	48.439
517.80	48.184
518.14	46.601
518.49	46.896
518.83	46.181
519.17	46.807
519.52	46.984
519.86	47.784
520.20	46.149
520.55	46.517
520.89	46.679
521.23	48.013
521.58	47.472
521.92	47.392
522.26	46.519
522.61	48.610
522.95	47.409
523.29	46.540
523.64	48.315
523.98	46.950
524.32	47.385
524.66	48.377
525.01	48.296
525.35	48.782
525.69	47.780
526.04	47.036
526.38	47.546
526.72	47.798
527.06	46.873
527.41	47.452
527.75	47.530
528.09	49.285
528.43	48.236
528.78	47.545
529.12	47.089
529.46	46.897
529.80	46.926
530.15	46.911
530.49	48.585
530.83	47.664
531.17	47.329
531.51	47.674
531.86	47.425
532.20	45.968
532.54	46.345
532.88	47.651
533.22	47.946
533.57	47.219
533.91	47.355
534.25	48.503
534.59	47.362
534.93	46.747
535.27	46.051
535.62	46.118
535.96	47.951
536.30	47.008
536.64	45.113
536.98	47.512
537.32	48.327
537.66	47.602
538.01	48.336
538.35	48.481
538.69	46.622
539.03	45.772
539.37	45.942
539.71	46.317
540.05	46.491
540.39	46.387
540.73	48.115
541.07	47.619
541.42	46.801
541.76	46.143
542.10	46.378
542.44	47.193
542.78	46.912
543.12	45.216
543.46	44.921
543.80	47.251
544.14	47.901
544.48	44.260
544.82	47.142
545.16	46.112
545.50	46.117
545.84	47.335
546.18	45.512
546.52	47.142
546.86	45.230
547.20	45.604
547.54	46.319
547.88	46.896
548.22	45.407
548.56	46.765
548.90	46.414
549.24	46.181
549.58	46.121
549.92	47.616
550.26	46.421
550.60	46.021
550.94	45.821
551.28	45.420
551.62	47.519
551.96	45.534
552.30	44.614
552.64	45.339
552.98	46.165
553.32	46.359
553.66	46.662
554.00	47.372
554.34	45.568
554.68	45.936
555.02	47.156
555.36	46.747
555.69	46.103
556.03	44.889
556.37	45.733
556.71	44.849
557.05	44.576
557.39	46.873
557.73	45.537
558.07	46.797
558.41	45.950
558.75	46.882
559.08	46.993
559.42	46.735
559.76	45.642
560.10	45.503
560.44	45.689
560.78	46.115
561.12	45.480
561.45	45.510
561.79	44.498
562.13	46.765
562.47	46.071
562.81	44.733
563.15	44.122
563.48	44.804
563.82	44.186
564.16	45.701
564.50	44.098
564.84	45.068
565.17	45.960
565.51	45.254
565.85	43.837
566.19	44.172
566.52	44.954
566.86	42.920
567.20	42.761
567.54	43.869
567.88	43.225
568.21	42.314
568.55	43.036
568.89	41.874
569.23	42.576
569.56	41.469
569.90	41.564
570.24	40.505
570.57	41.453
570.91	40.846
571.25	40.605
571.59	40.619
571.92	40.100
572.26	41.164
572.60	40.622
572.93	40.269
573.27	40.632
573.61	40.282
573.95	40.217
574.28	40.191
574.62	39.842
574.96	38.927
575.29	40.045
575.63	39.568
575.97	39.647
576.30	39.207
576.64	39.717
576.98	40.187
577.31	39.821
577.65	39.298
577.98	39.561
578.32	38.843
578.66	39.082
578.99	39.507
579.33	39.980
579.67	39.740
580.00	38.907
580.34	38.560
580.67	39.441
581.01	39.132
581.35	39.219
581.68	38.842
582.02	38.613
582.35	38.864
582.69	39.227
583.02	39.127
583.36	39.317
583.70	39.184
584.03	39.067
584.37	39.290
584.70	38.828
585.04	39.696
585.37	38.761
585.71	38.398
586.04	38.521
586.38	38.542
586.72	38.887
587.05	39.566
587.39	39.479
587.72	39.043
588.06	39.097
588.39	39.127
588.73	38.598
589.06	39.250
589.40	38.940
589.73	39.166
590.07	38.935
590.40	39.833
590.73	39.627
591.07	39.114
591.40	39.609
591.74	39.795
592.07	40.712
592.41	40.412
592.74	39.969
593.08	39.385
593.41	38.921
593.75	39.115
594.08	39.378
594.41	38.647
594.75	39.655
595.08	39.694
595.42	38.797
595.75	39.118
596.09	39.569
596.42	39.297
596.75	40.149
597.09	40.537
597.42	39.838
597.75	39.022
598.09	39.344
598.42	39.418
598.76	38.959
599.09	39.096
599.42	39.350
599.76	39.354
600.09	38.968
600.42	38.908
600.76	37.953
601.09	38.041
601.42	38.377
601.76	37.954
602.09	39.360
602.42	39.785
602.76	38.129
603.09	39.589
603.42	39.384
603.76	38.426
604.09	38.814
604.42	39.389
604.76	38.629
605.09	38.831
605.42	39.091
605.75	38.501
606.09	37.252
606.42	39.277
606.75	38.874
607.09	39.406
607.42	38.529
607.75	37.681
608.08	38.233
608.42	39.269
608.75	39.130
609.08	39.637
609.41	38.997
609.75	38.376
610.08	40.039
610.41	39.650
610.74	39.750
611.07	38.627
611.41	39.355
611.74	39.286
612.07	38.353
612.40	39.514
612.73	38.913
613.07	39.080
613.40	39.593
613.73	40.087
614.06	39.248
614.39	38.410
614.72	40.200
615.06	38.611
615.39	39.956
615.72	38.229
616.05	39.245
616.38	38.545
616.71	37.313
617.05	40.172
617.38	38.817
617.71	39.277
618.04	38.696
618.37	38.549
618.70	39.651
619.03	39.725
619.36	39.786
619.69	41.009
620.03	39.788
620.36	39.596
620.69	38.687
621.02	39.692
621.35	40.065
621.68	38.631
622.01	40.696
622.34	39.255
622.67	40.955
623.00	38.982
623.33	39.641
623.66	39.926
623.99	39.985
624.32	39.985
624.65	40.282
624.99	40.485
625.32	38.984
625.65	40.233
625.98	38.863
626.31	38.367
626.64	40.843
626.97	40.830
627.30	40.804
627.63	40.571
627.96	40.000
628.29	41.581
628.62	40.716
628.95	41.884
629.28	39.704
629.61	41.531
629.94	41.393
630.26	41.970
630.59	40.859
630.92	40.261
631.25	40.371
631.58	40.899
631.91	40.085
632.24	41.383
632.57	40.444
632.90	41.657
633.23	39.808
633.56	42.206
633.89	41.507
634.22	42.992
634.55	42.387
634.88	41.054
635.20	43.375
635.53	42.506
635.86	43.462
636.19	41.563
636.52	41.707
636.85	42.099
637.18	41.169
637.51	42.572
637.83	39.034
638.16	41.867
638.49	40.187
638.82	42.745
639.15	42.154
639.48	41.578
639.81	40.417
640.13	42.394
640.46	42.373
640.79	41.295
641.12	42.456
641.45	41.194
641.77	42.857
642.10	44.478
642.43	43.553
642.76	42.271
643.09	42.492
643.41	41.946
643.74	43.296
644.07	42.071
644.40	43.615
644.73	41.356
645.05	43.281
645.38	43.355
645.71	45.578
646.04	41.077
646.36	42.014
646.69	43.007
647.02	44.444
647.35	45.521
647.67	42.884
648.00	44.203
648.33	40.000
648.66	40.067
648.98	39.596
649.31	42.025
649.64	40.689
649.96	43.286
650.29	38.072
650.62	39.209
650.94	43.276
651.27	42.226
651.60	42.657
651.92	44.624
652.25	41.374
652.58	41.749
652.90	39.731
653.23	40.917
653.56	38.347
653.88	38.908
654.21	40.785
654.54	40.365
654.86	38.699
655.19	39.496
655.52	38.749
655.84	35.016
656.17	41.394
656.49	54.361
656.82	52.945
657.15	39.787
657.47	29.664
657.80	21.793
658.13	23.197
658.45	33.665
658.78	33.465
659.10	33.551
659.43	34.244
659.75	34.181
660.08	34.966
660.41	34.990
660.73	36.501
661.06	37.755
661.38	40.116
661.71	42.213
662.03	42.495
662.36	45.354
662.68	40.430
663.01	43.008
663.33	44.708
663.66	43.237
663.98	44.045
664.31	41.758
664.63	40.090
664.96	41.794
665.28	42.489
665.61	38.445
665.93	40.899
666.26	41.139
666.58	40.257
666.91	43.049
667.23	40.323
667.56	44.828
667.88	43.692
668.21	39.955
668.53	41.839
668.86	42.686
669.18	43.026
669.50	42.396
669.83	43.198
670.15	40.000
670.48	39.080
670.80	43.107
671.13	41.876
671.45	40.868
671.77	40.733
672.10	38.402
672.42	41.985
672.75	39.821
673.07	39.091
673.39	38.993
673.72	39.321
674.04	41.598
674.37	38.821
674.69	39.095
675.01	38.462
675.34	42.232
675.66	40.523
675.98	38.717
676.31	41.629
676.63	43.084
676.95	39.765
677.28	37.156
677.60	43.627
677.92	40.576
678.25	41.215
678.57	40.326
678.89	39.446
679.22	37.888
679.54	38.367
679.86	42.188
680.18	39.231
680.51	35.385
680.83	36.842
681.15	37.721
681.48	37.475
681.80	38.037
682.12	37.292
682.44	37.223
682.77	38.737
683.09	35.938
683.41	38.140
683.73	36.830
684.06	39.159
684.38	38.462
684.70	37.678
685.02	40.289
685.34	39.139
685.67	38.086
685.99	37.544
686.31	36.897
686.63	36.213
686.96	40.074
687.28	36.527
687.60	41.210
687.92	38.132
688.24	38.400
688.56	39.912
688.89	36.303
689.21	39.238
689.53	34.685
689.85	36.629
690.17	37.582
690.49	38.647
690.82	36.993
691.14	38.889
691.46	38.515
691.78	35.604
692.10	38.641
692.42	37.802
692.74	38.913
693.06	35.056
693.39	38.642
693.71	37.111
694.03	37.273
694.35	38.964
694.67	38.750
694.99	34.794
695.31	40.052
695.63	36.829
695.95	39.949
696.27	38.082
696.59	37.097
696.91	36.034
697.23	36.802
697.56	38.849
697.88	37.214
698.20	38.877
698.52	36.682
698.84	37.321
699.16	36.170
699.48	39.259
699.80	39.018
700.12	38.070
700.44	36.901
700.76	33.989
701.08	38.973
701.40	37.725
701.72	39.385
702.04	33.019
702.36	34.756
702.68	32.317
703.00	40.058
703.32	37.047
703.64	38.253
703.96	37.537
704.28	35.241
704.60	41.768
704.91	32.288
705.23	37.658
705.55	34.483
705.87	34.859
706.19	41.392
706.51	36.620
706.83	37.580
707.15	34.451
707.47	36.915
707.79	32.995
708.11	32.905
708.43	36.041
708.74	32.447
709.06	35.294
709.38	36.888
709.70	34.535
710.02	38.318
710.34	33.667
710.66	35.505
710.98	35.294
711.29	35.714
711.61	34.839
711.93	31.613
712.25	34.965
712.57	29.123
712.89	37.363
713.20	39.007
713.52	37.226
713.84	38.065
714.16	33.010
714.48	35.127
714.80	32.907
715.11	37.791
715.43	34.472
715.75	38.199
716.07	34.337
716.39	34.343
716.70	37.410
717.02	33.333
717.34	31.439
717.66	30.172
717.97	29.762
718.29	36.614
718.61	38.197
718.93	35.271
719.24	33.948
719.56	33.333
719.88	32.463
720.20	36.364
720.51	36.328
720.83	35.019
721.15	32.927
721.46	34.733
721.78	32.271
722.10	33.466
722.42	35.081
722.73	34.749
723.05	36.327
723.37	34.874
723.68	32.800
724.00	28.936
724.32	30.962
724.63	34.568
724.95	32.906
725.27	39.662
725.58	36.214
725.90	35.983
726.22	35.145
726.53	31.765
726.85	35.401
727.16	33.333
727.48	32.567
727.80	34.375
728.11	36.885
728.43	30.859
728.74	30.556
729.06	36.400
729.38	32.016
729.69	33.096
730.01	28.996
730.32	33.210
730.64	34.091
730.96	37.413
731.27	29.097
731.59	34.603
731.90	31.068
732.22	28.846
732.53	31.081
732.85	29.530
733.16	31.023
733.48	31.081
733.80	32.432
734.11	34.459
734.43	34.365
734.74	33.333
735.06	28.530
735.37	32.523
735.69	32.686
736.00	32.343
736.32	34.752
736.63	30.690
736.95	32.877
737.26	33.793
737.58	34.722
737.89	29.897
738.21	29.893
738.52	29.278
738.83	35.510
739.15	33.333
739.46	28.405
739.78	29.225
740.09	33.562
740.41	28.929
740.72	29.078
741.04	27.200
741.35	28.509
741.66	32.000
741.98	31.250
742.29	37.624
742.61	29.268
742.92	39.912
743.23	31.132
743.55	34.234
743.86	29.596
744.18	33.333
744.49	35.533
744.80	30.102
745.12	25.234
745.43	30.806
745.74	31.532
746.06	30.841
746.37	22.936
746.68	32.212
747.00	34.928
747.31	32.212
747.62	33.486
747.94	36.245
748.25	33.945
748.56	34.222
748.88	36.150
749.19	34.286
749.50	25.728
749.82	28.638
750.13	27.083
750.44	31.538
750.75	28.782
751.07	33.452
751.38	29.078
751.69	30.502
752.01	33.594
752.32	25.000
752.63	32.836
752.94	30.800
753.26	27.615
753.57	29.167
753.88	30.769
754.19	28.685
754.51	29.699
754.82	31.136
755.13	27.391
755.44	30.081
755.75	26.800
756.07	26.937
756.38	31.295
756.69	35.154
757.00	28.349
757.31	27.184
757.63	23.765
757.94	33.616
758.25	31.217
758.56	33.696
758.87	32.440
759.18	29.653
759.50	26.599
759.81	29.431
760.12	28.615
760.43	27.976
760.74	29.096
761.05	26.796
761.36	30.946
761.67	32.024
761.99	31.615
762.30	27.737
762.61	27.572
762.92	26.068
763.23	36.475
763.54	27.706
763.85	31.020
764.16	27.236
764.47	28.400
764.78	32.857
765.10	24.590
765.41	27.356
765.72	28.571
766.03	32.343
766.34	29.231
766.65	26.778
766.96	28.169
767.27	34.653
767.58	21.348
767.89	27.778
768.20	24.862
768.51	29.648
768.82	24.519
769.13	35.398
769.44	28.452
769.75	24.786
770.06	27.803
770.37	25.490
770.68	30.583
770.99	31.553
771.30	28.571
771.61	23.673
771.92	26.971
772.23	27.027
772.54	27.624
772.85	27.326
773.16	29.630
773.47	21.893
773.78	39.080
774.09	29.375
774.39	32.919
774.70	22.449
775.01	20.690
775.32	35.000
775.63	30.075
775.94	26.316
776.25	27.200
776.56	19.008
776.87	31.746
777.18	23.423
777.48	27.928
777.79	20.472
778.10	29.358
778.41	26.316
778.72	22.689
779.03	19.718
779.34	27.703
779.65	21.127
779.95	27.152
780.26	21.583
780.57	25.899
780.88	26.761
781.19	18.487
781.50	29.530
781.80	27.485
782.11	22.674
782.42	32.075
782.73	22.222
783.04	28.966
783.34	22.901
783.65	24.832
783.96	22.308
784.27	30.714
784.57	27.660
784.88	9.615
785.19	32.727
785.50	29.091
785.81	20.952
786.11	22.689
786.42	25.664
786.73	17.925
787.04	2.752
787.34	25.743
787.65	31.667
787.96	23.140
788.26	21.739
788.57	17.460
788.88	10.569
789.19	24.000
789.49	12.977
789.80	31.061
790.11	16.038
790.41	22.772
790.72	26.596
791.03	25.000
791.33	14.118
791.64	7.407
791.95	21.739
792.25	29.545
792.56	39.744
792.87	2.564
793.17	6.410
793.48	10.714
793.79	7.500
794.09	25.000
794.40	19.792
794.70	30.631
795.01	19.531
795.32	20.000
795.62	9.783
795.93	26.415
796.23	23.232
796.54	20.732
796.85	20.238
797.15	13.636
797.46	7.246
797.76	27.632
798.07	22.727
798.37	25.610
798.68	16.129
798.99	9.459
799.29	21.687
799.60	12.821
799.90	33.846
800.21	33.333
800.51	14.667
800.82	20.000
801.12	-2.083
801.43	8.333
801.73	0.000
802.04	35.714
802.34	4.918
802.65	22.388
802.95	14.545
803.26	17.241
803.56	10.769
803.87	16.981
804.17	9.677
804.48	16.176
804.78	-24.390
805.09	20.290
805.39	5.882
805.70	10.638
806.00	10.526
806.30	30.769
806.61	31.579
806.91	10.811
807.22	18.421
807.52	12.500
807.83	3.390
808.13	0.000
808.43	18.333
808.74	-8.621
809.04	-3.175
809.35	10.204
809.65	1.667
809.95	0.000
810.26	21.127
810.56	8.333
810.86	8.163
811.17	25.000
811.47	2.128
811.77	10.417
812.08	0.000
812.38	9.375
812.69	32.727
812.99	-4.878
813.29	-27.027
813.59	-8.108
813.90	-23.636
814.20	21.818
814.50	10.000
814.81	10.909
815.11	1.754
815.41	16.279
815.72	10.000
816.02	25.714
816.32	-8.108
816.62	6.250
816.93	-2.222
817.23	0.000
817.53	-13.889
817.84	5.405
818.14	26.829
818.44	10.000
818.74	2.041
819.04	12.195
819.35	22.222
819.65	20.455
819.95	-33.333
820.25	-24.242
820.56	2.381
820.86	-44.444
821.16	-25.000
821.46	-2.174
821.76	22.414
822.07	8.696
822.37	3.030
822.67	17.073
822.97	-2.703
823.27	-25.714
823.57	13.793
823.88	14.706
824.18	22.222
824.48	5.714
824.78	0.000
825.08	-14.286
825.38	-11.111
825.69	-9.677
825.99	7.317
826.29	-33.333
826.59	0.000
826.89	-32.258
827.19	-4.348
827.49	-8.333
827.79	-26.087
828.09	0.000
828.39	-6.250
828.70	-25.000
829.00	3.448
829.30	2.703
829.60	-79.167
829.90	-29.630
830.20	6.250
830.50	-40.909
830.80	-111.765
831.10	-27.273
831.40	-5.882
831.70	-23.077
832.00	-9.091
832.30	8.824
832.60	2.703
832.90	1400.000
833.20	-3.571
833.50	-45.000
833.80	-7.895
834.10	-50.000
834.40	-68.182
834.70	-100.000
835.00	-110.000
835.30	-29.167
835.60	-52.381
835.90	-14.286
836.20	-44.000
836.50	-16.667
836.80	-52.632
837.10	16.216
837.40	-10.000
837.70	-26.087
838.00	4.167
838.30	-26.316
838.60	-110.000
838.90	-260.000
839.19	-25.000
839.49	30.769
839.79	-21.053
840.09	-233.333
840.39	-100.000
840.69	-13.636
840.99	-4.762
841.29	-75.000
841.59	-107.692
841.88	-100.000
842.18	-64.286
842.48	-6.667
842.78	-257.143
843.08	-42.857
843.38	-187.500
843.68	-75.000
843.97	14.286
844.27	-211.111
844.57	-190.909
844.87	-86.667
845.17	-4.545
845.47	666.667
845.76	-60.000
846.06	-125.000
846.36	-1000.000
846.66	-63.158
846.96	-45.455
847.25	-50.000
847.55	-222.222
847.85	-38.095
848.15	-69.231
848.44	-300.000
848.74	-33.333
849.04	-84.615
849.34	-300.000
849.63	-118.182
849.93	-171.429
850.23	35.000
850.53	-237.500
850.82	11.111
851.12	-66.667
851.42	0.000
851.71	-62.500
852.01	-29.412
852.31	-76.923
852.61	700.000
852.90	11.765
853.20	-46.667
853.50	-18.750
853.79	-114.286
854.09	-400.000
854.39	-30.000
854.68	-5.000
854.98	-38.095
855.28	-60.000
855.57	12.500
855.87	-25.000
856.17	-16.000
856.46	0.000
856.76	-25.000
857.05	4.000
857.35	-91.667
857.65	-52.941
857.94	-58.333
858.24	-50.000
858.53	-10.000
858.83	-154.545
859.13	16.000
859.42	-78.571
859.72	-187.500
860.01	-12.500
860.31	-187.500
860.60	-37.500
860.90	-216.667
861.20	-250.000
861.49	-33.333
861.79	-75.000
862.08	200.000
862.38	-125.000
862.67	228.571
862.97	125.000
863.26	-45.455
863.56	-145.455
863.85	10.526
864.15	-41.176
864.44	-340.000
864.74	-190.000
865.03	-133.333
865.33	7.143
865.62	100.000
865.92	15.789
866.21	-11.111
866.51	-136.364
866.80	-100.000
867.10	-187.500
867.39	-87.500
867.69	-26.667
867.98	-50.000
868.27	52.941
868.57	0.000
868.86	650.000
869.16	-300.000
869.45	-171.429
869.75	400.000
870.04	-40.000
870.33	-2200.000
870.63	-42.105
870.92	-116.667
871.22	-800.000
871.51	-271.429
871.80	-233.333
872.10	-275.000
>>>>>End Processed Spectral Data<<<<<
