SpectraSuite Data File
++++++++++++++++++++++++++++++++++++
Date: Wed May 13 21:33:41 PDT 2015
User: schluterlab
Dark Spectrum Present: Yes
Reference Spectrum Present: Yes
Number of Sampled Component Spectra: 1
Spectrometers: USB2E3373
Integration Time (usec): 3000 (USB2E3373)
Spectra Averaged: 3 (USB2E3373)
Boxcar Smoothing: 0 (USB2E3373)
Correct for Electrical Dark: No (USB2E3373)
Strobe/Lamp Enabled: No (USB2E3373)
Correct for Detector Non-linearity: No (USB2E3373)
Correct for Stray Light: No (USB2E3373)
Number of Pixels in Processed Spectrum: 2048
>>>>>Begin Processed Spectral Data<<<<<
178.53	0.000
178.91	800.000
179.29	183.333
179.67	-950.000
180.04	-466.667
180.42	320.000
180.80	2200.000
181.18	233.333
181.56	-325.000
181.94	-525.000
182.31	-81.818
182.69	176.923
183.07	-260.000
183.45	316.667
183.83	255.556
184.20	271.429
184.58	0.000
184.96	400.000
185.34	257.143
185.72	0.000
186.09	-1300.000
186.47	-420.000
186.85	120.000
187.23	-800.000
187.61	700.000
187.98	1400.000
188.36	-125.000
188.74	0.000
189.12	-109.091
189.49	90.000
189.87	66.667
190.25	400.000
190.63	1400.000
191.00	-360.000
191.38	460.000
191.76	175.000
192.14	191.667
192.51	26.316
192.89	433.333
193.27	375.000
193.65	-280.000
194.02	136.364
194.40	150.000
194.78	-200.000
195.15	160.000
195.53	-320.000
195.91	-62.500
196.29	-200.000
196.66	0.000
197.04	600.000
197.42	-200.000
197.79	0.000
198.17	-150.000
198.55	-400.000
198.92	500.000
199.30	-566.667
199.68	-20.000
200.05	100.000
200.43	316.667
200.81	-1000.000
201.18	-300.000
201.56	-216.667
201.94	275.000
202.31	8.696
202.69	-185.714
203.07	-533.333
203.44	-160.000
203.82	-266.667
204.19	-100.000
204.57	0.000
204.95	-166.667
205.32	0.000
205.70	-150.000
206.08	-275.000
206.45	-200.000
206.83	250.000
207.20	-566.667
207.58	-80.000
207.96	-2100.000
208.33	-128.571
208.71	-1400.000
209.08	137.500
209.46	375.000
209.84	0.000
210.21	120.000
210.59	1300.000
210.96	260.000
211.34	1400.000
211.71	-750.000
212.09	-183.333
212.46	-140.000
212.84	-66.667
213.22	-200.000
213.59	-1600.000
213.97	-250.000
214.34	-600.000
214.72	-30.769
215.09	287.500
215.47	233.333
215.84	800.000
216.22	-125.000
216.59	-600.000
216.97	766.667
217.34	133.333
217.72	0.000
218.09	500.000
218.47	0.000
218.84	-171.429
219.22	-187.500
219.59	-466.667
219.97	-250.000
220.34	-137.500
220.72	-80.000
221.09	0.000
221.47	-200.000
221.84	300.000
222.22	0.000
222.59	1400.000
222.97	-200.000
223.34	-66.667
223.72	-1200.000
224.09	-750.000
224.46	-45.455
224.84	-25.000
225.21	-100.000
225.59	-500.000
225.96	-100.000
226.34	-150.000
226.71	-157.143
227.08	850.000
227.46	-62.500
227.83	-1000.000
228.21	-6.250
228.58	-425.000
228.95	-23.529
229.33	-18.750
229.70	-25.000
230.08	-23.077
230.45	-125.000
230.82	-8.333
231.20	228.571
231.57	-225.000
231.95	800.000
232.32	-41.667
232.69	11.765
233.07	-1900.000
233.44	-4.348
233.81	-850.000
234.19	20.833
234.56	-86.667
234.93	-86.667
235.31	-21.053
235.68	-92.308
236.05	-30.769
236.43	-44.444
236.80	3.030
237.17	-106.667
237.55	-76.471
237.92	-51.724
238.29	-22.222
238.67	-5.556
239.04	3.226
239.41	-2.128
239.79	21.277
240.16	11.628
240.53	8.929
240.91	32.143
241.28	25.000
241.65	35.484
242.02	13.158
242.40	27.536
242.77	23.188
243.14	32.051
243.51	25.532
243.89	20.192
244.26	36.792
244.63	25.000
245.00	20.833
245.38	21.008
245.75	28.689
246.12	21.053
246.49	21.138
246.87	10.924
247.24	28.378
247.61	28.477
247.98	25.000
248.36	28.402
248.73	32.022
249.10	26.263
249.47	23.656
249.84	33.684
250.22	28.358
250.59	24.766
250.96	25.909
251.33	21.531
251.70	30.126
252.08	33.054
252.45	28.807
252.82	28.137
253.19	27.626
253.56	28.058
253.94	24.911
254.31	27.465
254.68	31.208
255.05	30.033
255.42	28.671
255.79	29.448
256.16	31.861
256.54	26.667
256.91	30.063
257.28	30.503
257.65	29.936
258.02	29.326
258.39	32.164
258.76	29.942
259.14	32.102
259.51	30.056
259.88	27.642
260.25	30.278
260.62	26.404
260.99	31.300
261.36	32.124
261.73	26.667
262.10	30.534
262.47	27.901
262.85	27.612
263.22	32.564
263.59	28.571
263.96	30.900
264.33	29.087
264.70	30.930
265.07	31.250
265.44	31.034
265.81	31.350
266.18	30.752
266.55	28.384
266.92	30.085
267.29	29.012
267.66	30.786
268.03	30.041
268.40	28.814
268.77	30.785
269.14	30.204
269.51	31.828
269.88	29.939
270.25	33.475
270.62	28.689
270.99	30.315
271.36	33.730
271.73	31.124
272.10	29.524
272.47	31.670
272.84	30.709
273.21	30.920
273.58	30.533
273.95	28.491
274.32	30.597
274.69	27.687
275.06	32.155
275.43	27.684
275.80	29.433
276.17	30.939
276.54	28.774
276.91	30.314
277.28	29.964
277.65	31.119
278.02	30.000
278.39	27.709
278.76	31.438
279.13	31.389
279.50	32.759
279.87	27.899
280.23	31.532
280.60	30.104
280.97	29.221
281.34	32.177
281.71	28.618
282.08	29.060
282.45	29.836
282.82	28.435
283.19	30.488
283.56	28.750
283.92	28.593
284.29	27.457
284.66	30.148
285.03	29.805
285.40	25.982
285.77	29.429
286.14	29.939
286.51	32.684
286.87	28.462
287.24	26.844
287.61	28.916
287.98	29.412
288.35	28.167
288.72	28.981
289.08	29.060
289.45	27.460
289.82	27.685
290.19	27.069
290.56	25.000
290.93	26.934
291.29	25.718
291.66	25.956
292.03	28.065
292.40	27.591
292.77	26.506
293.13	26.918
293.50	25.229
293.87	26.667
294.24	25.794
294.60	26.008
294.97	27.778
295.34	23.483
295.71	25.230
296.08	24.476
296.44	24.617
296.81	24.604
297.18	25.625
297.55	24.764
297.91	25.963
298.28	24.334
298.65	24.138
299.02	25.763
299.38	24.172
299.75	24.519
300.12	23.372
300.48	23.392
300.85	22.633
301.22	23.345
301.59	22.653
301.95	22.648
302.32	23.804
302.69	23.955
303.05	23.810
303.42	23.864
303.79	25.447
304.15	23.877
304.52	23.548
304.89	22.702
305.25	22.832
305.62	24.620
305.99	23.721
306.35	24.765
306.72	23.296
307.09	23.045
307.45	22.790
307.82	24.000
308.19	22.048
308.55	24.360
308.92	24.754
309.29	23.624
309.65	24.176
310.02	25.348
310.38	24.187
310.75	23.274
311.12	26.045
311.48	24.233
311.85	26.772
312.22	26.789
312.58	25.894
312.95	26.169
313.31	27.089
313.68	27.576
314.05	27.599
314.41	28.146
314.78	27.230
315.14	29.167
315.51	27.022
315.87	28.730
316.24	27.824
316.61	29.315
316.97	30.926
317.34	30.481
317.70	30.865
318.07	31.677
318.43	33.062
318.80	31.675
319.16	33.156
319.53	33.333
319.89	33.243
320.26	35.028
320.62	35.959
320.99	37.403
321.35	36.109
321.72	39.365
322.08	38.376
322.45	38.298
322.81	40.665
323.18	39.356
323.54	41.697
323.91	42.547
324.27	44.014
324.64	42.857
325.00	43.220
325.37	46.502
325.73	45.455
326.10	45.500
326.46	46.739
326.83	47.735
327.19	49.187
327.56	49.315
327.92	49.397
328.29	51.419
328.65	52.147
329.01	49.956
329.38	53.739
329.74	52.017
330.11	55.005
330.47	53.559
330.84	55.866
331.20	53.459
331.56	55.163
331.93	54.436
332.29	56.386
332.66	55.678
333.02	57.689
333.38	56.404
333.75	58.191
334.11	57.031
334.48	57.890
334.84	57.597
335.20	59.091
335.57	57.615
335.93	57.904
336.29	59.632
336.66	58.120
337.02	57.826
337.38	58.050
337.75	59.259
338.11	59.607
338.47	60.017
338.84	58.849
339.20	60.229
339.56	58.362
339.93	59.810
340.29	58.326
340.65	60.736
341.02	60.233
341.38	59.628
341.74	60.084
342.11	58.712
342.47	60.418
342.83	59.150
343.20	61.337
343.56	60.834
343.92	59.464
344.28	60.633
344.65	62.041
345.01	58.757
345.37	62.336
345.73	63.235
346.10	60.995
346.46	60.813
346.82	61.316
347.19	60.206
347.55	62.359
347.91	61.263
348.27	60.489
348.63	62.340
349.00	60.849
349.36	61.852
349.72	61.330
350.08	62.324
350.45	61.316
350.81	62.911
351.17	60.893
351.53	62.137
351.89	60.842
352.26	61.158
352.62	62.636
352.98	61.821
353.34	64.090
353.70	62.305
354.07	62.039
354.43	61.664
354.79	62.500
355.15	61.724
355.51	61.427
355.87	62.080
356.24	62.119
356.60	62.314
356.96	62.164
357.32	62.152
357.68	62.720
358.04	62.684
358.40	62.326
358.77	63.991
359.13	62.957
359.49	62.983
359.85	62.017
360.21	62.760
360.57	63.574
360.93	64.492
361.29	62.324
361.66	63.326
362.02	65.085
362.38	63.885
362.74	62.001
363.10	63.341
363.46	63.761
363.82	64.375
364.18	62.292
364.54	64.406
364.90	62.160
365.26	63.694
365.62	63.139
365.98	63.986
366.35	64.113
366.71	63.552
367.07	64.777
367.43	63.136
367.79	64.628
368.15	62.025
368.51	63.643
368.87	63.922
369.23	63.843
369.59	63.143
369.95	63.498
370.31	63.250
370.67	63.505
371.03	64.588
371.39	63.307
371.75	63.571
372.11	63.533
372.47	64.528
372.83	63.870
373.19	64.748
373.55	63.801
373.91	62.306
374.27	64.454
374.63	65.647
374.99	63.858
375.35	64.795
375.71	64.063
376.07	65.319
376.42	64.505
376.78	65.192
377.14	66.034
377.50	64.211
377.86	64.409
378.22	64.665
378.58	65.006
378.94	64.375
379.30	64.022
379.66	63.625
380.02	63.603
380.38	63.795
380.74	65.571
381.09	64.415
381.45	64.389
381.81	65.434
382.17	64.587
382.53	64.369
382.89	64.837
383.25	65.185
383.61	64.891
383.97	65.375
384.32	65.469
384.68	65.453
385.04	65.363
385.40	65.131
385.76	64.720
386.12	66.301
386.48	65.455
386.83	64.768
387.19	65.330
387.55	64.991
387.91	65.683
388.27	66.400
388.62	64.232
388.98	67.021
389.34	65.852
389.70	64.957
390.06	64.937
390.42	64.820
390.77	64.830
391.13	65.909
391.49	63.884
391.85	65.048
392.20	65.727
392.56	65.079
392.92	65.652
393.28	64.265
393.64	65.872
393.99	64.565
394.35	65.556
394.71	65.769
395.07	64.214
395.42	63.620
395.78	65.315
396.14	64.490
396.50	65.885
396.85	65.137
397.21	63.983
397.57	63.727
397.92	64.731
398.28	64.072
398.64	65.088
399.00	63.616
399.35	65.153
399.71	63.949
400.07	64.699
400.42	65.141
400.78	64.834
401.14	65.175
401.49	64.350
401.85	63.943
402.21	65.820
402.57	63.642
402.92	64.080
403.28	63.352
403.63	65.158
403.99	64.939
404.35	64.651
404.70	63.988
405.06	64.357
405.42	64.761
405.77	62.903
406.13	64.514
406.49	64.230
406.84	64.835
407.20	63.647
407.55	64.740
407.91	64.394
408.27	62.757
408.62	63.720
408.98	63.625
409.34	63.800
409.69	65.692
410.05	63.184
410.40	62.873
410.76	63.658
411.11	63.246
411.47	66.092
411.83	64.130
412.18	63.539
412.54	64.286
412.89	62.759
413.25	62.183
413.60	64.389
413.96	63.920
414.31	63.317
414.67	62.349
415.03	63.870
415.38	62.417
415.74	63.548
416.09	64.045
416.45	63.431
416.80	64.430
417.16	63.833
417.51	62.894
417.87	63.690
418.22	64.383
418.58	61.827
418.93	64.093
419.29	64.092
419.64	63.550
420.00	64.000
420.35	64.077
420.71	63.803
421.06	63.284
421.42	64.173
421.77	62.890
422.12	63.668
422.48	61.614
422.83	63.851
423.19	62.852
423.54	64.488
423.90	63.183
424.25	65.222
424.61	63.278
424.96	62.567
425.31	62.928
425.67	63.845
426.02	64.488
426.38	63.246
426.73	63.775
427.09	63.102
427.44	63.594
427.79	63.361
428.15	62.508
428.50	63.263
428.85	62.116
429.21	62.015
429.56	62.965
429.92	63.509
430.27	62.321
430.62	63.379
430.98	62.189
431.33	63.299
431.68	63.046
432.04	63.155
432.39	62.991
432.74	62.477
433.10	62.929
433.45	62.544
433.80	62.989
434.16	61.333
434.51	62.880
434.86	63.899
435.22	64.346
435.57	61.855
435.92	63.631
436.28	63.183
436.63	62.587
436.98	64.395
437.34	64.347
437.69	63.282
438.04	62.479
438.39	64.819
438.75	62.277
439.10	63.910
439.45	63.075
439.81	62.438
440.16	62.783
440.51	63.080
440.86	61.766
441.22	64.142
441.57	63.666
441.92	63.193
442.27	62.500
442.63	61.787
442.98	62.847
443.33	62.246
443.68	62.098
444.03	62.643
444.39	63.213
444.74	62.010
445.09	62.555
445.44	62.930
445.79	63.191
446.15	62.451
446.50	62.004
446.85	63.602
447.20	62.886
447.55	63.626
447.91	62.247
448.26	63.236
448.61	61.795
448.96	62.585
449.31	64.249
449.66	62.695
450.02	61.512
450.37	62.808
450.72	62.572
451.07	62.696
451.42	60.200
451.77	61.899
452.12	62.092
452.47	62.750
452.83	61.144
453.18	61.871
453.53	62.673
453.88	61.867
454.23	61.990
454.58	61.520
454.93	61.835
455.28	62.042
455.63	63.069
455.98	63.481
456.34	61.856
456.69	63.131
457.04	61.115
457.39	62.838
457.74	63.136
458.09	61.611
458.44	61.868
458.79	59.857
459.14	59.775
459.49	62.805
459.84	61.105
460.19	60.384
460.54	61.740
460.89	62.106
461.24	61.714
461.59	62.258
461.94	61.252
462.29	60.846
462.64	61.873
462.99	61.771
463.34	62.914
463.69	61.985
464.04	61.525
464.39	62.233
464.74	61.794
465.09	61.314
465.44	59.933
465.79	60.437
466.14	60.775
466.49	60.352
466.84	61.088
467.19	61.274
467.54	60.596
467.89	60.842
468.24	61.893
468.59	61.568
468.94	60.983
469.29	60.939
469.64	61.367
469.99	62.138
470.34	61.227
470.68	60.595
471.03	61.213
471.38	61.613
471.73	61.454
472.08	61.993
472.43	62.137
472.78	60.920
473.13	59.828
473.48	61.709
473.83	61.707
474.17	61.654
474.52	61.359
474.87	60.736
475.22	60.990
475.57	60.792
475.92	61.396
476.27	60.023
476.61	60.136
476.96	60.879
477.31	60.572
477.66	60.847
478.01	59.341
478.36	60.272
478.70	60.526
479.05	60.988
479.40	59.958
479.75	61.743
480.10	59.255
480.45	58.558
480.79	59.084
481.14	59.980
481.49	60.335
481.84	58.341
482.19	58.916
482.53	60.476
482.88	60.307
483.23	58.566
483.58	57.703
483.92	58.804
484.27	59.195
484.62	58.056
484.97	58.233
485.31	58.223
485.66	54.461
486.01	55.207
486.36	55.232
486.70	56.189
487.05	57.189
487.40	56.174
487.75	56.991
488.09	56.960
488.44	57.133
488.79	57.684
489.13	57.893
489.48	56.947
489.83	58.106
490.17	58.466
490.52	59.607
490.87	57.765
491.22	59.491
491.56	60.134
491.91	59.145
492.26	59.865
492.60	58.009
492.95	57.872
493.30	57.558
493.64	57.362
493.99	58.889
494.34	58.671
494.68	58.902
495.03	58.893
495.37	58.881
495.72	58.847
496.07	59.036
496.41	57.838
496.76	57.313
497.11	57.981
497.45	57.977
497.80	59.515
498.14	58.237
498.49	56.682
498.84	58.856
499.18	57.840
499.53	57.262
499.87	57.254
500.22	58.188
500.56	58.225
500.91	58.199
501.26	57.833
501.60	57.010
501.95	57.307
502.29	57.573
502.64	57.811
502.98	57.274
503.33	57.324
503.67	57.546
504.02	56.912
504.36	57.504
504.71	56.352
505.06	58.686
505.40	58.247
505.75	58.037
506.09	56.822
506.44	56.956
506.78	56.983
507.13	58.576
507.47	57.423
507.82	57.614
508.16	57.098
508.51	55.475
508.85	57.076
509.19	57.566
509.54	58.284
509.88	57.419
510.23	56.105
510.57	55.879
510.92	58.082
511.26	57.371
511.61	57.958
511.95	56.505
512.30	57.190
512.64	58.740
512.98	56.454
513.33	57.239
513.67	57.524
514.02	58.951
514.36	56.124
514.70	57.217
515.05	56.700
515.39	58.137
515.74	58.259
516.08	56.165
516.42	56.912
516.77	57.001
517.11	56.908
517.46	58.043
517.80	57.446
518.14	58.481
518.49	57.203
518.83	56.265
519.17	56.807
519.52	57.298
519.86	58.045
520.20	56.458
520.55	58.458
520.89	57.938
521.23	58.654
521.58	58.407
521.92	56.631
522.26	56.474
522.61	57.789
522.95	58.549
523.29	56.317
523.64	57.279
523.98	56.353
524.32	56.774
524.66	58.831
525.01	58.060
525.35	57.275
525.69	57.720
526.04	57.524
526.38	55.322
526.72	57.725
527.06	56.802
527.41	55.460
527.75	56.208
528.09	57.999
528.43	58.887
528.78	55.362
529.12	56.598
529.46	56.238
529.80	56.634
530.15	55.019
530.49	57.951
530.83	57.549
531.17	57.123
531.51	55.226
531.86	56.843
532.20	56.099
532.54	56.069
532.88	56.433
533.22	56.970
533.57	55.430
533.91	55.935
534.25	57.031
534.59	56.049
534.93	55.548
535.27	55.287
535.62	56.579
535.96	55.498
536.30	54.987
536.64	54.545
536.98	55.151
537.32	55.587
537.66	56.488
538.01	55.201
538.35	54.765
538.69	54.983
539.03	53.356
539.37	53.186
539.71	54.638
540.05	52.834
540.39	53.682
540.73	54.609
541.07	56.939
541.42	54.411
541.76	54.398
542.10	53.961
542.44	53.915
542.78	54.198
543.12	54.245
543.46	54.596
543.80	54.311
544.14	54.233
544.48	53.019
544.82	53.800
545.16	53.144
545.50	53.410
545.84	53.226
546.18	53.226
546.52	53.423
546.86	53.357
547.20	54.110
547.54	53.252
547.88	53.711
548.22	52.704
548.56	52.769
548.90	52.571
549.24	53.611
549.58	52.456
549.92	54.219
550.26	55.424
550.60	53.003
550.94	54.179
551.28	52.763
551.62	53.308
551.96	52.709
552.30	52.475
552.64	51.342
552.98	53.764
553.32	52.632
553.66	53.338
554.00	52.628
554.34	52.747
554.68	53.766
555.02	52.994
555.36	53.631
555.69	53.824
556.03	51.894
556.37	51.280
556.71	51.296
557.05	51.144
557.39	52.298
557.73	52.874
558.07	52.675
558.41	52.460
558.75	52.733
559.08	52.366
559.42	53.265
559.76	52.905
560.10	52.806
560.44	54.606
560.78	53.022
561.12	52.137
561.45	51.973
561.79	50.344
562.13	50.844
562.47	52.357
562.81	50.577
563.15	50.779
563.48	51.136
563.82	50.684
564.16	50.575
564.50	50.475
564.84	50.811
565.17	49.536
565.51	50.267
565.85	49.500
566.19	50.530
566.52	50.131
566.86	48.230
567.20	49.481
567.54	49.050
567.88	47.928
568.21	47.040
568.55	47.574
568.89	47.956
569.23	46.975
569.56	46.767
569.90	45.897
570.24	44.801
570.57	44.865
570.91	45.040
571.25	45.096
571.59	43.927
571.92	44.529
572.26	44.045
572.60	44.657
572.93	44.861
573.27	43.456
573.61	45.235
573.95	43.496
574.28	43.697
574.62	43.199
574.96	43.922
575.29	43.506
575.63	43.414
575.97	44.266
576.30	42.786
576.64	42.966
576.98	43.769
577.31	43.383
577.65	42.766
577.98	43.224
578.32	43.155
578.66	42.789
578.99	42.840
579.33	43.028
579.67	42.541
580.00	42.584
580.34	42.511
580.67	42.651
581.01	42.840
581.35	42.663
581.68	42.022
582.02	42.288
582.35	42.742
582.69	42.512
583.02	41.932
583.36	42.638
583.70	42.007
584.03	42.491
584.37	42.158
584.70	42.210
585.04	42.938
585.37	42.114
585.71	42.041
586.04	42.206
586.38	41.963
586.72	42.400
587.05	43.063
587.39	42.411
587.72	41.835
588.06	42.353
588.39	42.401
588.73	41.877
589.06	42.968
589.40	42.518
589.73	42.221
590.07	41.852
590.40	42.938
590.73	43.598
591.07	43.209
591.40	42.522
591.74	43.575
592.07	42.994
592.41	43.072
592.74	42.670
593.08	41.675
593.41	42.293
593.75	42.474
594.08	41.727
594.41	41.865
594.75	42.841
595.08	43.503
595.42	41.195
595.75	42.082
596.09	42.225
596.42	42.402
596.75	42.826
597.09	44.086
597.42	43.428
597.75	42.889
598.09	42.805
598.42	43.490
598.76	41.604
599.09	42.497
599.42	41.994
599.76	41.607
600.09	41.717
600.42	41.657
600.76	41.685
601.09	41.808
601.42	41.435
601.76	40.849
602.09	41.913
602.42	42.138
602.76	42.240
603.09	42.669
603.42	41.743
603.76	41.660
604.09	41.462
604.42	41.900
604.76	41.336
605.09	42.048
605.42	41.745
605.75	41.199
606.09	40.728
606.42	41.189
606.75	41.515
607.09	41.445
607.42	42.119
607.75	40.875
608.08	41.163
608.42	41.237
608.75	42.475
609.08	41.842
609.41	41.530
609.75	42.209
610.08	42.160
610.41	41.691
610.74	42.252
611.07	42.335
611.41	42.784
611.74	42.443
612.07	40.646
612.40	43.081
612.73	42.755
613.07	40.521
613.40	42.291
613.73	41.983
614.06	41.957
614.39	42.468
614.72	42.532
615.06	41.833
615.39	41.060
615.72	41.307
616.05	41.948
616.38	41.753
616.71	40.552
617.05	43.366
617.38	42.206
617.71	42.831
618.04	41.987
618.37	42.776
618.70	41.785
619.03	43.162
619.36	43.345
619.69	42.325
620.03	42.261
620.36	43.076
620.69	42.041
621.02	43.000
621.35	43.091
621.68	42.869
622.01	44.256
622.34	43.933
622.67	44.088
623.00	43.921
623.33	42.558
623.66	43.271
623.99	43.211
624.32	42.627
624.65	43.472
624.99	42.910
625.32	42.569
625.65	43.023
625.98	41.627
626.31	41.959
626.64	42.820
626.97	44.723
627.30	44.226
627.63	42.734
627.96	41.905
628.29	44.093
628.62	44.004
628.95	43.587
629.28	45.222
629.61	44.785
629.94	43.327
630.26	44.532
630.59	43.656
630.92	43.675
631.25	45.520
631.58	45.182
631.91	44.221
632.24	45.335
632.57	43.667
632.90	45.041
633.23	44.245
633.56	47.242
633.89	45.933
634.22	46.879
634.55	47.625
634.88	43.505
635.20	46.125
635.53	46.770
635.86	45.513
636.19	45.037
636.52	46.220
636.85	44.994
637.18	42.996
637.51	45.818
637.83	45.300
638.16	44.800
638.49	44.593
638.82	46.275
639.15	44.415
639.48	45.856
639.81	45.694
640.13	46.620
640.46	45.480
640.79	46.763
641.12	45.562
641.45	46.725
641.77	45.655
642.10	45.234
642.43	47.327
642.76	45.268
643.09	45.367
643.41	44.498
643.74	47.496
644.07	44.337
644.40	45.605
644.73	45.763
645.05	47.818
645.38	44.352
645.71	47.109
646.04	44.949
646.36	47.569
646.69	46.329
647.02	48.452
647.35	47.898
647.67	46.950
648.00	43.297
648.33	46.102
648.66	44.240
648.98	43.634
649.31	44.785
649.64	41.471
649.96	43.602
650.29	41.667
650.62	44.316
650.94	45.172
651.27	46.466
651.60	46.329
651.92	47.491
652.25	45.059
652.58	44.554
652.90	45.118
653.23	43.124
653.56	42.975
653.88	44.881
654.21	42.321
654.54	45.681
654.86	43.252
655.19	41.317
655.52	41.264
655.84	36.685
656.17	42.975
656.49	55.875
656.82	54.366
657.15	40.536
657.47	29.639
657.80	22.286
658.13	23.275
658.45	33.904
658.78	34.025
659.10	34.373
659.43	34.428
659.75	34.768
660.08	35.586
660.41	36.613
660.73	38.154
661.06	43.197
661.38	43.217
661.71	45.697
662.03	43.975
662.36	46.460
662.68	47.097
663.01	47.458
663.33	42.981
663.66	43.681
663.98	45.618
664.31	46.593
664.63	43.243
664.96	44.639
665.28	47.210
665.61	45.140
665.93	43.469
666.26	45.359
666.58	42.184
666.91	45.067
667.23	44.470
667.56	44.828
667.88	44.159
668.21	43.973
668.53	44.368
668.86	47.242
669.18	44.208
669.50	43.548
669.83	45.346
670.15	44.048
670.48	45.287
670.80	42.888
671.13	43.478
671.45	45.890
671.77	43.103
672.10	43.860
672.42	41.412
672.75	40.357
673.07	42.727
673.39	41.418
673.72	42.315
674.04	43.443
674.37	42.276
674.69	39.918
675.01	41.667
675.34	41.794
675.66	47.059
675.98	41.814
676.31	44.570
676.63	45.805
676.95	40.706
677.28	42.661
677.60	45.098
677.92	43.016
678.25	43.167
678.57	41.955
678.89	43.497
679.22	39.959
679.54	42.449
679.86	41.602
680.18	40.000
680.51	41.154
680.83	41.326
681.15	40.275
681.48	40.882
681.80	38.241
682.12	41.042
682.44	38.229
682.77	37.684
683.09	40.625
683.41	41.395
683.73	40.625
684.06	39.381
684.38	41.239
684.70	39.104
685.02	42.355
685.34	39.726
685.67	42.214
685.99	38.434
686.31	40.517
686.63	39.890
686.96	41.744
687.28	37.725
687.60	41.966
687.92	40.467
688.24	36.400
688.56	43.421
688.89	37.639
689.21	40.583
689.53	38.739
689.85	39.775
690.17	38.681
690.49	43.478
690.82	39.379
691.14	41.787
691.46	39.443
691.78	39.780
692.10	39.066
692.42	37.363
692.74	39.565
693.06	36.404
693.39	39.344
693.71	37.778
694.03	41.364
694.35	39.865
694.67	41.750
694.99	44.330
695.31	40.052
695.63	42.195
695.95	37.659
696.27	40.274
696.59	38.172
696.91	41.620
697.23	40.102
697.56	43.645
697.88	37.006
698.20	42.765
698.52	38.318
698.84	37.560
699.16	35.225
699.48	40.741
699.80	39.535
700.12	41.823
700.44	34.366
700.76	39.607
701.08	40.785
701.40	43.713
701.72	40.000
702.04	37.736
702.36	38.720
702.68	38.415
703.00	39.181
703.32	38.997
703.64	40.663
703.96	38.123
704.28	39.157
704.60	40.549
704.91	35.423
705.23	38.608
705.55	40.690
705.87	41.197
706.19	39.560
706.51	36.972
706.83	39.490
707.15	39.024
707.47	36.088
707.79	36.802
708.11	35.733
708.43	42.893
708.74	35.372
709.06	37.968
709.38	36.888
709.70	38.438
710.02	37.383
710.34	41.333
710.66	39.739
710.98	37.771
711.29	41.883
711.61	34.839
711.93	41.290
712.25	40.559
712.57	32.982
712.89	39.194
713.20	39.362
713.52	36.496
713.84	38.710
714.16	35.599
714.48	37.658
714.80	36.102
715.11	35.174
715.43	38.199
715.75	36.957
716.07	35.542
716.39	33.333
716.70	41.727
717.02	35.294
717.34	37.879
717.66	34.483
717.97	37.698
718.29	38.189
718.61	36.481
718.93	31.008
719.24	32.841
719.56	34.831
719.88	35.821
720.20	39.526
720.51	37.109
720.83	39.300
721.15	32.114
721.46	33.588
721.78	38.247
722.10	38.247
722.42	34.274
722.73	39.382
723.05	38.367
723.37	39.496
723.68	34.800
724.00	30.638
724.32	36.820
724.63	40.329
724.95	35.043
725.27	38.397
725.58	37.037
725.90	38.075
726.22	36.594
726.53	32.157
726.85	40.146
727.16	34.815
727.48	36.782
727.80	36.719
728.11	38.525
728.43	33.984
728.74	34.921
729.06	35.200
729.38	34.387
729.69	35.587
730.01	31.227
730.32	36.162
730.64	35.985
730.96	38.112
731.27	32.776
731.59	33.968
731.90	33.981
732.22	32.372
732.53	36.149
732.85	31.879
733.16	36.304
733.48	33.784
733.80	32.095
734.11	35.135
734.43	36.533
734.74	36.937
735.06	32.853
735.37	33.131
735.69	33.657
736.00	34.983
736.32	35.461
736.63	32.414
736.95	32.534
737.26	34.828
737.58	38.194
737.89	31.615
738.21	34.164
738.52	35.361
738.83	37.959
739.15	33.755
739.46	33.074
739.78	28.521
740.09	29.110
740.41	29.286
740.72	31.206
741.04	33.200
741.35	35.088
741.66	38.222
741.98	32.692
742.29	42.574
742.61	30.732
742.92	40.789
743.23	34.906
743.55	33.333
743.86	33.184
744.18	36.765
744.49	32.487
744.80	38.265
745.12	33.645
745.43	34.597
745.74	30.631
746.06	38.318
746.37	33.486
746.68	37.981
747.00	33.014
747.31	31.250
747.62	33.028
747.94	37.991
748.25	42.202
748.56	40.000
748.88	35.211
749.19	37.143
749.50	27.184
749.82	34.272
750.13	32.083
750.44	34.231
750.75	33.210
751.07	36.655
751.38	31.915
751.69	30.888
752.01	33.984
752.32	31.538
752.63	32.463
752.94	34.000
753.26	33.054
753.57	35.833
753.88	38.057
754.19	31.873
754.51	30.827
754.82	32.234
755.13	31.739
755.44	31.301
755.75	30.000
756.07	34.686
756.38	34.892
756.69	34.130
757.00	33.333
757.31	32.039
757.63	32.716
757.94	34.181
758.25	31.481
758.56	29.891
758.87	34.821
759.18	31.546
759.50	27.946
759.81	34.114
760.12	33.538
760.43	25.893
760.74	33.051
761.05	28.453
761.36	26.648
761.67	30.211
761.99	29.897
762.30	30.292
762.61	33.333
762.92	37.179
763.23	31.967
763.54	34.199
763.85	31.429
764.16	29.268
764.47	31.600
764.78	32.857
765.10	29.180
765.41	31.307
765.72	32.298
766.03	27.393
766.34	34.231
766.65	27.615
766.96	37.089
767.27	28.218
767.58	25.281
767.89	31.481
768.20	37.569
768.51	32.663
768.82	34.135
769.13	31.858
769.44	34.310
769.75	22.222
770.06	30.045
770.37	30.882
770.68	30.583
770.99	32.524
771.30	31.933
771.61	26.122
771.92	32.780
772.23	34.234
772.54	19.337
772.85	29.070
773.16	32.804
773.47	25.444
773.78	35.057
774.09	31.250
774.39	31.677
774.70	38.095
775.01	28.276
775.32	31.429
775.63	27.068
775.94	26.316
776.25	29.600
776.56	36.364
776.87	34.127
777.18	32.432
777.48	34.234
777.79	27.559
778.10	29.358
778.41	24.561
778.72	26.050
779.03	18.310
779.34	30.405
779.65	29.577
779.95	25.166
780.26	27.338
780.57	26.619
780.88	21.831
781.19	24.370
781.50	29.530
781.80	32.749
782.11	17.442
782.42	30.189
782.73	32.026
783.04	26.897
783.34	24.427
783.65	24.161
783.96	23.846
784.27	20.000
784.57	29.787
784.88	25.000
785.19	40.909
785.50	36.364
785.81	18.095
786.11	23.529
786.42	37.168
786.73	26.415
787.04	27.523
787.34	16.832
787.65	25.833
787.96	33.058
788.26	27.536
788.57	21.429
788.88	26.829
789.19	20.800
789.49	19.084
789.80	30.303
790.11	19.811
790.41	19.802
790.72	34.043
791.03	26.087
791.33	22.353
791.64	25.926
791.95	22.826
792.25	23.864
792.56	29.487
792.87	17.949
793.17	20.513
793.48	28.571
793.79	16.250
794.09	36.538
794.40	25.000
794.70	20.721
795.01	27.344
795.32	16.522
795.62	19.565
795.93	22.642
796.23	25.253
796.54	23.171
796.85	26.190
797.15	34.848
797.46	14.493
797.76	10.526
798.07	12.500
798.37	18.293
798.68	11.290
798.99	9.459
799.29	27.711
799.60	24.359
799.90	24.615
800.21	21.212
800.51	21.333
800.82	25.333
801.12	-18.750
801.43	6.667
801.73	5.405
802.04	30.000
802.34	13.115
802.65	22.388
802.95	23.636
803.26	31.034
803.56	13.846
803.87	5.660
804.17	16.129
804.48	13.235
804.78	-2.439
805.09	31.884
805.39	20.588
805.70	10.638
806.00	17.544
806.30	24.359
806.61	15.789
806.91	14.865
807.22	17.105
807.52	30.682
807.83	6.780
808.13	3.030
808.43	11.667
808.74	-6.897
809.04	20.635
809.35	6.122
809.65	10.000
809.95	-2.041
810.26	25.352
810.56	20.833
810.86	2.041
811.17	-3.846
811.47	14.894
811.77	14.583
812.08	5.660
812.38	-18.750
812.69	27.273
812.99	24.390
813.29	-21.622
813.59	-2.703
813.90	3.636
814.20	21.818
814.50	8.333
814.81	21.818
815.11	24.561
815.41	18.605
815.72	25.000
816.02	40.000
816.32	2.703
816.62	12.500
816.93	17.778
817.23	13.333
817.53	-8.333
817.84	-2.703
818.14	17.073
818.44	-4.000
818.74	20.408
819.04	-4.878
819.35	0.000
819.65	20.455
819.95	-100.000
820.25	-9.091
820.56	-21.429
820.86	5.556
821.16	-9.091
821.46	-17.391
821.76	1.724
822.07	6.522
822.37	15.152
822.67	36.585
822.97	10.811
823.27	-28.571
823.57	6.897
823.88	-8.824
824.18	13.889
824.48	-14.286
824.78	-23.810
825.08	21.429
825.38	-18.519
825.69	0.000
825.99	12.195
826.29	7.407
826.59	6.250
826.89	-3.226
827.19	-43.478
827.49	-44.444
827.79	-26.087
828.09	3.226
828.39	-2.083
828.70	-34.375
829.00	-13.793
829.30	2.703
829.60	-70.833
829.90	3.704
830.20	-25.000
830.50	-36.364
830.80	-58.824
831.10	-9.091
831.40	-11.765
831.70	11.538
832.00	6.061
832.30	0.000
832.60	21.622
832.90	400.000
833.20	0.000
833.50	-60.000
833.80	-7.895
834.10	-54.167
834.40	-9.091
834.70	20.000
835.00	-110.000
835.30	12.500
835.60	-19.048
835.90	-4.762
836.20	-12.000
836.50	-33.333
836.80	-42.105
837.10	18.919
837.40	-20.000
837.70	-4.348
838.00	20.833
838.30	10.526
838.60	-190.000
838.90	-180.000
839.19	-16.667
839.49	-23.077
839.79	-26.316
840.09	-300.000
840.39	10.000
840.69	0.000
840.99	-14.286
841.29	-37.500
841.59	-38.462
841.88	-80.000
842.18	-57.143
842.48	3.333
842.78	-242.857
843.08	-114.286
843.38	-137.500
843.68	-162.500
843.97	-71.429
844.27	-200.000
844.57	-136.364
844.87	-80.000
845.17	-22.727
845.47	533.333
845.76	-100.000
846.06	-91.667
846.36	-400.000
846.66	-5.263
846.96	-31.818
847.25	-44.444
847.55	-222.222
847.85	-52.381
848.15	30.769
848.44	-316.667
848.74	-125.000
849.04	-84.615
849.34	-425.000
849.63	-45.455
849.93	-135.714
850.23	0.000
850.53	-187.500
850.82	-16.667
851.12	-46.667
851.42	-64.706
851.71	-175.000
852.01	-5.882
852.31	-84.615
852.61	950.000
852.90	0.000
853.20	-26.667
853.50	-43.750
853.79	-121.429
854.09	-325.000
854.39	-50.000
854.68	-5.000
854.98	-57.143
855.28	-24.000
855.57	20.833
855.87	0.000
856.17	-52.000
856.46	-25.000
856.76	-15.000
857.05	-20.000
857.35	-108.333
857.65	5.882
857.94	-216.667
858.24	-83.333
858.53	-20.000
858.83	-100.000
859.13	-8.000
859.42	-71.429
859.72	-137.500
860.01	-4.167
860.31	-200.000
860.60	-37.500
860.90	33.333
861.20	-183.333
861.49	33.333
861.79	-37.500
862.08	400.000
862.38	-158.333
862.67	214.286
862.97	400.000
863.26	-181.818
863.56	-9.091
863.85	31.579
864.15	0.000
864.44	-220.000
864.74	-120.000
865.03	-233.333
865.33	-7.143
865.62	121.429
865.92	-15.789
866.21	-38.889
866.51	-218.182
866.80	-155.556
867.10	-137.500
867.39	-37.500
867.69	-86.667
867.98	-40.000
868.27	0.000
868.57	0.000
868.86	1050.000
869.16	-350.000
869.45	-257.143
869.75	-0.000
870.04	40.000
870.33	-1100.000
870.63	-31.579
870.92	-108.333
871.22	-1200.000
871.51	-142.857
871.80	-222.222
872.10	-300.000
>>>>>End Processed Spectral Data<<<<<
