SpectraSuite Data File
++++++++++++++++++++++++++++++++++++
Date: Wed May 13 21:33:43 PDT 2015
User: schluterlab
Dark Spectrum Present: Yes
Reference Spectrum Present: Yes
Number of Sampled Component Spectra: 1
Spectrometers: USB2E3373
Integration Time (usec): 3000 (USB2E3373)
Spectra Averaged: 3 (USB2E3373)
Boxcar Smoothing: 0 (USB2E3373)
Correct for Electrical Dark: No (USB2E3373)
Strobe/Lamp Enabled: No (USB2E3373)
Correct for Detector Non-linearity: No (USB2E3373)
Correct for Stray Light: No (USB2E3373)
Number of Pixels in Processed Spectrum: 2048
>>>>>Begin Processed Spectral Data<<<<<
178.53	0.000
178.91	450.000
179.29	141.667
179.67	-950.000
180.04	-66.667
180.42	240.000
180.80	1500.000
181.18	366.667
181.56	-500.000
181.94	-175.000
182.31	-54.545
182.69	123.077
183.07	-100.000
183.45	366.667
183.83	177.778
184.20	142.857
184.58	-333.333
184.96	500.000
185.34	171.429
185.72	0.000
186.09	-600.000
186.47	-320.000
186.85	200.000
187.23	-100.000
187.61	500.000
187.98	1600.000
188.36	-37.500
188.74	0.000
189.12	-45.455
189.49	-50.000
189.87	183.333
190.25	360.000
190.63	1300.000
191.00	-160.000
191.38	320.000
191.76	375.000
192.14	141.667
192.51	-26.316
192.89	566.667
193.27	475.000
193.65	-300.000
194.02	200.000
194.40	280.000
194.78	-700.000
195.15	400.000
195.53	-260.000
195.91	-12.500
196.29	-500.000
196.66	0.000
197.04	350.000
197.42	-100.000
197.79	-70.000
198.17	-150.000
198.55	-300.000
198.92	200.000
199.30	-233.333
199.68	10.000
200.05	700.000
200.43	133.333
200.81	-1200.000
201.18	-220.000
201.56	-150.000
201.94	700.000
202.31	-13.043
202.69	-242.857
203.07	-533.333
203.44	40.000
203.82	-433.333
204.19	-40.000
204.57	0.000
204.95	-100.000
205.32	0.000
205.70	0.000
206.08	-400.000
206.45	-116.667
206.83	500.000
207.20	-400.000
207.58	-30.000
207.96	-1600.000
208.33	-171.429
208.71	-1400.000
209.08	200.000
209.46	400.000
209.84	0.000
210.21	100.000
210.59	1700.000
210.96	380.000
211.34	2500.000
211.71	-1100.000
212.09	-300.000
212.46	-160.000
212.84	-100.000
213.22	-125.000
213.59	-800.000
213.97	-550.000
214.34	-1100.000
214.72	-38.462
215.09	137.500
215.47	88.889
215.84	1200.000
216.22	-75.000
216.59	-450.000
216.97	766.667
217.34	155.556
217.72	0.000
218.09	500.000
218.47	-300.000
218.84	-157.143
219.22	-187.500
219.59	-466.667
219.97	-275.000
220.34	-125.000
220.72	-120.000
221.09	0.000
221.47	-250.000
221.84	-1300.000
222.22	0.000
222.59	1000.000
222.97	-633.333
223.34	-66.667
223.72	-1000.000
224.09	-600.000
224.46	-36.364
224.84	-25.000
225.21	-128.571
225.59	-275.000
225.96	-200.000
226.34	-90.000
226.71	-285.714
227.08	650.000
227.46	-125.000
227.83	-300.000
228.21	18.750
228.58	-325.000
228.95	-58.824
229.33	-37.500
229.70	-37.500
230.08	-53.846
230.45	-162.500
230.82	-50.000
231.20	228.571
231.57	-250.000
231.95	1100.000
232.32	-16.667
232.69	-5.882
233.07	-1300.000
233.44	0.000
233.81	-500.000
234.19	0.000
234.56	-40.000
234.93	-53.333
235.31	5.263
235.68	-115.385
236.05	-46.154
236.43	-72.222
236.80	-48.485
237.17	-106.667
237.55	-82.353
237.92	-55.172
238.29	-62.963
238.67	-5.556
239.04	-29.032
239.41	-29.787
239.79	12.766
240.16	-13.953
240.53	16.071
240.91	5.357
241.28	-7.143
241.65	-3.226
242.02	-11.842
242.40	1.449
242.77	-8.696
243.14	-3.846
243.51	7.447
243.89	1.923
244.26	0.943
244.63	-1.923
245.00	1.042
245.38	5.042
245.75	5.738
246.12	6.015
246.49	-4.878
246.87	-14.286
247.24	0.676
247.61	0.000
247.98	1.923
248.36	-1.183
248.73	0.562
249.10	1.515
249.47	-1.613
249.84	5.263
250.22	0.995
250.59	5.607
250.96	5.455
251.33	-0.478
251.70	5.439
252.08	10.460
252.45	4.527
252.82	7.605
253.19	1.167
253.56	4.317
253.94	6.050
254.31	8.099
254.68	8.054
255.05	6.271
255.42	2.797
255.79	6.135
256.16	6.309
256.54	3.175
256.91	3.481
257.28	9.748
257.65	2.229
258.02	5.572
258.39	7.018
258.76	2.326
259.14	6.534
259.51	3.652
259.88	6.504
260.25	6.389
260.62	6.461
260.99	7.162
261.36	6.218
261.73	6.173
262.10	4.326
262.47	6.173
262.85	4.726
263.22	3.846
263.59	4.416
263.96	5.596
264.33	6.490
264.70	6.977
265.07	7.407
265.44	5.517
265.81	5.950
266.18	5.923
266.55	3.930
266.92	5.297
267.29	5.556
267.66	5.945
268.03	7.819
268.40	6.144
268.77	8.264
269.14	7.347
269.51	11.294
269.88	5.499
270.25	8.051
270.62	4.303
270.99	5.709
271.36	5.952
271.73	8.835
272.10	5.714
272.47	8.061
272.84	4.528
273.21	9.980
273.58	5.943
273.95	6.038
274.32	7.836
274.69	6.922
275.06	7.597
275.43	5.838
275.80	4.787
276.17	4.420
276.54	6.750
276.91	6.794
277.28	4.693
277.65	6.818
278.02	7.857
278.39	6.750
278.76	7.191
279.13	6.690
279.50	6.207
279.87	5.435
280.23	6.667
280.60	6.401
280.97	5.844
281.34	7.098
281.71	4.715
282.08	4.957
282.45	6.885
282.82	6.070
283.19	8.841
283.56	6.094
283.92	6.728
284.29	4.524
284.66	6.260
285.03	3.909
285.40	5.136
285.77	7.357
286.14	5.927
286.51	8.846
286.87	6.000
287.24	4.572
287.61	8.283
287.98	7.206
288.35	5.961
288.72	6.743
289.08	6.410
289.45	6.902
289.82	6.051
290.19	6.732
290.56	6.392
290.93	6.215
291.29	5.746
291.66	4.645
292.03	5.177
292.40	6.864
292.77	6.426
293.13	6.555
293.50	6.667
293.87	5.600
294.24	7.540
294.60	6.372
294.97	7.937
295.34	5.673
295.71	4.074
296.08	6.152
296.44	5.230
296.81	5.116
297.18	6.000
297.55	6.486
297.91	5.839
298.28	5.448
298.65	5.419
299.02	7.448
299.38	4.663
299.75	7.332
300.12	5.465
300.48	5.029
300.85	4.734
301.22	6.039
301.59	4.930
301.95	5.923
302.32	5.368
302.69	4.068
303.05	5.426
303.42	5.682
303.79	7.045
304.15	5.586
304.52	6.452
304.89	4.762
305.25	5.049
305.62	5.640
305.99	5.332
306.35	6.583
306.72	6.714
307.09	4.275
307.45	4.686
307.82	5.789
308.19	5.643
308.55	5.732
308.92	7.073
309.29	5.806
309.65	5.495
310.02	5.964
310.38	6.301
310.75	5.128
311.12	5.637
311.48	4.847
311.85	6.299
312.22	6.770
312.58	6.087
312.95	6.070
313.31	7.530
313.68	6.966
314.05	7.467
314.41	7.877
314.78	8.065
315.14	7.963
315.51	7.802
315.87	8.712
316.24	8.356
316.61	9.954
316.97	9.074
317.34	9.447
317.70	10.794
318.07	11.269
318.43	10.659
318.80	11.169
319.16	11.052
319.53	10.394
319.89	12.285
320.26	12.477
320.62	13.531
320.99	12.984
321.35	12.535
321.72	15.014
322.08	15.775
322.45	16.374
322.81	17.560
323.18	16.369
323.54	17.870
323.91	19.422
324.27	19.442
324.64	19.948
325.00	20.210
325.37	23.038
325.73	22.054
326.10	23.213
326.46	24.080
326.83	25.485
327.19	26.098
327.56	26.833
327.92	28.158
328.29	28.297
328.65	29.535
329.01	29.815
329.38	31.913
329.74	31.588
330.11	32.462
330.47	31.163
330.84	33.123
331.20	33.817
331.56	35.145
331.93	35.228
332.29	36.751
332.66	36.441
333.02	36.924
333.38	37.544
333.75	36.945
334.11	38.108
334.48	40.105
334.84	39.134
335.20	38.508
335.57	39.687
335.93	39.089
336.29	39.842
336.66	39.915
337.02	39.652
337.38	39.426
337.75	40.655
338.11	40.820
338.47	40.411
338.84	39.347
339.20	42.593
339.56	42.150
339.93	41.832
340.29	40.564
340.65	42.686
341.02	41.431
341.38	41.639
341.74	42.185
342.11	41.536
342.47	42.929
342.83	41.503
343.20	43.655
343.56	43.173
343.92	42.405
344.28	43.182
344.65	41.959
345.01	42.615
345.37	42.845
345.73	44.199
346.10	43.018
346.46	42.927
346.82	43.740
347.19	41.693
347.55	43.538
347.91	42.479
348.27	42.981
348.63	43.830
349.00	43.868
349.36	44.113
349.72	44.084
350.08	43.604
350.45	43.070
350.81	44.131
351.17	43.649
351.53	43.676
351.89	43.844
352.26	42.162
352.62	44.496
352.98	44.329
353.34	45.330
353.70	44.393
354.07	44.235
354.43	43.313
354.79	45.513
355.15	44.798
355.51	44.419
355.87	46.052
356.24	45.104
356.60	44.019
356.96	44.666
357.32	45.201
357.68	45.149
358.04	44.996
358.40	45.736
358.77	43.502
359.13	45.058
359.49	45.420
359.85	45.110
360.21	45.952
360.57	45.932
360.93	46.510
361.29	46.410
361.66	46.697
362.02	45.070
362.38	46.012
362.74	44.670
363.10	46.782
363.46	45.605
363.82	46.046
364.18	45.903
364.54	46.900
364.90	46.132
365.26	45.364
365.62	46.236
365.98	46.263
366.35	46.454
366.71	46.006
367.07	46.492
367.43	45.714
367.79	46.769
368.15	47.257
368.51	46.414
368.87	46.615
369.23	47.687
369.59	46.512
369.95	47.750
370.31	47.559
370.67	46.705
371.03	46.696
371.39	48.261
371.75	47.071
372.11	46.581
372.47	46.575
372.83	47.503
373.19	47.626
373.55	46.893
373.91	45.757
374.27	46.335
374.63	47.724
374.99	46.240
375.35	47.534
375.71	47.690
376.07	47.704
376.42	47.594
376.78	49.339
377.14	48.475
377.50	46.871
377.86	46.879
378.22	48.673
378.58	47.604
378.94	48.375
379.30	47.220
379.66	47.226
380.02	48.284
380.38	47.169
380.74	49.014
381.09	47.949
381.45	48.307
381.81	48.614
382.17	47.385
382.53	47.877
382.89	47.829
383.25	47.469
383.61	49.274
383.97	47.562
384.32	48.582
384.68	49.229
385.04	47.831
385.40	49.128
385.76	48.297
386.12	48.160
386.48	48.652
386.83	48.248
387.19	47.687
387.55	48.498
387.91	48.770
388.27	48.274
388.62	48.252
388.98	48.748
389.34	49.123
389.70	48.413
390.06	48.875
390.42	48.776
390.77	49.263
391.13	49.558
391.49	48.134
391.85	47.796
392.20	49.060
392.56	48.952
392.92	48.332
393.28	47.937
393.64	48.502
393.99	48.225
394.35	49.444
394.71	48.718
395.07	47.296
395.42	47.959
395.78	47.233
396.14	48.637
396.50	48.256
396.85	49.267
397.21	48.814
397.57	49.255
397.92	48.563
398.28	47.659
398.64	49.120
399.00	48.605
399.35	49.319
399.71	48.398
400.07	48.855
400.42	49.216
400.78	48.157
401.14	48.743
401.49	48.292
401.85	48.833
402.21	49.226
402.57	48.498
402.92	49.061
403.28	48.030
403.63	49.287
403.99	48.560
404.35	49.501
404.70	47.009
405.06	48.796
405.42	49.058
405.77	47.062
406.13	47.029
406.49	49.431
406.84	49.084
407.20	47.721
407.55	47.987
407.91	47.253
408.27	48.097
408.62	48.926
408.98	48.459
409.34	48.267
409.69	49.448
410.05	47.886
410.40	48.691
410.76	48.014
411.11	48.632
411.47	50.033
411.83	47.973
412.18	47.607
412.54	48.559
412.89	48.401
413.25	46.549
413.60	48.527
413.96	48.502
414.31	47.534
414.67	47.365
415.03	48.917
415.38	47.622
415.74	48.733
416.09	48.909
416.45	48.735
416.80	48.993
417.16	48.381
417.51	48.560
417.87	47.751
418.22	48.869
418.58	49.014
418.93	47.960
419.29	49.307
419.64	47.964
420.00	48.952
420.35	48.057
420.71	48.202
421.06	49.077
421.42	49.027
421.77	49.538
422.12	48.252
422.48	47.437
422.83	48.258
423.19	48.304
423.54	48.822
423.90	46.971
424.25	48.527
424.61	48.182
424.96	48.433
425.31	46.551
425.67	48.618
426.02	48.587
426.38	49.938
426.73	49.481
427.09	47.905
427.44	47.857
427.79	47.565
428.15	48.257
428.50	48.459
428.85	48.401
429.21	47.890
429.56	49.150
429.92	48.048
430.27	48.824
430.62	47.849
430.98	48.704
431.33	48.630
431.68	48.349
432.04	48.789
432.39	46.940
432.74	47.578
433.10	48.983
433.45	47.337
433.80	48.448
434.16	47.843
434.51	48.587
434.86	48.645
435.22	48.444
435.57	47.543
435.92	48.613
436.28	46.787
436.63	48.095
436.98	48.061
437.34	48.474
437.69	47.403
438.04	48.387
438.39	48.506
438.75	48.331
439.10	49.335
439.45	48.789
439.81	48.645
440.16	48.870
440.51	47.979
440.86	48.251
441.22	48.652
441.57	48.644
441.92	47.589
442.27	48.106
442.63	47.793
442.98	48.148
443.33	48.420
443.68	47.338
444.03	48.236
444.39	48.537
444.74	48.426
445.09	47.797
445.44	48.789
445.79	48.167
446.15	47.754
446.50	47.907
446.85	48.691
447.20	48.301
447.55	48.405
447.91	47.809
448.26	48.656
448.61	48.964
448.96	48.747
449.31	47.744
449.66	48.005
450.02	48.550
450.37	48.237
450.72	46.670
451.07	47.085
451.42	47.973
451.77	48.448
452.12	47.475
452.47	49.193
452.83	47.877
453.18	47.422
453.53	48.613
453.88	48.373
454.23	47.590
454.58	48.346
454.93	47.787
455.28	49.133
455.63	47.286
455.98	48.387
456.34	48.315
456.69	49.329
457.04	48.359
457.39	47.625
457.74	48.594
458.09	47.334
458.44	48.061
458.79	47.172
459.14	47.416
459.49	48.902
459.84	47.238
460.19	46.339
460.54	46.655
460.89	48.311
461.24	47.657
461.59	47.403
461.94	47.661
462.29	48.100
462.64	47.098
462.99	48.491
463.34	47.169
463.69	48.131
464.04	46.579
464.39	48.505
464.74	47.174
465.09	47.055
465.44	46.465
465.79	47.671
466.14	46.807
466.49	47.507
466.84	47.101
467.19	47.134
467.54	48.153
467.89	47.706
468.24	47.818
468.59	47.610
468.94	47.701
469.29	46.266
469.64	47.490
469.99	48.069
470.34	46.999
470.68	48.253
471.03	47.673
471.38	46.940
471.73	46.571
472.08	47.148
472.43	47.559
472.78	47.262
473.13	46.504
473.48	47.097
473.83	46.077
474.17	47.135
474.52	46.343
474.87	46.683
475.22	47.826
475.57	46.012
475.92	46.238
476.27	47.902
476.61	47.112
476.96	46.887
477.31	46.224
477.66	45.876
478.01	45.989
478.36	46.594
478.70	47.046
479.05	47.891
479.40	45.762
479.75	46.174
480.10	45.895
480.45	45.120
480.79	46.789
481.14	46.201
481.49	46.917
481.84	45.570
482.19	45.438
482.53	45.667
482.88	46.261
483.23	44.851
483.58	45.321
483.92	45.088
484.27	45.014
484.62	45.406
484.97	45.873
485.31	44.988
485.66	42.925
486.01	43.459
486.36	43.797
486.70	44.567
487.05	44.970
487.40	45.166
487.75	45.823
488.09	44.354
488.44	45.566
488.79	45.458
489.13	45.408
489.48	45.062
489.83	45.377
490.17	45.030
490.52	46.377
490.87	44.274
491.22	44.936
491.56	45.855
491.91	45.415
492.26	45.455
492.60	44.781
492.95	45.092
493.30	44.428
493.64	45.276
493.99	45.024
494.34	45.472
494.68	45.251
495.03	46.047
495.37	44.088
495.72	44.912
496.07	45.153
496.41	44.736
496.76	44.744
497.11	43.803
497.45	44.893
497.80	45.280
498.14	44.282
498.49	44.024
498.84	44.079
499.18	44.251
499.53	43.378
499.87	43.183
500.22	44.102
500.56	44.684
500.91	44.718
501.26	45.320
501.60	44.657
501.95	44.178
502.29	42.816
502.64	45.034
502.98	43.545
503.33	44.428
503.67	43.038
504.02	45.147
504.36	44.131
504.71	43.496
505.06	43.658
505.40	44.588
505.75	44.252
506.09	44.609
506.44	43.498
506.78	43.931
507.13	43.295
507.47	43.690
507.82	43.276
508.16	43.536
508.51	43.285
508.85	43.287
509.19	42.910
509.54	44.021
509.88	43.011
510.23	43.105
510.57	42.532
510.92	44.289
511.26	43.454
511.61	43.524
511.95	44.212
512.30	42.754
512.64	44.041
512.98	43.878
513.33	41.803
513.67	43.157
514.02	44.356
514.36	43.034
514.70	43.649
515.05	43.300
515.39	42.571
515.74	42.451
516.08	44.012
516.42	42.742
516.77	42.648
517.11	43.034
517.46	43.097
517.80	43.281
518.14	41.886
518.49	43.279
518.83	42.422
519.17	41.386
519.52	43.848
519.86	43.473
520.20	42.450
520.55	43.781
520.89	43.074
521.23	43.205
521.58	43.300
521.92	41.169
522.26	42.876
522.61	42.599
522.95	42.746
523.29	42.730
523.64	42.721
523.98	42.249
524.32	42.092
524.66	42.987
525.01	43.381
525.35	41.870
525.69	41.286
526.04	42.020
526.38	41.428
526.72	41.552
527.06	41.199
527.41	42.621
527.75	41.923
528.09	43.295
528.43	43.758
528.78	43.152
529.12	42.691
529.46	41.843
529.80	41.553
530.15	40.347
530.49	41.914
530.83	40.623
531.17	40.479
531.51	40.121
531.86	41.734
532.20	40.799
532.54	40.138
532.88	42.069
533.22	41.077
533.57	41.060
533.91	41.548
534.25	41.341
534.59	41.055
534.93	40.561
535.27	41.338
535.62	39.868
535.96	40.534
536.30	40.691
536.64	39.850
536.98	39.594
537.32	41.352
537.66	40.903
538.01	40.083
538.35	40.539
538.69	39.866
539.03	39.396
539.37	40.510
539.71	39.836
540.05	38.866
540.39	39.780
540.73	40.084
541.07	40.000
541.42	40.539
541.76	39.378
542.10	40.217
542.44	38.947
542.78	39.903
543.12	39.218
543.46	39.185
543.80	39.036
544.14	40.124
544.48	38.222
544.82	39.475
545.16	38.675
545.50	40.176
545.84	39.130
546.18	38.990
546.52	38.885
546.86	37.173
547.20	39.171
547.54	38.456
547.88	38.259
548.22	39.088
548.56	38.559
548.90	39.648
549.24	38.403
549.58	37.438
549.92	39.618
550.26	40.369
550.60	38.288
550.94	38.134
551.28	37.623
551.62	37.068
551.96	38.360
552.30	37.482
552.64	37.429
552.98	37.926
553.32	38.284
553.66	39.545
554.00	38.949
554.34	37.509
554.68	38.553
555.02	37.949
555.36	38.427
555.69	38.237
556.03	38.027
556.37	37.838
556.71	37.001
557.05	38.819
557.39	37.679
557.73	39.107
558.07	38.885
558.41	38.759
558.75	37.952
559.08	37.129
559.42	37.923
559.76	36.621
560.10	37.586
560.44	37.657
560.78	37.482
561.12	36.580
561.45	35.986
561.79	36.382
562.13	37.201
562.47	37.857
562.81	37.013
563.15	35.836
563.48	35.788
563.82	36.047
564.16	36.561
564.50	35.414
564.84	35.811
565.17	35.695
565.51	36.430
565.85	34.644
566.19	35.695
566.52	35.583
566.86	35.335
567.20	35.919
567.54	34.888
567.88	35.722
568.21	34.655
568.55	33.646
568.89	33.799
569.23	34.785
569.56	34.251
569.90	34.126
570.24	32.816
570.57	32.924
570.91	33.888
571.25	33.057
571.59	32.381
571.92	32.678
572.26	32.997
572.60	32.676
572.93	32.334
573.27	32.524
573.61	32.969
573.95	32.760
574.28	32.895
574.62	31.869
574.96	32.899
575.29	32.447
575.63	32.244
575.97	32.364
576.30	32.324
576.64	32.041
576.98	32.366
577.31	32.225
577.65	31.743
577.98	31.719
578.32	31.590
578.66	31.968
578.99	32.324
579.33	31.784
579.67	32.077
580.00	31.453
580.34	31.144
580.67	31.455
581.01	31.320
581.35	31.559
581.68	31.081
582.02	31.604
582.35	31.698
582.69	31.304
583.02	30.648
583.36	31.355
583.70	31.486
584.03	31.572
584.37	31.393
584.70	31.611
585.04	31.335
585.37	31.106
585.71	31.163
586.04	31.303
586.38	30.913
586.72	31.189
587.05	31.162
587.39	31.279
587.72	31.277
588.06	30.752
588.39	30.982
588.73	31.017
589.06	31.329
589.40	31.510
589.73	31.585
590.07	30.879
590.40	31.579
590.73	31.969
591.07	32.804
591.40	31.043
591.74	30.947
592.07	31.219
592.41	30.931
592.74	31.520
593.08	29.744
593.41	30.636
593.75	30.039
594.08	30.777
594.41	30.750
594.75	30.510
595.08	30.769
595.42	30.673
595.75	30.694
596.09	31.255
596.42	30.964
596.75	30.891
597.09	32.120
597.42	31.045
597.75	30.444
598.09	30.920
598.42	30.470
598.76	30.353
599.09	30.332
599.42	30.438
599.76	30.417
600.09	30.346
600.42	29.605
600.76	29.897
601.09	29.944
601.42	29.792
601.76	29.768
602.09	30.077
602.42	30.541
602.76	29.782
603.09	30.308
603.42	30.188
603.76	30.281
604.09	29.723
604.42	29.468
604.76	29.812
605.09	29.089
605.42	30.364
605.75	29.122
606.09	28.932
606.42	29.884
606.75	29.481
607.09	28.812
607.42	29.159
607.75	29.190
608.08	29.396
608.42	29.100
608.75	29.431
609.08	29.642
609.41	29.359
609.75	29.602
610.08	30.079
610.41	30.272
610.74	30.029
611.07	29.910
611.41	30.297
611.74	29.917
612.07	29.755
612.40	30.324
612.73	29.199
613.07	29.102
613.40	29.846
613.73	29.469
614.06	29.409
614.39	29.183
614.72	29.706
615.06	29.389
615.39	29.360
615.72	28.024
616.05	27.984
616.38	29.782
616.71	29.094
617.05	29.853
617.38	29.082
617.71	28.370
618.04	28.336
618.37	29.590
618.70	29.366
619.03	28.797
619.36	28.754
619.69	29.605
620.03	28.763
620.36	29.158
620.69	27.980
621.02	28.923
621.35	29.027
621.68	29.340
622.01	29.693
622.34	30.135
622.67	30.305
623.00	28.875
623.33	28.123
623.66	28.773
623.99	28.882
624.32	28.760
624.65	29.451
624.99	28.729
625.32	29.574
625.65	28.760
625.98	28.515
626.31	28.735
626.64	28.805
626.97	28.979
627.30	29.855
627.63	28.979
627.96	28.312
628.29	30.884
628.62	28.530
628.95	28.156
629.28	27.980
629.61	28.995
629.94	29.400
630.26	29.754
630.59	29.770
630.92	28.313
631.25	27.703
631.58	30.728
631.91	27.466
632.24	29.418
632.57	28.111
632.90	29.755
633.23	28.297
633.56	29.496
633.89	30.024
634.22	30.742
634.55	29.720
634.88	29.534
635.20	29.000
635.53	28.165
635.86	30.769
636.19	29.404
636.52	28.780
636.85	28.709
637.18	25.335
637.51	27.591
637.83	31.984
638.16	27.467
638.49	29.239
638.82	29.412
639.15	29.521
639.48	29.144
639.81	27.778
640.13	29.577
640.46	29.237
640.79	28.345
641.12	30.030
641.45	29.985
641.77	26.951
642.10	28.896
642.43	29.874
642.76	29.022
643.09	29.553
643.41	28.868
643.74	29.725
644.07	28.641
644.40	29.519
644.73	25.932
645.05	28.272
645.38	26.412
645.71	26.871
646.04	25.926
646.36	27.431
646.69	28.147
647.02	28.962
647.35	29.982
647.67	29.575
648.00	28.261
648.33	29.153
648.66	27.546
648.98	29.348
649.31	27.761
649.64	27.700
649.96	29.542
650.29	25.327
650.62	27.677
650.94	27.586
651.27	29.682
651.60	29.196
651.92	29.391
652.25	28.811
652.58	27.558
652.90	27.609
653.23	24.958
653.56	26.281
653.88	24.573
654.21	24.915
654.54	26.412
654.86	26.667
655.19	24.230
655.52	28.175
655.84	24.479
656.17	28.755
656.49	37.965
656.82	37.506
657.15	28.048
657.47	20.790
657.80	15.694
658.13	16.455
658.45	24.044
658.78	23.997
659.10	23.766
659.43	24.133
659.75	24.890
660.08	24.621
660.41	25.254
660.73	24.793
661.06	26.361
661.38	23.062
661.71	27.869
662.03	27.696
662.36	28.319
662.68	27.097
663.01	27.119
663.33	27.646
663.66	27.716
663.98	26.067
664.31	27.033
664.63	23.649
664.96	29.103
665.28	27.468
665.61	25.054
665.93	25.482
666.26	27.004
666.58	25.910
666.91	28.475
667.23	25.346
667.56	27.586
667.88	25.000
668.21	25.446
668.53	28.966
668.86	29.017
669.18	28.369
669.50	23.733
669.83	28.401
670.15	25.476
670.48	25.517
670.80	30.197
671.13	24.027
671.45	25.571
671.77	25.431
672.10	24.366
672.42	23.282
672.75	23.393
673.07	24.545
673.39	26.306
673.72	23.752
674.04	26.639
674.37	26.016
674.69	25.309
675.01	22.863
675.34	26.477
675.66	27.015
675.98	24.558
676.31	24.434
676.63	28.798
676.95	20.941
677.28	23.624
677.60	25.245
677.92	26.608
678.25	25.813
678.57	25.458
678.89	23.881
679.22	24.845
679.54	23.673
679.86	24.805
680.18	24.615
680.51	22.692
680.83	20.663
681.15	25.147
681.48	22.044
681.80	24.540
682.12	23.750
682.44	20.926
682.77	21.895
683.09	22.545
683.41	22.791
683.73	22.098
684.06	21.018
684.38	22.009
684.70	23.625
685.02	23.554
685.34	25.245
685.67	25.141
685.99	22.064
686.31	24.310
686.63	24.265
686.96	22.263
687.28	22.555
687.60	25.898
687.92	21.790
688.24	22.000
688.56	25.658
688.89	23.385
689.21	22.197
689.53	21.171
689.85	23.146
690.17	25.055
690.49	24.155
690.82	21.957
691.14	24.638
691.46	24.130
691.78	23.297
692.10	22.930
692.42	23.077
692.74	23.913
693.06	23.820
693.39	22.248
693.71	23.556
694.03	23.409
694.35	22.973
694.67	25.250
694.99	23.969
695.31	22.997
695.63	26.098
695.95	23.919
696.27	20.548
696.59	23.387
696.91	20.950
697.23	22.081
697.56	21.343
697.88	24.740
698.20	23.110
698.52	21.495
698.84	21.531
699.16	20.804
699.48	22.963
699.80	23.514
700.12	23.592
700.44	19.155
700.76	23.315
701.08	22.961
701.40	21.856
701.72	25.846
702.04	22.642
702.36	21.037
702.68	22.256
703.00	26.316
703.32	20.056
703.64	18.675
703.96	20.528
704.28	22.289
704.60	19.817
704.91	22.257
705.23	21.203
705.55	22.414
705.87	21.831
706.19	20.879
706.51	22.887
706.83	21.656
707.15	22.561
707.47	22.039
707.79	20.812
708.11	22.879
708.43	22.589
708.74	18.883
709.06	20.588
709.38	20.749
709.70	21.622
710.02	23.676
710.34	22.000
710.66	18.893
710.98	22.291
711.29	21.429
711.61	20.968
711.93	20.645
712.25	18.881
712.57	18.947
712.89	21.245
713.20	20.567
713.52	18.978
713.84	21.290
714.16	21.359
714.48	21.203
714.80	16.294
715.11	24.709
715.43	17.081
715.75	22.050
716.07	23.494
716.39	17.172
716.70	23.381
717.02	18.039
717.34	19.697
717.66	22.845
717.97	18.254
718.29	26.378
718.61	16.738
718.93	17.829
719.24	20.295
719.56	16.854
719.88	22.015
720.20	19.368
720.51	18.750
720.83	20.233
721.15	16.667
721.46	15.649
721.78	19.522
722.10	20.319
722.42	15.323
722.73	20.077
723.05	22.041
723.37	23.109
723.68	16.400
724.00	15.745
724.32	16.736
724.63	22.222
724.95	14.957
725.27	21.941
725.58	20.165
725.90	15.900
726.22	14.493
726.53	14.510
726.85	23.358
727.16	18.519
727.48	19.157
727.80	21.484
728.11	21.311
728.43	17.578
728.74	13.492
729.06	18.000
729.38	22.530
729.69	19.573
730.01	16.729
730.32	21.771
730.64	15.909
730.96	24.825
731.27	17.057
731.59	20.635
731.90	16.505
732.22	16.987
732.53	17.905
732.85	14.765
733.16	20.132
733.48	19.257
733.80	18.919
734.11	19.932
734.43	21.362
734.74	20.721
735.06	16.715
735.37	19.757
735.69	18.770
736.00	18.152
736.32	18.794
736.63	19.310
736.95	17.808
737.26	16.552
737.58	21.181
737.89	19.588
738.21	13.879
738.52	16.730
738.83	21.633
739.15	14.768
739.46	14.786
739.78	18.310
740.09	18.151
740.41	16.429
740.72	18.440
741.04	15.200
741.35	14.912
741.66	22.667
741.98	19.231
742.29	21.782
742.61	20.000
742.92	18.421
743.23	21.226
743.55	20.721
743.86	21.076
744.18	17.157
744.49	14.213
744.80	18.878
745.12	16.822
745.43	15.166
745.74	18.919
746.06	17.290
746.37	15.596
746.68	14.904
747.00	21.531
747.31	19.231
747.62	20.642
747.94	21.834
748.25	15.596
748.56	19.111
748.88	24.883
749.19	18.571
749.50	15.049
749.82	14.554
750.13	12.083
750.44	18.462
750.75	15.129
751.07	21.352
751.38	18.440
751.69	11.969
752.01	15.234
752.32	14.231
752.63	20.522
752.94	18.800
753.26	12.552
753.57	17.083
753.88	18.623
754.19	17.928
754.51	18.045
754.82	14.652
755.13	15.652
755.44	17.073
755.75	14.800
756.07	15.129
756.38	13.669
756.69	17.406
757.00	16.199
757.31	18.123
757.63	13.889
757.94	19.209
758.25	21.164
758.56	17.120
758.87	20.238
759.18	18.612
759.50	14.815
759.81	16.722
760.12	18.769
760.43	12.202
760.74	16.949
761.05	18.232
761.36	14.900
761.67	13.595
761.99	13.402
762.30	17.883
762.61	11.934
762.92	23.504
763.23	20.082
763.54	19.481
763.85	16.735
764.16	13.008
764.47	14.400
764.78	15.357
765.10	19.672
765.41	14.894
765.72	14.596
766.03	17.162
766.34	19.615
766.65	15.900
766.96	12.207
767.27	19.307
767.58	6.180
767.89	11.728
768.20	11.050
768.51	18.593
768.82	18.269
769.13	21.239
769.44	20.502
769.75	7.265
770.06	17.489
770.37	6.863
770.68	18.447
770.99	15.049
771.30	17.227
771.61	15.102
771.92	19.917
772.23	13.514
772.54	11.050
772.85	16.279
773.16	13.228
773.47	4.142
773.78	15.517
774.09	15.625
774.39	14.286
774.70	12.925
775.01	12.414
775.32	20.000
775.63	18.797
775.94	5.263
776.25	7.200
776.56	14.050
776.87	15.873
777.18	9.009
777.48	4.505
777.79	10.236
778.10	11.927
778.41	7.018
778.72	5.882
779.03	7.746
779.34	8.108
779.65	15.493
779.95	8.609
780.26	16.547
780.57	17.986
780.88	11.972
781.19	13.445
781.50	16.107
781.80	7.018
782.11	6.395
782.42	13.836
782.73	16.993
783.04	12.414
783.34	8.397
783.65	13.423
783.96	13.846
784.27	13.571
784.57	8.511
784.88	2.885
785.19	15.455
785.50	9.091
785.81	2.857
786.11	12.605
786.42	20.354
786.73	8.491
787.04	1.835
787.34	0.990
787.65	14.167
787.96	5.785
788.26	14.493
788.57	7.937
788.88	17.886
789.19	9.600
789.49	6.107
789.80	7.576
790.11	0.943
790.41	10.891
790.72	11.702
791.03	-2.174
791.33	8.235
791.64	8.642
791.95	18.478
792.25	14.773
792.56	7.692
792.87	3.846
793.17	6.410
793.48	8.333
793.79	7.500
794.09	19.231
794.40	17.708
794.70	10.811
795.01	6.250
795.32	8.696
795.62	-2.174
795.93	11.321
796.23	7.071
796.54	0.000
796.85	11.905
797.15	0.000
797.46	8.696
797.76	-2.632
798.07	17.045
798.37	10.976
798.68	4.839
798.99	-5.405
799.29	16.867
799.60	1.282
799.90	-1.538
800.21	21.212
800.51	12.000
800.82	10.667
801.12	-31.250
801.43	-5.000
801.73	6.757
802.04	18.571
802.34	6.557
802.65	4.478
802.95	12.727
803.26	3.448
803.56	9.231
803.87	20.755
804.17	8.065
804.48	2.941
804.78	-19.512
805.09	-1.449
805.39	4.412
805.70	-23.404
806.00	-1.754
806.30	24.359
806.61	9.211
806.91	12.162
807.22	11.842
807.52	10.227
807.83	-15.254
808.13	-16.667
808.43	1.667
808.74	-15.517
809.04	9.524
809.35	4.082
809.65	-3.333
809.95	-18.367
810.26	15.493
810.56	-25.000
810.86	10.204
811.17	-1.923
811.47	-6.383
811.77	-20.833
812.08	-30.189
812.38	-56.250
812.69	-14.545
812.99	-24.390
813.29	-21.622
813.59	-35.135
813.90	18.182
814.20	12.727
814.50	8.333
814.81	-1.818
815.11	0.000
815.41	20.930
815.72	-7.500
816.02	-34.286
816.32	-43.243
816.62	-2.083
816.93	17.778
817.23	-22.222
817.53	-25.000
817.84	-13.514
818.14	0.000
818.44	2.000
818.74	6.122
819.04	4.878
819.35	-8.333
819.65	-6.818
819.95	-88.889
820.25	-42.424
820.56	-38.095
820.86	2.778
821.16	-38.636
821.46	-8.696
821.76	-22.414
822.07	6.522
822.37	-9.091
822.67	12.195
822.97	-8.108
823.27	-34.286
823.57	0.000
823.88	-29.412
824.18	-22.222
824.48	-14.286
824.78	4.762
825.08	-21.429
825.38	-29.630
825.69	-9.677
825.99	12.195
826.29	-18.519
826.59	-9.375
826.89	-38.710
827.19	-73.913
827.49	-41.667
827.79	-52.174
828.09	-32.258
828.39	0.000
828.70	-43.750
829.00	-13.793
829.30	-21.622
829.60	-70.833
829.90	-18.519
830.20	-25.000
830.50	9.091
830.80	-105.882
831.10	-40.909
831.40	-44.118
831.70	-26.923
832.00	0.000
832.30	8.824
832.60	-24.324
832.90	1700.000
833.20	7.143
833.50	-75.000
833.80	10.526
834.10	-41.667
834.40	-59.091
834.70	-133.333
835.00	-160.000
835.30	-37.500
835.60	-9.524
835.90	-23.810
836.20	-8.000
836.50	-62.500
836.80	-63.158
837.10	5.405
837.40	-10.000
837.70	-34.783
838.00	12.500
838.30	-10.526
838.60	-280.000
838.90	-220.000
839.19	-58.333
839.49	-38.462
839.79	5.263
840.09	-383.333
840.39	-120.000
840.69	-45.455
840.99	-23.810
841.29	-58.333
841.59	-130.769
841.88	-100.000
842.18	-71.429
842.48	-3.333
842.78	-357.143
843.08	-100.000
843.38	-100.000
843.68	-62.500
843.97	-14.286
844.27	-222.222
844.57	-127.273
844.87	-60.000
845.17	13.636
845.47	600.000
845.76	-40.000
846.06	-158.333
846.36	-1150.000
846.66	-57.895
846.96	-40.909
847.25	-94.444
847.55	-188.889
847.85	-33.333
848.15	-23.077
848.44	-250.000
848.74	-25.000
849.04	-107.692
849.34	-425.000
849.63	-145.455
849.93	-92.857
850.23	5.000
850.53	-175.000
850.82	-33.333
851.12	-100.000
851.42	-70.588
851.71	12.500
852.01	11.765
852.31	-76.923
852.61	350.000
852.90	-23.529
853.20	-26.667
853.50	-62.500
853.79	-121.429
854.09	-550.000
854.39	-120.000
854.68	-2.500
854.98	-38.095
855.28	-28.000
855.57	0.000
855.87	-54.167
856.17	-28.000
856.46	-15.625
856.76	-50.000
857.05	0.000
857.35	-150.000
857.65	-29.412
857.94	-133.333
858.24	-50.000
858.53	-35.000
858.83	-127.273
859.13	-8.000
859.42	-57.143
859.72	-175.000
860.01	-16.667
860.31	-200.000
860.60	-68.750
860.90	-250.000
861.20	-66.667
861.49	0.000
861.79	-37.500
862.08	425.000
862.38	-166.667
862.67	100.000
862.97	500.000
863.26	-109.091
863.56	-127.273
863.85	-15.789
864.15	-41.176
864.44	-240.000
864.74	-190.000
865.03	-88.889
865.33	-21.429
865.62	171.429
865.92	-21.053
866.21	-50.000
866.51	-81.818
866.80	-144.444
867.10	-112.500
867.39	-18.750
867.69	-100.000
867.98	-200.000
868.27	-11.765
868.57	0.000
868.86	1550.000
869.16	-425.000
869.45	-242.857
869.75	500.000
870.04	-150.000
870.33	-1200.000
870.63	-57.895
870.92	-66.667
871.22	-1100.000
871.51	-257.143
871.80	-177.778
872.10	-225.000
>>>>>End Processed Spectral Data<<<<<
