SpectraSuite Data File
++++++++++++++++++++++++++++++++++++
Date: Wed May 13 21:29:12 PDT 2015
User: schluterlab
Dark Spectrum Present: Yes
Reference Spectrum Present: Yes
Number of Sampled Component Spectra: 1
Spectrometers: USB2E3373
Integration Time (usec): 3000 (USB2E3373)
Spectra Averaged: 3 (USB2E3373)
Boxcar Smoothing: 0 (USB2E3373)
Correct for Electrical Dark: No (USB2E3373)
Strobe/Lamp Enabled: No (USB2E3373)
Correct for Detector Non-linearity: No (USB2E3373)
Correct for Stray Light: No (USB2E3373)
Number of Pixels in Processed Spectrum: 2048
>>>>>Begin Processed Spectral Data<<<<<
178.53	0.000
178.91	450.000
179.29	91.667
179.67	-900.000
180.04	-566.667
180.42	220.000
180.80	1800.000
181.18	266.667
181.56	-475.000
181.94	-200.000
182.31	-45.455
182.69	84.615
183.07	-100.000
183.45	266.667
183.83	188.889
184.20	114.286
184.58	-233.333
184.96	500.000
185.34	271.429
185.72	0.000
186.09	-1100.000
186.47	-300.000
186.85	160.000
187.23	-300.000
187.61	550.000
187.98	1200.000
188.36	-150.000
188.74	0.000
189.12	-81.818
189.49	40.000
189.87	191.667
190.25	280.000
190.63	1800.000
191.00	-80.000
191.38	340.000
191.76	175.000
192.14	183.333
192.51	21.053
192.89	233.333
193.27	225.000
193.65	-280.000
194.02	190.909
194.40	230.000
194.78	-900.000
195.15	400.000
195.53	-320.000
195.91	-62.500
196.29	100.000
196.66	0.000
197.04	800.000
197.42	20.000
197.79	60.000
198.17	-187.500
198.55	-366.667
198.92	250.000
199.30	-266.667
199.68	10.000
200.05	350.000
200.43	283.333
200.81	-1700.000
201.18	-320.000
201.56	-133.333
201.94	550.000
202.31	8.696
202.69	-42.857
203.07	-500.000
203.44	-160.000
203.82	-666.667
204.19	-100.000
204.57	0.000
204.95	-50.000
205.32	0.000
205.70	-600.000
206.08	-525.000
206.45	-116.667
206.83	150.000
207.20	-133.333
207.58	-140.000
207.96	-1600.000
208.33	-200.000
208.71	-1200.000
209.08	287.500
209.46	575.000
209.84	0.000
210.21	210.000
210.59	1900.000
210.96	280.000
211.34	1300.000
211.71	-650.000
212.09	-283.333
212.46	-130.000
212.84	-33.333
213.22	-75.000
213.59	-800.000
213.97	-900.000
214.34	-750.000
214.72	-7.692
215.09	350.000
215.47	144.444
215.84	600.000
216.22	-37.500
216.59	-750.000
216.97	300.000
217.34	233.333
217.72	0.000
218.09	133.333
218.47	-600.000
218.84	-185.714
219.22	-237.500
219.59	-400.000
219.97	-350.000
220.34	-25.000
220.72	-140.000
221.09	0.000
221.47	-166.667
221.84	-400.000
222.22	0.000
222.59	2300.000
222.97	-366.667
223.34	-33.333
223.72	-1000.000
224.09	-1000.000
224.46	-109.091
224.84	-125.000
225.21	-128.571
225.59	-450.000
225.96	-116.667
226.34	-110.000
226.71	-57.143
227.08	1100.000
227.46	-200.000
227.83	-900.000
228.21	-50.000
228.58	-400.000
228.95	-70.588
229.33	-12.500
229.70	-50.000
230.08	-76.923
230.45	-125.000
230.82	-75.000
231.20	357.143
231.57	-425.000
231.95	1800.000
232.32	16.667
232.69	-52.941
233.07	-2200.000
233.44	-60.870
233.81	-750.000
234.19	33.333
234.56	-53.333
234.93	13.333
235.31	0.000
235.68	-46.154
236.05	-100.000
236.43	-16.667
236.80	-30.303
237.17	-86.667
237.55	-105.882
237.92	-34.483
238.29	-11.111
238.67	-8.333
239.04	-9.677
239.41	-6.383
239.79	-8.511
240.16	16.279
240.53	5.357
240.91	1.786
241.28	17.857
241.65	12.903
242.02	13.158
242.40	14.493
242.77	-5.797
243.14	7.692
243.51	11.702
243.89	16.346
244.26	26.415
244.63	18.269
245.00	13.542
245.38	8.403
245.75	19.672
246.12	17.293
246.49	7.317
246.87	9.244
247.24	18.919
247.61	23.179
247.98	15.385
248.36	13.018
248.73	14.045
249.10	20.707
249.47	23.118
249.84	14.737
250.22	16.915
250.59	21.028
250.96	23.182
251.33	13.876
251.70	20.921
252.08	20.921
252.45	22.222
252.82	19.772
253.19	18.288
253.56	17.986
253.94	22.776
254.31	20.423
254.68	21.812
255.05	22.772
255.42	20.280
255.79	23.006
256.16	25.237
256.54	20.317
256.91	19.620
257.28	17.925
257.65	20.382
258.02	19.941
258.39	19.006
258.76	19.186
259.14	25.568
259.51	19.663
259.88	23.577
260.25	20.000
260.62	20.225
260.99	23.607
261.36	19.689
261.73	19.259
262.10	17.557
262.47	18.765
262.85	22.139
263.22	23.333
263.59	21.299
263.96	19.951
264.33	20.433
264.70	21.395
265.07	22.454
265.44	22.759
265.81	21.053
266.18	19.590
266.55	20.742
266.92	23.305
267.29	19.136
267.66	22.505
268.03	25.103
268.40	20.339
268.77	21.694
269.14	22.857
269.51	21.150
269.88	19.756
270.25	21.398
270.62	19.057
270.99	22.835
271.36	20.437
271.73	19.679
272.10	22.476
272.47	22.649
272.84	22.244
273.21	22.505
273.58	21.311
273.95	20.189
274.32	22.388
274.69	22.222
275.06	22.261
275.43	22.599
275.80	20.745
276.17	21.179
276.54	19.361
276.91	24.042
277.28	19.134
277.65	21.853
278.02	21.786
278.39	20.249
278.76	21.572
279.13	21.441
279.50	21.379
279.87	21.920
280.23	22.162
280.60	19.896
280.97	23.214
281.34	21.293
281.71	21.138
282.08	20.855
282.45	23.279
282.82	21.725
283.19	21.037
283.56	22.656
283.92	21.407
284.29	18.877
284.66	17.957
285.03	17.427
285.40	20.393
285.77	21.772
286.14	20.213
286.51	21.589
286.87	21.385
287.24	20.944
287.61	21.988
287.98	21.765
288.35	19.523
288.72	21.234
289.08	21.083
289.45	19.090
289.82	20.121
290.19	20.196
290.56	19.460
290.93	18.646
291.29	18.878
291.66	17.486
292.03	17.984
292.40	18.977
292.77	18.876
293.13	17.015
293.50	17.908
293.87	20.667
294.24	19.841
294.60	18.075
294.97	20.106
295.34	16.887
295.71	16.426
296.08	16.885
296.44	16.709
296.81	18.392
297.18	18.250
297.55	15.684
297.91	17.764
298.28	18.644
298.65	18.842
299.02	18.071
299.38	16.810
299.75	17.548
300.12	14.884
300.48	16.959
300.85	15.820
301.22	16.609
301.59	15.610
301.95	16.028
302.32	16.803
302.69	14.802
303.05	16.944
303.42	15.682
303.79	16.824
304.15	16.977
304.52	16.667
304.89	16.168
305.25	15.807
305.62	17.137
305.99	16.322
306.35	17.450
306.72	16.277
307.09	17.727
307.45	16.294
307.82	16.000
308.19	14.002
308.55	16.684
308.92	16.798
309.29	17.117
309.65	16.284
310.02	16.899
310.38	16.362
310.75	16.765
311.12	17.298
311.48	16.123
311.85	16.142
312.22	17.602
312.58	15.652
312.95	18.209
313.31	19.192
313.68	17.748
314.05	19.093
314.41	17.003
314.78	18.121
315.14	18.333
315.51	17.222
315.87	19.370
316.24	17.723
316.61	20.274
316.97	18.241
317.34	18.449
317.70	19.804
318.07	19.255
318.43	20.145
318.80	19.983
319.16	18.391
319.53	19.534
319.89	19.512
320.26	21.719
320.62	20.482
320.99	20.833
321.35	20.019
321.72	21.559
322.08	21.679
322.45	22.017
322.81	23.383
323.18	22.004
323.54	24.278
323.91	24.300
324.27	24.572
324.64	23.084
325.00	24.409
325.37	25.427
325.73	23.906
326.10	24.643
326.46	26.003
326.83	25.566
327.19	26.585
327.56	27.075
327.92	26.468
328.29	27.379
328.65	27.958
329.01	25.858
329.38	29.304
329.74	28.069
330.11	28.404
330.47	28.472
330.84	28.610
331.20	29.889
331.56	28.351
331.93	30.835
332.29	29.974
332.66	27.881
333.02	28.584
333.38	30.088
333.75	29.693
334.11	30.903
334.48	29.730
334.84	29.064
335.20	29.674
335.57	29.678
335.93	28.866
336.29	29.685
336.66	30.256
337.02	30.261
337.38	28.982
337.75	30.233
338.11	29.974
338.47	30.223
338.84	30.155
339.20	30.335
339.56	28.925
339.93	29.905
340.29	30.572
340.65	28.571
341.02	28.037
341.38	29.730
341.74	27.479
342.11	29.315
342.47	28.870
342.83	28.840
343.20	31.049
343.56	29.436
343.92	28.351
344.28	29.870
344.65	29.551
345.01	29.379
345.37	29.934
345.73	28.840
346.10	28.732
346.46	29.268
346.82	28.732
347.19	28.165
347.55	29.887
347.91	28.449
348.27	28.628
348.63	28.846
349.00	29.009
349.36	29.199
349.72	29.930
350.08	28.627
350.45	28.191
350.81	28.795
351.17	28.637
351.53	27.887
351.89	28.435
352.26	27.645
352.62	28.605
352.98	28.914
353.34	28.261
353.70	28.583
354.07	28.627
354.43	28.771
354.79	29.567
355.15	27.640
355.51	28.929
355.87	28.616
356.24	28.571
356.60	27.209
356.96	27.015
357.32	28.638
357.68	28.037
358.04	29.635
358.40	27.907
358.77	27.370
359.13	27.160
359.49	28.463
359.85	27.445
360.21	27.911
360.57	28.669
360.93	28.756
361.29	28.645
361.66	27.183
362.02	26.093
362.38	27.105
362.74	27.919
363.10	28.200
363.46	27.378
363.82	27.864
364.18	25.816
364.54	27.352
364.90	27.526
365.26	27.459
365.62	26.705
365.98	26.121
366.35	27.589
366.71	26.177
367.07	27.498
367.43	28.571
367.79	27.033
368.15	27.145
368.51	27.778
368.87	27.146
369.23	26.690
369.59	26.498
369.95	26.778
370.31	26.569
370.67	26.358
371.03	27.246
371.39	27.040
371.75	26.714
372.11	26.923
372.47	25.739
372.83	26.144
373.19	26.547
373.55	25.939
373.91	25.672
374.27	26.487
374.63	26.458
374.99	25.766
375.35	25.890
375.71	26.359
376.07	27.210
376.42	27.607
376.78	25.892
377.14	26.441
377.50	26.728
377.86	27.623
378.22	25.917
378.58	25.851
378.94	26.500
379.30	25.359
379.66	26.202
380.02	26.225
380.38	26.446
380.74	27.675
381.09	25.332
381.45	26.119
381.81	26.186
382.17	25.898
382.53	26.277
382.89	26.297
383.25	25.802
383.61	26.150
383.97	25.812
384.32	25.772
384.68	25.601
385.04	24.863
385.40	26.090
385.76	26.582
386.12	25.888
386.48	26.207
386.83	26.283
387.19	26.280
387.55	25.199
387.91	25.769
388.27	24.969
388.62	25.905
388.98	26.095
389.34	24.812
389.70	25.397
390.06	25.000
390.42	26.095
390.77	25.432
391.13	26.389
391.49	25.174
391.85	25.112
392.20	24.812
392.56	25.206
392.92	25.571
393.28	24.869
393.64	25.443
393.99	25.092
394.35	25.432
394.71	24.872
395.07	23.648
395.42	24.863
395.78	24.839
396.14	24.477
396.50	24.857
396.85	25.048
397.21	25.281
397.57	23.913
397.92	24.311
398.28	24.253
398.64	23.497
399.00	25.223
399.35	24.234
399.71	24.345
400.07	24.759
400.42	23.511
400.78	25.257
401.14	23.850
401.49	24.026
401.85	24.447
402.21	24.582
402.57	24.647
402.92	25.344
403.28	24.078
403.63	24.365
403.99	24.696
404.35	24.564
404.70	23.867
405.06	24.310
405.42	23.744
405.77	24.482
406.13	23.371
406.49	23.547
406.84	23.138
407.20	23.919
407.55	24.091
407.91	23.428
408.27	22.957
408.62	23.818
408.98	23.613
409.34	23.453
409.69	23.847
410.05	23.818
410.40	23.250
410.76	24.067
411.11	22.948
411.47	23.889
411.83	23.768
412.18	22.418
412.54	23.246
412.89	23.511
413.25	23.245
413.60	23.448
413.96	22.659
414.31	23.674
414.67	23.175
415.03	22.869
415.38	22.589
415.74	22.612
416.09	23.728
416.45	23.582
416.80	22.349
417.16	22.537
417.51	23.175
417.87	23.280
418.22	23.142
418.58	22.405
418.93	23.792
419.29	23.234
419.64	23.982
420.00	23.746
420.35	23.311
420.71	22.791
421.06	22.509
421.42	23.358
421.77	22.486
422.12	23.381
422.48	22.137
422.83	23.213
423.19	22.887
423.54	23.263
423.90	22.862
424.25	23.512
424.61	23.413
424.96	22.768
425.31	22.378
425.67	22.634
426.02	23.439
426.38	23.570
426.73	23.763
427.09	22.326
427.44	23.018
427.79	23.456
428.15	22.324
428.50	23.323
428.85	23.555
429.21	22.904
429.56	23.326
429.92	22.697
430.27	22.802
430.62	22.613
430.98	22.739
431.33	22.730
431.68	23.589
432.04	23.268
432.39	23.326
432.74	22.808
433.10	23.765
433.45	23.314
433.80	22.414
434.16	23.266
434.51	23.152
434.86	23.086
435.22	23.090
435.57	22.973
435.92	23.402
436.28	22.583
436.63	22.806
436.98	23.384
437.34	23.565
437.69	22.550
438.04	22.128
438.39	23.661
438.75	23.123
439.10	23.424
439.45	22.821
439.81	23.276
440.16	23.536
440.51	23.246
440.86	23.651
441.22	22.662
441.57	23.210
441.92	23.639
442.27	22.890
442.63	23.036
442.98	22.164
443.33	23.476
443.68	22.826
444.03	23.497
444.39	23.897
444.74	23.689
445.09	21.916
445.44	24.113
445.79	23.025
446.15	23.738
446.50	23.238
446.85	22.982
447.20	22.948
447.55	23.111
447.91	23.034
448.26	23.270
448.61	23.130
448.96	23.804
449.31	23.701
449.66	23.887
450.02	24.503
450.37	23.737
450.72	23.938
451.07	23.824
451.42	23.456
451.77	23.798
452.12	23.767
452.47	24.467
452.83	23.290
453.18	24.634
453.53	23.266
453.88	23.795
454.23	23.548
454.58	24.571
454.93	23.990
455.28	23.635
455.63	23.019
455.98	23.798
456.34	23.331
456.69	23.834
457.04	23.715
457.39	24.354
457.74	23.818
458.09	23.164
458.44	23.502
458.79	23.174
459.14	22.528
459.49	24.085
459.84	24.126
460.19	22.749
460.54	23.418
460.89	23.311
461.24	23.983
461.59	23.792
461.94	24.399
462.29	23.223
462.64	23.549
462.99	23.810
463.34	24.378
463.69	23.647
464.04	22.809
464.39	23.002
464.74	22.912
465.09	24.179
465.44	22.727
465.79	24.554
466.14	23.774
466.49	23.636
466.84	23.551
467.19	22.420
467.54	24.303
467.89	24.010
468.24	23.909
468.59	23.646
468.94	24.266
469.29	23.860
469.64	23.291
469.99	24.483
470.34	23.938
470.68	24.535
471.03	24.471
471.38	24.687
471.73	24.280
472.08	23.780
472.43	23.813
472.78	24.070
473.13	23.549
473.48	23.418
473.83	23.164
474.17	23.698
474.52	24.725
474.87	23.522
475.22	23.007
475.57	24.038
475.92	23.064
476.27	24.184
476.61	23.669
476.96	23.472
477.31	23.571
477.66	24.124
478.01	23.571
478.36	23.978
478.70	23.523
479.05	23.529
479.40	23.661
479.75	23.433
480.10	24.171
480.45	22.854
480.79	23.594
481.14	24.519
481.49	24.124
481.84	23.233
482.19	23.113
482.53	24.476
482.88	23.346
483.23	23.484
483.58	23.299
483.92	23.152
484.27	23.605
484.62	23.968
484.97	23.434
485.31	23.261
485.66	22.619
486.01	22.444
486.36	22.228
486.70	22.118
487.05	22.853
487.40	23.148
487.75	23.686
488.09	23.147
488.44	23.274
488.79	23.240
489.13	23.101
489.48	22.103
489.83	23.448
490.17	23.695
490.52	24.310
490.87	22.949
491.22	24.070
491.56	24.485
491.91	22.900
492.26	23.985
492.60	24.002
492.95	23.664
493.30	23.159
493.64	23.022
493.99	24.638
494.34	24.181
494.68	23.628
495.03	22.875
495.37	23.212
495.72	23.810
496.07	23.624
496.41	23.584
496.76	23.766
497.11	23.005
497.45	23.833
497.80	24.180
498.14	23.879
498.49	23.096
498.84	23.431
499.18	23.942
499.53	22.944
499.87	23.096
500.22	24.092
500.56	23.069
500.91	23.592
501.26	23.793
501.60	23.284
501.95	23.095
502.29	23.350
502.64	24.012
502.98	23.266
503.33	23.601
503.67	24.343
504.02	24.020
504.36	23.130
504.71	23.933
505.06	23.841
505.40	24.227
505.75	24.466
506.09	24.119
506.44	23.740
506.78	23.159
507.13	24.584
507.47	23.330
507.82	24.019
508.16	23.799
508.51	23.760
508.85	24.417
509.19	23.069
509.54	23.700
509.88	23.871
510.23	23.526
510.57	23.941
510.92	23.707
511.26	23.652
511.61	23.875
511.95	24.421
512.30	22.932
512.64	24.347
512.98	24.100
513.33	23.831
513.67	23.907
514.02	24.800
514.36	23.371
514.70	24.365
515.05	23.991
515.39	24.764
515.74	23.979
516.08	23.835
516.42	23.906
516.77	23.316
517.11	23.692
517.46	23.830
517.80	25.363
518.14	23.454
518.49	23.267
518.83	24.284
519.17	24.217
519.52	23.703
519.86	24.287
520.20	23.287
520.55	24.254
520.89	23.972
521.23	24.295
521.58	24.399
521.92	23.884
522.26	23.682
522.61	24.305
522.95	24.806
523.29	24.825
523.64	24.221
523.98	23.634
524.32	24.008
524.66	23.377
525.01	24.967
525.35	24.161
525.69	24.453
526.04	23.844
526.38	24.729
526.72	25.378
527.06	23.791
527.41	23.759
527.75	22.897
528.09	24.302
528.43	24.830
528.78	23.385
529.12	24.127
529.46	23.928
529.80	24.790
530.15	22.844
530.49	23.922
530.83	24.306
531.17	24.452
531.51	23.668
531.86	23.374
532.20	24.810
532.54	22.621
532.88	23.417
533.22	24.242
533.57	24.040
533.91	24.968
534.25	24.089
534.59	23.552
534.93	24.298
535.27	23.694
535.62	23.882
535.96	25.309
536.30	24.535
536.64	23.240
536.98	23.406
537.32	23.986
537.66	24.260
538.01	22.885
538.35	23.688
538.69	23.344
539.03	23.020
539.37	22.938
539.71	24.216
540.05	23.752
540.39	23.400
540.73	23.115
541.07	23.265
541.42	24.377
541.76	23.613
542.10	24.238
542.44	22.730
542.78	23.525
543.12	23.989
543.46	22.944
543.80	23.625
544.14	23.675
544.48	22.628
544.82	24.210
545.16	22.989
545.50	23.700
545.84	24.123
546.18	23.562
546.52	23.853
546.86	22.898
547.20	23.231
547.54	23.302
547.88	22.874
548.22	23.583
548.56	23.215
548.90	22.936
549.24	23.681
549.58	24.199
549.92	24.505
550.26	24.428
550.60	24.099
550.94	23.209
551.28	23.240
551.62	23.383
551.96	24.378
552.30	22.344
552.64	22.316
552.98	24.148
553.32	23.504
553.66	23.037
554.00	22.822
554.34	23.663
554.68	23.341
555.02	22.754
555.36	23.147
555.69	23.379
556.03	22.445
556.37	23.115
556.71	22.705
557.05	22.804
557.39	22.080
557.73	23.525
558.07	22.683
558.41	23.316
558.75	23.634
559.08	23.496
559.42	22.817
559.76	22.630
560.10	22.905
560.44	24.171
560.78	22.878
561.12	22.144
561.45	23.197
561.79	23.521
562.13	22.574
562.47	23.643
562.81	23.016
563.15	22.167
563.48	23.193
563.82	22.640
564.16	22.749
564.50	22.931
564.84	22.162
565.17	22.252
565.51	23.997
565.85	22.318
566.19	23.179
566.52	23.198
566.86	21.492
567.20	23.213
567.54	22.395
567.88	21.389
568.21	21.293
568.55	21.805
568.89	21.186
569.23	21.311
569.56	21.986
569.90	21.166
570.24	20.469
570.57	21.733
570.91	20.772
571.25	20.701
571.59	20.475
571.92	20.681
572.26	20.820
572.60	21.220
572.93	21.025
573.27	21.075
573.61	21.365
573.95	20.888
574.28	20.469
574.62	20.637
574.96	20.792
575.29	20.787
575.63	20.337
575.97	20.978
576.30	20.292
576.64	20.671
576.98	20.535
577.31	20.712
577.65	20.278
577.98	20.257
578.32	20.311
578.66	20.522
578.99	21.150
579.33	20.715
579.67	20.468
580.00	20.422
580.34	20.577
580.67	20.701
581.01	20.056
581.35	20.372
581.68	20.140
582.02	20.468
582.35	20.489
582.69	20.522
583.02	20.228
583.36	20.212
583.70	20.554
584.03	20.410
584.37	20.137
584.70	20.772
585.04	20.710
585.37	20.146
585.71	20.646
586.04	20.852
586.38	19.863
586.72	20.202
587.05	20.925
587.39	20.364
587.72	20.691
588.06	20.739
588.39	20.123
588.73	20.427
589.06	20.724
589.40	20.674
589.73	20.158
590.07	20.561
590.40	20.409
590.73	20.543
591.07	21.020
591.40	21.043
591.74	21.565
592.07	21.041
592.41	21.021
592.74	21.142
593.08	20.137
593.41	20.841
593.75	20.801
594.08	20.691
594.41	20.475
594.75	20.765
595.08	21.285
595.42	20.222
595.75	20.933
596.09	20.516
596.42	20.874
596.75	21.237
597.09	21.338
597.42	20.906
597.75	20.889
598.09	21.311
598.42	21.074
598.76	21.033
599.09	20.288
599.42	20.695
599.76	20.954
600.09	20.256
600.42	20.339
600.76	20.177
601.09	20.527
601.42	20.345
601.76	20.772
602.09	21.078
602.42	20.842
602.76	20.763
603.09	21.725
603.42	20.392
603.76	20.577
604.09	20.316
604.42	20.720
604.76	20.952
605.09	21.251
605.42	21.098
605.75	19.829
606.09	19.743
606.42	21.031
606.75	20.649
607.09	20.479
607.42	20.622
607.75	20.219
608.08	20.559
608.42	20.478
608.75	21.261
609.08	20.284
609.41	21.113
609.75	20.323
610.08	20.661
610.41	21.186
610.74	21.222
611.07	21.643
611.41	21.699
611.74	21.014
612.07	20.740
612.40	20.919
612.73	21.240
613.07	20.621
613.40	21.090
613.73	21.127
614.06	21.061
614.39	20.678
614.72	21.988
615.06	20.722
615.39	21.468
615.72	20.842
616.05	20.946
616.38	21.420
616.71	20.156
617.05	22.052
617.38	21.134
617.71	20.833
618.04	20.902
618.37	21.009
618.70	22.186
619.03	21.168
619.36	21.352
619.69	21.272
620.03	20.989
620.36	20.738
620.69	20.914
621.02	20.692
621.35	21.423
621.68	20.864
622.01	22.735
622.34	19.746
622.67	21.770
623.00	22.188
623.33	21.167
623.66	20.669
623.99	21.380
624.32	21.497
624.65	21.439
624.99	20.720
625.32	22.853
625.65	19.767
625.98	22.907
626.31	22.204
626.64	21.754
626.97	22.491
627.30	22.156
627.63	21.194
627.96	21.039
628.29	23.070
628.62	22.244
628.95	23.146
629.28	23.251
629.61	23.636
629.94	22.437
630.26	23.054
630.59	23.077
630.92	21.988
631.25	22.760
631.58	23.876
631.91	22.587
632.24	21.954
632.57	21.111
632.90	23.337
633.23	22.422
633.56	21.343
633.89	23.086
634.22	24.735
634.55	22.412
634.88	22.059
635.20	23.500
635.53	22.093
635.86	22.821
636.19	22.084
636.52	22.195
636.85	21.713
637.18	21.315
637.51	22.222
637.83	23.629
638.16	20.133
638.49	20.961
638.82	23.137
639.15	22.739
639.48	24.332
639.81	22.917
640.13	24.225
640.46	22.316
640.79	20.863
641.12	22.781
641.45	22.853
641.77	24.448
642.10	20.726
642.43	22.013
642.76	22.871
643.09	21.246
643.41	23.923
643.74	22.779
644.07	23.139
644.40	22.554
644.73	22.881
645.05	24.084
645.38	20.100
645.71	23.810
646.04	20.875
646.36	24.306
646.69	22.727
647.02	22.769
647.35	21.755
647.67	22.551
648.00	22.283
648.33	23.559
648.66	21.035
648.98	22.826
649.31	21.166
649.64	22.535
649.96	23.223
650.29	21.895
650.62	22.900
650.94	22.931
651.27	20.848
651.60	23.951
651.92	21.685
652.25	24.288
652.58	22.937
652.90	20.707
653.23	20.204
653.56	21.653
653.88	20.478
654.21	22.014
654.54	19.767
654.86	21.301
655.19	20.588
655.52	21.921
655.84	19.431
656.17	22.890
656.49	30.137
656.82	29.923
657.15	22.510
657.47	16.515
657.80	12.351
658.13	13.068
658.45	19.004
658.78	19.007
659.10	18.803
659.43	19.004
659.75	19.218
660.08	19.310
660.41	19.371
660.73	21.074
661.06	20.238
661.38	21.705
661.71	21.516
662.03	21.987
662.36	21.018
662.68	22.796
663.01	26.059
663.33	21.814
663.66	18.625
663.98	20.899
664.31	21.978
664.63	18.919
664.96	22.101
665.28	24.464
665.61	20.518
665.93	21.842
666.26	24.262
666.58	20.128
666.91	22.870
667.23	24.654
667.56	23.218
667.88	21.729
668.21	20.089
668.53	23.218
668.86	21.583
669.18	21.040
669.50	21.429
669.83	23.150
670.15	22.381
670.48	22.299
670.80	23.632
671.13	19.908
671.45	24.201
671.77	22.629
672.10	19.883
672.42	20.420
672.75	19.821
673.07	20.727
673.39	20.522
673.72	21.158
674.04	21.721
674.37	22.358
674.69	21.193
675.01	20.085
675.34	21.882
675.66	23.747
675.98	20.133
676.31	22.398
676.63	25.170
676.95	21.647
677.28	21.560
677.60	25.000
677.92	21.286
678.25	24.078
678.57	23.422
678.89	23.667
679.22	21.532
679.54	23.469
679.86	21.094
680.18	21.346
680.51	20.385
680.83	21.637
681.15	21.611
681.48	18.236
681.80	23.108
682.12	21.458
682.44	18.913
682.77	22.105
683.09	20.313
683.41	19.767
683.73	18.304
684.06	21.018
684.38	20.513
684.70	19.145
685.02	19.835
685.34	21.331
685.67	22.889
685.99	20.107
686.31	21.724
686.63	19.485
686.96	21.521
687.28	20.958
687.60	20.794
687.92	19.650
688.24	19.800
688.56	21.930
688.89	18.708
689.21	20.404
689.53	18.919
689.85	20.225
690.17	22.198
690.49	20.531
690.82	19.332
691.14	20.290
691.46	20.186
691.78	20.440
692.10	22.081
692.42	18.462
692.74	21.522
693.06	17.528
693.39	18.970
693.71	20.444
694.03	23.864
694.35	22.072
694.67	22.750
694.99	22.423
695.31	19.897
695.63	22.683
695.95	19.847
696.27	16.438
696.59	19.355
696.91	16.201
697.23	17.005
697.56	19.424
697.88	20.790
698.20	20.734
698.52	20.794
698.84	19.856
699.16	18.913
699.48	20.494
699.80	24.289
700.12	21.984
700.44	23.099
700.76	19.101
701.08	18.429
701.40	20.060
701.72	20.000
702.04	18.553
702.36	18.293
702.68	18.293
703.00	22.807
703.32	16.156
703.64	22.892
703.96	21.408
704.28	18.976
704.60	20.427
704.91	19.749
705.23	22.468
705.55	21.724
705.87	20.775
706.19	19.048
706.51	17.958
706.83	19.427
707.15	19.512
707.47	20.937
707.79	21.320
708.11	19.537
708.43	19.543
708.74	19.681
709.06	20.321
709.38	20.173
709.70	18.018
710.02	18.692
710.34	20.000
710.66	20.847
710.98	17.337
711.29	24.351
711.61	23.226
711.93	20.000
712.25	18.182
712.57	21.404
712.89	19.048
713.20	22.695
713.52	19.708
713.84	20.645
714.16	18.123
714.48	18.987
714.80	18.211
715.11	24.419
715.43	19.876
715.75	23.292
716.07	20.181
716.39	14.815
716.70	19.424
717.02	14.510
717.34	21.591
717.66	16.810
717.97	14.683
718.29	19.291
718.61	21.030
718.93	20.155
719.24	18.819
719.56	19.850
719.88	14.552
720.20	20.158
720.51	17.188
720.83	20.623
721.15	15.447
721.46	16.794
721.78	21.912
722.10	15.936
722.42	19.758
722.73	23.552
723.05	21.633
723.37	21.008
723.68	15.600
724.00	16.596
724.32	17.992
724.63	24.691
724.95	13.248
725.27	17.722
725.58	23.868
725.90	16.318
726.22	17.391
726.53	12.157
726.85	16.788
727.16	17.407
727.48	22.605
727.80	22.266
728.11	18.443
728.43	20.703
728.74	14.683
729.06	13.600
729.38	19.368
729.69	19.217
730.01	17.472
730.32	22.509
730.64	14.394
730.96	19.580
731.27	17.391
731.59	21.905
731.90	18.123
732.22	17.628
732.53	13.514
732.85	13.423
733.16	18.812
733.48	18.919
733.80	18.581
734.11	22.297
734.43	18.266
734.74	19.520
735.06	15.274
735.37	22.492
735.69	15.210
736.00	14.521
736.32	19.504
736.63	17.586
736.95	16.781
737.26	20.000
737.58	19.444
737.89	21.306
738.21	14.947
738.52	19.392
738.83	18.776
739.15	17.300
739.46	17.510
739.78	12.324
740.09	16.096
740.41	14.643
740.72	15.603
741.04	13.200
741.35	21.491
741.66	14.667
741.98	21.154
742.29	19.307
742.61	14.146
742.92	17.982
743.23	18.396
743.55	23.874
743.86	13.004
744.18	17.157
744.49	15.736
744.80	15.816
745.12	16.355
745.43	22.275
745.74	19.369
746.06	19.159
746.37	15.596
746.68	12.981
747.00	19.139
747.31	15.865
747.62	24.312
747.94	23.581
748.25	20.183
748.56	20.889
748.88	21.596
749.19	18.095
749.50	14.563
749.82	19.718
750.13	9.167
750.44	15.385
750.75	18.081
751.07	22.064
751.38	19.858
751.69	16.602
752.01	18.750
752.32	16.923
752.63	17.537
752.94	22.800
753.26	14.644
753.57	15.833
753.88	15.385
754.19	16.335
754.51	15.789
754.82	16.850
755.13	15.217
755.44	17.886
755.75	13.600
756.07	11.808
756.38	15.108
756.69	14.676
757.00	19.315
757.31	15.534
757.63	16.358
757.94	17.514
758.25	18.254
758.56	17.391
758.87	18.155
759.18	19.874
759.50	20.539
759.81	15.050
760.12	17.538
760.43	13.988
760.74	17.232
761.05	17.680
761.36	16.905
761.67	15.710
761.99	15.120
762.30	16.058
762.61	18.107
762.92	16.667
763.23	21.721
763.54	17.749
763.85	13.469
764.16	17.886
764.47	15.200
764.78	15.000
765.10	15.738
765.41	15.805
765.72	18.634
766.03	17.492
766.34	20.769
766.65	15.481
766.96	14.554
767.27	14.356
767.58	7.303
767.89	17.284
768.20	16.022
768.51	15.578
768.82	21.635
769.13	21.239
769.44	23.849
769.75	14.957
770.06	16.143
770.37	16.176
770.68	15.049
770.99	17.476
771.30	16.807
771.61	14.694
771.92	17.842
772.23	15.315
772.54	19.337
772.85	13.372
773.16	18.519
773.47	13.018
773.78	18.966
774.09	15.000
774.39	20.497
774.70	21.088
775.01	8.966
775.32	12.857
775.63	11.278
775.94	9.023
776.25	12.000
776.56	16.529
776.87	19.048
777.18	5.405
777.48	7.207
777.79	16.535
778.10	17.431
778.41	4.386
778.72	10.924
779.03	16.901
779.34	14.865
779.65	14.085
779.95	7.947
780.26	10.072
780.57	20.144
780.88	18.310
781.19	10.924
781.50	22.148
781.80	19.883
782.11	8.721
782.42	21.384
782.73	15.686
783.04	13.103
783.34	10.687
783.65	12.752
783.96	4.615
784.27	14.286
784.57	14.184
784.88	4.808
785.19	17.273
785.50	11.818
785.81	8.571
786.11	7.563
786.42	9.735
786.73	16.981
787.04	8.257
787.34	5.941
787.65	15.833
787.96	14.876
788.26	12.319
788.57	13.492
788.88	5.691
789.19	4.000
789.49	11.450
789.80	27.273
790.11	0.000
790.41	14.851
790.72	12.766
791.03	3.261
791.33	9.412
791.64	11.111
791.95	17.391
792.25	13.636
792.56	20.513
792.87	6.410
793.17	1.282
793.48	4.762
793.79	1.250
794.09	29.808
794.40	2.083
794.70	11.712
795.01	4.688
795.32	14.783
795.62	-2.174
795.93	3.774
796.23	8.081
796.54	7.317
796.85	16.667
797.15	0.000
797.46	7.246
797.76	2.632
798.07	14.773
798.37	15.854
798.68	-4.839
798.99	0.000
799.29	16.867
799.60	3.846
799.90	13.846
800.21	3.030
800.51	10.667
800.82	10.667
801.12	-18.750
801.43	-11.667
801.73	1.351
802.04	22.857
802.34	9.836
802.65	2.985
802.95	14.545
803.26	17.241
803.56	13.846
803.87	13.208
804.17	4.839
804.48	11.765
804.78	4.878
805.09	-1.449
805.39	1.471
805.70	2.128
806.00	-3.509
806.30	25.641
806.61	6.579
806.91	12.162
807.22	13.158
807.52	12.500
807.83	-13.559
808.13	-15.152
808.43	-6.667
808.74	-34.483
809.04	14.286
809.35	-8.163
809.65	-10.000
809.95	-8.163
810.26	12.676
810.56	-6.250
810.86	-20.408
811.17	13.462
811.47	0.000
811.77	-8.333
812.08	-5.660
812.38	-3.125
812.69	-1.818
812.99	-7.317
813.29	5.405
813.59	-29.730
813.90	-1.818
814.20	12.727
814.50	-16.667
814.81	-7.273
815.11	-10.526
815.41	11.628
815.72	-12.500
816.02	-28.571
816.32	-35.135
816.62	6.250
816.93	11.111
817.23	8.889
817.53	-33.333
817.84	-27.027
818.14	7.317
818.44	8.000
818.74	-2.041
819.04	12.195
819.35	2.778
819.65	15.909
819.95	-111.111
820.25	-15.152
820.56	-11.905
820.86	-8.333
821.16	-34.091
821.46	-10.870
821.76	8.621
822.07	2.174
822.37	15.152
822.67	34.146
822.97	-13.514
823.27	-25.714
823.57	31.034
823.88	-35.294
824.18	-5.556
824.48	14.286
824.78	-19.048
825.08	3.571
825.38	-37.037
825.69	3.226
825.99	19.512
826.29	-7.407
826.59	-21.875
826.89	-6.452
827.19	-39.130
827.49	-30.556
827.79	-43.478
828.09	-16.129
828.39	14.583
828.70	-21.875
829.00	-41.379
829.30	-10.811
829.60	-41.667
829.90	11.111
830.20	-31.250
830.50	4.545
830.80	-82.353
831.10	-27.273
831.40	-26.471
831.70	-11.538
832.00	-6.061
832.30	-20.588
832.60	2.703
832.90	800.000
833.20	-3.571
833.50	-95.000
833.80	-31.579
834.10	-45.833
834.40	-40.909
834.70	-60.000
835.00	-50.000
835.30	-70.833
835.60	-57.143
835.90	-9.524
836.20	-8.000
836.50	-4.167
836.80	-63.158
837.10	32.432
837.40	6.667
837.70	-21.739
838.00	8.333
838.30	-31.579
838.60	-130.000
838.90	-170.000
839.19	-33.333
839.49	-76.923
839.79	-15.789
840.09	-266.667
840.39	-70.000
840.69	22.727
840.99	4.762
841.29	-41.667
841.59	-38.462
841.88	-160.000
842.18	-64.286
842.48	33.333
842.78	-185.714
843.08	-64.286
843.38	-150.000
843.68	-125.000
843.97	-28.571
844.27	-111.111
844.57	-81.818
844.87	-53.333
845.17	0.000
845.47	966.667
845.76	-86.667
846.06	-91.667
846.36	-1100.000
846.66	-57.895
846.96	-90.909
847.25	-83.333
847.55	-88.889
847.85	-57.143
848.15	-38.462
848.44	-250.000
848.74	-33.333
849.04	-123.077
849.34	-350.000
849.63	-190.909
849.93	-114.286
850.23	5.000
850.53	-175.000
850.82	-66.667
851.12	-13.333
851.42	-41.176
851.71	-75.000
852.01	0.000
852.31	-76.923
852.61	400.000
852.90	-47.059
853.20	-40.000
853.50	-31.250
853.79	-171.429
854.09	-200.000
854.39	-40.000
854.68	-2.500
854.98	-57.143
855.28	-20.000
855.57	-45.833
855.87	-29.167
856.17	-48.000
856.46	-50.000
856.76	10.000
857.05	12.000
857.35	-91.667
857.65	-11.765
857.94	-125.000
858.24	-58.333
858.53	-15.000
858.83	-127.273
859.13	4.000
859.42	-50.000
859.72	-150.000
860.01	-12.500
860.31	-237.500
860.60	-81.250
860.90	-216.667
861.20	-100.000
861.49	-80.000
861.79	-56.250
862.08	225.000
862.38	-141.667
862.67	400.000
862.97	450.000
863.26	-54.545
863.56	-81.818
863.85	-47.368
864.15	0.000
864.44	-220.000
864.74	-160.000
865.03	-88.889
865.33	-64.286
865.62	185.714
865.92	-5.263
866.21	-72.222
866.51	-109.091
866.80	-88.889
867.10	-162.500
867.39	-31.250
867.69	-46.667
867.98	-110.000
868.27	0.000
868.57	0.000
868.86	1250.000
869.16	-375.000
869.45	-228.571
869.75	750.000
870.04	-30.000
870.33	-2200.000
870.63	-68.421
870.92	-41.667
871.22	-1100.000
871.51	-85.714
871.80	-166.667
872.10	-200.000
>>>>>End Processed Spectral Data<<<<<
