SpectraSuite Data File
++++++++++++++++++++++++++++++++++++
Date: Wed May 13 21:28:57 PDT 2015
User: schluterlab
Dark Spectrum Present: Yes
Reference Spectrum Present: Yes
Number of Sampled Component Spectra: 1
Spectrometers: USB2E3373
Integration Time (usec): 3000 (USB2E3373)
Spectra Averaged: 3 (USB2E3373)
Boxcar Smoothing: 0 (USB2E3373)
Correct for Electrical Dark: No (USB2E3373)
Strobe/Lamp Enabled: No (USB2E3373)
Correct for Detector Non-linearity: No (USB2E3373)
Correct for Stray Light: No (USB2E3373)
Number of Pixels in Processed Spectrum: 2048
>>>>>Begin Processed Spectral Data<<<<<
178.53	0.000
178.91	750.000
179.29	241.667
179.67	-600.000
180.04	-266.667
180.42	120.000
180.80	1800.000
181.18	216.667
181.56	-375.000
181.94	-250.000
182.31	-36.364
182.69	176.923
183.07	-380.000
183.45	333.333
183.83	200.000
184.20	85.714
184.58	-166.667
184.96	466.667
185.34	185.714
185.72	0.000
186.09	-1200.000
186.47	-340.000
186.85	220.000
187.23	-200.000
187.61	800.000
187.98	1500.000
188.36	87.500
188.74	0.000
189.12	-54.545
189.49	-30.000
189.87	158.333
190.25	320.000
190.63	2300.000
191.00	-180.000
191.38	260.000
191.76	350.000
192.14	175.000
192.51	-21.053
192.89	866.667
193.27	225.000
193.65	-200.000
194.02	181.818
194.40	280.000
194.78	-1000.000
195.15	440.000
195.53	-380.000
195.91	-62.500
196.29	-500.000
196.66	0.000
197.04	350.000
197.42	-220.000
197.79	-40.000
198.17	-75.000
198.55	-233.333
198.92	50.000
199.30	-366.667
199.68	-110.000
200.05	700.000
200.43	183.333
200.81	-1700.000
201.18	-340.000
201.56	-283.333
201.94	775.000
202.31	-13.043
202.69	0.000
203.07	-533.333
203.44	-100.000
203.82	-100.000
204.19	-120.000
204.57	0.000
204.95	0.000
205.32	0.000
205.70	150.000
206.08	-275.000
206.45	-216.667
206.83	300.000
207.20	-633.333
207.58	-10.000
207.96	-1500.000
208.33	-142.857
208.71	-1000.000
209.08	300.000
209.46	450.000
209.84	0.000
210.21	210.000
210.59	1800.000
210.96	280.000
211.34	1500.000
211.71	-1050.000
212.09	-233.333
212.46	-160.000
212.84	-300.000
213.22	-100.000
213.59	-200.000
213.97	-600.000
214.34	-550.000
214.72	-61.538
215.09	300.000
215.47	111.111
215.84	650.000
216.22	-37.500
216.59	-50.000
216.97	400.000
217.34	66.667
217.72	0.000
218.09	466.667
218.47	0.000
218.84	-100.000
219.22	-162.500
219.59	-300.000
219.97	-375.000
220.34	-87.500
220.72	-240.000
221.09	0.000
221.47	-250.000
221.84	-1200.000
222.22	0.000
222.59	500.000
222.97	-333.333
223.34	-100.000
223.72	-1600.000
224.09	-450.000
224.46	-90.909
224.84	-50.000
225.21	-28.571
225.59	-375.000
225.96	-233.333
226.34	-70.000
226.71	-300.000
227.08	500.000
227.46	-150.000
227.83	0.000
228.21	-6.250
228.58	-325.000
228.95	-35.294
229.33	-18.750
229.70	12.500
230.08	7.692
230.45	-162.500
230.82	-66.667
231.20	228.571
231.57	-275.000
231.95	1100.000
232.32	8.333
232.69	-52.941
233.07	-1100.000
233.44	-4.348
233.81	-350.000
234.19	29.167
234.56	-73.333
234.93	-60.000
235.31	15.789
235.68	-30.769
236.05	-53.846
236.43	-16.667
236.80	-6.061
237.17	-86.667
237.55	-94.118
237.92	-37.931
238.29	-44.444
238.67	-30.556
239.04	-29.032
239.41	6.383
239.79	-4.255
240.16	9.302
240.53	7.143
240.91	7.143
241.28	7.143
241.65	9.677
242.02	5.263
242.40	14.493
242.77	-5.797
243.14	7.692
243.51	14.894
243.89	8.654
244.26	32.075
244.63	8.654
245.00	8.333
245.38	16.807
245.75	7.377
246.12	19.549
246.49	8.130
246.87	19.328
247.24	19.595
247.61	20.530
247.98	15.385
248.36	10.651
248.73	12.921
249.10	19.192
249.47	17.204
249.84	16.842
250.22	22.886
250.59	19.159
250.96	20.000
251.33	14.354
251.70	25.941
252.08	20.502
252.45	23.457
252.82	21.293
253.19	21.401
253.56	19.424
253.94	19.573
254.31	17.958
254.68	23.154
255.05	21.122
255.42	19.930
255.79	21.472
256.16	18.927
256.54	20.952
256.91	20.570
257.28	21.069
257.65	19.427
258.02	22.874
258.39	24.561
258.76	18.023
259.14	23.864
259.51	19.382
259.88	21.951
260.25	18.611
260.62	20.506
260.99	22.281
261.36	22.021
261.73	20.741
262.10	20.611
262.47	19.753
262.85	19.403
263.22	22.308
263.59	20.000
263.96	21.655
264.33	21.154
264.70	21.860
265.07	23.611
265.44	21.609
265.81	20.137
266.18	20.046
266.55	22.052
266.92	19.280
267.29	20.370
267.66	22.930
268.03	20.782
268.40	19.703
268.77	19.835
269.14	22.041
269.51	24.025
269.88	21.385
270.25	20.763
270.62	21.107
270.99	20.866
271.36	20.635
271.73	19.478
272.10	20.190
272.47	20.345
272.84	21.260
273.21	20.744
273.58	17.828
273.95	20.755
274.32	20.896
274.69	21.676
275.06	22.615
275.43	20.716
275.80	19.504
276.17	21.363
276.54	21.314
276.91	19.164
277.28	19.314
277.65	19.580
278.02	21.607
278.39	18.472
278.76	19.398
279.13	18.868
279.50	20.000
279.87	18.659
280.23	21.622
280.60	18.339
280.97	18.994
281.34	21.451
281.71	18.211
282.08	17.949
282.45	21.148
282.82	19.489
283.19	20.579
283.56	18.906
283.92	20.031
284.29	20.905
284.66	19.769
285.03	17.752
285.40	19.789
285.77	21.772
286.14	19.149
286.51	20.990
286.87	19.538
287.24	19.027
287.61	18.373
287.98	19.265
288.35	20.268
288.72	20.373
289.08	18.519
289.45	19.677
289.82	18.608
290.19	19.495
290.56	16.477
290.93	18.094
291.29	18.331
291.66	17.486
292.03	17.847
292.40	18.708
292.77	20.348
293.13	18.550
293.50	17.778
293.87	17.467
294.24	17.725
294.60	17.555
294.97	17.460
295.34	16.359
295.71	16.163
296.08	17.277
296.44	16.071
296.81	16.443
297.18	17.875
297.55	16.745
297.91	16.646
298.28	16.586
298.65	16.256
299.02	16.484
299.38	16.687
299.75	17.428
300.12	15.581
300.48	15.322
300.85	15.473
301.22	16.725
301.59	15.141
301.95	14.170
302.32	16.219
302.69	15.254
303.05	15.393
303.42	17.273
303.79	16.509
304.15	15.553
304.52	16.022
304.89	14.618
305.25	14.599
305.62	16.052
305.99	16.975
306.35	15.256
306.72	15.768
307.09	15.433
307.45	15.016
307.82	14.526
308.19	13.898
308.55	14.534
308.92	16.994
309.29	15.415
309.65	14.486
310.02	16.402
310.38	14.837
310.75	15.779
311.12	15.841
311.48	13.749
311.85	15.846
312.22	16.248
312.58	14.493
312.95	15.622
313.31	15.427
313.68	15.935
314.05	15.217
314.41	16.427
314.78	16.698
315.14	16.111
315.51	15.319
315.87	16.497
316.24	15.152
316.61	16.438
316.97	15.278
317.34	16.578
317.70	16.057
318.07	16.593
318.43	16.531
318.80	16.318
319.16	16.180
319.53	15.860
319.89	17.435
320.26	16.359
320.62	16.867
320.99	17.054
321.35	17.025
321.72	17.324
322.08	17.435
322.45	20.259
322.81	18.946
323.18	19.410
323.54	18.141
323.91	20.687
324.27	19.352
324.64	20.819
325.00	19.423
325.37	20.904
325.73	19.192
326.10	19.344
326.46	20.485
326.83	20.065
327.19	21.707
327.56	22.079
327.92	20.837
328.29	22.788
328.65	23.050
329.01	21.636
329.38	23.130
329.74	22.318
330.11	23.354
330.47	22.743
330.84	22.563
331.20	23.484
331.56	23.098
331.93	23.170
332.29	23.979
332.66	23.729
333.02	25.369
333.38	23.509
333.75	24.488
334.11	24.219
334.48	23.540
334.84	24.293
335.20	25.901
335.57	25.500
335.93	23.883
336.29	23.643
336.66	23.675
337.02	25.217
337.38	25.065
337.75	25.065
338.11	24.338
338.47	24.229
338.84	24.313
339.20	24.250
339.56	25.000
339.93	23.596
340.29	25.619
340.65	26.005
341.02	23.877
341.38	24.155
341.74	24.202
342.11	24.773
342.47	23.431
342.83	24.510
343.20	24.619
343.56	24.857
343.92	25.589
344.28	25.487
344.65	24.490
345.01	24.455
345.37	25.247
345.73	26.062
346.10	25.441
346.46	24.959
346.82	24.398
347.19	24.921
347.55	25.444
347.91	25.019
348.27	24.290
348.63	24.359
349.00	25.472
349.36	24.333
349.72	24.671
350.08	25.429
350.45	25.372
350.81	24.804
351.17	25.558
351.53	25.609
351.89	24.702
352.26	24.015
352.62	24.806
352.98	25.719
353.34	25.282
353.70	24.611
354.07	26.196
354.43	25.117
354.79	26.603
355.15	25.932
355.51	25.513
355.87	25.489
356.24	26.083
356.60	24.785
356.96	25.940
357.32	25.000
357.68	25.286
358.04	26.299
358.40	25.426
358.77	26.529
359.13	25.914
359.49	25.587
359.85	26.763
360.21	26.137
360.57	25.932
360.93	26.100
361.29	27.461
361.66	27.639
362.02	26.019
362.38	25.554
362.74	25.816
363.10	27.187
363.46	26.585
363.82	27.051
364.18	27.049
364.54	27.133
364.90	26.481
365.26	26.964
365.62	26.776
365.98	27.473
366.35	27.234
366.71	26.177
367.07	26.648
367.43	27.805
367.79	27.936
368.15	27.496
368.51	27.356
368.87	27.704
369.23	27.687
369.59	27.555
369.95	28.157
370.31	27.406
370.67	28.530
371.03	28.656
371.39	28.034
371.75	29.143
372.11	28.561
372.47	29.200
372.83	28.779
373.19	27.986
373.55	29.191
373.91	28.289
374.27	28.354
374.63	28.521
374.99	28.900
375.35	29.384
375.71	29.076
376.07	30.021
376.42	29.144
376.78	29.921
377.14	30.712
377.50	29.791
377.86	30.080
378.22	29.709
378.58	29.508
378.94	31.375
379.30	29.419
379.66	31.504
380.02	30.515
380.38	31.446
380.74	31.201
381.09	31.122
381.45	31.681
381.81	31.793
382.17	31.191
382.53	31.138
382.89	30.881
383.25	31.852
383.61	31.598
383.97	32.312
384.32	31.506
384.68	31.524
385.04	31.521
385.40	32.254
385.76	33.212
386.12	33.054
386.48	33.103
386.83	31.727
387.19	33.004
387.55	33.354
387.91	33.272
388.27	32.676
388.62	33.645
388.98	34.355
389.34	33.145
389.70	34.127
390.06	33.312
390.42	35.309
390.77	34.337
391.13	34.848
391.49	33.460
391.85	35.016
392.20	34.649
392.56	35.048
392.92	35.225
393.28	33.527
393.64	34.557
393.99	34.088
394.35	35.309
394.71	34.936
395.07	34.088
395.42	35.893
395.78	35.071
396.14	36.081
396.50	35.193
396.85	35.883
397.21	34.831
397.57	34.969
397.92	35.269
398.28	36.323
398.64	34.730
399.00	36.272
399.35	36.947
399.71	35.702
400.07	36.205
400.42	35.987
400.78	36.193
401.14	35.929
401.49	35.890
401.85	38.452
402.21	37.833
402.57	35.868
402.92	37.046
403.28	36.585
403.63	36.144
403.99	36.980
404.35	37.032
404.70	35.952
405.06	37.463
405.42	36.935
405.77	36.751
406.13	37.143
406.49	37.448
406.84	38.095
407.20	36.412
407.55	36.948
407.91	36.995
408.27	36.182
408.62	38.613
408.98	38.224
409.34	37.438
409.69	38.726
410.05	37.189
410.40	38.223
410.76	38.207
411.11	37.687
411.47	38.421
411.83	38.303
412.18	37.783
412.54	38.847
412.89	37.555
413.25	37.758
413.60	38.495
413.96	37.203
414.31	37.793
414.67	38.667
415.03	38.498
415.38	37.913
415.74	37.882
416.09	38.995
416.45	38.414
416.80	39.262
417.16	38.394
417.51	37.508
417.87	38.889
418.22	38.720
418.58	38.830
418.93	38.418
419.29	39.208
419.64	39.122
420.00	38.413
420.35	38.255
420.71	38.269
421.06	38.561
421.42	38.625
421.77	39.538
422.12	39.198
422.48	38.768
422.83	38.984
423.19	38.298
423.54	38.575
423.90	38.183
424.25	39.226
424.61	38.694
424.96	38.734
425.31	37.577
425.67	40.035
426.02	38.987
426.38	39.117
426.73	38.790
427.09	39.462
427.44	38.579
427.79	39.014
428.15	39.021
428.50	37.704
428.85	38.499
429.21	37.985
429.56	39.639
429.92	39.459
430.27	39.162
430.62	38.667
430.98	38.445
431.33	39.172
431.68	39.723
432.04	39.380
432.39	38.684
432.74	38.565
433.10	40.151
433.45	38.225
433.80	38.218
434.16	39.159
434.51	39.022
434.86	37.986
435.22	39.615
435.57	39.066
435.92	38.902
436.28	38.559
436.63	38.972
436.98	39.894
437.34	40.720
437.69	38.430
438.04	39.389
438.39	39.352
438.75	38.915
439.10	39.271
439.45	38.801
439.81	40.271
440.16	40.000
440.51	39.536
440.86	39.715
441.22	38.210
441.57	39.208
441.92	39.295
442.27	39.177
442.63	38.751
442.98	39.525
443.33	38.770
443.68	38.693
444.03	40.288
444.39	39.762
444.74	38.708
445.09	38.767
445.44	40.845
445.79	39.649
446.15	39.933
446.50	39.703
446.85	40.246
447.20	39.310
447.55	39.675
447.91	39.831
448.26	39.051
448.61	39.413
448.96	39.408
449.31	39.692
449.66	39.850
450.02	39.454
450.37	39.953
450.72	39.208
451.07	39.373
451.42	39.301
451.77	39.744
452.12	38.919
452.47	40.219
452.83	39.682
453.18	39.274
453.53	40.101
453.88	39.398
454.23	39.617
454.58	39.767
454.93	38.871
455.28	38.921
455.63	38.178
455.98	38.344
456.34	38.589
456.69	39.169
457.04	38.019
457.39	39.206
457.74	39.019
458.09	38.507
458.44	37.720
458.79	38.276
459.14	37.360
459.49	39.146
459.84	38.613
460.19	37.515
460.54	38.564
460.89	39.189
461.24	38.903
461.59	38.587
461.94	38.685
462.29	38.787
462.64	38.786
462.99	38.565
463.34	38.122
463.69	39.497
464.04	38.175
464.39	38.987
464.74	37.654
465.09	38.748
465.44	38.215
465.79	39.218
466.14	39.111
466.49	39.824
466.84	38.972
467.19	38.854
467.54	38.691
467.89	39.283
468.24	38.660
468.59	39.069
468.94	39.591
469.29	38.797
469.64	39.331
469.99	39.034
470.34	38.031
470.68	40.297
471.03	39.210
471.38	39.013
471.73	38.820
472.08	39.931
472.43	40.435
472.78	38.878
473.13	37.863
473.48	39.269
473.83	39.297
474.17	39.518
474.52	39.935
474.87	38.842
475.22	39.251
475.57	40.100
475.92	38.877
476.27	38.403
476.61	39.807
476.96	39.121
477.31	40.076
477.66	39.266
478.01	38.407
478.36	39.401
478.70	39.903
479.05	40.178
479.40	39.054
479.75	40.011
480.10	38.960
480.45	38.794
480.79	39.472
481.14	39.514
481.49	39.862
481.84	37.700
482.19	38.675
482.53	39.952
482.88	39.693
483.23	38.450
483.58	39.887
483.92	38.521
484.27	38.884
484.62	38.660
484.97	39.527
485.31	38.316
485.66	35.637
486.01	36.278
486.36	36.344
486.70	36.709
487.05	37.758
487.40	38.282
487.75	38.674
488.09	39.349
488.44	39.292
488.79	40.348
489.13	38.807
489.48	38.521
489.83	39.080
490.17	38.901
490.52	39.925
490.87	37.830
491.22	39.049
491.56	39.099
491.91	38.118
492.26	39.410
492.60	38.576
492.95	38.970
493.30	38.372
493.64	38.321
493.99	40.000
494.34	39.210
494.68	39.379
495.03	39.476
495.37	39.903
495.72	39.950
496.07	40.721
496.41	37.857
496.76	39.031
497.11	39.202
497.45	39.591
497.80	40.384
498.14	39.899
498.49	39.284
498.84	39.676
499.18	39.771
499.53	38.651
499.87	37.894
500.22	40.717
500.56	39.870
500.91	39.588
501.26	39.803
501.60	39.755
501.95	39.770
502.29	40.243
502.64	39.923
502.98	39.788
503.33	40.487
503.67	40.604
504.02	40.245
504.36	40.119
504.71	39.634
505.06	41.009
505.40	40.206
505.75	40.743
506.09	40.470
506.44	40.575
506.78	40.325
507.13	41.476
507.47	42.153
507.82	40.764
508.16	41.161
508.51	41.839
508.85	41.109
509.19	41.164
509.54	42.252
509.88	42.258
510.23	41.105
510.57	41.684
510.92	43.211
511.26	41.859
511.61	42.371
511.95	42.889
512.30	41.977
512.64	42.452
512.98	42.271
513.33	43.042
513.67	42.817
514.02	43.558
514.36	42.303
514.70	43.649
515.05	43.242
515.39	42.571
515.74	43.517
516.08	43.186
516.42	42.512
516.77	42.648
517.11	44.621
517.46	44.898
517.80	44.613
518.14	43.968
518.49	44.304
518.83	44.212
519.17	44.699
519.52	44.692
519.86	46.145
520.20	44.451
520.55	45.647
520.89	44.149
521.23	46.667
521.58	45.259
521.92	44.186
522.26	43.917
522.61	45.960
522.95	45.466
523.29	46.794
523.64	45.963
523.98	45.743
524.32	46.755
524.66	45.779
525.01	45.937
525.35	45.622
525.69	45.991
526.04	46.254
526.38	45.061
526.72	46.154
527.06	45.261
527.41	47.055
527.75	46.262
528.09	46.562
528.43	45.726
528.78	44.897
529.12	47.025
529.46	46.193
529.80	45.631
530.15	45.174
530.49	46.361
530.83	45.972
531.17	46.918
531.51	46.595
531.86	46.545
532.20	46.244
532.54	46.276
532.88	46.290
533.22	46.734
533.57	45.033
533.91	47.032
534.25	47.005
534.59	46.396
534.93	45.727
535.27	46.178
535.62	46.250
535.96	45.999
536.30	46.144
536.64	45.455
536.98	47.092
537.32	47.829
537.66	46.333
538.01	45.354
538.35	45.166
538.69	44.482
539.03	46.107
539.37	45.070
539.71	45.293
540.05	44.939
540.39	44.873
540.73	45.531
541.07	45.646
541.42	45.320
541.76	45.264
542.10	44.888
542.44	44.560
542.78	45.385
543.12	45.755
543.46	45.197
543.80	47.047
544.14	45.079
544.48	43.796
544.82	44.250
545.16	43.137
545.50	45.780
545.84	45.582
546.18	44.460
546.52	44.531
546.86	43.958
547.20	44.889
547.54	44.675
547.88	45.749
548.22	44.039
548.56	44.563
548.90	44.587
549.24	44.444
549.58	44.128
549.92	47.249
550.26	46.716
550.60	45.195
550.94	45.224
551.28	43.679
551.62	45.639
551.96	43.411
552.30	43.814
552.64	44.280
552.98	44.105
553.32	43.475
553.66	44.461
554.00	43.844
554.34	44.762
554.68	44.519
555.02	43.937
555.36	45.159
555.69	44.210
556.03	44.818
556.37	43.528
556.71	44.219
557.05	45.018
557.39	43.331
557.73	44.478
558.07	44.386
558.41	45.117
558.75	43.572
559.08	43.224
559.42	44.532
559.76	44.037
560.10	44.581
560.44	44.215
560.78	43.885
561.12	42.467
561.45	43.605
561.79	44.429
562.13	43.460
562.47	44.357
562.81	44.372
563.15	43.130
563.48	42.464
563.82	43.434
564.16	43.602
564.50	42.605
564.84	42.432
565.17	43.377
565.51	43.516
565.85	42.372
566.19	43.775
566.52	42.071
566.86	42.035
567.20	42.517
567.54	42.660
567.88	41.265
568.21	40.304
568.55	41.367
568.89	41.874
569.23	40.467
569.56	40.008
569.90	39.647
570.24	38.448
570.57	38.246
570.91	38.615
571.25	38.408
571.59	38.605
571.92	38.369
572.26	38.432
572.60	38.805
572.93	38.113
573.27	37.990
573.61	38.439
573.95	38.049
574.28	38.025
574.62	37.176
574.96	38.115
575.29	37.788
575.63	38.435
575.97	38.179
576.30	37.748
576.64	38.591
576.98	37.765
577.31	37.674
577.65	37.442
577.98	37.120
578.32	36.923
578.66	37.357
578.99	37.653
579.33	38.031
579.67	38.009
580.00	37.391
580.34	37.567
580.67	37.776
581.01	37.174
581.35	36.819
581.68	36.438
582.02	36.468
582.35	36.861
582.69	37.449
583.02	36.659
583.36	37.479
583.70	37.875
584.03	37.854
584.37	37.322
584.70	37.417
585.04	37.947
585.37	36.938
585.71	37.361
586.04	36.491
586.38	36.675
586.72	37.201
587.05	37.563
587.39	36.682
587.72	37.314
588.06	37.291
588.39	37.000
588.73	37.184
589.06	37.730
589.40	37.289
589.73	36.867
590.07	37.842
590.40	37.637
590.73	38.331
591.07	38.111
591.40	37.870
591.74	37.972
592.07	38.430
592.41	38.610
592.74	37.346
593.08	36.068
593.41	36.095
593.75	36.305
594.08	36.684
594.41	36.197
594.75	36.769
595.08	36.968
595.42	37.115
595.75	36.732
596.09	36.836
596.42	37.786
596.75	37.429
597.09	38.171
597.42	36.878
597.75	37.422
598.09	37.477
598.42	38.568
598.76	36.440
599.09	36.535
599.42	36.707
599.76	37.326
600.09	35.617
600.42	36.573
600.76	36.031
601.09	36.648
601.42	36.378
601.76	35.869
602.09	37.090
602.42	36.401
602.76	36.074
603.09	36.756
603.42	36.265
603.76	35.542
604.09	36.522
604.42	36.375
604.76	36.360
605.09	36.973
605.42	37.787
605.75	36.231
606.09	35.927
606.42	36.284
606.75	37.143
607.09	36.392
607.42	36.077
607.75	35.536
608.08	36.835
608.42	36.739
608.75	36.359
609.08	36.943
609.41	35.519
609.75	37.317
610.08	36.391
610.41	36.832
610.74	36.141
611.07	36.623
611.41	37.820
611.74	36.542
612.07	35.748
612.40	37.459
612.73	36.389
613.07	35.532
613.40	36.068
613.73	36.403
614.06	36.705
614.39	35.742
614.72	36.646
615.06	35.722
615.39	35.872
615.72	35.907
616.05	36.318
616.38	36.140
616.71	35.693
617.05	37.285
617.38	36.599
617.71	36.152
618.04	36.502
618.37	36.845
618.70	36.417
619.03	35.739
619.36	36.868
619.69	35.819
620.03	36.184
620.36	36.047
620.69	36.046
621.02	37.000
621.35	36.304
621.68	35.615
622.01	37.540
622.34	36.558
622.67	36.335
623.00	36.246
623.33	35.976
623.66	35.019
623.99	36.159
624.32	34.263
624.65	37.537
624.99	35.562
625.32	35.698
625.65	35.426
625.98	36.098
626.31	36.653
626.64	35.770
626.97	36.765
627.30	37.040
627.63	37.457
627.96	35.671
628.29	36.930
628.62	37.041
628.95	36.172
629.28	37.537
629.61	36.555
629.94	37.331
630.26	37.044
630.59	37.263
630.92	35.944
631.25	36.148
631.58	35.546
631.91	35.737
632.24	36.443
632.57	37.444
632.90	38.273
633.23	38.849
633.56	37.890
633.89	37.679
634.22	38.869
634.55	38.002
634.88	35.662
635.20	37.875
635.53	35.788
635.86	38.590
636.19	36.352
636.52	35.976
636.85	37.515
637.18	35.079
637.51	35.456
637.83	38.642
638.16	37.867
638.49	35.781
638.82	36.993
639.15	37.101
639.48	36.096
639.81	38.056
640.13	38.732
640.46	38.842
640.79	36.691
641.12	38.314
641.45	34.643
641.77	38.144
642.10	36.914
642.43	38.365
642.76	35.647
643.09	36.741
643.41	37.002
643.74	35.703
644.07	38.350
644.40	36.153
644.73	36.949
645.05	36.300
645.38	36.379
645.71	35.884
646.04	35.017
646.36	37.326
646.69	36.538
647.02	36.612
647.35	39.488
647.67	35.860
648.00	37.138
648.33	37.966
648.66	36.060
648.98	35.714
649.31	33.742
649.64	35.837
649.96	35.071
650.29	35.621
650.62	35.255
650.94	36.207
651.27	35.866
651.60	35.664
651.92	37.097
652.25	36.348
652.58	35.809
652.90	35.690
653.23	34.635
653.56	34.215
653.88	32.935
654.21	32.935
654.54	35.880
654.86	32.683
655.19	35.154
655.52	32.495
655.84	28.312
656.17	33.659
656.49	44.984
656.82	45.557
657.15	34.989
657.47	26.494
657.80	20.271
658.13	21.851
658.45	32.410
658.78	32.836
659.10	33.296
659.43	33.911
659.75	34.279
660.08	33.793
660.41	32.860
660.73	34.160
661.06	34.184
661.38	35.078
661.71	38.115
662.03	37.421
662.36	35.619
662.68	33.763
663.01	36.441
663.33	33.693
663.66	34.812
663.98	33.708
664.31	34.945
664.63	33.108
664.96	35.230
665.28	34.764
665.61	34.341
665.93	36.403
666.26	39.451
666.58	33.191
666.91	37.668
667.23	35.945
667.56	35.862
667.88	36.682
668.21	34.375
668.53	35.402
668.86	32.854
669.18	36.170
669.50	39.401
669.83	37.947
670.15	33.095
670.48	34.253
670.80	38.293
671.13	34.325
671.45	33.790
671.77	32.759
672.10	33.723
672.42	31.298
672.75	29.643
673.07	32.182
673.39	32.276
673.72	32.335
674.04	34.631
674.37	32.317
674.69	31.893
675.01	34.402
675.34	33.042
675.66	34.205
675.98	31.637
676.31	33.258
676.63	38.095
676.95	32.706
677.28	32.798
677.60	35.049
677.92	34.368
678.25	34.056
678.57	35.845
678.89	31.983
679.22	31.884
679.54	33.265
679.86	30.664
680.18	31.731
680.51	32.115
680.83	30.214
681.15	33.202
681.48	31.263
681.80	32.924
682.12	31.458
682.44	32.797
682.77	28.632
683.09	31.696
683.41	33.256
683.73	30.134
684.06	31.195
684.38	28.846
684.70	28.310
685.02	30.992
685.34	31.311
685.67	31.520
685.99	29.537
686.31	31.724
686.63	29.596
686.96	29.870
687.28	30.938
687.60	31.758
687.92	28.988
688.24	30.000
688.56	29.605
688.89	32.071
689.21	29.148
689.53	28.378
689.85	30.337
690.17	34.725
690.49	29.952
690.82	30.788
691.14	31.159
691.46	31.323
691.78	30.769
692.10	30.573
692.42	27.692
692.74	32.609
693.06	29.888
693.39	27.869
693.71	32.889
694.03	32.045
694.35	31.532
694.67	31.500
694.99	30.928
695.31	33.850
695.63	30.488
695.95	33.079
696.27	26.301
696.59	30.645
696.91	32.402
697.23	27.411
697.56	29.976
697.88	30.769
698.20	27.862
698.52	29.673
698.84	32.536
699.16	27.660
699.48	31.358
699.80	32.817
700.12	31.367
700.44	31.268
700.76	28.933
701.08	28.399
701.40	31.138
701.72	30.462
702.04	26.101
702.36	26.524
702.68	26.829
703.00	29.825
703.32	26.462
703.64	27.410
703.96	33.138
704.28	30.422
704.60	26.829
704.91	25.392
705.23	25.316
705.55	30.690
705.87	31.338
706.19	26.740
706.51	31.690
706.83	25.159
707.15	29.878
707.47	29.752
707.79	27.665
708.11	28.535
708.43	27.665
708.74	28.723
709.06	22.460
709.38	27.666
709.70	26.727
710.02	25.857
710.34	28.333
710.66	29.642
710.98	28.793
711.29	28.896
711.61	24.194
711.93	27.742
712.25	25.874
712.57	28.421
712.89	28.571
713.20	29.078
713.52	25.912
713.84	27.097
714.16	23.948
714.48	25.000
714.80	26.198
715.11	29.651
715.43	23.913
715.75	29.814
716.07	28.313
716.39	27.946
716.70	33.094
717.02	25.098
717.34	27.652
717.66	30.603
717.97	26.587
718.29	27.559
718.61	27.468
718.93	24.031
719.24	24.723
719.56	29.213
719.88	26.493
720.20	25.296
720.51	26.953
720.83	31.907
721.15	20.732
721.46	27.481
721.78	27.888
722.10	25.100
722.42	24.194
722.73	26.255
723.05	28.571
723.37	26.891
723.68	21.200
724.00	21.277
724.32	28.452
724.63	22.634
724.95	22.222
725.27	26.582
725.58	27.572
725.90	25.105
726.22	26.087
726.53	21.569
726.85	24.453
727.16	26.296
727.48	29.119
727.80	30.469
728.11	26.639
728.43	25.391
728.74	28.175
729.06	24.000
729.38	26.482
729.69	24.555
730.01	24.164
730.32	29.889
730.64	20.076
730.96	29.021
731.27	22.074
731.59	27.619
731.90	25.566
732.22	21.154
732.53	21.959
732.85	23.490
733.16	24.422
733.48	24.324
733.80	26.351
734.11	26.689
734.43	25.387
734.74	27.327
735.06	22.767
735.37	24.620
735.69	27.832
736.00	21.782
736.32	25.177
736.63	24.483
736.95	19.863
737.26	23.793
737.58	27.083
737.89	25.086
738.21	27.046
738.52	20.913
738.83	21.224
739.15	21.941
739.46	28.016
739.78	22.183
740.09	20.890
740.41	20.714
740.72	22.340
741.04	23.600
741.35	17.105
741.66	25.333
741.98	27.885
742.29	31.188
742.61	27.317
742.92	23.684
743.23	19.811
743.55	22.523
743.86	21.973
744.18	23.039
744.49	19.797
744.80	29.592
745.12	19.626
745.43	22.749
745.74	24.324
746.06	23.364
746.37	19.725
746.68	18.269
747.00	22.967
747.31	26.442
747.62	23.853
747.94	24.017
748.25	28.440
748.56	26.667
748.88	24.413
749.19	25.714
749.50	16.990
749.82	21.127
750.13	20.000
750.44	23.077
750.75	24.354
751.07	28.470
751.38	23.759
751.69	24.710
752.01	26.953
752.32	21.154
752.63	22.388
752.94	25.600
753.26	23.849
753.57	21.667
753.88	21.862
754.19	15.538
754.51	22.932
754.82	19.414
755.13	20.870
755.44	21.138
755.75	22.000
756.07	18.819
756.38	21.583
756.69	24.232
757.00	23.364
757.31	21.359
757.63	18.519
757.94	24.294
758.25	23.810
758.56	19.565
758.87	21.131
759.18	23.344
759.50	21.212
759.81	24.749
760.12	25.846
760.43	19.643
760.74	18.644
761.05	21.271
761.36	18.625
761.67	22.356
761.99	17.526
762.30	25.182
762.61	16.461
762.92	22.650
763.23	22.541
763.54	22.078
763.85	22.041
764.16	21.138
764.47	20.400
764.78	19.286
765.10	22.295
765.41	22.188
765.72	20.186
766.03	19.472
766.34	25.769
766.65	19.247
766.96	19.718
767.27	27.228
767.58	20.225
767.89	22.222
768.20	22.099
768.51	23.116
768.82	16.346
769.13	23.009
769.44	22.594
769.75	17.094
770.06	21.076
770.37	16.176
770.68	18.447
770.99	19.903
771.30	20.168
771.61	22.449
771.92	24.896
772.23	19.820
772.54	15.470
772.85	15.116
773.16	25.397
773.47	13.609
773.78	21.839
774.09	22.500
774.39	24.845
774.70	14.966
775.01	11.724
775.32	18.571
775.63	19.549
775.94	18.797
776.25	7.200
776.56	22.314
776.87	19.048
777.18	16.216
777.48	8.108
777.79	18.898
778.10	21.101
778.41	10.526
778.72	17.647
779.03	14.789
779.34	15.541
779.65	17.606
779.95	13.907
780.26	17.266
780.57	26.619
780.88	8.451
781.19	14.286
781.50	20.805
781.80	17.544
782.11	11.628
782.42	18.239
782.73	9.804
783.04	16.552
783.34	18.321
783.65	12.752
783.96	16.154
784.27	12.857
784.57	26.950
784.88	6.731
785.19	18.182
785.50	12.727
785.81	13.333
786.11	10.924
786.42	21.239
786.73	12.264
787.04	18.349
787.34	5.941
787.65	23.333
787.96	15.702
788.26	23.913
788.57	14.286
788.88	21.951
789.19	17.600
789.49	11.450
789.80	27.273
790.11	12.264
790.41	16.832
790.72	12.766
791.03	9.783
791.33	2.353
791.64	13.580
791.95	32.609
792.25	20.455
792.56	21.795
792.87	12.821
793.17	2.564
793.48	3.571
793.79	3.750
794.09	22.115
794.40	16.667
794.70	15.315
795.01	17.188
795.32	15.652
795.62	5.435
795.93	15.094
796.23	4.040
796.54	10.976
796.85	9.524
797.15	25.758
797.46	4.348
797.76	14.474
798.07	15.909
798.37	17.073
798.68	17.742
798.99	1.351
799.29	21.687
799.60	8.974
799.90	10.769
800.21	9.091
800.51	14.667
800.82	12.000
801.12	-18.750
801.43	-13.333
801.73	4.054
802.04	8.571
802.34	-3.279
802.65	10.448
802.95	-3.636
803.26	12.069
803.56	26.154
803.87	5.660
804.17	-6.452
804.48	5.882
804.78	-2.439
805.09	10.145
805.39	11.765
805.70	4.255
806.00	5.263
806.30	10.256
806.61	9.211
806.91	4.054
807.22	9.211
807.52	11.364
807.83	-8.475
808.13	-15.152
808.43	-1.667
808.74	-18.966
809.04	-19.048
809.35	6.122
809.65	0.000
809.95	12.245
810.26	11.268
810.56	-18.750
810.86	-6.122
811.17	17.308
811.47	6.383
811.77	4.167
812.08	7.547
812.38	-37.500
812.69	0.000
812.99	-17.073
813.29	-18.919
813.59	-35.135
813.90	-7.273
814.20	16.364
814.50	-8.333
814.81	-5.455
815.11	5.263
815.41	18.605
815.72	27.500
816.02	-11.429
816.32	-8.108
816.62	-10.417
816.93	13.333
817.23	-2.222
817.53	-16.667
817.84	-10.811
818.14	-17.073
818.44	28.000
818.74	-18.367
819.04	-9.756
819.35	0.000
819.65	11.364
819.95	-55.556
820.25	-30.303
820.56	-14.286
820.86	-25.000
821.16	15.909
821.46	-19.565
821.76	10.345
822.07	4.348
822.37	12.121
822.67	7.317
822.97	-16.216
823.27	-28.571
823.57	20.690
823.88	0.000
824.18	-25.000
824.48	0.000
824.78	-9.524
825.08	-3.571
825.38	3.704
825.69	9.677
825.99	-4.878
826.29	14.815
826.59	-6.250
826.89	12.903
827.19	-21.739
827.49	-5.556
827.79	-34.783
828.09	6.452
828.39	-12.500
828.70	-37.500
829.00	-24.138
829.30	-8.108
829.60	-50.000
829.90	0.000
830.20	-21.875
830.50	-9.091
830.80	-94.118
831.10	-40.909
831.40	-44.118
831.70	-15.385
832.00	15.152
832.30	20.588
832.60	21.622
832.90	900.000
833.20	10.714
833.50	-85.000
833.80	18.421
834.10	-41.667
834.40	-50.000
834.70	-133.333
835.00	-70.000
835.30	-37.500
835.60	-38.095
835.90	-4.762
836.20	-36.000
836.50	-37.500
836.80	-47.368
837.10	-2.703
837.40	-20.000
837.70	-30.435
838.00	12.500
838.30	0.000
838.60	-270.000
838.90	-220.000
839.19	-75.000
839.49	-7.692
839.79	-10.526
840.09	-216.667
840.39	-120.000
840.69	-36.364
840.99	-80.952
841.29	-37.500
841.59	-92.308
841.88	-133.333
842.18	-7.143
842.48	13.333
842.78	-242.857
843.08	-85.714
843.38	-237.500
843.68	-81.250
843.97	14.286
844.27	-177.778
844.57	-72.727
844.87	-6.667
845.17	18.182
845.47	700.000
845.76	-80.000
846.06	-141.667
846.36	-1300.000
846.66	-68.421
846.96	-72.727
847.25	-116.667
847.55	-144.444
847.85	-80.952
848.15	-23.077
848.44	-166.667
848.74	-91.667
849.04	-69.231
849.34	-275.000
849.63	-145.455
849.93	-135.714
850.23	-10.000
850.53	-150.000
850.82	-38.889
851.12	-33.333
851.42	-94.118
851.71	-25.000
852.01	-29.412
852.31	-107.692
852.61	400.000
852.90	-5.882
853.20	20.000
853.50	6.250
853.79	-71.429
854.09	-150.000
854.39	-70.000
854.68	-12.500
854.98	-61.905
855.28	-52.000
855.57	-4.167
855.87	-12.500
856.17	-36.000
856.46	-15.625
856.76	-15.000
857.05	36.000
857.35	-58.333
857.65	-35.294
857.94	-33.333
858.24	-108.333
858.53	-5.000
858.83	-72.727
859.13	4.000
859.42	-50.000
859.72	-150.000
860.01	-29.167
860.31	-225.000
860.60	-12.500
860.90	-200.000
861.20	-100.000
861.49	6.667
861.79	-50.000
862.08	500.000
862.38	-108.333
862.67	428.571
862.97	325.000
863.26	-72.727
863.56	-45.455
863.85	26.316
864.15	5.882
864.44	-300.000
864.74	-140.000
865.03	-111.111
865.33	-92.857
865.62	142.857
865.92	-10.526
866.21	-50.000
866.51	-54.545
866.80	-22.222
867.10	-250.000
867.39	18.750
867.69	-80.000
867.98	-20.000
868.27	-5.882
868.57	0.000
868.86	1200.000
869.16	-375.000
869.45	-228.571
869.75	700.000
870.04	-40.000
870.33	-1900.000
870.63	-73.684
870.92	-25.000
871.22	-1600.000
871.51	-257.143
871.80	-244.444
872.10	-350.000
>>>>>End Processed Spectral Data<<<<<
