SpectraSuite Data File
++++++++++++++++++++++++++++++++++++
Date: Wed May 13 21:35:49 PDT 2015
User: schluterlab
Dark Spectrum Present: Yes
Reference Spectrum Present: Yes
Number of Sampled Component Spectra: 1
Spectrometers: USB2E3373
Integration Time (usec): 3000 (USB2E3373)
Spectra Averaged: 3 (USB2E3373)
Boxcar Smoothing: 0 (USB2E3373)
Correct for Electrical Dark: No (USB2E3373)
Strobe/Lamp Enabled: No (USB2E3373)
Correct for Detector Non-linearity: No (USB2E3373)
Correct for Stray Light: No (USB2E3373)
Number of Pixels in Processed Spectrum: 2048
>>>>>Begin Processed Spectral Data<<<<<
178.53	0.000
178.91	1000.000
179.29	208.333
179.67	-750.000
180.04	-566.667
180.42	400.000
180.80	1900.000
181.18	283.333
181.56	-375.000
181.94	-300.000
182.31	-63.636
182.69	176.923
183.07	-240.000
183.45	266.667
183.83	100.000
184.20	128.571
184.58	-233.333
184.96	666.667
185.34	257.143
185.72	0.000
186.09	-500.000
186.47	-260.000
186.85	160.000
187.23	-350.000
187.61	650.000
187.98	1300.000
188.36	-87.500
188.74	0.000
189.12	-63.636
189.49	-30.000
189.87	91.667
190.25	280.000
190.63	2100.000
191.00	-180.000
191.38	440.000
191.76	525.000
192.14	175.000
192.51	-42.105
192.89	500.000
193.27	475.000
193.65	-280.000
194.02	263.636
194.40	230.000
194.78	-2600.000
195.15	340.000
195.53	-500.000
195.91	12.500
196.29	-333.333
196.66	0.000
197.04	750.000
197.42	-120.000
197.79	-100.000
198.17	-300.000
198.55	-66.667
198.92	500.000
199.30	-533.333
199.68	-30.000
200.05	750.000
200.43	183.333
200.81	-1400.000
201.18	-160.000
201.56	-250.000
201.94	825.000
202.31	-73.913
202.69	-200.000
203.07	-600.000
203.44	-260.000
203.82	-533.333
204.19	-50.000
204.57	0.000
204.95	-166.667
205.32	0.000
205.70	-400.000
206.08	-150.000
206.45	-133.333
206.83	425.000
207.20	-766.667
207.58	-150.000
207.96	-1500.000
208.33	-200.000
208.71	-1900.000
209.08	162.500
209.46	425.000
209.84	0.000
210.21	190.000
210.59	2300.000
210.96	280.000
211.34	2000.000
211.71	-1250.000
212.09	-216.667
212.46	-180.000
212.84	-133.333
213.22	-325.000
213.59	-1600.000
213.97	-200.000
214.34	-750.000
214.72	-61.538
215.09	325.000
215.47	200.000
215.84	950.000
216.22	-150.000
216.59	-150.000
216.97	566.667
217.34	211.111
217.72	0.000
218.09	333.333
218.47	-100.000
218.84	-157.143
219.22	-87.500
219.59	-333.333
219.97	-375.000
220.34	-187.500
220.72	-300.000
221.09	0.000
221.47	-183.333
221.84	-800.000
222.22	0.000
222.59	1900.000
222.97	-266.667
223.34	-158.333
223.72	-1700.000
224.09	-1100.000
224.46	-100.000
224.84	-187.500
225.21	-171.429
225.59	-550.000
225.96	-200.000
226.34	-160.000
226.71	-228.571
227.08	250.000
227.46	-87.500
227.83	-400.000
228.21	-12.500
228.58	-550.000
228.95	-41.176
229.33	-43.750
229.70	-112.500
230.08	-69.231
230.45	-250.000
230.82	-141.667
231.20	285.714
231.57	-350.000
231.95	1300.000
232.32	0.000
232.69	-29.412
233.07	-1400.000
233.44	-39.130
233.81	-550.000
234.19	12.500
234.56	-106.667
234.93	-60.000
235.31	-21.053
235.68	-107.692
236.05	23.077
236.43	-38.889
236.80	12.121
237.17	-20.000
237.55	17.647
237.92	-6.897
238.29	-25.926
238.67	19.444
239.04	3.226
239.41	14.894
239.79	51.064
240.16	41.860
240.53	35.714
240.91	37.500
241.28	33.929
241.65	40.323
242.02	28.947
242.40	46.377
242.77	36.232
243.14	28.205
243.51	40.426
243.89	37.500
244.26	41.509
244.63	29.808
245.00	39.583
245.38	42.857
245.75	45.082
246.12	45.113
246.49	27.642
246.87	35.294
247.24	43.919
247.61	37.748
247.98	43.590
248.36	42.012
248.73	37.640
249.10	39.394
249.47	43.011
249.84	49.474
250.22	42.786
250.59	42.991
250.96	46.364
251.33	42.584
251.70	41.423
252.08	45.607
252.45	49.794
252.82	45.627
253.19	47.860
253.56	42.446
253.94	46.975
254.31	43.310
254.68	47.651
255.05	46.535
255.42	43.706
255.79	40.491
256.16	46.688
256.54	45.397
256.91	43.038
257.28	49.057
257.65	47.452
258.02	47.214
258.39	47.076
258.76	45.349
259.14	46.023
259.51	45.225
259.88	45.257
260.25	47.778
260.62	45.787
260.99	46.154
261.36	45.855
261.73	44.938
262.10	50.891
262.47	46.173
262.85	43.532
263.22	49.231
263.59	45.974
263.96	46.472
264.33	47.115
264.70	47.674
265.07	48.843
265.44	49.425
265.81	46.682
266.18	45.786
266.55	50.000
266.92	45.975
267.29	44.650
267.66	45.860
268.03	47.531
268.40	46.398
268.77	44.008
269.14	48.776
269.51	47.433
269.88	45.418
270.25	47.246
270.62	47.951
270.99	47.835
271.36	44.444
271.73	48.594
272.10	48.190
272.47	47.793
272.84	47.441
273.21	47.945
273.58	48.156
273.95	46.415
274.32	45.522
274.69	46.995
275.06	49.117
275.43	45.386
275.80	47.695
276.17	45.488
276.54	43.162
276.91	47.387
277.28	44.946
277.65	46.154
278.02	48.393
278.39	46.359
278.76	45.652
279.13	46.141
279.50	46.724
279.87	46.558
280.23	45.045
280.60	43.253
280.97	45.130
281.34	47.319
281.71	42.927
282.08	45.812
282.45	48.525
282.82	47.284
283.19	45.579
283.56	43.437
283.92	46.636
284.29	44.774
284.66	44.316
285.03	44.625
285.40	42.900
285.77	45.796
286.14	45.593
286.51	44.378
286.87	42.615
287.24	42.920
287.61	45.783
287.98	43.088
288.35	44.560
288.72	42.611
289.08	43.732
289.45	43.172
289.82	44.781
290.19	41.795
290.56	40.483
290.93	40.746
291.29	41.724
291.66	41.257
292.03	39.646
292.40	41.857
292.77	40.295
293.13	40.725
293.50	41.046
293.87	39.600
294.24	38.095
294.60	40.962
294.97	39.418
295.34	37.731
295.71	36.005
296.08	37.827
296.44	37.117
296.81	37.150
297.18	38.250
297.55	36.557
297.91	38.137
298.28	38.015
298.65	36.946
299.02	38.950
299.38	36.687
299.75	34.736
300.12	33.837
300.48	35.906
300.85	34.873
301.22	35.772
301.59	35.798
301.95	33.798
302.32	34.656
302.69	34.915
303.05	32.447
303.42	35.795
303.79	34.490
304.15	35.268
304.52	36.344
304.89	33.998
305.25	35.016
305.62	35.249
305.99	35.256
306.35	34.901
306.72	33.367
307.09	34.098
307.45	34.718
307.82	32.000
308.19	32.184
308.55	34.084
308.92	34.185
309.29	33.734
309.65	34.166
310.02	34.692
310.38	33.537
310.75	32.249
311.12	33.333
311.48	32.938
311.85	34.055
312.22	34.816
312.58	33.333
312.95	33.333
313.31	34.527
313.68	34.542
314.05	33.270
314.41	35.159
314.78	33.397
315.14	34.167
315.51	35.585
315.87	34.847
316.24	34.803
316.61	35.708
316.97	35.185
317.34	34.759
317.70	37.199
318.07	36.202
318.43	35.682
318.80	35.951
319.16	36.428
319.53	37.455
319.89	35.953
320.26	36.506
320.62	37.813
320.99	37.888
321.35	36.763
321.72	37.729
322.08	38.838
322.45	40.981
322.81	41.035
323.18	39.982
323.54	40.884
323.91	41.373
324.27	41.314
324.64	41.551
325.00	42.607
325.37	42.662
325.73	40.572
326.10	43.482
326.46	43.645
326.83	44.498
327.19	44.228
327.56	45.044
327.92	43.765
328.29	45.159
328.65	45.749
329.01	45.910
329.38	47.913
329.74	46.352
330.11	45.807
330.47	46.094
330.84	48.556
331.20	45.431
331.56	47.101
331.93	46.856
332.29	47.958
332.66	46.695
333.02	48.219
333.38	47.544
333.75	46.843
334.11	48.698
334.48	48.387
334.84	47.438
335.20	47.084
335.57	47.258
335.93	47.079
336.29	46.410
336.66	47.521
337.02	48.609
337.38	47.607
337.75	46.253
338.11	47.054
338.47	46.832
338.84	48.711
339.20	48.325
339.56	47.270
339.93	47.277
340.29	47.908
340.65	47.134
341.02	48.003
341.38	46.115
341.74	46.387
342.11	45.830
342.47	47.197
342.83	47.386
343.20	48.562
343.56	47.915
343.92	47.685
344.28	46.997
344.65	47.265
345.01	45.278
345.37	47.533
345.73	47.222
346.10	46.228
346.46	46.341
346.82	45.827
347.19	46.361
347.55	46.688
347.91	46.376
348.27	46.845
348.63	46.314
349.00	45.912
349.36	45.918
349.72	45.630
350.08	45.788
350.45	45.732
350.81	45.853
351.17	45.881
351.53	46.897
351.89	46.148
352.26	44.402
352.62	45.969
352.98	46.406
353.34	47.424
353.70	46.417
354.07	46.667
354.43	46.423
354.79	47.035
355.15	46.351
355.51	45.786
355.87	46.286
356.24	45.987
356.60	45.895
356.96	46.124
357.32	45.743
357.68	45.149
358.04	46.237
358.40	44.884
358.77	46.101
359.13	46.848
359.49	45.193
359.85	46.323
360.21	45.798
360.57	45.627
360.93	47.193
361.29	45.744
361.66	45.938
362.02	46.182
362.38	46.233
362.74	45.468
363.10	47.144
363.46	46.542
363.82	46.785
364.18	46.120
364.54	46.900
364.90	45.505
365.26	46.921
365.62	47.514
365.98	46.406
366.35	46.879
366.71	46.434
367.07	46.067
367.43	46.411
367.79	47.047
368.15	47.468
368.51	46.835
368.87	46.267
369.23	47.046
369.59	45.666
369.95	46.880
370.31	46.444
370.67	46.126
371.03	46.474
371.39	47.126
371.75	47.429
372.11	48.077
372.47	47.080
372.83	46.741
373.19	47.914
373.55	47.688
373.91	46.252
374.27	46.127
374.63	47.582
374.99	46.936
375.35	47.534
375.71	47.351
376.07	48.321
376.42	46.992
376.78	48.547
377.14	48.542
377.50	47.914
377.86	48.340
378.22	48.357
378.58	48.550
378.94	49.688
379.30	49.719
379.66	47.965
380.02	48.468
380.38	48.434
380.74	49.372
381.09	47.587
381.45	48.730
381.81	49.291
382.17	48.015
382.53	48.431
382.89	49.457
383.25	49.877
383.61	49.516
383.97	49.750
384.32	49.275
384.68	48.674
385.04	48.626
385.40	50.560
385.76	50.182
386.12	50.807
386.48	51.223
386.83	49.875
387.19	50.093
387.55	52.177
387.91	50.308
388.27	51.171
388.62	50.562
388.98	51.252
389.34	52.318
389.70	51.770
390.06	52.125
390.42	52.771
390.77	51.057
391.13	51.705
391.49	50.791
391.85	50.224
392.20	51.065
392.56	52.127
392.92	51.492
393.28	51.540
393.64	52.110
393.99	49.572
394.35	52.222
394.71	53.013
395.07	50.063
395.42	52.468
395.78	52.638
396.14	53.583
396.50	51.427
396.85	53.410
397.21	53.558
397.57	51.988
397.92	53.653
398.28	51.720
398.64	53.430
399.00	53.460
399.35	54.427
399.71	53.058
400.07	53.916
400.42	53.354
400.78	54.139
401.14	53.709
401.49	54.344
401.85	54.054
402.21	54.303
402.57	52.974
402.92	54.693
403.28	54.597
403.63	53.627
403.99	54.255
404.35	55.736
404.70	54.562
405.06	54.433
405.42	55.151
405.77	54.378
406.13	55.257
406.49	54.763
406.84	56.044
407.20	54.766
407.55	55.519
407.91	53.607
408.27	53.400
408.62	56.967
408.98	54.994
409.34	55.384
409.69	56.920
410.05	55.224
410.40	54.960
410.76	56.318
411.11	55.037
411.47	57.001
411.83	56.831
412.18	55.793
412.54	57.080
412.89	56.176
413.25	55.339
413.60	56.176
413.96	55.368
414.31	55.919
414.67	55.111
415.03	56.495
415.38	56.209
415.74	56.075
416.09	56.576
416.45	58.510
416.80	57.315
417.16	56.073
417.51	56.999
417.87	56.614
418.22	56.561
418.58	56.505
418.93	54.488
419.29	58.020
419.64	56.552
420.00	57.524
420.35	56.545
420.71	56.795
421.06	56.581
421.42	56.387
421.77	57.341
422.12	57.307
422.48	56.707
422.83	56.881
423.19	57.792
423.54	57.303
423.90	57.067
424.25	58.232
424.61	56.870
424.96	57.658
425.31	57.039
425.67	58.613
426.02	59.187
426.38	57.214
426.73	58.827
427.09	57.411
427.44	57.311
427.79	58.076
428.15	57.431
428.50	58.731
428.85	58.426
429.21	57.400
429.56	57.598
429.92	58.355
430.27	57.873
430.62	58.499
430.98	57.589
431.33	57.765
431.68	58.839
432.04	58.648
432.39	57.333
432.74	59.350
433.10	59.094
433.45	58.402
433.80	58.851
434.16	58.383
434.51	57.880
434.86	58.245
435.22	59.310
435.57	57.740
435.92	58.263
436.28	58.438
436.63	58.430
436.98	56.933
437.34	58.913
437.69	59.740
438.04	57.838
438.39	59.963
438.75	59.058
439.10	59.977
439.45	59.201
439.81	59.175
440.16	60.116
440.51	58.383
440.86	57.736
441.22	58.635
441.57	58.839
441.92	57.957
442.27	58.496
442.63	59.365
442.98	58.102
443.33	58.804
443.68	58.461
444.03	58.718
444.39	59.246
444.74	59.028
445.09	58.756
445.44	58.592
445.79	59.215
446.15	57.848
446.50	58.150
446.85	59.113
447.20	58.756
447.55	58.870
447.91	58.933
448.26	59.177
448.61	58.228
448.96	59.282
449.31	57.796
449.66	59.861
450.02	59.011
450.37	59.401
450.72	58.439
451.07	57.680
451.42	58.952
451.77	58.734
452.12	58.586
452.47	59.651
452.83	57.960
453.18	58.052
453.53	58.638
453.88	58.614
454.23	58.653
454.58	57.047
454.93	58.114
455.28	59.216
455.63	58.578
455.98	59.099
456.34	57.216
456.69	58.914
457.04	57.152
457.39	58.388
457.74	58.707
458.09	57.761
458.44	59.107
458.79	57.441
459.14	57.416
459.49	58.049
459.84	57.384
460.19	57.863
460.54	58.455
460.89	58.390
461.24	56.905
461.59	57.367
461.94	58.534
462.29	57.843
462.64	57.256
462.99	57.411
463.34	58.011
463.69	56.959
464.04	57.443
464.39	58.999
464.74	57.555
465.09	57.533
465.44	57.239
465.79	57.044
466.14	57.583
466.49	58.240
466.84	56.545
467.19	57.580
467.54	57.680
467.89	56.820
468.24	57.099
468.59	58.509
468.94	56.577
469.29	57.039
469.64	57.462
469.99	59.034
470.34	56.305
470.68	56.729
471.03	57.334
471.38	55.424
471.73	55.350
472.08	56.838
472.43	57.718
472.78	56.525
473.13	55.343
473.48	55.121
473.83	56.183
474.17	57.747
474.52	57.735
474.87	55.247
475.22	56.763
475.57	55.772
475.92	57.361
476.27	56.469
476.61	56.116
476.96	56.653
477.31	55.448
477.66	56.667
478.01	55.275
478.36	55.640
478.70	56.552
479.05	57.103
479.40	54.758
479.75	55.632
480.10	56.400
480.45	54.438
480.79	55.849
481.14	55.319
481.49	56.635
481.84	54.006
482.19	54.701
482.53	56.048
482.88	55.034
483.23	54.957
483.58	54.537
483.92	55.010
484.27	54.941
484.62	54.505
484.97	53.878
485.31	54.727
485.66	53.405
486.01	55.075
486.36	55.808
486.70	56.742
487.05	55.903
487.40	55.702
487.75	55.297
488.09	54.176
488.44	53.698
488.79	53.671
489.13	53.042
489.48	53.826
489.83	52.300
490.17	53.654
490.52	53.950
490.87	52.480
491.22	53.509
491.56	54.576
491.91	53.193
492.26	53.095
492.60	53.487
492.95	54.033
493.30	52.762
493.64	52.278
493.99	52.995
494.34	52.697
494.68	52.363
495.03	52.470
495.37	53.674
495.72	53.133
496.07	53.921
496.41	51.708
496.76	52.834
497.11	52.347
497.45	52.870
497.80	52.196
498.14	52.494
498.49	52.496
498.84	52.429
499.18	51.767
499.53	51.551
499.87	51.480
500.22	52.016
500.56	52.257
500.91	52.264
501.26	51.872
501.60	51.373
501.95	50.982
502.29	51.893
502.64	50.964
502.98	51.638
503.33	52.068
503.67	51.461
504.02	50.490
504.36	50.817
504.71	51.423
505.06	50.535
505.40	50.825
505.75	51.322
506.09	51.252
506.44	50.907
506.78	50.381
507.13	50.884
507.47	50.742
507.82	50.759
508.16	49.710
508.51	49.070
508.85	50.907
509.19	49.312
509.54	50.885
509.88	50.108
510.23	49.526
510.57	50.636
510.92	50.970
511.26	49.890
511.61	49.890
511.95	48.126
512.30	49.806
512.64	50.114
512.98	48.587
513.33	48.845
513.67	49.347
514.02	49.886
514.36	48.427
514.70	49.769
515.05	49.912
515.39	49.646
515.74	49.438
516.08	48.260
516.42	47.926
516.77	48.506
517.11	48.501
517.46	49.400
517.80	48.668
518.14	49.357
518.49	48.101
518.83	47.375
519.17	47.651
519.52	48.130
519.86	49.180
520.20	48.575
520.55	48.321
520.89	48.450
521.23	48.077
521.58	47.219
521.92	46.574
522.26	47.235
522.61	47.188
522.95	46.956
523.29	47.556
523.64	47.743
523.98	47.395
524.32	47.070
524.66	48.052
525.01	48.493
525.35	47.860
525.69	46.786
526.04	47.166
526.38	46.017
526.72	46.483
527.06	45.455
527.41	46.525
527.75	45.861
528.09	47.311
528.43	47.354
528.78	45.736
529.12	46.960
529.46	46.961
529.80	46.602
530.15	44.337
530.49	47.372
530.83	46.039
531.17	46.712
531.51	45.179
531.86	44.851
532.20	45.003
532.54	45.103
532.88	45.473
533.22	46.195
533.57	46.093
533.91	45.355
534.25	45.964
534.59	45.689
534.93	46.110
535.27	46.115
535.62	45.263
535.96	45.153
536.30	44.681
536.64	43.677
536.98	43.167
537.32	44.555
537.66	45.628
538.01	44.383
538.35	44.544
538.69	44.080
539.03	43.893
539.37	43.192
539.71	42.838
540.05	44.265
540.39	42.739
540.73	43.296
541.07	44.762
541.42	42.492
541.76	43.099
542.10	43.196
542.44	44.768
542.78	43.789
543.12	43.329
543.46	44.437
543.80	42.295
544.14	43.565
544.48	42.999
544.82	42.972
545.16	42.191
545.50	43.417
545.84	41.585
546.18	42.917
546.52	42.908
546.86	41.201
547.20	41.601
547.54	42.816
547.88	42.848
548.22	42.215
548.56	42.028
548.90	41.813
549.24	42.431
549.58	42.064
549.92	43.067
550.26	42.878
550.60	41.141
550.94	40.672
551.28	40.197
551.62	41.353
551.96	41.654
552.30	41.048
552.64	41.455
552.98	41.051
553.32	41.889
553.66	42.260
554.00	41.757
554.34	40.879
554.68	40.567
555.02	41.317
555.36	42.284
555.69	40.350
556.03	41.458
556.37	40.256
556.71	40.785
557.05	40.738
557.39	40.618
557.73	40.242
558.07	40.090
558.41	40.348
558.75	40.955
559.08	38.974
559.42	39.811
559.76	40.214
560.10	40.200
560.44	41.194
560.78	40.576
561.12	39.033
561.45	39.864
561.79	41.128
562.13	39.241
562.47	39.286
562.81	39.033
563.15	39.518
563.48	39.573
563.82	39.398
564.16	39.066
564.50	39.959
564.84	39.392
565.17	40.199
565.51	39.639
565.85	40.040
566.19	39.338
566.52	39.253
566.86	39.001
567.20	40.318
567.54	38.572
567.88	38.858
568.21	38.675
568.55	39.071
568.89	39.033
569.23	39.963
569.56	38.757
569.90	39.762
570.24	39.386
570.57	38.826
570.91	39.348
571.25	39.013
571.59	38.755
571.92	39.278
572.26	39.857
572.60	39.298
572.93	39.113
573.27	38.445
573.61	39.159
573.95	39.371
574.28	39.624
574.62	38.781
574.96	39.050
575.29	38.616
575.63	38.778
575.97	39.212
576.30	38.767
576.64	39.010
576.98	39.127
577.31	38.924
577.65	39.055
577.98	38.879
578.32	39.150
578.66	39.060
578.99	38.709
579.33	38.056
579.67	38.442
580.00	38.261
580.34	37.542
580.67	39.074
581.01	38.316
581.35	38.405
581.68	38.860
582.02	39.207
582.35	38.901
582.69	38.937
583.02	38.009
583.36	38.492
583.70	38.440
584.03	37.476
584.37	37.596
584.70	38.003
585.04	38.204
585.37	37.691
585.71	37.289
586.04	38.170
586.38	37.516
586.72	37.623
587.05	37.789
587.39	38.067
587.72	37.261
588.06	37.155
588.39	37.168
588.73	37.425
589.06	36.566
589.40	37.014
589.73	36.076
590.07	35.800
590.40	36.880
590.73	37.075
591.07	36.565
591.40	35.783
591.74	35.616
592.07	36.559
592.41	36.637
592.74	35.802
593.08	35.692
593.41	36.352
593.75	36.531
594.08	36.615
594.41	36.124
594.75	36.207
595.08	36.856
595.42	35.433
595.75	36.009
596.09	35.720
596.42	36.193
596.75	36.068
597.09	36.124
597.42	36.115
597.75	35.333
598.09	35.929
598.42	35.884
598.76	36.272
599.09	36.495
599.42	36.178
599.76	36.350
600.09	35.956
600.42	35.518
600.76	35.625
601.09	34.991
601.42	35.515
601.76	34.826
602.09	34.820
602.42	35.287
602.76	35.193
603.09	35.688
603.42	35.826
603.76	35.191
604.09	35.296
604.42	34.826
604.76	34.919
605.09	34.934
605.42	34.953
605.75	34.775
606.09	34.727
606.42	35.037
606.75	34.892
607.09	34.619
607.42	34.764
607.75	34.179
608.08	34.761
608.42	34.302
608.75	34.591
609.08	34.934
609.41	35.221
609.75	33.434
610.08	34.566
610.41	34.159
610.74	34.264
611.07	33.868
611.41	34.852
611.74	34.369
612.07	33.351
612.40	34.703
612.73	33.699
613.07	33.647
613.40	33.260
613.73	34.615
614.06	32.946
614.39	34.130
614.72	34.592
615.06	32.944
615.39	33.885
615.72	33.531
616.05	33.953
616.38	32.932
616.71	31.974
617.05	33.784
617.38	32.594
617.71	32.475
618.04	32.541
618.37	33.565
618.70	32.794
619.03	32.921
619.36	33.025
619.69	32.749
620.03	32.297
620.36	32.429
620.69	31.906
621.02	31.000
621.35	30.253
621.68	31.296
622.01	31.149
622.34	32.276
622.67	31.167
623.00	32.675
623.33	31.339
623.66	31.822
623.99	32.408
624.32	31.988
624.65	32.789
624.99	32.623
625.32	30.769
625.65	32.403
625.98	31.438
626.31	32.000
626.64	30.868
626.97	32.699
627.30	32.079
627.63	30.623
627.96	30.476
628.29	32.000
628.62	30.851
628.95	30.962
629.28	30.837
629.61	32.823
629.94	31.625
630.26	30.148
630.59	29.570
630.92	31.325
631.25	30.175
631.58	30.728
631.91	29.905
632.24	28.540
632.57	30.222
632.90	29.988
633.23	29.257
633.56	29.856
633.89	29.665
634.22	32.509
634.55	30.085
634.88	28.431
635.20	29.000
635.53	29.587
635.86	29.359
636.19	29.529
636.52	29.024
636.85	29.071
637.18	28.015
637.51	29.463
637.83	28.590
638.16	28.133
638.49	29.773
638.82	27.582
639.15	29.122
639.48	27.273
639.81	29.583
640.13	29.155
640.46	28.531
640.79	30.072
641.12	29.734
641.45	27.074
641.77	28.130
642.10	26.929
642.43	28.931
642.76	26.814
643.09	27.636
643.41	26.794
643.74	28.271
644.07	25.405
644.40	27.529
644.73	27.288
645.05	28.098
645.38	25.914
645.71	26.531
646.04	26.599
646.36	27.778
646.69	26.748
647.02	29.690
647.35	26.874
647.67	25.878
648.00	26.630
648.33	23.729
648.66	29.883
648.98	26.087
649.31	28.374
649.64	28.169
649.96	30.016
650.29	26.471
650.62	26.359
650.94	28.276
651.27	26.678
651.60	28.147
651.92	25.627
652.25	28.978
652.58	27.228
652.90	26.599
653.23	27.165
653.56	26.116
653.88	28.157
654.21	25.256
654.54	29.070
654.86	25.528
655.19	29.132
655.52	32.560
655.84	33.440
656.17	40.399
656.49	53.527
656.82	52.528
657.15	39.124
657.47	29.044
657.80	21.461
658.13	22.681
658.45	32.151
658.78	31.063
659.10	30.686
659.43	29.631
659.75	28.949
660.08	28.414
660.41	25.051
660.73	22.865
661.06	25.680
661.38	25.581
661.71	27.254
662.03	25.581
662.36	23.894
662.68	25.591
663.01	26.059
663.33	24.622
663.66	23.947
663.98	27.416
664.31	25.714
664.63	21.396
664.96	25.821
665.28	25.966
665.61	25.270
665.93	26.767
666.26	28.059
666.58	25.268
666.91	26.682
667.23	23.272
667.56	24.598
667.88	25.935
668.21	24.330
668.53	25.057
668.86	25.420
669.18	25.059
669.50	24.885
669.83	24.344
670.15	28.095
670.48	28.506
670.80	28.009
671.13	25.172
671.45	24.201
671.77	27.371
672.10	23.002
672.42	28.626
672.75	25.893
673.07	24.182
673.39	27.425
673.72	26.747
674.04	27.049
674.37	27.846
674.69	24.486
675.01	25.000
675.34	25.821
675.66	28.540
675.98	23.009
676.31	23.982
676.63	25.170
676.95	24.235
677.28	24.541
677.60	24.510
677.92	25.942
678.25	25.380
678.57	25.866
678.89	24.307
679.22	22.774
679.54	25.918
679.86	24.219
680.18	24.038
680.51	27.692
680.83	23.392
681.15	26.326
681.48	25.651
681.80	28.425
682.12	26.042
682.44	24.950
682.77	21.895
683.09	23.661
683.41	22.558
683.73	22.991
684.06	25.885
684.38	22.863
684.70	24.440
685.02	25.620
685.34	26.027
685.67	26.079
685.99	25.801
686.31	26.552
686.63	25.000
686.96	27.087
687.28	27.146
687.60	28.355
687.92	24.903
688.24	24.400
688.56	25.439
688.89	22.049
689.21	23.094
689.53	24.099
689.85	23.820
690.17	25.934
690.49	27.295
690.82	22.434
691.14	23.430
691.46	25.522
691.78	25.055
692.10	25.478
692.42	21.758
692.74	25.652
693.06	21.124
693.39	24.824
693.71	25.556
694.03	26.591
694.35	22.297
694.67	22.500
694.99	24.742
695.31	22.222
695.63	24.634
695.95	22.901
696.27	18.630
696.59	21.505
696.91	23.464
697.23	24.365
697.56	28.297
697.88	25.156
698.20	26.998
698.52	23.131
698.84	23.684
699.16	25.296
699.48	24.938
699.80	25.581
700.12	26.542
700.44	22.817
700.76	22.753
701.08	21.752
701.40	23.054
701.72	20.923
702.04	20.126
702.36	19.817
702.68	24.390
703.00	22.515
703.32	21.727
703.64	23.795
703.96	26.686
704.28	25.000
704.60	22.866
704.91	20.376
705.23	22.152
705.55	20.690
705.87	22.535
706.19	20.879
706.51	22.887
706.83	19.108
707.15	25.610
707.47	23.967
707.79	23.858
708.11	25.964
708.43	26.904
708.74	26.596
709.06	21.390
709.38	25.360
709.70	22.823
710.02	21.807
710.34	21.667
710.66	17.915
710.98	22.910
711.29	20.130
711.61	21.613
711.93	21.935
712.25	22.378
712.57	18.596
712.89	16.850
713.20	23.759
713.52	18.248
713.84	25.806
714.16	22.977
714.48	21.835
714.80	19.169
715.11	23.547
715.43	19.565
715.75	24.845
716.07	26.807
716.39	25.253
716.70	23.381
717.02	16.863
717.34	17.424
717.66	17.672
717.97	18.254
718.29	21.260
718.61	18.026
718.93	20.930
719.24	25.092
719.56	16.105
719.88	23.507
720.20	19.368
720.51	26.172
720.83	24.514
721.15	16.667
721.46	22.519
721.78	23.108
722.10	16.335
722.42	17.339
722.73	24.710
723.05	21.633
723.37	21.849
723.68	20.400
724.00	20.851
724.32	19.247
724.63	19.342
724.95	13.675
725.27	22.785
725.58	21.811
725.90	20.921
726.22	21.377
726.53	21.176
726.85	22.263
727.16	20.000
727.48	23.755
727.80	19.531
728.11	25.410
728.43	22.266
728.74	18.254
729.06	21.600
729.38	22.530
729.69	22.064
730.01	20.818
730.32	23.616
730.64	23.864
730.96	27.972
731.27	20.736
731.59	21.587
731.90	22.330
732.22	20.833
732.53	22.635
732.85	18.456
733.16	22.442
733.48	26.014
733.80	23.649
734.11	24.662
734.43	24.149
734.74	23.123
735.06	23.055
735.37	24.620
735.69	22.977
736.00	18.482
736.32	19.858
736.63	22.069
736.95	23.288
737.26	18.276
737.58	25.694
737.89	23.711
738.21	18.505
738.52	21.293
738.83	23.265
739.15	22.363
739.46	24.125
739.78	21.831
740.09	20.890
740.41	18.214
740.72	18.440
741.04	22.000
741.35	14.474
741.66	21.778
741.98	23.558
742.29	24.257
742.61	17.561
742.92	28.070
743.23	16.509
743.55	19.820
743.86	18.386
744.18	22.549
744.49	21.320
744.80	18.878
745.12	22.430
745.43	18.483
745.74	19.369
746.06	20.093
746.37	16.514
746.68	18.269
747.00	26.794
747.31	25.000
747.62	16.514
747.94	23.581
748.25	21.560
748.56	27.556
748.88	23.474
749.19	22.381
749.50	16.019
749.82	15.023
750.13	19.583
750.44	20.385
750.75	20.295
751.07	23.843
751.38	23.050
751.69	20.849
752.01	24.219
752.32	20.385
752.63	24.254
752.94	20.800
753.26	21.757
753.57	18.333
753.88	21.053
754.19	18.327
754.51	23.308
754.82	21.245
755.13	19.565
755.44	18.699
755.75	20.800
756.07	20.295
756.38	20.144
756.69	22.526
757.00	24.299
757.31	21.683
757.63	24.383
757.94	24.011
758.25	24.868
758.56	24.457
758.87	25.893
759.18	23.344
759.50	24.579
759.81	25.418
760.12	23.692
760.43	22.917
760.74	25.706
761.05	25.967
761.36	21.203
761.67	22.054
761.99	21.649
762.30	18.248
762.61	20.988
762.92	20.085
763.23	20.082
763.54	20.346
763.85	22.449
764.16	22.764
764.47	17.200
764.78	21.786
765.10	24.262
765.41	27.052
765.72	22.360
766.03	23.762
766.34	22.692
766.65	17.155
766.96	18.310
767.27	21.287
767.58	13.483
767.89	19.136
768.20	16.022
768.51	24.121
768.82	20.673
769.13	23.894
769.44	24.686
769.75	15.812
770.06	18.834
770.37	17.157
770.68	25.243
770.99	18.447
771.30	22.689
771.61	20.408
771.92	25.311
772.23	20.270
772.54	19.337
772.85	14.535
773.16	22.222
773.47	12.426
773.78	25.862
774.09	16.875
774.39	18.634
774.70	21.769
775.01	17.931
775.32	25.714
775.63	11.278
775.94	15.789
776.25	4.800
776.56	14.050
776.87	11.111
777.18	5.405
777.48	12.613
777.79	13.386
778.10	13.761
778.41	6.140
778.72	7.563
779.03	7.042
779.34	21.622
779.65	18.310
779.95	19.205
780.26	14.388
780.57	24.460
780.88	14.789
781.19	10.084
781.50	24.832
781.80	18.713
782.11	16.860
782.42	27.673
782.73	23.529
783.04	14.483
783.34	15.267
783.65	12.081
783.96	19.231
784.27	11.429
784.57	14.184
784.88	5.769
785.19	33.636
785.50	17.273
785.81	8.571
786.11	12.605
786.42	17.699
786.73	0.943
787.04	10.092
787.34	-2.970
787.65	23.333
787.96	14.876
788.26	13.043
788.57	11.905
788.88	9.756
789.19	20.000
789.49	9.924
789.80	26.515
790.11	4.717
790.41	15.842
790.72	20.213
791.03	4.348
791.33	2.353
791.64	17.284
791.95	14.130
792.25	12.500
792.56	19.231
792.87	-1.282
793.17	5.128
793.48	17.857
793.79	7.500
794.09	12.500
794.40	18.750
794.70	18.919
795.01	17.188
795.32	14.783
795.62	1.087
795.93	19.811
796.23	7.071
796.54	7.317
796.85	10.714
797.15	7.576
797.46	14.493
797.76	5.263
798.07	0.000
798.37	8.537
798.68	-22.581
798.99	9.459
799.29	3.614
799.60	6.410
799.90	16.923
800.21	22.727
800.51	8.000
800.82	13.333
801.12	-12.500
801.43	-15.000
801.73	4.054
802.04	11.429
802.34	-3.279
802.65	10.448
802.95	12.727
803.26	6.897
803.56	3.077
803.87	16.981
804.17	9.677
804.48	7.353
804.78	-12.195
805.09	0.000
805.39	2.941
805.70	-4.255
806.00	-5.263
806.30	15.385
806.61	13.158
806.91	13.514
807.22	3.947
807.52	13.636
807.83	-15.254
808.13	-4.545
808.43	0.000
808.74	-22.414
809.04	-1.587
809.35	-8.163
809.65	8.333
809.95	-24.490
810.26	8.451
810.56	18.750
810.86	-24.490
811.17	11.538
811.47	-10.638
811.77	6.250
812.08	-7.547
812.38	-37.500
812.69	9.091
812.99	-4.878
813.29	-27.027
813.59	-21.622
813.90	-18.182
814.20	7.273
814.50	-3.333
814.81	-7.273
815.11	21.053
815.41	2.326
815.72	-2.500
816.02	-11.429
816.32	-24.324
816.62	-4.167
816.93	13.333
817.23	-8.889
817.53	-22.222
817.84	-48.649
818.14	-17.073
818.44	12.000
818.74	-10.204
819.04	4.878
819.35	-30.556
819.65	-4.545
819.95	-116.667
820.25	-15.152
820.56	-21.429
820.86	-19.444
821.16	-27.273
821.46	-17.391
821.76	-17.241
822.07	8.696
822.37	-12.121
822.67	12.195
822.97	-13.514
823.27	-40.000
823.57	-13.793
823.88	-47.059
824.18	-11.111
824.48	2.857
824.78	9.524
825.08	-46.429
825.38	3.704
825.69	-25.806
825.99	-2.439
826.29	11.111
826.59	-18.750
826.89	-32.258
827.19	-34.783
827.49	-33.333
827.79	-78.261
828.09	-12.903
828.39	4.167
828.70	-43.750
829.00	-10.345
829.30	-2.703
829.60	-66.667
829.90	-3.704
830.20	-15.625
830.50	-27.273
830.80	-152.941
831.10	-13.636
831.40	-35.294
831.70	-30.769
832.00	9.091
832.30	2.941
832.60	5.405
832.90	1800.000
833.20	-25.000
833.50	-95.000
833.80	-7.895
834.10	-66.667
834.40	-72.727
834.70	-186.667
835.00	-40.000
835.30	-54.167
835.60	-52.381
835.90	-38.095
836.20	12.000
836.50	-37.500
836.80	-42.105
837.10	-2.703
837.40	-6.667
837.70	-60.870
838.00	0.000
838.30	-10.526
838.60	-170.000
838.90	-180.000
839.19	-116.667
839.49	-38.462
839.79	-10.526
840.09	-250.000
840.39	-90.000
840.69	-45.455
840.99	-66.667
841.29	-4.167
841.59	-169.231
841.88	-106.667
842.18	-92.857
842.48	3.333
842.78	-271.429
843.08	-128.571
843.38	-237.500
843.68	-93.750
843.97	-142.857
844.27	-188.889
844.57	-54.545
844.87	-113.333
845.17	-22.727
845.47	666.667
845.76	-120.000
846.06	-183.333
846.36	-1300.000
846.66	-52.632
846.96	-104.545
847.25	-50.000
847.55	-166.667
847.85	-85.714
848.15	-30.769
848.44	-350.000
848.74	-66.667
849.04	-76.923
849.34	-450.000
849.63	-227.273
849.93	-128.571
850.23	15.000
850.53	-337.500
850.82	-66.667
851.12	-20.000
851.42	-129.412
851.71	-125.000
852.01	5.882
852.31	-46.154
852.61	900.000
852.90	17.647
853.20	-20.000
853.50	-37.500
853.79	-142.857
854.09	-475.000
854.39	-45.000
854.68	-15.000
854.98	-42.857
855.28	-20.000
855.57	20.833
855.87	-33.333
856.17	-44.000
856.46	6.250
856.76	-45.000
857.05	-24.000
857.35	-158.333
857.65	-47.059
857.94	-158.333
858.24	-66.667
858.53	-40.000
858.83	-145.455
859.13	12.000
859.42	-128.571
859.72	-162.500
860.01	-58.333
860.31	-237.500
860.60	-56.250
860.90	-166.667
861.20	-116.667
861.49	-40.000
861.79	-131.250
862.08	425.000
862.38	-100.000
862.67	257.143
862.97	525.000
863.26	-90.909
863.56	-63.636
863.85	-31.579
864.15	-5.882
864.44	-420.000
864.74	-220.000
865.03	-122.222
865.33	-14.286
865.62	157.143
865.92	-36.842
866.21	-66.667
866.51	-100.000
866.80	-288.889
867.10	-150.000
867.39	0.000
867.69	-93.333
867.98	-140.000
868.27	-35.294
868.57	0.000
868.86	1000.000
869.16	-450.000
869.45	-357.143
869.75	150.000
870.04	-50.000
870.33	-2700.000
870.63	-68.421
870.92	-125.000
871.22	-800.000
871.51	-157.143
871.80	-188.889
872.10	-550.000
>>>>>End Processed Spectral Data<<<<<
