SpectraSuite Data File
++++++++++++++++++++++++++++++++++++
Date: Wed May 13 21:25:49 PDT 2015
User: schluterlab
Dark Spectrum Present: Yes
Reference Spectrum Present: Yes
Number of Sampled Component Spectra: 1
Spectrometers: USB2E3373
Integration Time (usec): 3000 (USB2E3373)
Spectra Averaged: 3 (USB2E3373)
Boxcar Smoothing: 0 (USB2E3373)
Correct for Electrical Dark: No (USB2E3373)
Strobe/Lamp Enabled: No (USB2E3373)
Correct for Detector Non-linearity: No (USB2E3373)
Correct for Stray Light: No (USB2E3373)
Number of Pixels in Processed Spectrum: 2048
>>>>>Begin Processed Spectral Data<<<<<
178.53	0.000
178.91	600.000
179.29	158.333
179.67	-550.000
180.04	66.667
180.42	160.000
180.80	1400.000
181.18	316.667
181.56	-100.000
181.94	-50.000
182.31	-27.273
182.69	115.385
183.07	-260.000
183.45	333.333
183.83	166.667
184.20	100.000
184.58	33.333
184.96	266.667
185.34	185.714
185.72	0.000
186.09	-500.000
186.47	-220.000
186.85	160.000
187.23	-400.000
187.61	650.000
187.98	1600.000
188.36	12.500
188.74	0.000
189.12	-72.727
189.49	-20.000
189.87	116.667
190.25	380.000
190.63	1100.000
191.00	-160.000
191.38	360.000
191.76	475.000
192.14	191.667
192.51	-63.158
192.89	466.667
193.27	225.000
193.65	-300.000
194.02	163.636
194.40	130.000
194.78	-600.000
195.15	280.000
195.53	-220.000
195.91	-37.500
196.29	-333.333
196.66	0.000
197.04	800.000
197.42	-40.000
197.79	-90.000
198.17	-62.500
198.55	-166.667
198.92	150.000
199.30	-466.667
199.68	-40.000
200.05	400.000
200.43	166.667
200.81	-800.000
201.18	-220.000
201.56	-50.000
201.94	375.000
202.31	-17.391
202.69	-100.000
203.07	-466.667
203.44	-260.000
203.82	-266.667
204.19	-80.000
204.57	0.000
204.95	-83.333
205.32	0.000
205.70	-550.000
206.08	-300.000
206.45	-116.667
206.83	525.000
207.20	-566.667
207.58	20.000
207.96	-1600.000
208.33	-142.857
208.71	-1600.000
209.08	212.500
209.46	100.000
209.84	0.000
210.21	130.000
210.59	2500.000
210.96	160.000
211.34	1100.000
211.71	-650.000
212.09	-166.667
212.46	-120.000
212.84	-400.000
213.22	-100.000
213.59	-1500.000
213.97	-200.000
214.34	-700.000
214.72	-46.154
215.09	200.000
215.47	144.444
215.84	200.000
216.22	-187.500
216.59	-750.000
216.97	400.000
217.34	144.444
217.72	0.000
218.09	33.333
218.47	-100.000
218.84	-200.000
219.22	-125.000
219.59	-433.333
219.97	-225.000
220.34	-162.500
220.72	-140.000
221.09	0.000
221.47	-150.000
221.84	-300.000
222.22	0.000
222.59	1200.000
222.97	-266.667
223.34	-75.000
223.72	-1800.000
224.09	-400.000
224.46	0.000
224.84	-25.000
225.21	0.000
225.59	-350.000
225.96	-183.333
226.34	-60.000
226.71	-142.857
227.08	750.000
227.46	-37.500
227.83	100.000
228.21	-50.000
228.58	-400.000
228.95	-58.824
229.33	31.250
229.70	-137.500
230.08	-46.154
230.45	-125.000
230.82	-83.333
231.20	214.286
231.57	-300.000
231.95	1200.000
232.32	33.333
232.69	-11.765
233.07	-700.000
233.44	4.348
233.81	-100.000
234.19	45.833
234.56	-33.333
234.93	6.667
235.31	0.000
235.68	-69.231
236.05	-61.538
236.43	44.444
236.80	9.091
237.17	-73.333
237.55	11.765
237.92	-20.690
238.29	-14.815
238.67	55.556
239.04	32.258
239.41	4.255
239.79	23.404
240.16	37.209
240.53	39.286
240.91	25.000
241.28	33.929
241.65	22.581
242.02	18.421
242.40	39.130
242.77	31.884
243.14	21.795
243.51	27.660
243.89	31.731
244.26	40.566
244.63	25.000
245.00	37.500
245.38	27.731
245.75	37.705
246.12	28.571
246.49	24.390
246.87	34.454
247.24	38.514
247.61	34.437
247.98	34.615
248.36	31.953
248.73	28.090
249.10	29.798
249.47	32.258
249.84	34.211
250.22	37.811
250.59	33.178
250.96	37.727
251.33	30.144
251.70	38.075
252.08	37.238
252.45	37.860
252.82	41.825
253.19	40.078
253.56	38.489
253.94	39.502
254.31	40.141
254.68	39.262
255.05	36.634
255.42	34.615
255.79	38.650
256.16	39.432
256.54	39.048
256.91	32.595
257.28	35.220
257.65	36.306
258.02	37.243
258.39	39.766
258.76	35.465
259.14	36.080
259.51	36.517
259.88	37.127
260.25	39.444
260.62	37.079
260.99	39.788
261.36	41.451
261.73	36.790
262.10	37.150
262.47	37.037
262.85	36.318
263.22	37.692
263.59	38.182
263.96	34.063
264.33	37.500
264.70	37.209
265.07	35.880
265.44	40.460
265.81	39.817
266.18	39.408
266.55	38.865
266.92	36.229
267.29	35.802
267.66	40.977
268.03	38.066
268.40	38.136
268.77	37.603
269.14	39.592
269.51	39.014
269.88	34.827
270.25	41.737
270.62	36.270
270.99	38.386
271.36	38.690
271.73	38.956
272.10	38.286
272.47	37.044
272.84	37.598
273.21	39.139
273.58	38.320
273.95	36.226
274.32	37.687
274.69	38.069
275.06	38.516
275.43	35.782
275.80	39.894
276.17	37.569
276.54	36.057
276.91	35.366
277.28	35.740
277.65	37.063
278.02	36.964
278.39	35.346
278.76	38.629
279.13	36.535
279.50	37.069
279.87	38.043
280.23	36.937
280.60	36.332
280.97	37.013
281.34	37.697
281.71	35.935
282.08	36.923
282.45	34.098
282.82	34.185
283.19	36.585
283.56	35.000
283.92	36.544
284.29	35.569
284.66	34.761
285.03	35.505
285.40	33.988
285.77	36.186
286.14	35.106
286.51	36.732
286.87	33.538
287.24	34.218
287.61	34.187
287.98	34.853
288.35	34.426
288.72	36.011
289.08	33.618
289.45	33.480
289.82	34.796
290.19	32.679
290.56	33.523
290.93	33.011
291.29	34.337
291.66	33.470
292.03	31.744
292.40	33.917
292.77	31.325
293.13	32.636
293.50	30.458
293.87	32.933
294.24	30.159
294.60	31.079
294.97	32.143
295.34	28.892
295.71	30.355
296.08	28.010
296.44	29.082
296.81	28.136
297.18	30.500
297.55	28.302
297.91	30.062
298.28	30.508
298.65	28.941
299.02	30.769
299.38	30.307
299.75	28.365
300.12	28.488
300.48	29.123
300.85	29.099
301.22	28.339
301.59	28.286
301.95	26.597
302.32	27.305
302.69	27.006
303.05	27.132
303.42	28.636
303.79	26.709
304.15	26.396
304.52	26.559
304.89	27.796
305.25	27.772
305.62	26.356
305.99	27.856
306.35	29.258
306.72	28.891
307.09	27.320
307.45	26.731
307.82	25.368
308.19	24.765
308.55	26.919
308.92	26.523
309.29	26.827
309.65	26.973
310.02	26.143
310.38	26.626
310.75	25.542
311.12	26.045
311.48	26.212
311.85	25.886
312.22	26.402
312.58	26.957
312.95	26.169
313.31	27.089
313.68	25.573
314.05	26.843
314.41	26.705
314.78	27.230
315.14	25.370
315.51	25.880
315.87	25.950
316.24	25.253
316.61	25.479
316.97	26.204
317.34	24.599
317.70	26.048
318.07	26.708
318.43	25.565
318.80	24.695
319.16	24.845
319.53	26.165
319.89	26.197
320.26	24.954
320.62	25.209
320.99	26.066
321.35	25.912
321.72	24.735
322.08	25.000
322.45	25.347
322.81	24.307
323.18	24.508
323.54	25.361
323.91	26.468
324.27	24.752
324.64	25.087
325.00	24.584
325.37	26.962
325.73	24.327
326.10	24.474
326.46	25.585
326.83	25.566
327.19	25.935
327.56	26.350
327.92	25.422
328.29	25.376
328.65	26.205
329.01	24.011
329.38	26.522
329.74	24.721
330.11	24.707
330.47	23.785
330.84	24.368
331.20	24.424
331.56	25.000
331.93	24.892
332.29	26.325
332.66	23.898
333.02	25.109
333.38	24.912
333.75	24.317
334.11	25.260
334.48	24.935
334.84	24.912
335.20	23.585
335.57	23.325
335.93	24.313
336.29	23.993
336.66	24.701
337.02	25.391
337.38	24.021
337.75	24.806
338.11	23.057
338.47	24.401
338.84	24.485
339.20	24.339
339.56	23.123
339.93	24.633
340.29	23.143
340.65	23.439
341.02	23.877
341.38	24.240
341.74	23.697
342.11	23.617
342.47	23.013
342.83	23.284
343.20	24.027
343.56	22.895
343.92	23.964
344.28	24.594
344.65	24.000
345.01	23.164
345.37	23.355
345.73	23.693
346.10	24.077
346.46	23.577
346.82	23.596
347.19	24.288
347.55	25.283
347.91	23.461
348.27	22.950
348.63	23.237
349.00	23.349
349.36	23.783
349.72	23.589
350.08	23.791
350.45	23.649
350.81	23.944
351.17	23.172
351.53	23.723
351.89	22.240
352.26	21.699
352.62	22.868
352.98	23.562
353.34	23.269
353.70	22.741
354.07	22.431
354.43	22.551
354.79	23.798
355.15	22.360
355.51	22.172
355.87	22.987
356.24	22.953
356.60	23.299
356.96	22.870
357.32	23.452
357.68	23.529
358.04	22.576
358.40	23.101
358.77	23.165
359.13	23.268
359.49	23.013
359.85	22.138
360.21	22.976
360.57	22.586
360.93	23.445
361.29	23.094
361.66	22.855
362.02	22.016
362.38	21.492
362.74	22.553
363.10	22.487
363.46	22.478
363.82	22.838
364.18	23.060
364.54	22.611
364.90	21.812
365.26	22.081
365.62	22.443
365.98	21.779
366.35	22.908
366.71	22.111
367.07	22.679
367.43	22.927
367.79	22.585
368.15	21.519
368.51	22.433
368.87	22.749
369.23	22.633
369.59	22.481
369.95	22.061
370.31	21.688
370.67	22.520
371.03	23.460
371.39	22.072
371.75	22.286
372.11	23.219
372.47	22.783
372.83	22.330
373.19	21.223
373.55	22.110
373.91	22.065
374.27	21.300
374.63	22.262
374.99	21.657
375.35	22.192
375.71	21.943
376.07	21.727
376.42	22.126
376.78	21.466
377.14	21.831
377.50	21.773
377.86	21.580
378.22	21.745
378.58	21.690
378.94	22.813
379.30	22.236
379.66	22.565
380.02	21.078
380.38	21.687
380.74	22.654
381.09	21.110
381.45	22.068
381.81	22.428
382.17	21.172
382.53	21.354
382.89	21.653
383.25	21.605
383.61	22.700
383.97	21.750
384.32	22.180
384.68	21.962
385.04	21.991
385.40	22.665
385.76	22.324
386.12	21.498
386.48	21.505
386.83	22.028
387.19	21.221
387.55	21.643
387.91	22.202
388.27	21.763
388.62	22.846
388.98	22.090
389.34	22.431
389.70	21.184
390.06	21.938
390.42	21.972
390.77	21.909
391.13	21.717
391.49	20.999
391.85	20.767
392.20	20.927
392.56	21.841
392.92	21.767
393.28	21.557
393.64	20.979
393.99	20.869
394.35	21.975
394.71	22.308
395.07	20.692
395.42	21.755
395.78	21.429
396.14	21.623
396.50	21.370
396.85	22.498
397.21	22.160
397.57	21.056
397.92	21.018
398.28	20.756
398.64	21.433
399.00	21.596
399.35	22.247
399.71	20.850
400.07	21.566
400.42	20.502
400.78	21.208
401.14	21.214
401.49	21.390
401.85	21.744
402.21	21.486
402.57	21.643
402.92	22.090
403.28	21.576
403.63	22.257
403.99	22.457
404.35	20.948
404.70	20.302
405.06	21.198
405.42	21.420
405.77	20.507
406.13	21.257
406.49	21.150
406.84	21.368
407.20	21.314
407.55	21.688
407.91	20.582
408.27	21.335
408.62	21.117
408.98	21.393
409.34	21.163
409.69	21.248
410.05	20.771
410.40	20.633
410.76	20.939
411.11	21.704
411.47	21.500
411.83	21.085
412.18	21.348
412.54	21.930
412.89	20.878
413.25	21.121
413.60	21.066
413.96	21.286
414.31	21.270
414.67	20.889
415.03	20.839
415.38	21.268
415.74	20.988
416.09	22.009
416.45	21.463
416.80	21.208
417.16	22.470
417.51	21.031
417.87	21.164
418.22	20.233
418.58	20.368
418.93	20.716
419.29	21.188
419.64	20.293
420.00	21.778
420.35	20.562
420.71	20.963
421.06	21.218
421.42	21.107
421.77	21.850
422.12	21.490
422.48	21.210
422.83	20.791
423.19	20.759
423.54	21.378
423.90	22.031
424.25	20.971
424.61	20.518
424.96	20.816
425.31	20.752
425.67	21.399
426.02	21.260
426.38	21.704
426.73	20.892
427.09	21.451
427.44	20.904
427.79	20.665
428.15	21.346
428.50	20.121
428.85	21.402
429.21	20.822
429.56	21.307
429.92	20.718
430.27	21.217
430.62	21.301
430.98	20.730
431.33	20.634
431.68	20.873
432.04	21.014
432.39	21.074
432.74	21.091
433.10	22.313
433.45	20.178
433.80	21.092
434.16	19.934
434.51	20.870
434.86	21.319
435.22	21.392
435.57	20.393
435.92	20.326
436.28	20.240
436.63	20.612
436.98	21.093
437.34	20.940
437.69	20.248
438.04	21.109
438.39	20.672
438.75	20.739
439.10	21.168
439.45	20.642
439.81	21.613
440.16	21.565
440.51	21.344
440.86	21.755
441.22	21.113
441.57	21.638
441.92	21.928
442.27	21.320
442.63	20.614
442.98	20.718
443.33	21.219
443.68	20.506
444.03	20.914
444.39	21.170
444.74	21.480
445.09	20.815
445.44	21.408
445.79	20.237
446.15	21.131
446.50	20.705
446.85	21.432
447.20	21.746
447.55	20.761
447.91	21.292
448.26	20.583
448.61	20.944
448.96	21.071
449.31	21.416
449.66	21.805
450.02	21.205
450.37	21.387
450.72	20.838
451.07	21.129
451.42	20.586
451.77	20.450
452.12	20.856
452.47	21.498
452.83	20.519
453.18	20.815
453.53	21.185
453.88	21.084
454.23	21.384
454.58	20.833
454.93	21.167
455.28	21.066
455.63	20.337
455.98	21.059
456.34	20.280
456.69	20.447
457.04	21.176
457.39	21.227
457.74	21.245
458.09	21.505
458.44	20.682
458.79	21.087
459.14	20.674
459.49	20.610
459.84	21.364
460.19	20.888
460.54	21.046
460.89	21.340
461.24	20.592
461.59	20.652
461.94	20.733
462.29	20.343
462.64	20.910
462.99	20.389
463.34	21.616
463.69	21.585
464.04	20.648
464.39	20.744
464.74	21.069
465.09	20.211
465.44	21.044
465.79	21.737
466.14	20.924
466.49	20.821
466.84	20.681
467.19	20.510
467.54	21.646
467.89	21.370
468.24	20.467
468.59	21.224
468.94	20.562
469.29	20.952
469.64	20.921
469.99	21.034
470.34	19.757
470.68	20.446
471.03	21.298
471.38	20.793
471.73	20.165
472.08	21.443
472.43	20.646
472.78	21.636
473.13	19.855
473.48	20.874
473.83	20.527
474.17	20.638
474.52	21.230
474.87	19.662
475.22	21.860
475.57	20.078
475.92	20.938
476.27	21.270
476.61	20.725
476.96	21.588
477.31	20.550
477.66	20.678
478.01	20.220
478.36	20.490
478.70	21.966
479.05	20.921
479.40	21.217
479.75	21.148
480.10	21.010
480.45	20.844
480.79	20.209
481.14	21.530
481.49	20.474
481.84	20.877
482.19	20.982
482.53	21.095
482.88	20.422
483.23	19.923
483.58	20.888
483.92	20.379
484.27	20.357
484.62	20.373
484.97	20.697
485.31	20.978
485.66	20.658
486.01	21.053
486.36	21.356
486.70	21.583
487.05	22.324
487.40	21.676
487.75	21.906
488.09	21.896
488.44	21.171
488.79	21.310
489.13	20.875
489.48	20.180
489.83	20.902
490.17	21.017
490.52	21.786
490.87	20.862
491.22	20.066
491.56	20.556
491.91	20.451
492.26	21.180
492.60	20.154
492.95	20.457
493.30	20.446
493.64	19.568
493.99	20.580
494.34	20.376
494.68	20.907
495.03	20.208
495.37	21.168
495.72	20.802
496.07	20.994
496.41	20.028
496.76	20.750
497.11	20.423
497.45	20.768
497.80	20.999
498.14	20.907
498.49	19.869
498.84	20.648
499.18	19.711
499.53	20.039
499.87	19.893
500.22	19.910
500.56	21.314
500.91	20.624
501.26	20.887
501.60	20.000
501.95	20.268
502.29	20.291
502.64	20.444
502.98	20.617
503.33	19.708
503.67	20.837
504.02	20.147
504.36	20.406
504.71	20.325
505.06	20.988
505.40	19.845
505.75	20.549
506.09	19.469
506.44	20.615
506.78	20.518
507.13	19.387
507.47	20.148
507.82	20.513
508.16	21.214
508.51	21.023
508.85	19.855
509.19	20.476
509.54	21.019
509.88	19.839
510.23	19.789
510.57	20.604
510.92	20.905
511.26	20.902
511.61	19.539
511.95	19.846
512.30	19.489
512.64	20.829
512.98	20.609
513.33	20.620
513.67	19.705
514.02	20.867
514.36	20.618
514.70	20.958
515.05	20.246
515.39	19.870
515.74	20.130
516.08	19.587
516.42	20.046
516.77	20.152
517.11	20.517
517.46	20.648
517.80	20.884
518.14	19.596
518.49	19.892
518.83	19.928
519.17	20.060
519.52	21.049
519.86	19.490
520.20	20.133
520.55	20.833
520.89	20.240
521.23	20.064
521.58	19.912
521.92	20.050
522.26	19.258
522.61	20.039
522.95	20.920
523.29	19.302
523.64	19.580
523.98	20.394
524.32	20.479
524.66	20.130
525.01	19.790
525.35	20.276
525.69	19.881
526.04	19.870
526.38	20.204
526.72	20.907
527.06	20.438
527.41	19.590
527.75	19.960
528.09	20.967
528.43	21.438
528.78	20.413
529.12	20.375
529.46	20.345
529.80	20.065
530.15	18.790
530.49	21.092
530.83	20.582
531.17	19.863
531.51	20.904
531.86	20.190
532.20	20.193
532.54	18.897
532.88	20.422
533.22	20.067
533.57	20.728
533.91	20.323
534.25	21.029
534.59	20.335
534.93	20.089
535.27	20.510
535.62	20.263
535.96	21.015
536.30	20.811
536.64	20.643
536.98	20.112
537.32	21.566
537.66	20.663
538.01	20.458
538.35	20.028
538.69	19.465
539.03	20.403
539.37	20.322
539.71	21.282
540.05	19.366
540.39	20.440
540.73	21.020
541.07	21.088
541.42	21.414
541.76	20.027
542.10	19.905
542.44	19.958
542.78	20.125
543.12	20.485
543.46	19.834
543.80	20.842
544.14	20.372
544.48	19.044
544.82	20.309
545.16	19.608
545.50	19.784
545.84	19.635
546.18	19.846
546.52	21.313
546.86	20.212
547.20	19.943
547.54	19.728
547.88	20.378
548.22	20.651
548.56	20.547
548.90	19.621
549.24	20.903
549.58	19.502
549.92	21.056
550.26	21.107
550.60	20.571
550.94	20.149
551.28	19.682
551.62	19.023
551.96	19.766
552.30	18.705
552.64	19.633
552.98	20.597
553.32	20.043
553.66	20.543
554.00	19.798
554.34	19.780
554.68	19.687
555.02	19.910
555.36	20.348
555.69	20.248
556.03	20.229
556.37	19.630
556.71	20.533
557.05	20.738
557.39	19.141
557.73	19.743
558.07	20.648
558.41	19.379
558.75	19.400
559.08	19.407
559.42	20.063
559.76	19.266
560.10	20.138
560.44	20.929
560.78	18.777
561.12	19.692
561.45	20.408
561.79	20.083
562.13	20.816
562.47	20.500
562.81	19.986
563.15	19.759
563.48	20.372
563.82	20.999
564.16	21.395
564.50	20.217
564.84	19.324
565.17	20.795
565.51	20.120
565.85	19.654
566.19	20.861
566.52	19.725
566.86	19.469
567.20	20.159
567.54	20.380
567.88	19.877
568.21	21.456
568.55	20.501
568.89	20.439
569.23	20.532
569.56	21.736
569.90	21.051
570.24	20.722
570.57	21.358
570.91	21.338
571.25	20.764
571.59	21.076
571.92	20.915
572.26	21.740
572.60	21.250
572.93	21.618
573.27	21.379
573.61	22.027
573.95	21.391
574.28	21.784
574.62	21.451
574.96	22.146
575.29	22.166
575.63	21.865
575.97	22.174
576.30	21.641
576.64	21.614
576.98	21.443
577.31	22.128
577.65	21.493
577.98	22.057
578.32	22.068
578.66	22.354
578.99	22.418
579.33	21.914
579.67	21.996
580.00	22.211
580.34	21.813
580.67	22.440
581.01	22.085
581.35	22.104
581.68	21.976
582.02	22.162
582.35	22.308
582.69	22.203
583.02	22.105
583.36	22.049
583.70	22.145
584.03	22.594
584.37	21.639
584.70	21.864
585.04	22.074
585.37	21.944
585.71	21.925
586.04	21.930
586.38	22.178
586.72	21.860
587.05	22.335
587.39	22.210
587.72	21.995
588.06	22.134
588.39	22.166
588.73	21.841
589.06	21.468
589.40	21.603
589.73	21.559
590.07	21.327
590.40	21.242
590.73	21.718
591.07	21.187
591.40	21.870
591.74	21.254
592.07	21.497
592.41	21.536
592.74	22.377
593.08	21.060
593.41	21.805
593.75	21.867
594.08	21.451
594.41	21.609
594.75	21.964
595.08	21.397
595.42	21.546
595.75	21.909
596.09	21.786
596.42	20.752
596.75	21.325
597.09	21.383
597.42	21.803
597.75	21.689
598.09	21.721
598.42	21.298
598.76	20.739
599.09	21.609
599.42	20.997
599.76	21.742
600.09	21.160
600.42	21.469
600.76	21.397
601.09	21.394
601.42	21.325
601.76	21.390
602.09	21.727
602.42	21.544
602.76	21.770
603.09	21.355
603.42	21.871
603.76	21.395
604.09	20.791
604.42	21.097
604.76	21.388
605.09	21.115
605.42	21.997
605.75	20.642
606.09	21.606
606.42	21.987
606.75	21.342
607.09	20.966
607.42	21.497
607.75	19.825
608.08	22.272
608.42	21.509
608.75	21.309
609.08	21.313
609.41	21.361
609.75	20.877
610.08	21.252
610.41	21.672
610.74	20.934
611.07	20.842
611.41	21.034
611.74	20.704
612.07	21.730
612.40	21.459
612.73	20.692
613.07	20.621
613.40	21.421
613.73	20.910
614.06	20.951
614.39	21.345
614.72	20.378
615.06	21.278
615.39	20.751
615.72	20.248
616.05	21.340
616.38	21.306
616.71	20.756
617.05	20.885
617.38	20.579
617.71	19.669
618.04	19.988
618.37	20.757
618.70	21.281
619.03	19.588
619.36	19.288
619.69	20.029
620.03	20.212
620.36	18.441
620.69	20.343
621.02	19.538
621.35	18.724
621.68	18.908
622.01	20.388
622.34	19.667
622.67	19.734
623.00	19.605
623.33	19.895
623.66	19.554
623.99	21.305
624.32	19.663
624.65	19.585
624.99	19.691
625.32	20.015
625.65	19.147
625.98	19.510
626.31	20.163
626.64	18.745
626.97	20.156
627.30	20.103
627.63	18.599
627.96	18.874
628.29	20.186
628.62	21.083
628.95	19.439
629.28	17.734
629.61	19.330
629.94	19.342
630.26	19.015
630.59	17.882
630.92	18.072
631.25	17.817
631.58	18.951
631.91	17.391
632.24	18.222
632.57	17.333
632.90	19.370
633.23	17.506
633.56	17.626
633.89	18.301
634.22	20.024
634.55	19.367
634.88	17.892
635.20	18.625
635.53	16.667
635.86	17.436
636.19	17.990
636.52	18.293
636.85	18.335
637.18	15.956
637.51	17.603
637.83	18.277
638.16	16.933
638.49	16.822
638.82	17.124
639.15	18.617
639.48	17.914
639.81	16.806
640.13	18.451
640.46	18.644
640.79	16.547
641.12	16.272
641.45	15.866
641.77	17.231
642.10	18.457
642.43	16.509
642.76	17.823
643.09	17.572
643.41	17.703
643.74	15.509
644.07	15.696
644.40	17.081
644.73	15.763
645.05	15.532
645.38	17.110
645.71	17.857
646.04	14.478
646.36	18.750
646.69	15.385
647.02	13.661
647.35	16.453
647.67	16.266
648.00	15.217
648.33	15.085
648.66	17.195
648.98	17.857
649.31	17.638
649.64	19.405
649.96	19.431
650.29	14.869
650.62	15.486
650.94	15.172
651.27	15.724
651.60	17.483
651.92	16.129
652.25	17.085
652.58	17.987
652.90	15.152
653.23	16.299
653.56	14.711
653.88	16.553
654.21	16.212
654.54	17.110
654.86	15.447
655.19	15.826
655.52	21.857
655.84	21.635
656.17	26.604
656.49	35.506
656.82	35.617
657.15	27.129
657.47	19.839
657.80	14.954
658.13	15.951
658.45	23.307
658.78	22.761
659.10	22.830
659.43	22.214
659.75	22.445
660.08	20.138
660.41	19.574
660.73	18.182
661.06	17.007
661.38	15.698
661.71	15.779
662.03	18.816
662.36	13.053
662.68	15.054
663.01	14.831
663.33	16.631
663.66	14.634
663.98	16.854
664.31	16.484
664.63	11.712
664.96	14.661
665.28	19.099
665.61	16.199
665.93	16.274
666.26	19.620
666.58	14.347
666.91	18.161
667.23	13.825
667.56	14.483
667.88	15.888
668.21	16.518
668.53	17.471
668.86	17.506
669.18	14.894
669.50	17.281
669.83	15.513
670.15	13.333
670.48	13.333
670.80	18.381
671.13	13.959
671.45	16.210
671.77	15.302
672.10	14.425
672.42	18.511
672.75	16.786
673.07	15.273
673.39	19.030
673.72	17.764
674.04	17.418
674.37	16.870
674.69	17.695
675.01	14.744
675.34	12.254
675.66	16.776
675.98	15.044
676.31	14.027
676.63	20.181
676.95	13.412
677.28	13.532
677.60	14.216
677.92	16.186
678.25	15.184
678.57	19.756
678.89	15.778
679.22	16.770
679.54	15.918
679.86	18.164
680.18	17.885
680.51	16.346
680.83	15.789
681.15	17.092
681.48	16.633
681.80	14.110
682.12	14.792
682.44	16.097
682.77	13.053
683.09	14.955
683.41	12.791
683.73	16.741
684.06	15.708
684.38	15.598
684.70	15.886
685.02	16.736
685.34	17.417
685.67	18.574
685.99	18.149
686.31	18.276
686.63	16.912
686.96	17.069
687.28	15.968
687.60	20.983
687.92	16.926
688.24	14.400
688.56	21.491
688.89	14.254
689.21	16.816
689.53	15.766
689.85	18.202
690.17	14.505
690.49	17.633
690.82	12.888
691.14	15.217
691.46	12.529
691.78	17.582
692.10	17.622
692.42	15.824
692.74	15.652
693.06	14.831
693.39	15.691
693.71	18.000
694.03	16.818
694.35	18.018
694.67	19.000
694.99	17.268
695.31	15.762
695.63	19.512
695.95	17.048
696.27	13.973
696.59	13.978
696.91	13.966
697.23	14.213
697.56	17.506
697.88	18.087
698.20	16.199
698.52	15.187
698.84	15.550
699.16	17.494
699.48	14.074
699.80	16.796
700.12	13.673
700.44	13.521
700.76	12.921
701.08	12.085
701.40	14.970
701.72	13.846
702.04	12.893
702.36	15.244
702.68	13.110
703.00	17.544
703.32	13.370
703.64	12.952
703.96	14.370
704.28	13.855
704.60	15.549
704.91	11.285
705.23	15.823
705.55	13.793
705.87	13.028
706.19	10.256
706.51	10.563
706.83	9.873
707.15	14.329
707.47	19.008
707.79	16.497
708.11	14.396
708.43	17.005
708.74	19.681
709.06	16.578
709.38	18.732
709.70	15.015
710.02	15.576
710.34	10.333
710.66	13.681
710.98	15.170
711.29	14.286
711.61	14.516
711.93	13.548
712.25	11.888
712.57	11.228
712.89	13.553
713.20	14.894
713.52	14.964
713.84	13.871
714.16	13.592
714.48	12.658
714.80	13.419
715.11	18.023
715.43	11.491
715.75	13.665
716.07	14.458
716.39	18.519
716.70	17.266
717.02	10.196
717.34	15.909
717.66	9.483
717.97	13.095
718.29	12.598
718.61	11.159
718.93	10.078
719.24	13.653
719.56	11.610
719.88	13.433
720.20	11.858
720.51	11.719
720.83	21.012
721.15	8.943
721.46	13.740
721.78	13.546
722.10	12.749
722.42	12.097
722.73	15.058
723.05	12.653
723.37	16.807
723.68	12.400
724.00	12.766
724.32	15.063
724.63	15.226
724.95	12.821
725.27	15.190
725.58	16.049
725.90	13.389
726.22	14.855
726.53	7.059
726.85	17.518
727.16	13.333
727.48	12.261
727.80	18.359
728.11	12.295
728.43	18.750
728.74	14.286
729.06	8.000
729.38	13.439
729.69	15.302
730.01	11.152
730.32	14.760
730.64	11.742
730.96	17.832
731.27	15.050
731.59	16.825
731.90	11.327
732.22	11.859
732.53	13.176
732.85	13.758
733.16	14.851
733.48	15.878
733.80	15.878
734.11	15.203
734.43	16.099
734.74	17.117
735.06	14.121
735.37	16.717
735.69	14.887
736.00	15.842
736.32	10.638
736.63	16.552
736.95	14.726
737.26	14.828
737.58	13.889
737.89	17.182
738.21	11.744
738.52	14.068
738.83	18.367
739.15	14.346
739.46	14.786
739.78	16.901
740.09	14.726
740.41	11.071
740.72	15.957
741.04	11.200
741.35	13.158
741.66	20.000
741.98	10.577
742.29	14.851
742.61	7.805
742.92	16.228
743.23	8.962
743.55	10.811
743.86	8.072
744.18	14.216
744.49	7.614
744.80	12.755
745.12	9.346
745.43	18.009
745.74	14.865
746.06	14.019
746.37	13.303
746.68	18.750
747.00	13.876
747.31	16.346
747.62	13.303
747.94	12.227
748.25	14.220
748.56	14.667
748.88	13.615
749.19	18.571
749.50	11.650
749.82	12.207
750.13	10.833
750.44	17.308
750.75	12.546
751.07	19.217
751.38	14.894
751.69	14.286
752.01	9.375
752.32	11.538
752.63	17.910
752.94	18.400
753.26	14.226
753.57	13.750
753.88	17.814
754.19	10.757
754.51	14.286
754.82	11.722
755.13	10.000
755.44	14.228
755.75	12.800
756.07	8.487
756.38	13.669
756.69	19.113
757.00	21.495
757.31	14.887
757.63	16.667
757.94	18.362
758.25	16.931
758.56	16.848
758.87	18.750
759.18	13.249
759.50	15.488
759.81	24.080
760.12	13.846
760.43	14.583
760.74	18.079
761.05	14.365
761.36	14.900
761.67	16.918
761.99	11.340
762.30	14.234
762.61	13.580
762.92	14.530
763.23	18.852
763.54	15.584
763.85	13.469
764.16	18.293
764.47	16.800
764.78	15.000
765.10	17.049
765.41	17.325
765.72	19.255
766.03	18.482
766.34	16.923
766.65	11.297
766.96	10.798
767.27	15.347
767.58	5.618
767.89	9.259
768.20	12.707
768.51	17.085
768.82	15.865
769.13	17.257
769.44	13.389
769.75	9.402
770.06	20.179
770.37	14.706
770.68	14.563
770.99	12.136
771.30	20.588
771.61	15.102
771.92	12.448
772.23	11.712
772.54	10.497
772.85	8.721
773.16	13.757
773.47	7.692
773.78	10.920
774.09	12.500
774.39	16.149
774.70	14.966
775.01	11.724
775.32	16.429
775.63	15.038
775.94	4.511
776.25	2.400
776.56	10.744
776.87	11.905
777.18	4.505
777.48	10.811
777.79	11.811
778.10	9.174
778.41	3.509
778.72	4.202
779.03	7.042
779.34	10.811
779.65	11.972
779.95	17.219
780.26	15.827
780.57	12.230
780.88	7.746
781.19	3.361
781.50	15.436
781.80	12.865
782.11	6.395
782.42	15.723
782.73	13.725
783.04	10.345
783.34	5.344
783.65	8.054
783.96	11.538
784.27	13.571
784.57	17.730
784.88	0.000
785.19	10.000
785.50	13.636
785.81	13.333
786.11	5.042
786.42	18.584
786.73	4.717
787.04	1.835
787.34	3.960
787.65	15.833
787.96	7.438
788.26	7.971
788.57	10.317
788.88	5.691
789.19	7.200
789.49	0.763
789.80	14.394
790.11	9.434
790.41	10.891
790.72	12.766
791.03	5.435
791.33	-2.353
791.64	12.346
791.95	2.174
792.25	21.591
792.56	10.256
792.87	-7.692
793.17	-12.821
793.48	3.571
793.79	5.000
794.09	23.077
794.40	15.625
794.70	10.811
795.01	11.719
795.32	12.174
795.62	-14.130
795.93	10.377
796.23	14.141
796.54	-4.878
796.85	0.000
797.15	-12.121
797.46	-4.348
797.76	11.842
798.07	11.364
798.37	1.220
798.68	6.452
798.99	2.703
799.29	3.614
799.60	1.282
799.90	1.538
800.21	-6.061
800.51	14.667
800.82	5.333
801.12	-29.167
801.43	-10.000
801.73	0.000
802.04	11.429
802.34	0.000
802.65	16.418
802.95	14.545
803.26	1.724
803.56	4.615
803.87	-5.660
804.17	1.613
804.48	2.941
804.78	-19.512
805.09	7.246
805.39	-4.412
805.70	-38.298
806.00	-1.754
806.30	10.256
806.61	6.579
806.91	8.108
807.22	14.474
807.52	13.636
807.83	-6.780
808.13	-4.545
808.43	5.000
808.74	-8.621
809.04	4.762
809.35	-4.082
809.65	5.000
809.95	-12.245
810.26	8.451
810.56	-14.583
810.86	-6.122
811.17	28.846
811.47	-6.383
811.77	-10.417
812.08	9.434
812.38	-34.375
812.69	0.000
812.99	-7.317
813.29	-5.405
813.59	-48.649
813.90	0.000
814.20	-9.091
814.50	-10.000
814.81	1.818
815.11	8.772
815.41	6.977
815.72	0.000
816.02	2.857
816.32	0.000
816.62	-8.333
816.93	-8.889
817.23	-17.778
817.53	-33.333
817.84	-16.216
818.14	-2.439
818.44	10.000
818.74	0.000
819.04	-14.634
819.35	0.000
819.65	-2.273
819.95	-55.556
820.25	-18.182
820.56	-33.333
820.86	-11.111
821.16	-9.091
821.46	-8.696
821.76	-13.793
822.07	0.000
822.37	18.182
822.67	-2.439
822.97	-2.703
823.27	-42.857
823.57	-3.448
823.88	-20.588
824.18	11.111
824.48	-14.286
824.78	-19.048
825.08	-3.571
825.38	-44.444
825.69	-29.032
825.99	-12.195
826.29	0.000
826.59	-15.625
826.89	-38.710
827.19	-39.130
827.49	-16.667
827.79	-69.565
828.09	-16.129
828.39	-14.583
828.70	-50.000
829.00	3.448
829.30	-2.703
829.60	-12.500
829.90	14.815
830.20	-37.500
830.50	-27.273
830.80	-82.353
831.10	-13.636
831.40	-8.824
831.70	-11.538
832.00	6.061
832.30	-8.824
832.60	29.730
832.90	900.000
833.20	-28.571
833.50	-85.000
833.80	-21.053
834.10	-50.000
834.40	-45.455
834.70	-13.333
835.00	-20.000
835.30	-8.333
835.60	-28.571
835.90	14.286
836.20	-48.000
836.50	-41.667
836.80	-63.158
837.10	16.216
837.40	10.000
837.70	-30.435
838.00	45.833
838.30	-21.053
838.60	-160.000
838.90	-220.000
839.19	-100.000
839.49	-53.846
839.79	-84.211
840.09	-366.667
840.39	-90.000
840.69	-72.727
840.99	4.762
841.29	-12.500
841.59	-92.308
841.88	-53.333
842.18	-57.143
842.48	0.000
842.78	-214.286
843.08	-64.286
843.38	-162.500
843.68	-118.750
843.97	-50.000
844.27	-66.667
844.57	-127.273
844.87	-86.667
845.17	36.364
845.47	566.667
845.76	-40.000
846.06	-83.333
846.36	-1150.000
846.66	-68.421
846.96	-40.909
847.25	-88.889
847.55	-133.333
847.85	-42.857
848.15	-61.538
848.44	-166.667
848.74	-50.000
849.04	0.000
849.34	-400.000
849.63	-127.273
849.93	-100.000
850.23	25.000
850.53	-87.500
850.82	-16.667
851.12	0.000
851.42	-82.353
851.71	-262.500
852.01	-11.765
852.31	-107.692
852.61	1100.000
852.90	35.294
853.20	-33.333
853.50	-68.750
853.79	-71.429
854.09	-275.000
854.39	-50.000
854.68	0.000
854.98	-9.524
855.28	20.000
855.57	-8.333
855.87	-4.167
856.17	-52.000
856.46	-37.500
856.76	-45.000
857.05	-4.000
857.35	-58.333
857.65	5.882
857.94	-116.667
858.24	-91.667
858.53	-45.000
858.83	-54.545
859.13	-28.000
859.42	-107.143
859.72	-225.000
860.01	-50.000
860.31	-200.000
860.60	-100.000
860.90	-150.000
861.20	-50.000
861.49	-53.333
861.79	-93.750
862.08	325.000
862.38	-133.333
862.67	328.571
862.97	450.000
863.26	-172.727
863.56	18.182
863.85	-31.579
864.15	-29.412
864.44	-200.000
864.74	-90.000
865.03	-188.889
865.33	-64.286
865.62	157.143
865.92	-15.789
866.21	-44.444
866.51	-9.091
866.80	-33.333
867.10	-187.500
867.39	-37.500
867.69	-53.333
867.98	-130.000
868.27	47.059
868.57	0.000
868.86	650.000
869.16	-350.000
869.45	-242.857
869.75	850.000
870.04	-40.000
870.33	-1500.000
870.63	0.000
870.92	-83.333
871.22	-2100.000
871.51	-142.857
871.80	-188.889
872.10	-450.000
>>>>>End Processed Spectral Data<<<<<
