SpectraSuite Data File
++++++++++++++++++++++++++++++++++++
Date: Wed May 13 21:10:07 PDT 2015
User: schluterlab
Dark Spectrum Present: Yes
Reference Spectrum Present: Yes
Number of Sampled Component Spectra: 1
Spectrometers: USB2E3373
Integration Time (usec): 3000 (USB2E3373)
Spectra Averaged: 3 (USB2E3373)
Boxcar Smoothing: 0 (USB2E3373)
Correct for Electrical Dark: No (USB2E3373)
Strobe/Lamp Enabled: No (USB2E3373)
Correct for Detector Non-linearity: No (USB2E3373)
Correct for Stray Light: No (USB2E3373)
Number of Pixels in Processed Spectrum: 2048
>>>>>Begin Processed Spectral Data<<<<<
178.53	0.000
178.91	50.000
179.29	200.000
179.67	-900.000
180.04	-566.667
180.42	520.000
180.80	1200.000
181.18	216.667
181.56	-150.000
181.94	-75.000
182.31	54.545
182.69	176.923
183.07	-160.000
183.45	300.000
183.83	266.667
184.20	157.143
184.58	-166.667
184.96	466.667
185.34	157.143
185.72	0.000
186.09	-700.000
186.47	-300.000
186.85	120.000
187.23	-50.000
187.61	750.000
187.98	1200.000
188.36	-125.000
188.74	0.000
189.12	-45.455
189.49	80.000
189.87	50.000
190.25	260.000
190.63	500.000
191.00	-40.000
191.38	360.000
191.76	250.000
192.14	116.667
192.51	-52.632
192.89	466.667
193.27	400.000
193.65	-240.000
194.02	172.727
194.40	180.000
194.78	-1000.000
195.15	180.000
195.53	-300.000
195.91	75.000
196.29	-133.333
196.66	0.000
197.04	600.000
197.42	-100.000
197.79	-10.000
198.17	-112.500
198.55	-300.000
198.92	350.000
199.30	-266.667
199.68	-50.000
200.05	250.000
200.43	50.000
200.81	-1200.000
201.18	-240.000
201.56	-166.667
201.94	675.000
202.31	-26.087
202.69	-114.286
203.07	-600.000
203.44	-60.000
203.82	-466.667
204.19	30.000
204.57	0.000
204.95	-183.333
205.32	0.000
205.70	-350.000
206.08	-150.000
206.45	-166.667
206.83	425.000
207.20	-300.000
207.58	-40.000
207.96	-1800.000
208.33	-114.286
208.71	-1100.000
209.08	200.000
209.46	275.000
209.84	0.000
210.21	110.000
210.59	2100.000
210.96	140.000
211.34	1700.000
211.71	-700.000
212.09	-183.333
212.46	-130.000
212.84	-66.667
213.22	150.000
213.59	-700.000
213.97	-250.000
214.34	-700.000
214.72	-15.385
215.09	187.500
215.47	133.333
215.84	500.000
216.22	75.000
216.59	-50.000
216.97	633.333
217.34	133.333
217.72	0.000
218.09	333.333
218.47	-600.000
218.84	0.000
219.22	-75.000
219.59	-466.667
219.97	-200.000
220.34	62.500
220.72	-40.000
221.09	0.000
221.47	0.000
221.84	-1200.000
222.22	0.000
222.59	100.000
222.97	-33.333
223.34	-75.000
223.72	-1400.000
224.09	-150.000
224.46	-90.909
224.84	-25.000
225.21	-100.000
225.59	-400.000
225.96	-66.667
226.34	-70.000
226.71	0.000
227.08	250.000
227.46	-62.500
227.83	-600.000
228.21	-75.000
228.58	-125.000
228.95	-23.529
229.33	37.500
229.70	-87.500
230.08	-7.692
230.45	-162.500
230.82	-8.333
231.20	157.143
231.57	-125.000
231.95	1100.000
232.32	-16.667
232.69	5.882
233.07	-2000.000
233.44	-21.739
233.81	-450.000
234.19	37.500
234.56	-140.000
234.93	-6.667
235.31	-26.316
235.68	-92.308
236.05	-46.154
236.43	16.667
236.80	-12.121
237.17	-13.333
237.55	-11.765
237.92	-17.241
238.29	-11.111
238.67	22.222
239.04	16.129
239.41	21.277
239.79	17.021
240.16	13.953
240.53	8.929
240.91	8.929
241.28	23.214
241.65	-1.613
242.02	15.789
242.40	33.333
242.77	10.145
243.14	16.667
243.51	21.277
243.89	26.923
244.26	19.811
244.63	12.500
245.00	16.667
245.38	13.445
245.75	24.590
246.12	23.308
246.49	20.325
246.87	15.966
247.24	20.270
247.61	16.556
247.98	23.718
248.36	17.751
248.73	20.225
249.10	21.717
249.47	27.957
249.84	24.737
250.22	27.861
250.59	26.636
250.96	25.000
251.33	22.010
251.70	22.176
252.08	25.105
252.45	28.807
252.82	24.335
253.19	26.459
253.56	21.942
253.94	27.046
254.31	24.296
254.68	28.523
255.05	23.102
255.42	21.329
255.79	29.141
256.16	21.451
256.54	23.492
256.91	21.835
257.28	25.157
257.65	22.611
258.02	24.047
258.39	26.608
258.76	23.837
259.14	25.568
259.51	22.753
259.88	25.203
260.25	25.278
260.62	27.809
260.99	27.321
261.36	26.166
261.73	24.938
262.10	24.427
262.47	22.469
262.85	25.373
263.22	25.641
263.59	23.636
263.96	24.088
264.33	25.962
264.70	26.977
265.07	28.009
265.44	25.517
265.81	27.002
266.18	25.968
266.55	23.799
266.92	27.119
267.29	22.840
267.66	24.628
268.03	28.189
268.40	21.398
268.77	26.240
269.14	27.347
269.51	27.515
269.88	25.255
270.25	25.212
270.62	23.361
270.99	26.378
271.36	24.405
271.73	25.703
272.10	23.238
272.47	25.912
272.84	23.622
273.21	24.462
273.58	25.410
273.95	24.151
274.32	27.425
274.69	24.408
275.06	29.859
275.43	23.917
275.80	23.404
276.17	26.888
276.54	22.380
276.91	23.693
277.28	22.924
277.65	25.350
278.02	25.536
278.39	25.755
278.76	27.759
279.13	23.499
279.50	25.517
279.87	26.087
280.23	25.586
280.60	22.491
280.97	24.026
281.34	24.448
281.71	22.602
282.08	23.761
282.45	24.918
282.82	24.601
283.19	25.457
283.56	23.594
283.92	25.382
284.29	24.805
284.66	24.217
285.03	23.779
285.40	25.076
285.77	24.324
286.14	23.404
286.51	27.136
286.87	22.154
287.24	24.189
287.61	23.343
287.98	23.824
288.35	23.547
288.72	24.677
289.08	23.219
289.45	23.201
289.82	23.449
290.19	22.160
290.56	20.170
290.93	23.343
291.29	22.435
291.66	22.541
292.03	23.706
292.40	21.400
292.77	21.954
293.13	20.781
293.50	22.092
293.87	22.800
294.24	21.825
294.60	22.757
294.97	21.561
295.34	19.525
295.71	19.711
296.08	21.204
296.44	20.153
296.81	19.976
297.18	21.125
297.55	21.108
297.91	20.497
298.28	20.581
298.65	20.320
299.02	20.269
299.38	19.509
299.75	19.712
300.12	18.023
300.48	19.415
300.85	20.092
301.22	18.699
301.59	18.662
301.95	19.512
302.32	20.070
302.69	18.305
303.05	19.491
303.42	19.545
303.79	17.560
304.15	19.058
304.52	20.538
304.89	17.719
305.25	17.563
305.62	17.028
305.99	18.390
306.35	21.003
306.72	19.532
307.09	19.082
307.45	19.915
307.82	19.053
308.19	17.032
308.55	19.038
308.92	19.941
309.29	17.618
309.65	18.981
310.02	19.980
310.38	18.699
310.75	18.047
311.12	19.534
311.48	18.299
311.85	19.587
312.22	20.019
312.58	19.130
312.95	19.005
313.31	20.110
313.68	19.656
314.05	19.849
314.41	20.365
314.78	20.493
315.14	20.741
315.51	19.696
315.87	21.223
316.24	21.488
316.61	22.283
316.97	21.389
317.34	21.390
317.70	23.194
318.07	23.957
318.43	25.023
318.80	23.560
319.16	24.492
319.53	24.373
319.89	23.306
320.26	25.139
320.62	26.413
320.99	25.678
321.35	26.567
321.72	27.911
322.08	28.782
322.45	29.047
322.81	30.869
323.18	30.411
323.54	33.123
323.91	34.417
324.27	34.383
324.64	35.453
325.00	35.871
325.37	38.823
325.73	38.552
326.10	40.370
326.46	40.886
326.83	42.557
327.19	45.854
327.56	45.689
327.92	46.742
328.29	50.000
328.65	51.534
329.01	49.956
329.38	53.478
329.74	54.335
330.11	56.537
330.47	55.903
330.84	57.671
331.20	56.533
331.56	59.873
331.93	60.034
332.29	61.946
332.66	60.254
333.02	61.077
333.38	64.737
333.75	62.543
334.11	64.149
334.48	64.516
334.84	64.046
335.20	64.837
335.57	67.276
335.93	66.667
336.29	66.025
336.66	67.436
337.02	67.391
337.38	67.624
337.75	68.045
338.11	68.232
338.47	68.065
338.84	68.643
339.20	69.753
339.56	69.539
339.93	71.564
340.29	70.709
340.65	70.915
341.02	70.383
341.38	72.466
341.74	69.748
342.11	71.924
342.47	71.632
342.83	71.405
343.20	74.112
343.56	72.363
343.92	72.786
344.28	74.026
344.65	73.306
345.01	72.397
345.37	73.931
345.73	75.245
346.10	73.274
346.46	73.089
346.82	72.472
347.19	73.339
347.55	76.252
347.91	74.045
348.27	76.183
348.63	74.119
349.00	74.843
349.36	75.510
349.72	74.401
350.08	74.727
350.45	76.742
350.81	76.056
351.17	75.751
351.53	76.434
351.89	75.854
352.26	75.290
352.62	76.667
352.98	77.875
353.34	77.939
353.70	79.206
354.07	77.882
354.43	77.061
354.79	78.526
355.15	77.019
355.51	76.538
355.87	77.795
356.24	79.374
356.60	78.108
356.96	77.130
357.32	78.715
357.68	78.533
358.04	78.821
358.40	79.535
358.77	80.199
359.13	80.078
359.49	79.410
359.85	79.985
360.21	79.954
360.57	81.293
360.93	82.170
361.29	81.865
361.66	80.638
362.02	82.802
362.38	82.866
362.74	81.146
363.10	81.706
363.46	81.556
363.82	82.188
364.18	82.088
364.54	82.495
364.90	80.418
365.26	81.316
365.62	83.097
365.98	82.135
366.35	82.624
366.71	82.882
367.07	83.841
367.43	83.415
367.79	82.835
368.15	85.091
368.51	83.122
368.87	84.368
369.23	83.488
369.59	84.355
369.95	85.196
370.31	83.682
370.67	83.490
371.03	85.152
371.39	85.025
371.75	83.929
372.11	84.473
372.47	86.013
372.83	85.229
373.19	86.691
373.55	87.861
373.91	85.573
374.27	87.759
374.63	87.482
374.99	87.117
375.35	86.986
375.71	86.617
376.07	85.744
376.42	86.698
376.78	88.309
377.14	88.678
377.50	88.266
377.86	89.243
378.22	88.875
378.58	88.777
378.94	88.562
379.30	87.570
379.66	89.149
380.02	89.154
380.38	90.120
380.74	89.420
381.09	88.661
381.45	90.266
381.81	88.417
382.17	88.280
382.53	89.169
382.89	89.747
383.25	90.123
383.61	90.860
383.97	92.375
384.32	90.485
384.68	90.685
385.04	90.654
385.40	91.158
385.76	89.477
386.12	91.607
386.48	91.160
386.83	91.489
387.19	92.104
387.55	91.600
387.91	92.620
388.27	90.567
388.62	91.948
388.98	92.240
389.34	92.168
389.70	90.415
390.06	91.813
390.42	92.526
390.77	92.056
391.13	91.414
391.49	91.145
391.85	92.460
392.20	92.168
392.56	93.143
392.92	90.755
393.28	90.703
393.64	92.599
393.99	88.984
394.35	91.605
394.71	93.141
395.07	90.818
395.42	92.322
395.78	93.050
396.14	92.834
396.50	92.327
396.85	93.754
397.21	91.448
397.57	92.050
397.92	91.856
398.28	92.217
398.64	91.985
399.00	91.853
399.35	94.211
399.71	91.031
400.07	92.470
400.42	92.539
400.78	92.568
401.14	92.949
401.49	92.391
401.85	93.243
402.21	96.037
402.57	92.336
402.92	92.553
403.28	93.996
403.63	93.862
403.99	93.410
404.35	93.828
404.70	93.353
405.06	92.601
405.42	93.656
405.77	91.302
406.13	91.314
406.49	93.349
406.84	94.505
407.20	92.658
407.55	93.636
407.91	93.382
408.27	91.142
408.62	92.879
408.98	92.848
409.34	93.255
409.69	93.242
410.05	91.853
410.40	91.053
410.76	91.877
411.11	92.413
411.47	93.829
411.83	93.013
412.18	93.955
412.54	92.481
412.89	91.473
413.25	91.445
413.60	91.160
413.96	92.072
414.31	91.492
414.67	91.175
415.03	93.911
415.38	90.753
415.74	91.423
416.09	93.325
416.45	95.079
416.80	93.691
417.16	90.553
417.51	92.297
417.87	91.997
418.22	93.148
418.58	91.261
418.93	93.283
419.29	94.521
419.64	90.649
420.00	93.841
420.35	91.990
420.71	92.261
421.06	94.280
421.42	93.674
421.77	93.121
422.12	92.951
422.48	91.494
422.83	93.325
423.19	91.949
423.54	93.757
423.90	91.924
424.25	93.876
424.61	92.853
424.96	92.963
425.31	90.746
425.67	94.062
426.02	94.229
426.38	94.465
426.73	94.197
427.09	93.183
427.44	92.895
427.79	93.824
428.15	92.661
428.50	92.749
428.85	92.620
429.21	91.953
429.56	93.252
429.92	92.712
430.27	94.018
430.62	91.973
430.98	94.024
431.33	93.391
431.68	92.812
432.04	93.634
432.39	91.917
432.74	92.397
433.10	93.783
433.45	92.189
433.80	93.391
434.16	92.190
434.51	92.174
434.86	94.229
435.22	93.039
435.57	90.541
435.92	92.280
436.28	91.592
436.63	92.263
436.98	92.597
437.34	93.956
437.69	92.621
438.04	92.247
438.39	93.836
438.75	93.147
439.10	94.910
439.45	91.949
439.81	93.904
440.16	92.638
440.51	91.379
440.86	89.923
441.22	93.230
441.57	91.866
441.92	93.157
442.27	91.613
442.63	91.604
442.98	92.708
443.33	91.817
443.68	91.355
444.03	91.505
444.39	91.472
444.74	92.601
445.09	91.795
445.44	92.113
445.79	92.204
446.15	91.847
446.50	91.189
446.85	93.533
447.20	93.048
447.55	91.774
447.91	91.629
448.26	92.739
448.61	91.657
448.96	92.426
449.31	91.890
449.66	90.804
450.02	92.098
450.37	91.833
450.72	90.471
451.07	92.853
451.42	90.705
451.77	91.540
452.12	89.483
452.47	91.349
452.83	90.920
453.18	93.189
453.53	92.119
453.88	91.145
454.23	91.347
454.58	91.605
454.93	91.469
455.28	92.871
455.63	91.266
455.98	91.053
456.34	90.083
456.69	92.077
457.04	89.226
457.39	90.198
457.74	89.647
458.09	88.981
458.44	90.071
458.79	88.248
459.14	88.652
459.49	92.073
459.84	89.346
460.19	89.376
460.54	90.024
460.89	89.640
461.24	90.629
461.59	89.976
461.94	89.697
462.29	90.074
462.64	90.963
462.99	89.940
463.34	90.677
463.69	91.559
464.04	89.916
464.39	90.116
464.74	88.759
465.09	88.221
465.44	89.506
465.79	88.557
466.14	88.655
466.49	88.446
466.84	88.643
467.19	88.599
467.54	88.464
467.89	89.378
468.24	89.121
468.59	88.719
468.94	88.889
469.29	88.896
469.64	88.773
469.99	91.103
470.34	89.953
470.68	89.591
471.03	90.409
471.38	89.638
471.73	87.997
472.08	88.797
472.43	89.512
472.78	87.559
473.13	87.467
473.48	88.650
473.83	88.136
474.17	90.299
474.52	89.579
474.87	86.972
475.22	89.070
475.57	87.507
475.92	88.713
476.27	87.296
476.61	84.711
476.96	88.007
477.31	86.839
477.66	87.514
478.01	87.857
478.36	87.520
478.70	88.238
479.05	87.902
479.40	86.739
479.75	87.832
480.10	87.557
480.45	87.151
480.79	87.357
481.14	88.197
481.49	87.667
481.84	85.627
482.19	85.827
482.53	86.476
482.88	86.769
483.23	85.371
483.58	86.673
483.92	86.430
484.27	85.407
484.62	85.708
484.97	86.852
485.31	85.801
485.66	81.578
486.01	82.895
486.36	82.988
486.70	84.339
487.05	84.336
487.40	84.682
487.75	85.300
488.09	83.422
488.44	84.963
488.79	85.995
489.13	83.579
489.48	85.421
489.83	84.591
490.17	85.611
490.52	86.583
490.87	85.721
491.22	85.963
491.56	86.632
491.91	84.830
492.26	85.542
492.60	85.955
492.95	84.257
493.30	83.963
493.64	83.549
493.99	84.444
494.34	85.790
494.68	85.346
495.03	87.204
495.37	85.450
495.72	85.514
496.07	85.679
496.41	83.669
496.76	85.375
497.11	85.775
497.45	85.311
497.80	85.310
498.14	85.290
498.49	84.014
498.84	85.121
499.18	83.225
499.53	83.850
499.87	83.503
500.22	85.714
500.56	84.504
500.91	84.859
501.26	84.926
501.60	83.824
501.95	84.332
502.29	84.951
502.64	84.378
502.98	83.671
503.33	84.866
503.67	83.252
504.02	84.853
504.36	83.011
504.71	83.537
505.06	84.972
505.40	85.206
505.75	84.385
506.09	83.189
506.44	83.266
506.78	83.393
507.13	83.992
507.47	83.616
507.82	82.104
508.16	84.327
508.51	81.818
508.85	83.256
509.19	83.280
509.54	84.182
509.88	82.312
510.23	82.316
510.57	82.521
510.92	82.705
511.26	83.663
511.61	84.029
511.95	82.745
512.30	82.676
512.64	83.314
512.98	83.158
513.33	83.211
513.67	83.362
514.02	84.151
514.36	83.371
514.70	84.065
515.05	84.026
515.39	83.844
515.74	83.777
516.08	82.006
516.42	82.488
516.77	82.835
517.11	85.244
517.46	83.854
517.80	84.080
518.14	84.323
518.49	84.268
518.83	82.637
519.17	82.771
519.52	83.112
519.86	84.274
520.20	83.445
520.55	82.463
520.89	83.681
521.23	85.577
521.58	82.870
521.92	83.092
522.26	82.498
522.61	82.612
522.95	83.031
523.29	82.794
523.64	82.327
523.98	82.973
524.32	82.105
524.66	83.052
525.01	83.355
525.35	84.266
525.69	82.240
526.04	82.476
526.38	81.772
526.72	81.262
527.06	81.560
527.41	83.587
527.75	81.842
528.09	82.573
528.43	84.057
528.78	83.656
529.12	82.665
529.46	82.790
529.80	81.230
530.15	79.923
530.49	84.097
530.83	83.480
531.17	82.945
531.51	82.535
531.86	81.436
532.20	83.391
532.54	83.103
532.88	81.552
533.22	83.232
533.57	82.185
533.91	81.806
534.25	82.292
534.59	80.438
534.93	81.122
535.27	81.847
535.62	82.829
535.96	80.742
536.30	81.250
536.64	78.811
536.98	80.168
537.32	81.922
537.66	82.087
538.01	80.374
538.35	82.666
538.69	80.134
539.03	79.060
539.37	79.678
539.71	81.924
540.05	79.555
540.39	79.078
540.73	81.285
541.07	80.000
541.42	80.673
541.76	78.687
542.10	79.147
542.44	79.418
542.78	80.638
543.12	80.863
543.46	80.511
543.80	79.158
544.14	81.487
544.48	78.766
544.82	78.413
545.16	79.108
545.50	80.216
545.84	79.944
546.18	79.173
546.52	80.028
546.86	80.353
547.20	78.699
547.54	80.200
547.88	78.812
548.22	77.264
548.56	79.186
548.90	78.349
549.24	80.694
549.58	78.505
549.92	80.117
550.26	80.443
550.60	80.030
550.94	78.881
551.28	78.501
551.62	79.549
551.96	78.258
552.30	79.258
552.64	77.754
552.98	78.409
553.32	79.164
553.66	80.558
554.00	77.682
554.34	79.194
554.68	78.971
555.02	79.117
555.36	80.106
555.69	78.441
556.03	78.413
556.37	77.596
556.71	77.155
557.05	79.557
557.39	78.900
557.73	80.560
558.07	78.071
558.41	79.637
558.75	79.369
559.08	77.145
559.42	78.757
559.76	76.529
560.10	79.016
560.44	79.440
560.78	78.921
561.12	77.786
561.45	76.871
561.79	78.680
562.13	77.567
562.47	79.000
562.81	78.283
563.15	77.266
563.48	75.843
563.82	75.992
564.16	75.694
564.50	77.815
564.84	77.500
565.17	77.748
565.51	77.005
565.85	75.883
566.19	75.960
566.52	76.212
566.86	75.790
567.20	77.703
567.54	74.611
567.88	74.636
568.21	74.253
568.55	74.961
568.89	74.875
569.23	73.969
569.56	74.009
569.90	73.850
570.24	72.852
570.57	72.706
570.91	71.838
571.25	72.962
571.59	71.467
571.92	71.693
572.26	73.300
572.60	72.190
572.93	72.602
573.27	71.606
573.61	72.617
573.95	71.576
574.28	72.158
574.62	70.723
574.96	71.481
575.29	71.464
575.63	71.812
575.97	71.848
576.30	70.622
576.64	71.653
576.98	71.872
577.31	71.857
577.65	70.643
577.98	71.839
578.32	70.924
578.66	70.748
578.99	70.892
579.33	70.190
579.67	71.716
580.00	70.261
580.34	70.746
580.67	71.068
581.01	71.199
581.35	70.591
581.68	70.074
582.02	70.396
582.35	70.746
582.69	70.435
583.02	70.238
583.36	70.695
583.70	70.747
584.03	70.639
584.37	70.847
584.70	70.546
585.04	70.954
585.37	70.425
585.71	69.465
586.04	70.301
586.38	69.376
586.72	70.413
587.05	71.038
587.39	70.486
587.72	69.787
588.06	70.369
588.39	69.493
588.73	70.126
589.06	71.031
589.40	70.175
589.73	69.206
590.07	69.522
590.40	71.109
590.73	71.880
591.07	70.664
591.40	69.609
591.74	70.165
592.07	70.835
592.41	71.471
592.74	70.602
593.08	70.154
593.41	69.910
593.75	70.769
594.08	70.674
594.41	69.360
594.75	69.790
595.08	69.679
595.42	69.470
595.75	69.523
596.09	69.861
596.42	72.100
596.75	69.855
597.09	71.838
597.42	70.570
597.75	69.689
598.09	70.310
598.42	70.872
598.76	69.647
599.09	71.429
599.42	70.053
599.76	70.372
600.09	70.520
600.42	69.944
600.76	69.623
601.09	68.663
601.42	69.855
601.76	68.649
602.09	69.761
602.42	70.078
602.76	68.960
603.09	71.211
603.42	70.052
603.76	68.706
604.09	68.261
604.42	69.025
604.76	70.144
605.09	70.775
605.42	70.265
605.75	69.122
606.09	68.046
606.42	70.200
606.75	68.312
607.09	69.060
607.42	69.264
607.75	68.315
608.08	70.198
608.42	70.009
608.75	70.091
609.08	69.427
609.41	68.256
609.75	69.541
610.08	69.280
610.41	70.262
610.74	70.356
611.07	69.188
611.41	69.550
611.74	69.306
612.07	68.838
612.40	69.027
612.73	70.088
613.07	70.122
613.40	70.925
613.73	67.606
614.06	68.933
614.39	69.761
614.72	69.128
615.06	70.167
615.39	68.322
615.72	68.359
616.05	69.651
616.38	68.499
616.71	68.206
617.05	70.455
617.38	68.762
617.71	68.995
618.04	67.032
618.37	70.978
618.70	70.310
619.03	69.141
619.36	69.110
619.69	69.591
620.03	70.177
620.36	69.311
620.69	68.951
621.02	71.000
621.35	70.401
621.68	68.623
622.01	71.117
622.34	70.658
622.67	69.460
623.00	71.201
623.33	70.531
623.66	69.888
623.99	70.443
624.32	68.305
624.65	69.659
624.99	69.508
625.32	68.559
625.65	69.845
625.98	70.932
626.31	70.204
626.64	70.593
626.97	69.550
627.30	70.659
627.63	68.426
627.96	68.745
628.29	70.884
628.62	71.663
628.95	71.242
629.28	71.330
629.61	69.474
629.94	69.923
630.26	71.133
630.59	70.529
630.92	69.679
631.25	69.516
631.58	71.734
631.91	69.141
632.24	68.606
632.57	71.556
632.90	72.345
633.23	71.343
633.56	71.583
633.89	72.010
634.22	72.556
634.55	70.037
634.88	71.324
635.20	70.625
635.53	73.256
635.86	73.462
636.19	71.464
636.52	72.927
636.85	72.014
637.18	68.453
637.51	72.035
637.83	70.104
638.16	70.800
638.49	70.761
638.82	70.065
639.15	71.676
639.48	71.257
639.81	70.833
640.13	74.507
640.46	73.870
640.79	71.942
641.12	72.041
641.45	72.780
641.77	70.103
642.10	70.802
642.43	72.013
642.76	69.243
643.09	71.885
643.41	72.089
643.74	73.021
644.07	72.492
644.40	72.305
644.73	71.186
645.05	73.822
645.38	69.435
645.71	71.769
646.04	69.865
646.36	72.569
646.69	71.678
647.02	72.860
647.35	73.857
647.67	70.980
648.00	71.739
648.33	69.661
648.66	71.119
648.98	67.702
649.31	67.791
649.64	69.640
649.96	69.984
650.29	68.301
650.62	68.699
650.94	68.793
651.27	71.555
651.60	71.329
651.92	71.326
652.25	70.184
652.58	69.802
652.90	68.519
653.23	68.081
653.56	66.116
653.88	68.089
654.21	68.771
654.54	67.276
654.86	67.642
655.19	65.686
655.52	68.407
655.84	64.263
656.17	75.529
656.49	97.567
656.82	96.060
657.15	72.556
657.47	54.229
657.80	40.498
658.13	42.400
658.45	62.948
658.78	62.593
659.10	62.564
659.43	62.620
659.75	60.880
660.08	62.966
660.41	64.604
660.73	65.702
661.06	66.837
661.38	68.023
661.71	71.311
662.03	69.979
662.36	69.469
662.68	68.817
663.01	69.703
663.33	68.683
663.66	68.958
663.98	70.337
664.31	69.231
664.63	64.189
664.96	70.460
665.28	70.815
665.61	68.251
665.93	69.165
666.26	69.409
666.58	65.525
666.91	72.646
667.23	69.355
667.56	69.885
667.88	69.159
668.21	67.857
668.53	71.034
668.86	68.345
669.18	69.031
669.50	69.816
669.83	69.690
670.15	68.333
670.48	68.736
670.80	70.460
671.13	67.277
671.45	69.635
671.77	69.828
672.10	67.057
672.42	68.893
672.75	67.500
673.07	65.091
673.39	67.724
673.72	66.667
674.04	67.828
674.37	68.699
674.69	63.786
675.01	66.453
675.34	66.521
675.66	66.885
675.98	67.920
676.31	69.910
676.63	71.202
676.95	68.941
677.28	66.055
677.60	69.853
677.92	68.071
678.25	71.584
678.57	66.599
678.89	65.672
679.22	66.253
679.54	63.673
679.86	67.188
680.18	66.154
680.51	64.423
680.83	61.598
681.15	66.994
681.48	65.130
681.80	66.258
682.12	64.167
682.44	64.386
682.77	61.895
683.09	62.054
683.41	67.907
683.73	66.071
684.06	64.381
684.38	65.385
684.70	64.562
685.02	70.868
685.34	65.558
685.67	64.916
685.99	63.879
686.31	61.379
686.63	60.478
686.96	62.523
687.28	63.673
687.60	63.516
687.92	62.062
688.24	62.600
688.56	68.421
688.89	62.806
689.21	62.780
689.53	65.090
689.85	62.697
690.17	65.934
690.49	64.976
690.82	63.484
691.14	67.874
691.46	65.893
691.78	61.758
692.10	67.728
692.42	61.758
692.74	63.043
693.06	63.371
693.39	65.808
693.71	63.778
694.03	65.000
694.35	65.766
694.67	64.000
694.99	64.433
695.31	63.824
695.63	61.463
695.95	61.323
696.27	62.740
696.59	62.097
696.91	61.732
697.23	62.690
697.56	66.667
697.88	59.875
698.20	62.203
698.52	60.047
698.84	59.809
699.16	59.811
699.48	64.198
699.80	65.891
700.12	65.952
700.44	63.099
700.76	63.202
701.08	66.163
701.40	66.766
701.72	61.231
702.04	61.950
702.36	61.890
702.68	63.110
703.00	60.526
703.32	57.939
703.64	65.060
703.96	62.757
704.28	64.759
704.60	60.366
704.91	58.621
705.23	61.076
705.55	62.414
705.87	65.493
706.19	63.004
706.51	62.324
706.83	59.873
707.15	62.500
707.47	59.504
707.79	58.629
708.11	62.211
708.43	61.168
708.74	60.638
709.06	59.091
709.38	59.366
709.70	61.862
710.02	61.371
710.34	62.000
710.66	61.889
710.98	59.752
711.29	61.688
711.61	63.548
711.93	58.387
712.25	59.441
712.57	58.246
712.89	63.736
713.20	58.156
713.52	61.679
713.84	59.677
714.16	55.016
714.48	57.278
714.80	61.022
715.11	59.012
715.43	63.043
715.75	58.696
716.07	58.434
716.39	60.606
716.70	62.230
717.02	59.216
717.34	59.091
717.66	62.931
717.97	55.952
718.29	60.236
718.61	60.944
718.93	59.690
719.24	60.148
719.56	55.805
719.88	61.567
720.20	60.474
720.51	60.547
720.83	63.035
721.15	56.098
721.46	58.397
721.78	58.167
722.10	57.371
722.42	55.242
722.73	59.073
723.05	61.633
723.37	61.765
723.68	50.400
724.00	55.319
724.32	55.649
724.63	58.848
724.95	54.274
725.27	58.650
725.58	62.551
725.90	57.741
726.22	57.971
726.53	54.510
726.85	55.109
727.16	53.333
727.48	55.172
727.80	57.031
728.11	54.098
728.43	50.781
728.74	56.349
729.06	52.400
729.38	58.103
729.69	53.025
730.01	57.249
730.32	57.934
730.64	56.818
730.96	56.294
731.27	54.849
731.59	57.143
731.90	55.987
732.22	55.769
732.53	58.446
732.85	54.027
733.16	52.805
733.48	51.351
733.80	56.419
734.11	59.459
734.43	51.393
734.74	60.060
735.06	54.755
735.37	55.015
735.69	55.987
736.00	55.446
736.32	60.284
736.63	55.517
736.95	58.904
737.26	54.138
737.58	56.944
737.89	57.732
738.21	52.669
738.52	57.034
738.83	55.510
739.15	55.696
739.46	56.031
739.78	50.352
740.09	54.110
740.41	50.714
740.72	51.773
741.04	52.400
741.35	54.825
741.66	58.667
741.98	58.173
742.29	59.406
742.61	49.756
742.92	55.263
743.23	56.604
743.55	58.108
743.86	56.951
744.18	48.529
744.49	54.822
744.80	51.020
745.12	54.673
745.43	58.768
745.74	54.505
746.06	51.402
746.37	50.459
746.68	51.923
747.00	57.895
747.31	58.654
747.62	57.798
747.94	51.092
748.25	52.294
748.56	57.778
748.88	60.094
749.19	51.905
749.50	60.194
749.82	49.765
750.13	49.583
750.44	51.154
750.75	54.613
751.07	51.957
751.38	49.291
751.69	52.510
752.01	56.641
752.32	52.692
752.63	58.209
752.94	52.400
753.26	55.649
753.57	52.917
753.88	53.846
754.19	54.582
754.51	55.263
754.82	52.747
755.13	56.087
755.44	51.626
755.75	53.200
756.07	50.923
756.38	53.237
756.69	55.290
757.00	49.844
757.31	51.456
757.63	48.457
757.94	52.825
758.25	52.646
758.56	51.087
758.87	48.214
759.18	52.997
759.50	51.515
759.81	52.843
760.12	53.231
760.43	50.595
760.74	50.282
761.05	49.448
761.36	48.424
761.67	49.849
761.99	50.172
762.30	46.350
762.61	51.852
762.92	55.128
763.23	51.230
763.54	56.710
763.85	47.347
764.16	45.935
764.47	50.800
764.78	44.643
765.10	51.148
765.41	51.672
765.72	52.795
766.03	49.835
766.34	51.538
766.65	50.209
766.96	48.357
767.27	50.990
767.58	44.382
767.89	52.469
768.20	44.751
768.51	55.276
768.82	51.442
769.13	56.637
769.44	50.209
769.75	45.299
770.06	46.637
770.37	50.000
770.68	51.456
770.99	49.515
771.30	50.840
771.61	47.755
771.92	52.697
772.23	49.099
772.54	53.591
772.85	47.093
773.16	41.799
773.47	45.562
773.78	56.322
774.09	50.625
774.39	49.068
774.70	54.422
775.01	43.448
775.32	48.571
775.63	48.872
775.94	40.602
776.25	48.800
776.56	46.281
776.87	42.063
777.18	46.847
777.48	46.847
777.79	46.457
778.10	55.046
778.41	35.965
778.72	47.059
779.03	36.620
779.34	50.000
779.65	54.225
779.95	50.993
780.26	41.727
780.57	48.201
780.88	38.732
781.19	47.899
781.50	48.322
781.80	45.614
782.11	37.209
782.42	52.830
782.73	49.673
783.04	47.586
783.34	32.824
783.65	42.282
783.96	47.692
784.27	51.429
784.57	44.681
784.88	40.385
785.19	56.364
785.50	41.818
785.81	43.810
786.11	34.454
786.42	46.018
786.73	42.453
787.04	44.954
787.34	41.584
787.65	50.833
787.96	40.496
788.26	42.754
788.57	52.381
788.88	51.220
789.19	40.800
789.49	43.511
789.80	43.182
790.11	40.566
790.41	51.485
790.72	42.553
791.03	36.957
791.33	29.412
791.64	45.679
791.95	38.043
792.25	51.136
792.56	52.564
792.87	35.897
793.17	33.333
793.48	29.762
793.79	30.000
794.09	52.885
794.40	58.333
794.70	45.946
795.01	40.625
795.32	40.870
795.62	34.783
795.93	42.453
796.23	46.465
796.54	30.488
796.85	38.095
797.15	43.939
797.46	50.725
797.76	23.684
798.07	38.636
798.37	41.463
798.68	40.323
798.99	18.919
799.29	49.398
799.60	37.179
799.90	49.231
800.21	46.970
800.51	30.667
800.82	41.333
801.12	20.833
801.43	18.333
801.73	37.838
802.04	47.143
802.34	40.984
802.65	32.836
802.95	56.364
803.26	37.931
803.56	43.077
803.87	52.830
804.17	41.935
804.48	35.294
804.78	26.829
805.09	46.377
805.39	36.765
805.70	17.021
806.00	35.088
806.30	47.436
806.61	50.000
806.91	25.676
807.22	38.158
807.52	40.909
807.83	22.034
808.13	10.606
808.43	41.667
808.74	20.690
809.04	34.921
809.35	34.694
809.65	36.667
809.95	10.204
810.26	39.437
810.56	41.667
810.86	36.735
811.17	50.000
811.47	23.404
811.77	14.583
812.08	39.623
812.38	37.500
812.69	29.091
812.99	7.317
813.29	21.622
813.59	13.514
813.90	38.182
814.20	23.636
814.50	35.000
814.81	41.818
815.11	28.070
815.41	46.512
815.72	42.500
816.02	51.429
816.32	18.919
816.62	18.750
816.93	37.778
817.23	26.667
817.53	-5.556
817.84	2.703
818.14	46.341
818.44	34.000
818.74	18.367
819.04	29.268
819.35	55.556
819.65	15.909
819.95	38.889
820.25	12.121
820.56	0.000
820.86	8.333
821.16	0.000
821.46	23.913
821.76	17.241
822.07	21.739
822.37	33.333
822.67	34.146
822.97	32.432
823.27	0.000
823.57	55.172
823.88	29.412
824.18	47.222
824.48	0.000
824.78	66.667
825.08	25.000
825.38	14.815
825.69	54.839
825.99	34.146
826.29	44.444
826.59	-3.125
826.89	25.806
827.19	-8.696
827.49	5.556
827.79	-8.696
828.09	38.710
828.39	12.500
828.70	-37.500
829.00	24.138
829.30	24.324
829.60	-12.500
829.90	18.519
830.20	0.000
830.50	31.818
830.80	-35.294
831.10	-31.818
831.40	0.000
831.70	73.077
832.00	21.212
832.30	-2.941
832.60	8.108
832.90	-300.000
833.20	32.143
833.50	-35.000
833.80	5.263
834.10	-12.500
834.40	-36.364
834.70	20.000
835.00	10.000
835.30	0.000
835.60	-4.762
835.90	-19.048
836.20	8.000
836.50	4.167
836.80	-5.263
837.10	21.622
837.40	26.667
837.70	0.000
838.00	45.833
838.30	31.579
838.60	-120.000
838.90	-180.000
839.19	-83.333
839.49	23.077
839.79	10.526
840.09	0.000
840.39	-70.000
840.69	-9.091
840.99	14.286
841.29	8.333
841.59	7.692
841.88	-73.333
842.18	85.714
842.48	23.333
842.78	-214.286
843.08	-85.714
843.38	-87.500
843.68	-25.000
843.97	64.286
844.27	0.000
844.57	-100.000
844.87	-46.667
845.17	-9.091
845.47	466.667
845.76	26.667
846.06	-25.000
846.36	-950.000
846.66	5.263
846.96	-9.091
847.25	-38.889
847.55	-122.222
847.85	0.000
848.15	-23.077
848.44	-350.000
848.74	41.667
849.04	-53.846
849.34	-300.000
849.63	18.182
849.93	-50.000
850.23	15.000
850.53	25.000
850.82	-11.111
851.12	13.333
851.42	-35.294
851.71	50.000
852.01	11.765
852.31	23.077
852.61	550.000
852.90	47.059
853.20	-6.667
853.50	12.500
853.79	-128.571
854.09	-175.000
854.39	-40.000
854.68	32.500
854.98	9.524
855.28	24.000
855.57	16.667
855.87	4.167
856.17	0.000
856.46	9.375
856.76	10.000
857.05	44.000
857.35	-58.333
857.65	-11.765
857.94	-100.000
858.24	-50.000
858.53	45.000
858.83	-136.364
859.13	-4.000
859.42	-28.571
859.72	-150.000
860.01	4.167
860.31	-200.000
860.60	-25.000
860.90	-33.333
861.20	-16.667
861.49	33.333
861.79	6.250
862.08	200.000
862.38	-91.667
862.67	271.429
862.97	275.000
863.26	-63.636
863.56	-27.273
863.85	26.316
864.15	29.412
864.44	-280.000
864.74	-10.000
865.03	-77.778
865.33	-42.857
865.62	128.571
865.92	0.000
866.21	-44.444
866.51	-81.818
866.80	-122.222
867.10	-137.500
867.39	-12.500
867.69	-20.000
867.98	-30.000
868.27	58.824
868.57	0.000
868.86	500.000
869.16	-325.000
869.45	-157.143
869.75	150.000
870.04	-40.000
870.33	400.000
870.63	-15.789
870.92	-58.333
871.22	-400.000
871.51	-157.143
871.80	-166.667
872.10	-150.000
>>>>>End Processed Spectral Data<<<<<
