SpectraSuite Data File
++++++++++++++++++++++++++++++++++++
Date: Wed May 13 21:33:14 PDT 2015
User: schluterlab
Dark Spectrum Present: Yes
Reference Spectrum Present: Yes
Number of Sampled Component Spectra: 1
Spectrometers: USB2E3373
Integration Time (usec): 3000 (USB2E3373)
Spectra Averaged: 3 (USB2E3373)
Boxcar Smoothing: 0 (USB2E3373)
Correct for Electrical Dark: No (USB2E3373)
Strobe/Lamp Enabled: No (USB2E3373)
Correct for Detector Non-linearity: No (USB2E3373)
Correct for Stray Light: No (USB2E3373)
Number of Pixels in Processed Spectrum: 2048
>>>>>Begin Processed Spectral Data<<<<<
178.53	0.000
178.91	850.000
179.29	250.000
179.67	-700.000
180.04	-666.667
180.42	220.000
180.80	1600.000
181.18	366.667
181.56	-550.000
181.94	-400.000
182.31	-72.727
182.69	161.538
183.07	-300.000
183.45	366.667
183.83	111.111
184.20	200.000
184.58	-333.333
184.96	466.667
185.34	285.714
185.72	0.000
186.09	-1600.000
186.47	-220.000
186.85	120.000
187.23	-650.000
187.61	1000.000
187.98	1000.000
188.36	-50.000
188.74	0.000
189.12	-118.182
189.49	10.000
189.87	133.333
190.25	260.000
190.63	1200.000
191.00	-280.000
191.38	360.000
191.76	450.000
192.14	216.667
192.51	-36.842
192.89	233.333
193.27	325.000
193.65	-240.000
194.02	227.273
194.40	210.000
194.78	-900.000
195.15	420.000
195.53	-220.000
195.91	-62.500
196.29	-333.333
196.66	0.000
197.04	800.000
197.42	-180.000
197.79	-140.000
198.17	-187.500
198.55	-266.667
198.92	275.000
199.30	-600.000
199.68	-10.000
200.05	100.000
200.43	300.000
200.81	-2400.000
201.18	-180.000
201.56	-133.333
201.94	600.000
202.31	-34.783
202.69	-71.429
203.07	-400.000
203.44	-340.000
203.82	-600.000
204.19	-20.000
204.57	0.000
204.95	-283.333
205.32	0.000
205.70	-750.000
206.08	-275.000
206.45	-233.333
206.83	425.000
207.20	-233.333
207.58	-120.000
207.96	-2100.000
208.33	-100.000
208.71	-300.000
209.08	187.500
209.46	525.000
209.84	0.000
210.21	50.000
210.59	2600.000
210.96	380.000
211.34	1800.000
211.71	-700.000
212.09	-250.000
212.46	-210.000
212.84	-233.333
213.22	0.000
213.59	-1000.000
213.97	-750.000
214.34	-800.000
214.72	-130.769
215.09	200.000
215.47	277.778
215.84	1000.000
216.22	-37.500
216.59	-100.000
216.97	900.000
217.34	222.222
217.72	0.000
218.09	233.333
218.47	100.000
218.84	-214.286
219.22	-175.000
219.59	-633.333
219.97	-275.000
220.34	-112.500
220.72	-180.000
221.09	0.000
221.47	-216.667
221.84	-1000.000
222.22	0.000
222.59	800.000
222.97	-300.000
223.34	-83.333
223.72	-1800.000
224.09	-1350.000
224.46	-136.364
224.84	-137.500
225.21	-114.286
225.59	-300.000
225.96	-116.667
226.34	-100.000
226.71	-314.286
227.08	700.000
227.46	-125.000
227.83	-1400.000
228.21	-43.750
228.58	-425.000
228.95	-64.706
229.33	-12.500
229.70	-162.500
230.08	-61.538
230.45	-225.000
230.82	-150.000
231.20	314.286
231.57	-325.000
231.95	1500.000
232.32	-8.333
232.69	-5.882
233.07	-1900.000
233.44	-65.217
233.81	-750.000
234.19	-20.833
234.56	-100.000
234.93	-93.333
235.31	-26.316
235.68	-130.769
236.05	-76.923
236.43	-66.667
236.80	-9.091
237.17	-66.667
237.55	-35.294
237.92	-17.241
238.29	-48.148
238.67	-19.444
239.04	-58.065
239.41	-38.298
239.79	-2.128
240.16	-18.605
240.53	-21.429
240.91	-5.357
241.28	-17.857
241.65	9.677
242.02	-5.263
242.40	-13.043
242.77	-24.638
243.14	0.000
243.51	-1.064
243.89	-8.654
244.26	22.642
244.63	-3.846
245.00	0.000
245.38	0.840
245.75	2.459
246.12	12.030
246.49	-4.878
246.87	-4.202
247.24	3.378
247.61	5.298
247.98	-2.564
248.36	0.000
248.73	3.371
249.10	4.545
249.47	1.613
249.84	6.842
250.22	4.975
250.59	8.879
250.96	8.636
251.33	0.478
251.70	10.879
252.08	8.368
252.45	12.346
252.82	11.787
253.19	11.284
253.56	6.475
253.94	13.167
254.31	5.634
254.68	12.752
255.05	8.251
255.42	6.294
255.79	10.429
256.16	11.672
256.54	7.302
256.91	7.278
257.28	8.176
257.65	5.096
258.02	12.023
258.39	7.018
258.76	9.884
259.14	7.955
259.51	7.584
259.88	10.027
260.25	9.167
260.62	8.427
260.99	11.141
261.36	9.845
261.73	8.395
262.10	12.214
262.47	10.123
262.85	7.960
263.22	9.231
263.59	7.013
263.96	10.219
264.33	6.731
264.70	7.209
265.07	10.417
265.44	11.034
265.81	8.696
266.18	8.656
266.55	8.734
266.92	10.805
267.29	10.288
267.66	9.554
268.03	11.317
268.40	8.686
268.77	9.711
269.14	8.980
269.51	12.731
269.88	8.147
270.25	10.805
270.62	10.041
270.99	10.433
271.36	11.905
271.73	8.434
272.10	11.048
272.47	9.021
272.84	12.402
273.21	9.198
273.58	9.426
273.95	10.000
274.32	11.007
274.69	9.836
275.06	10.777
275.43	9.981
275.80	11.525
276.17	7.551
276.54	9.591
276.91	9.233
277.28	8.303
277.65	11.014
278.02	12.500
278.39	9.591
278.76	11.204
279.13	9.262
279.50	10.000
279.87	8.152
280.23	9.550
280.60	10.381
280.97	10.227
281.34	9.779
281.71	8.293
282.08	10.256
282.45	10.656
282.82	10.543
283.19	11.433
283.56	8.750
283.92	9.327
284.29	11.388
284.66	10.544
285.03	7.655
285.40	8.610
285.77	9.760
286.14	10.942
286.51	10.345
286.87	8.923
287.24	10.767
287.61	9.789
287.98	8.971
288.35	7.452
288.72	10.617
289.08	11.396
289.45	8.370
289.82	9.380
290.19	9.537
290.56	8.523
290.93	8.011
291.29	9.166
291.66	8.880
292.03	8.719
292.40	9.556
292.77	9.103
293.13	8.089
293.50	10.588
293.87	8.400
294.24	7.804
294.60	9.883
294.97	11.111
295.34	8.839
295.71	8.279
296.08	7.853
296.44	8.163
296.81	8.283
297.18	8.875
297.55	9.198
297.91	9.441
298.28	8.596
298.65	8.251
299.02	8.669
299.38	7.362
299.75	8.053
300.12	7.674
300.48	8.538
300.85	9.007
301.22	7.782
301.59	8.568
301.95	7.782
302.32	8.751
302.69	6.667
303.05	7.641
303.42	8.068
303.79	10.200
304.15	8.324
304.52	8.172
304.89	7.973
305.25	6.476
305.62	8.243
305.99	7.726
306.35	8.673
306.72	7.630
307.09	9.802
307.45	7.455
307.82	6.421
308.19	7.001
308.55	6.960
308.92	9.234
309.29	7.508
309.65	7.093
310.02	8.946
310.38	7.724
310.75	6.607
311.12	7.969
311.48	7.319
311.85	7.382
312.22	9.768
312.58	6.860
312.95	6.866
313.31	8.632
313.68	7.538
314.05	8.129
314.41	8.646
314.78	8.159
315.14	8.148
315.51	8.088
315.87	6.951
316.24	8.448
316.61	7.945
316.97	8.148
317.34	7.754
317.70	8.564
318.07	8.607
318.43	8.401
318.80	7.679
319.16	7.162
319.53	7.706
319.89	8.220
320.26	7.579
320.62	7.507
320.99	6.880
321.35	7.764
321.72	7.218
322.08	8.672
322.45	8.881
322.81	7.948
323.18	8.587
323.54	8.303
323.91	9.304
324.27	7.291
324.64	8.362
325.00	7.962
325.37	8.106
325.73	9.091
326.10	7.906
326.46	7.943
326.83	8.333
327.19	8.618
327.56	10.073
327.92	8.769
328.29	8.598
328.65	9.027
329.01	8.091
329.38	9.217
329.74	8.841
330.11	8.296
330.47	8.247
330.84	7.671
331.20	8.796
331.56	8.605
331.93	8.872
332.29	8.862
332.66	8.220
333.02	9.383
333.38	8.596
333.75	8.106
334.11	9.549
334.48	8.370
334.84	7.509
335.20	10.120
335.57	8.181
335.93	7.474
336.29	7.268
336.66	8.205
337.02	8.609
337.38	8.181
337.75	9.475
338.11	7.942
338.47	7.962
338.84	8.763
339.20	7.937
339.56	8.362
339.93	8.816
340.29	9.052
340.65	7.956
341.02	8.153
341.38	8.615
341.74	7.479
342.11	8.836
342.47	8.117
342.83	8.415
343.20	8.037
343.56	8.013
343.92	9.098
344.28	7.792
344.65	7.184
345.01	7.990
345.37	8.717
345.73	8.824
346.10	8.587
346.46	8.943
346.82	7.143
347.19	8.782
347.55	9.208
347.91	7.716
348.27	7.965
348.63	8.413
349.00	8.255
349.36	7.849
349.72	8.275
350.08	8.112
350.45	8.066
350.81	8.998
351.17	8.391
351.53	7.777
351.89	8.817
352.26	7.104
352.62	8.682
352.98	8.307
353.34	8.535
353.70	8.333
354.07	8.706
354.43	8.087
354.79	7.051
355.15	8.307
355.51	8.200
355.87	7.662
356.24	7.705
356.60	7.115
356.96	8.058
357.32	8.204
357.68	8.098
358.04	8.534
358.40	7.907
358.77	7.645
359.13	7.860
359.49	7.721
359.85	7.657
360.21	7.556
360.57	8.517
360.93	8.270
361.29	8.216
361.66	7.213
362.02	7.709
362.38	9.084
362.74	7.542
363.10	7.954
363.46	7.565
363.82	7.834
364.18	7.977
364.54	8.315
364.90	7.526
365.26	7.360
365.62	6.960
365.98	7.758
366.35	8.014
366.71	7.061
367.07	7.654
367.43	8.014
367.79	7.853
368.15	7.876
368.51	7.736
368.87	8.234
369.23	8.327
369.59	6.977
369.95	7.547
370.31	7.322
370.67	7.024
371.03	8.537
371.39	7.949
371.75	7.214
372.11	8.262
372.47	7.787
372.83	7.906
373.19	7.554
373.55	7.659
373.91	8.133
374.27	6.916
374.63	7.397
374.99	6.894
375.35	7.055
375.71	6.929
376.07	8.362
376.42	8.155
376.78	7.001
377.14	7.186
377.50	8.735
377.86	7.968
378.22	8.028
378.58	7.881
378.94	8.687
379.30	7.683
379.66	8.508
380.02	7.782
380.38	8.313
380.74	8.368
381.09	7.057
381.45	7.920
381.81	6.901
382.17	6.868
382.53	7.692
382.89	7.720
383.25	7.099
383.61	8.475
383.97	8.125
384.32	7.940
384.68	7.588
385.04	6.536
385.40	7.347
385.76	8.151
386.12	7.101
386.48	7.712
386.83	7.697
387.19	6.601
387.55	8.461
387.91	8.303
388.27	7.213
388.62	7.990
388.98	7.572
389.34	7.832
389.70	7.814
390.06	7.500
390.42	8.054
390.77	7.816
391.13	7.955
391.49	7.337
391.85	7.476
392.20	7.268
392.56	7.683
392.92	7.958
393.28	7.612
393.64	6.911
393.99	7.160
394.35	7.654
394.71	7.372
395.07	7.044
395.42	7.617
395.78	6.950
396.14	7.990
396.50	7.229
396.85	8.668
397.21	7.928
397.57	7.516
397.92	8.323
398.28	8.122
398.64	7.590
399.00	8.482
399.35	7.548
399.71	7.804
400.07	7.771
400.42	6.771
400.78	8.218
401.14	7.787
401.49	7.130
401.85	7.310
402.21	7.678
402.57	8.645
402.92	8.135
403.28	7.567
403.63	7.812
403.99	7.742
404.35	7.980
404.70	7.432
405.06	8.514
405.42	7.726
405.77	7.373
406.13	7.543
406.49	7.609
406.84	8.242
407.20	7.697
407.55	7.468
407.91	7.346
408.27	6.925
408.62	8.717
408.98	8.385
409.34	7.921
409.69	8.382
410.05	8.147
410.40	7.304
410.76	8.424
411.11	8.147
411.47	8.626
411.83	7.174
412.18	7.620
412.54	8.083
412.89	8.025
413.25	7.434
413.60	7.586
413.96	8.240
414.31	7.645
414.67	7.746
415.03	6.563
415.38	7.530
415.74	7.212
416.09	8.328
416.45	8.476
416.80	8.658
417.16	8.030
417.51	7.435
417.87	7.738
418.22	7.886
418.58	7.622
418.93	7.407
419.29	8.119
419.64	8.524
420.00	8.444
420.35	8.069
420.71	7.313
421.06	8.856
421.42	8.455
421.77	8.497
422.12	8.252
422.48	8.070
422.83	8.624
423.19	7.648
423.54	8.127
423.90	7.957
424.25	8.146
424.61	7.702
424.96	7.865
425.31	8.357
425.67	8.172
426.02	9.305
426.38	8.022
426.73	8.552
427.09	8.068
427.44	8.984
427.79	8.076
428.15	7.829
428.50	8.399
428.85	9.041
429.21	7.034
429.56	8.502
429.92	8.641
430.27	8.129
430.62	8.342
430.98	8.778
431.33	8.598
431.68	8.466
432.04	8.507
432.39	7.621
432.74	8.522
433.10	7.728
433.45	9.112
433.80	8.506
434.16	7.974
434.51	8.098
434.86	7.774
435.22	8.376
435.57	9.152
435.92	7.660
436.28	7.568
436.63	8.256
436.98	8.461
437.34	7.387
437.69	8.146
438.04	8.036
438.39	8.593
438.75	8.284
439.10	8.618
439.45	8.475
439.81	9.483
440.16	8.348
440.51	8.086
440.86	8.477
441.22	8.376
441.57	8.460
441.92	7.517
442.27	8.387
442.63	8.073
442.98	8.275
443.33	8.352
443.68	7.644
444.03	8.048
444.39	8.875
444.74	8.007
445.09	9.086
445.44	9.127
445.79	8.776
446.15	8.763
446.50	8.866
446.85	8.391
447.20	8.521
447.55	8.842
447.91	8.034
448.26	8.576
448.61	8.861
448.96	8.827
449.31	8.509
449.66	8.965
450.02	9.153
450.37	8.813
450.72	8.037
451.07	8.966
451.42	7.735
451.77	8.825
452.12	9.329
452.47	8.974
452.83	7.724
453.18	8.530
453.53	8.323
453.88	8.373
454.23	9.209
454.58	9.191
454.93	9.044
455.28	9.120
455.63	7.985
455.98	8.338
456.34	8.964
456.69	9.137
457.04	8.793
457.39	8.960
457.74	8.498
458.09	9.005
458.44	8.284
458.79	9.555
459.14	8.090
459.49	8.963
459.84	8.794
460.19	8.343
460.54	8.698
460.89	9.178
461.24	8.323
461.59	8.514
461.94	8.976
462.29	8.027
462.64	8.047
462.99	9.256
463.34	9.392
463.69	9.278
464.04	8.163
464.39	9.335
464.74	9.214
465.09	9.113
465.44	9.091
465.79	8.971
466.14	8.609
466.49	8.035
466.84	8.906
467.19	8.726
467.54	8.879
467.89	8.737
468.24	9.281
468.59	8.923
468.94	9.195
469.29	8.592
469.64	8.647
469.99	9.517
470.34	9.171
470.68	9.368
471.03	8.533
471.38	9.318
471.73	9.328
472.08	9.278
472.43	9.367
472.78	9.872
473.13	8.971
473.48	8.154
473.83	8.914
474.17	8.724
474.52	9.061
474.87	8.987
475.22	9.179
475.57	8.924
475.92	9.487
476.27	8.683
476.61	8.947
476.96	9.195
477.31	9.439
477.66	9.435
478.01	8.846
478.36	8.610
478.70	9.345
479.05	9.656
479.40	9.360
479.75	8.767
480.10	9.638
480.45	8.975
480.79	9.009
481.14	9.372
481.49	9.768
481.84	8.530
482.19	9.032
482.53	9.429
482.88	9.540
483.23	9.143
483.58	9.357
483.92	8.317
484.27	9.561
484.62	8.389
484.97	9.415
485.31	8.812
485.66	8.645
486.01	8.910
486.36	8.819
486.70	8.670
487.05	9.141
487.40	9.327
487.75	9.331
488.09	9.165
488.44	9.604
488.79	9.690
489.13	9.503
489.48	9.021
489.83	8.888
490.17	9.033
490.52	10.285
490.87	9.272
491.22	8.902
491.56	10.062
491.91	9.698
492.26	9.188
492.60	9.139
492.95	9.815
493.30	9.254
493.64	8.777
493.99	9.807
494.34	9.778
494.68	9.499
495.03	9.536
495.37	9.732
495.72	9.273
496.07	9.450
496.41	9.359
496.76	9.095
497.11	9.577
497.45	9.679
497.80	9.086
498.14	9.874
498.49	8.674
498.84	9.160
499.18	9.607
499.53	9.503
499.87	9.122
500.22	8.960
500.56	9.880
500.91	9.759
501.26	9.557
501.60	9.412
501.95	9.344
502.29	9.854
502.64	9.788
502.98	9.441
503.33	9.294
503.67	9.640
504.02	8.971
504.36	10.054
504.71	9.604
505.06	9.424
505.40	9.742
505.75	9.664
506.09	9.862
506.44	9.980
506.78	9.751
507.13	9.771
507.47	9.226
507.82	10.099
508.16	10.290
508.51	9.556
508.85	9.850
509.19	9.683
509.54	10.349
509.88	10.968
510.23	9.000
510.57	10.699
510.92	9.537
511.26	9.956
511.61	9.715
511.95	9.372
512.30	9.883
512.64	10.329
512.98	9.751
513.33	10.028
513.67	8.972
514.02	9.578
514.36	10.393
514.70	10.450
515.05	10.006
515.39	9.611
515.74	10.065
516.08	10.206
516.42	9.793
516.77	9.490
517.11	9.230
517.46	9.544
517.80	10.714
518.14	9.614
518.49	9.946
518.83	10.024
519.17	10.060
519.52	9.288
519.86	10.504
520.20	9.339
520.55	10.510
520.89	9.551
521.23	10.385
521.58	9.987
521.92	10.371
522.26	10.995
522.61	10.924
522.95	10.104
523.29	10.476
523.64	10.108
523.98	10.038
524.32	10.838
524.66	9.156
525.01	10.092
525.35	10.467
525.69	9.874
526.04	10.358
526.38	10.389
526.72	10.519
527.06	9.671
527.41	10.324
527.75	9.813
528.09	10.551
528.43	10.312
528.78	10.078
529.12	11.255
529.46	10.749
529.80	9.773
530.15	9.974
530.49	10.512
530.83	10.156
531.17	10.479
531.51	10.384
531.86	10.163
532.20	9.993
532.54	9.655
532.88	10.756
533.22	10.572
533.57	10.464
533.91	10.774
534.25	11.979
534.59	9.717
534.93	10.523
535.27	10.573
535.62	9.934
535.96	11.061
536.30	11.569
536.64	10.390
536.98	10.932
537.32	9.537
537.66	10.296
538.01	10.055
538.35	10.359
538.69	11.304
539.03	10.067
539.37	10.731
539.71	9.550
540.05	10.256
540.39	10.048
540.73	10.126
541.07	10.816
541.42	11.515
541.76	10.014
542.10	11.036
542.44	9.841
542.78	10.271
543.12	11.051
543.46	10.435
543.80	10.455
544.14	10.805
544.48	9.622
544.82	10.424
545.16	9.804
545.50	11.006
545.84	10.940
546.18	10.449
546.52	11.080
546.86	9.894
547.20	10.222
547.54	9.721
547.88	11.066
548.22	9.967
548.56	10.073
548.90	10.014
549.24	10.972
549.58	10.747
549.92	11.225
550.26	11.218
550.60	9.685
550.94	10.821
551.28	10.749
551.62	10.075
551.96	11.640
552.30	10.116
552.64	9.605
552.98	11.506
553.32	11.031
553.66	10.638
554.00	10.295
554.34	10.330
554.68	11.186
555.02	9.880
555.36	9.682
555.69	9.832
556.03	10.150
556.37	10.171
556.71	10.722
557.05	10.923
557.39	10.399
557.73	10.590
558.07	10.399
558.41	10.598
558.75	10.470
559.08	10.184
559.42	10.386
559.76	10.015
560.10	11.145
560.44	11.127
560.78	10.072
561.12	10.371
561.45	10.612
561.79	10.867
562.13	10.549
562.47	9.714
562.81	10.173
563.15	10.127
563.48	10.943
563.82	10.260
564.16	10.494
564.50	11.465
564.84	10.203
565.17	11.325
565.51	11.163
565.85	9.460
566.19	10.795
566.52	9.961
566.86	9.861
567.20	10.141
567.54	9.557
567.88	10.078
568.21	10.266
568.55	10.068
568.89	10.120
569.23	9.762
569.56	10.138
569.90	10.276
570.24	9.170
570.57	10.372
570.91	10.386
571.25	9.395
571.59	9.892
571.92	10.150
572.26	10.276
572.60	10.194
572.93	9.966
573.27	9.596
573.61	9.790
573.95	9.968
574.28	10.106
574.62	10.072
574.96	10.015
575.29	9.754
575.63	9.984
575.97	10.136
576.30	10.022
576.64	10.217
576.98	10.141
577.31	10.215
577.65	9.786
577.98	9.725
578.32	9.767
578.66	9.830
578.99	9.836
579.33	9.945
579.67	10.031
580.00	9.839
580.34	9.549
580.67	10.069
581.01	10.121
581.35	10.123
581.68	9.578
582.02	9.784
582.35	9.886
582.69	9.797
583.02	10.082
583.36	9.706
583.70	10.187
584.03	9.922
584.37	9.617
584.70	10.093
585.04	9.956
585.37	10.061
585.71	10.203
586.04	9.674
586.38	9.550
586.72	9.666
587.05	9.842
587.39	10.318
587.72	10.266
588.06	10.205
588.39	10.327
588.73	10.138
589.06	10.346
589.40	10.045
589.73	9.845
590.07	10.354
590.40	9.883
590.73	10.008
591.07	10.322
591.40	9.870
591.74	10.093
592.07	10.315
592.41	9.953
592.74	10.108
593.08	9.538
593.41	9.923
593.75	9.561
594.08	9.465
594.41	9.835
594.75	10.195
595.08	10.530
595.42	9.735
595.75	10.123
596.09	10.431
596.42	9.436
596.75	9.785
597.09	10.419
597.42	10.408
597.75	10.044
598.09	9.654
598.42	10.380
598.76	9.572
599.09	10.284
599.42	10.159
599.76	10.364
600.09	9.940
600.42	10.245
600.76	9.497
601.09	10.207
601.42	9.722
601.76	10.425
602.09	10.782
602.42	10.318
602.76	10.822
603.09	10.021
603.42	10.436
603.76	10.171
604.09	9.960
604.42	10.130
604.76	9.734
605.09	10.150
605.42	10.166
605.75	9.251
606.09	8.940
606.42	9.933
606.75	9.697
607.09	9.840
607.42	10.201
607.75	9.190
608.08	10.370
608.42	10.028
608.75	9.699
609.08	10.142
609.41	10.432
609.75	9.632
610.08	9.813
610.41	10.010
610.74	9.769
611.07	9.619
611.41	10.440
611.74	10.352
612.07	9.745
612.40	10.108
612.73	9.769
613.07	9.479
613.40	10.352
613.73	11.213
614.06	9.729
614.39	9.227
614.72	10.328
615.06	9.611
615.39	10.265
615.72	9.719
616.05	9.516
616.38	9.622
616.71	9.418
617.05	9.951
617.38	10.228
617.71	9.926
618.04	9.567
618.37	9.716
618.70	10.608
619.03	10.378
619.36	10.107
619.69	9.430
620.03	9.541
620.36	9.395
620.69	8.994
621.02	9.769
621.35	9.730
621.68	10.269
622.01	10.032
622.34	8.882
622.67	9.945
623.00	9.878
623.33	9.499
623.66	9.294
623.99	11.028
624.32	9.611
624.65	10.608
624.99	9.405
625.32	10.007
625.65	10.000
625.98	9.953
626.31	10.122
626.64	9.630
626.97	9.689
627.30	9.837
627.63	9.170
627.96	8.485
628.29	10.884
628.62	10.542
628.95	9.920
629.28	9.261
629.61	10.239
629.94	10.058
630.26	10.246
630.59	9.590
630.92	9.438
631.25	9.887
631.58	10.385
631.91	9.438
632.24	10.209
632.57	9.333
632.90	9.568
633.23	7.674
633.56	11.271
633.89	9.928
634.22	12.721
634.55	9.866
634.88	9.314
635.20	10.250
635.53	10.336
635.86	9.615
636.19	9.801
636.52	10.244
636.85	9.530
637.18	8.283
637.51	10.487
637.83	10.313
638.16	9.600
638.49	7.744
638.82	10.065
639.15	9.973
639.48	10.160
639.81	9.306
640.13	9.437
640.46	11.441
640.79	9.640
641.12	7.840
641.45	8.734
641.77	8.689
642.10	9.380
642.43	9.591
642.76	8.675
643.09	9.585
643.41	9.569
643.74	9.693
644.07	10.194
644.40	9.784
644.73	9.831
645.05	9.250
645.38	7.973
645.71	12.075
646.04	8.249
646.36	10.938
646.69	9.266
647.02	9.836
647.35	7.495
647.67	9.612
648.00	7.609
648.33	10.000
648.66	8.514
648.98	10.248
649.31	8.282
649.64	8.920
649.96	10.111
650.29	7.353
650.62	10.214
650.94	8.793
651.27	9.187
651.60	11.014
651.92	10.215
652.25	10.553
652.58	8.416
652.90	8.754
653.23	6.791
653.56	7.107
653.88	6.997
654.21	7.850
654.54	7.807
654.86	7.642
655.19	8.824
655.52	10.445
655.84	9.509
656.17	11.517
656.49	15.145
656.82	15.098
657.15	11.476
657.47	8.466
657.80	6.456
658.13	6.685
658.45	10.100
658.78	10.424
659.10	10.182
659.43	10.332
659.75	10.220
660.08	9.793
660.41	9.128
660.73	9.504
661.06	7.653
661.38	6.783
661.71	8.811
662.03	9.937
662.36	6.195
662.68	9.677
663.01	11.017
663.33	9.287
663.66	5.543
663.98	10.787
664.31	9.890
664.63	6.081
664.96	10.284
665.28	10.730
665.61	6.263
665.93	8.779
666.26	7.806
666.58	5.567
666.91	9.417
667.23	5.991
667.56	11.954
667.88	6.776
668.21	7.143
668.53	9.885
668.86	9.592
669.18	7.565
669.50	9.908
669.83	8.592
670.15	7.381
670.48	6.667
670.80	10.722
671.13	7.323
671.45	7.306
671.77	5.819
672.10	7.018
672.42	8.397
672.75	6.786
673.07	7.636
673.39	8.209
673.72	8.782
674.04	8.811
674.37	10.569
674.69	5.761
675.01	9.615
675.34	11.379
675.66	9.804
675.98	6.637
676.31	9.276
676.63	9.751
676.95	4.941
677.28	9.404
677.60	9.559
677.92	7.761
678.25	8.677
678.57	10.591
678.89	6.397
679.22	9.110
679.54	9.592
679.86	9.180
680.18	6.154
680.51	7.500
680.83	9.162
681.15	9.430
681.48	6.012
681.80	7.975
682.12	5.208
682.44	7.243
682.77	5.053
683.09	8.259
683.41	7.209
683.73	7.366
684.06	7.965
684.38	7.265
684.70	6.925
685.02	7.231
685.34	8.415
685.67	8.068
685.99	7.295
686.31	10.345
686.63	7.353
686.96	10.019
687.28	6.786
687.60	10.586
687.92	7.588
688.24	9.000
688.56	7.895
688.89	5.791
689.21	8.520
689.53	7.658
689.85	8.315
690.17	9.451
690.49	7.488
690.82	6.205
691.14	7.005
691.46	7.657
691.78	7.253
692.10	7.643
692.42	5.495
692.74	8.913
693.06	7.416
693.39	7.026
693.71	8.444
694.03	8.636
694.35	10.811
694.67	9.000
694.99	7.990
695.31	7.235
695.63	9.512
695.95	7.634
696.27	2.466
696.59	5.914
696.91	6.145
697.23	7.107
697.56	6.475
697.88	9.563
698.20	11.231
698.52	6.542
698.84	9.091
699.16	6.383
699.48	7.160
699.80	9.044
700.12	7.775
700.44	5.070
700.76	7.022
701.08	8.157
701.40	7.784
701.72	6.154
702.04	6.289
702.36	10.671
702.68	7.317
703.00	8.480
703.32	7.521
703.64	5.723
703.96	6.452
704.28	7.831
704.60	6.707
704.91	7.837
705.23	5.380
705.55	2.759
705.87	6.338
706.19	3.297
706.51	3.169
706.83	2.548
707.15	3.963
707.47	8.540
707.79	9.898
708.11	8.226
708.43	7.107
708.74	7.447
709.06	6.417
709.38	8.069
709.70	8.108
710.02	5.919
710.34	6.000
710.66	8.469
710.98	2.786
711.29	8.117
711.61	2.581
711.93	8.065
712.25	3.846
712.57	1.404
712.89	4.396
713.20	7.447
713.52	2.190
713.84	6.774
714.16	2.265
714.48	4.114
714.80	6.390
715.11	9.012
715.43	7.143
715.75	7.453
716.07	13.554
716.39	9.764
716.70	8.633
717.02	2.745
717.34	6.439
717.66	3.879
717.97	2.778
718.29	8.661
718.61	2.575
718.93	3.488
719.24	5.904
719.56	7.116
719.88	7.463
720.20	3.162
720.51	6.641
720.83	6.615
721.15	0.407
721.46	4.962
721.78	1.992
722.10	1.992
722.42	2.823
722.73	3.089
723.05	8.163
723.37	6.723
723.68	5.600
724.00	-0.426
724.32	3.766
724.63	2.881
724.95	0.000
725.27	6.751
725.58	6.173
725.90	4.184
726.22	3.261
726.53	1.569
726.85	5.474
727.16	5.926
727.48	10.345
727.80	4.687
728.11	6.557
728.43	7.813
728.74	1.190
729.06	2.400
729.38	7.510
729.69	6.762
730.01	2.974
730.32	5.535
730.64	2.273
730.96	7.692
731.27	1.672
731.59	5.397
731.90	5.825
732.22	4.808
732.53	1.351
732.85	6.376
733.16	9.901
733.48	6.081
733.80	5.068
734.11	7.770
734.43	6.502
734.74	8.408
735.06	6.628
735.37	8.815
735.69	5.502
736.00	8.581
736.32	2.128
736.63	6.897
736.95	4.795
737.26	3.103
737.58	4.514
737.89	8.591
738.21	3.915
738.52	7.224
738.83	6.122
739.15	2.532
739.46	3.891
739.78	2.465
740.09	6.849
740.41	3.214
740.72	4.255
741.04	2.400
741.35	0.439
741.66	7.111
741.98	6.250
742.29	8.416
742.61	2.927
742.92	11.404
743.23	7.075
743.55	4.955
743.86	2.691
744.18	3.922
744.49	-0.508
744.80	-0.510
745.12	0.467
745.43	9.005
745.74	5.856
746.06	5.607
746.37	0.917
746.68	8.654
747.00	3.349
747.31	6.731
747.62	5.046
747.94	11.354
748.25	0.459
748.56	11.556
748.88	6.103
749.19	9.524
749.50	4.369
749.82	1.408
750.13	0.833
750.44	4.615
750.75	4.428
751.07	7.117
751.38	5.319
751.69	1.544
752.01	6.641
752.32	5.385
752.63	5.224
752.94	7.600
753.26	7.531
753.57	5.417
753.88	4.858
754.19	4.382
754.51	6.767
754.82	8.791
755.13	0.435
755.44	11.789
755.75	-0.400
756.07	5.535
756.38	6.115
756.69	5.802
757.00	6.231
757.31	5.825
757.63	1.543
757.94	5.085
758.25	7.407
758.56	4.620
758.87	5.060
759.18	5.994
759.50	4.714
759.81	7.692
760.12	8.000
760.43	4.167
760.74	4.802
761.05	4.420
761.36	2.865
761.67	6.042
761.99	2.062
762.30	6.204
762.61	3.704
762.92	10.684
763.23	9.836
763.54	1.299
763.85	5.714
764.16	2.846
764.47	5.200
764.78	1.786
765.10	4.590
765.41	3.951
765.72	4.658
766.03	4.620
766.34	4.231
766.65	3.766
766.96	1.408
767.27	6.931
767.58	1.685
767.89	3.086
768.20	2.210
768.51	10.553
768.82	12.981
769.13	3.540
769.44	4.184
769.75	0.427
770.06	10.314
770.37	0.490
770.68	4.369
770.99	3.398
771.30	4.622
771.61	4.898
771.92	4.149
772.23	9.009
772.54	3.867
772.85	6.395
773.16	6.349
773.47	-3.550
773.78	6.322
774.09	1.250
774.39	1.242
774.70	-2.041
775.01	0.000
775.32	0.714
775.63	0.000
775.94	2.256
776.25	-5.600
776.56	5.785
776.87	5.556
777.18	-9.009
777.48	-3.604
777.79	1.575
778.10	-2.752
778.41	-10.526
778.72	-2.521
779.03	-2.113
779.34	2.703
779.65	-1.408
779.95	-5.960
780.26	-7.194
780.57	0.719
780.88	0.000
781.19	-3.361
781.50	4.698
781.80	1.170
782.11	-2.907
782.42	2.516
782.73	2.614
783.04	3.448
783.34	-2.290
783.65	-2.013
783.96	-3.077
784.27	2.143
784.57	-1.418
784.88	-0.962
785.19	13.636
785.50	-4.545
785.81	-10.476
786.11	-3.361
786.42	-4.425
786.73	-9.434
787.04	-8.257
787.34	-9.901
787.65	11.667
787.96	3.306
788.26	2.174
788.57	-6.349
788.88	-0.813
789.19	-6.400
789.49	-3.817
789.80	13.636
790.11	-4.717
790.41	1.980
790.72	4.255
791.03	-3.261
791.33	-8.235
791.64	-11.111
791.95	3.261
792.25	-1.136
792.56	-3.846
792.87	-19.231
793.17	-19.231
793.48	2.381
793.79	-2.500
794.09	3.846
794.40	0.000
794.70	-3.604
795.01	-11.719
795.32	4.348
795.62	-19.565
795.93	-9.434
796.23	-9.091
796.54	-7.317
796.85	-5.952
797.15	-16.667
797.46	-5.797
797.76	-5.263
798.07	5.682
798.37	-2.439
798.68	-14.516
798.99	-16.216
799.29	8.434
799.60	1.282
799.90	-6.154
800.21	-10.606
800.51	-10.667
800.82	4.000
801.12	-39.583
801.43	-33.333
801.73	-5.405
802.04	14.286
802.34	-14.754
802.65	-20.896
802.95	-12.727
803.26	-10.345
803.56	-12.308
803.87	16.981
804.17	-24.194
804.48	4.412
804.78	-34.146
805.09	0.000
805.39	-2.941
805.70	-29.787
806.00	-17.544
806.30	2.564
806.61	-6.579
806.91	-14.865
807.22	-13.158
807.52	-4.545
807.83	-23.729
808.13	-30.303
808.43	1.667
808.74	-53.448
809.04	-3.175
809.35	-20.408
809.65	-3.333
809.95	-24.490
810.26	0.000
810.56	-25.000
810.86	-24.490
811.17	-5.769
811.47	-29.787
811.77	-14.583
812.08	-15.094
812.38	-40.625
812.69	-10.909
812.99	-21.951
813.29	-24.324
813.59	-45.946
813.90	-9.091
814.20	-7.273
814.50	-13.333
814.81	7.273
815.11	-14.035
815.41	9.302
815.72	-27.500
816.02	-37.143
816.32	-45.946
816.62	-10.417
816.93	-17.778
817.23	-33.333
817.53	-33.333
817.84	-18.919
818.14	-4.878
818.44	-4.000
818.74	-18.367
819.04	-7.317
819.35	-27.778
819.65	-6.818
819.95	-138.889
820.25	-36.364
820.56	-52.381
820.86	-41.667
821.16	-40.909
821.46	-50.000
821.76	-5.172
822.07	0.000
822.37	-27.273
822.67	4.878
822.97	8.108
823.27	-48.571
823.57	-55.172
823.88	-67.647
824.18	-22.222
824.48	-8.571
824.78	-71.429
825.08	-17.857
825.38	-37.037
825.69	-16.129
825.99	-4.878
826.29	-29.630
826.59	-43.750
826.89	-38.710
827.19	-65.217
827.49	-44.444
827.79	-86.957
828.09	-48.387
828.39	-14.583
828.70	-56.250
829.00	-31.034
829.30	-18.919
829.60	-75.000
829.90	-59.259
830.20	-53.125
830.50	-36.364
830.80	-188.235
831.10	-90.909
831.40	-67.647
831.70	-11.538
832.00	-24.242
832.30	-23.529
832.60	0.000
832.90	1400.000
833.20	-21.429
833.50	-95.000
833.80	-13.158
834.10	-20.833
834.40	-59.091
834.70	-120.000
835.00	-160.000
835.30	-58.333
835.60	-90.476
835.90	-38.095
836.20	-8.000
836.50	-50.000
836.80	-47.368
837.10	-10.811
837.40	36.667
837.70	-17.391
838.00	20.833
838.30	-52.632
838.60	-100.000
838.90	-220.000
839.19	-100.000
839.49	-61.538
839.79	-47.368
840.09	-316.667
840.39	-150.000
840.69	-54.545
840.99	-38.095
841.29	-70.833
841.59	-123.077
841.88	-133.333
842.18	-121.429
842.48	-3.333
842.78	-285.714
843.08	-128.571
843.38	-337.500
843.68	-156.250
843.97	-28.571
844.27	-233.333
844.57	-118.182
844.87	-100.000
845.17	4.545
845.47	966.667
845.76	-80.000
846.06	-116.667
846.36	-1250.000
846.66	-26.316
846.96	-45.455
847.25	-77.778
847.55	-222.222
847.85	-76.190
848.15	-15.385
848.44	-300.000
848.74	-116.667
849.04	-69.231
849.34	-475.000
849.63	-109.091
849.93	-164.286
850.23	-50.000
850.53	-225.000
850.82	-50.000
851.12	-60.000
851.42	-105.882
851.71	-100.000
852.01	-29.412
852.31	-46.154
852.61	1000.000
852.90	-58.824
853.20	-60.000
853.50	-81.250
853.79	-178.571
854.09	-250.000
854.39	-90.000
854.68	-10.000
854.98	-52.381
855.28	-88.000
855.57	20.833
855.87	-16.667
856.17	-56.000
856.46	-15.625
856.76	-15.000
857.05	-52.000
857.35	-116.667
857.65	-94.118
857.94	-158.333
858.24	-166.667
858.53	-25.000
858.83	-90.909
859.13	-32.000
859.42	-107.143
859.72	-150.000
860.01	-4.167
860.31	-262.500
860.60	-56.250
860.90	-250.000
861.20	-66.667
861.49	-60.000
861.79	-131.250
862.08	450.000
862.38	-191.667
862.67	342.857
862.97	550.000
863.26	-90.909
863.56	-90.909
863.85	-31.579
864.15	-52.941
864.44	-460.000
864.74	-100.000
865.03	-133.333
865.33	-64.286
865.62	135.714
865.92	-63.158
866.21	-83.333
866.51	-181.818
866.80	-133.333
867.10	-87.500
867.39	-31.250
867.69	-113.333
867.98	-130.000
868.27	-41.176
868.57	0.000
868.86	1200.000
869.16	-475.000
869.45	-142.857
869.75	750.000
870.04	-50.000
870.33	-900.000
870.63	-63.158
870.92	-50.000
871.22	-1200.000
871.51	-300.000
871.80	-177.778
872.10	-250.000
>>>>>End Processed Spectral Data<<<<<
