SpectraSuite Data File
++++++++++++++++++++++++++++++++++++
Date: Wed May 13 21:30:37 PDT 2015
User: schluterlab
Dark Spectrum Present: Yes
Reference Spectrum Present: Yes
Number of Sampled Component Spectra: 1
Spectrometers: USB2E3373
Integration Time (usec): 3000 (USB2E3373)
Spectra Averaged: 3 (USB2E3373)
Boxcar Smoothing: 0 (USB2E3373)
Correct for Electrical Dark: No (USB2E3373)
Strobe/Lamp Enabled: No (USB2E3373)
Correct for Detector Non-linearity: No (USB2E3373)
Correct for Stray Light: No (USB2E3373)
Number of Pixels in Processed Spectrum: 2048
>>>>>Begin Processed Spectral Data<<<<<
178.53	0.000
178.91	750.000
179.29	191.667
179.67	-800.000
180.04	-400.000
180.42	140.000
180.80	1400.000
181.18	416.667
181.56	-375.000
181.94	-100.000
182.31	9.091
182.69	92.308
183.07	-200.000
183.45	333.333
183.83	211.111
184.20	171.429
184.58	-266.667
184.96	733.333
185.34	285.714
185.72	0.000
186.09	-100.000
186.47	-260.000
186.85	140.000
187.23	-50.000
187.61	800.000
187.98	900.000
188.36	-87.500
188.74	0.000
189.12	-45.455
189.49	-20.000
189.87	91.667
190.25	400.000
190.63	1800.000
191.00	-200.000
191.38	280.000
191.76	350.000
192.14	183.333
192.51	-47.368
192.89	633.333
193.27	300.000
193.65	-260.000
194.02	118.182
194.40	240.000
194.78	-1200.000
195.15	160.000
195.53	-80.000
195.91	-87.500
196.29	-666.667
196.66	0.000
197.04	150.000
197.42	-60.000
197.79	-20.000
198.17	-87.500
198.55	-266.667
198.92	75.000
199.30	-566.667
199.68	-110.000
200.05	350.000
200.43	116.667
200.81	-1600.000
201.18	-140.000
201.56	-200.000
201.94	600.000
202.31	21.739
202.69	-128.571
203.07	-300.000
203.44	-140.000
203.82	-166.667
204.19	-60.000
204.57	0.000
204.95	-233.333
205.32	0.000
205.70	-50.000
206.08	-150.000
206.45	-283.333
206.83	425.000
207.20	-333.333
207.58	-80.000
207.96	-900.000
208.33	-185.714
208.71	-1500.000
209.08	225.000
209.46	350.000
209.84	0.000
210.21	180.000
210.59	2000.000
210.96	300.000
211.34	1100.000
211.71	-850.000
212.09	-216.667
212.46	-140.000
212.84	-300.000
213.22	25.000
213.59	-1300.000
213.97	-450.000
214.34	-900.000
214.72	-76.923
215.09	187.500
215.47	66.667
215.84	850.000
216.22	-125.000
216.59	50.000
216.97	800.000
217.34	233.333
217.72	0.000
218.09	233.333
218.47	-700.000
218.84	-157.143
219.22	-112.500
219.59	-266.667
219.97	-75.000
220.34	0.000
220.72	-240.000
221.09	0.000
221.47	-150.000
221.84	-800.000
222.22	0.000
222.59	1100.000
222.97	-333.333
223.34	-125.000
223.72	-1600.000
224.09	-450.000
224.46	18.182
224.84	-112.500
225.21	-171.429
225.59	-375.000
225.96	-100.000
226.34	-110.000
226.71	-242.857
227.08	750.000
227.46	-225.000
227.83	-1000.000
228.21	-6.250
228.58	-425.000
228.95	-105.882
229.33	31.250
229.70	-137.500
230.08	-23.077
230.45	-75.000
230.82	-133.333
231.20	128.571
231.57	-550.000
231.95	900.000
232.32	0.000
232.69	-35.294
233.07	-1700.000
233.44	-30.435
233.81	-650.000
234.19	-33.333
234.56	-126.667
234.93	-80.000
235.31	-10.526
235.68	-92.308
236.05	-61.538
236.43	-55.556
236.80	-15.152
237.17	-93.333
237.55	-76.471
237.92	-58.621
238.29	-81.481
238.67	-16.667
239.04	-32.258
239.41	-21.277
239.79	17.021
240.16	-18.605
240.53	-8.929
240.91	0.000
241.28	-21.429
241.65	-17.742
242.02	-10.526
242.40	1.449
242.77	-13.043
243.14	-3.846
243.51	2.128
243.89	-5.769
244.26	7.547
244.63	-0.962
245.00	1.042
245.38	5.042
245.75	-4.098
246.12	-1.504
246.49	-14.634
246.87	-5.882
247.24	2.703
247.61	2.649
247.98	-1.282
248.36	2.367
248.73	-6.742
249.10	5.051
249.47	-1.075
249.84	1.053
250.22	5.473
250.59	0.935
250.96	2.727
251.33	-5.263
251.70	7.531
252.08	0.418
252.45	6.173
252.82	4.563
253.19	1.556
253.56	6.475
253.94	6.050
254.31	2.113
254.68	5.705
255.05	5.281
255.42	-0.350
255.79	1.534
256.16	6.625
256.54	4.762
256.91	1.582
257.28	3.459
257.65	-1.592
258.02	4.985
258.39	3.216
258.76	1.744
259.14	1.420
259.51	0.562
259.88	3.252
260.25	5.000
260.62	4.494
260.99	5.040
261.36	4.404
261.73	4.444
262.10	0.509
262.47	4.691
262.85	2.985
263.22	1.026
263.59	2.338
263.96	4.136
264.33	1.442
264.70	4.884
265.07	5.556
265.44	5.747
265.81	4.805
266.18	5.923
266.55	2.402
266.92	0.212
267.29	2.469
267.66	2.972
268.03	4.733
268.40	2.754
268.77	5.785
269.14	1.633
269.51	7.392
269.88	1.426
270.25	4.661
270.62	2.254
270.99	3.346
271.36	6.151
271.73	3.815
272.10	3.810
272.47	3.647
272.84	3.937
273.21	4.110
273.58	3.279
273.95	4.528
274.32	3.172
274.69	5.829
275.06	4.240
275.43	1.318
275.80	3.014
276.17	4.236
276.54	3.020
276.91	4.530
277.28	2.166
277.65	5.420
278.02	5.357
278.39	3.552
278.76	4.348
279.13	3.774
279.50	2.069
279.87	2.355
280.23	4.685
280.60	2.595
280.97	4.221
281.34	5.205
281.71	4.065
282.08	3.077
282.45	2.951
282.82	4.633
283.19	4.116
283.56	4.219
283.92	4.128
284.29	4.836
284.66	5.107
285.03	2.443
285.40	4.230
285.77	3.904
286.14	4.863
286.51	4.648
286.87	4.615
287.24	3.687
287.61	3.614
287.98	3.382
288.35	2.683
288.72	5.165
289.08	5.128
289.45	3.377
289.82	3.782
290.19	4.208
290.56	2.557
290.93	3.867
291.29	1.778
291.66	5.328
292.03	4.223
292.40	4.172
292.77	3.079
293.13	3.208
293.50	3.791
293.87	4.267
294.24	1.720
294.60	5.332
294.97	4.365
295.34	2.111
295.71	2.234
296.08	3.403
296.44	2.806
296.81	4.141
297.18	4.250
297.55	3.420
297.91	2.981
298.28	2.542
298.65	3.202
299.02	3.297
299.38	3.190
299.75	3.005
300.12	3.256
300.48	4.211
300.85	2.887
301.22	3.020
301.59	4.460
301.95	2.323
302.32	2.567
302.69	3.051
303.05	2.990
303.42	2.273
303.79	4.101
304.15	2.957
304.52	4.516
304.89	3.876
305.25	2.195
305.62	3.145
305.99	3.808
306.35	3.762
306.72	4.680
307.09	4.067
307.45	2.982
307.82	2.526
308.19	2.717
308.55	2.764
308.92	3.733
309.29	3.504
309.65	3.397
310.02	2.883
310.38	3.862
310.75	3.156
311.12	4.276
311.48	4.847
311.85	4.331
312.22	4.062
312.58	3.768
312.95	4.179
313.31	4.224
313.68	3.435
314.05	3.214
314.41	4.515
314.78	4.459
315.14	5.093
315.51	4.186
315.87	5.468
316.24	5.051
316.61	5.114
316.97	4.537
317.34	3.832
317.70	4.282
318.07	4.791
318.43	5.420
318.80	4.538
319.16	5.305
319.53	5.466
319.89	5.510
320.26	6.562
320.62	6.673
320.99	5.039
321.35	5.893
321.72	5.294
322.08	6.642
322.45	6.660
322.81	7.301
323.18	6.351
323.54	6.227
323.91	7.498
324.27	7.831
324.64	8.101
325.00	7.174
325.37	8.362
325.73	7.492
326.10	8.579
326.46	8.528
326.83	9.466
327.19	9.106
327.56	9.347
327.92	10.619
328.29	10.017
328.65	9.378
329.01	9.675
329.38	10.783
329.74	11.073
330.11	10.640
330.47	9.896
330.84	11.372
331.20	11.016
331.56	10.779
331.93	12.145
332.29	11.903
332.66	11.695
333.02	12.858
333.38	11.842
333.75	12.116
334.11	12.153
334.48	12.119
334.84	11.131
335.20	11.835
335.57	11.140
335.93	11.168
336.29	11.208
336.66	10.769
337.02	12.522
337.38	11.749
337.75	12.748
338.11	10.418
338.47	11.301
338.84	11.856
339.20	11.640
339.56	12.543
339.93	12.100
340.29	12.126
340.65	11.976
341.02	11.148
341.38	12.922
341.74	13.277
342.11	11.726
342.47	11.297
342.83	13.480
343.20	12.014
343.56	12.592
343.92	12.348
344.28	12.581
344.65	13.551
345.01	12.349
345.37	13.322
345.73	14.134
346.10	12.761
346.46	11.789
346.82	12.199
347.19	11.392
347.55	12.682
347.91	12.159
348.27	12.697
348.63	13.782
349.00	12.736
349.36	13.187
349.72	13.612
350.08	13.261
350.45	12.373
350.81	13.302
351.17	13.087
351.53	13.511
351.89	12.708
352.26	12.587
352.62	12.868
352.98	12.939
353.34	13.849
353.70	13.006
354.07	12.863
354.43	13.375
354.79	13.141
355.15	13.199
355.51	13.743
355.87	12.666
356.24	11.557
356.60	12.979
356.96	13.661
357.32	14.009
357.68	12.529
358.04	13.421
358.40	12.791
358.77	14.297
359.13	13.152
359.49	13.550
359.85	13.495
360.21	13.570
360.57	15.057
360.93	13.961
361.29	13.175
361.66	13.819
362.02	14.678
362.38	14.032
362.74	13.851
363.10	14.244
363.46	14.481
363.82	13.969
364.18	13.778
364.54	13.421
364.90	13.589
365.26	12.951
365.62	14.276
365.98	14.448
366.35	14.468
366.71	14.622
367.07	14.812
367.43	13.868
367.79	14.385
368.15	14.979
368.51	13.994
368.87	15.283
369.23	14.448
369.59	14.376
369.95	14.804
370.31	14.365
370.67	15.496
371.03	15.887
371.39	14.762
371.75	15.429
372.11	14.744
372.47	14.852
372.83	15.673
373.19	14.604
373.55	14.884
373.91	14.993
374.27	14.315
374.63	15.434
374.99	15.251
375.35	16.644
375.71	16.033
376.07	16.107
376.42	15.775
376.78	16.446
377.14	15.932
377.50	16.297
377.86	15.604
378.22	16.625
378.58	15.826
378.94	16.687
379.30	16.427
379.66	15.598
380.02	16.728
380.38	16.084
380.74	16.916
381.09	16.405
381.45	17.352
381.81	15.712
382.17	17.895
382.53	17.046
382.89	16.526
383.25	17.654
383.61	16.828
383.97	17.437
384.32	16.761
384.68	17.397
385.04	17.227
385.40	17.808
385.76	17.518
386.12	17.560
386.48	18.119
386.83	18.398
387.19	17.582
387.55	18.884
387.91	18.204
388.27	18.866
388.62	17.728
388.98	17.584
389.34	18.358
389.70	17.949
390.06	18.875
390.42	19.137
390.77	18.001
391.13	19.571
391.49	17.710
391.85	18.083
392.20	18.108
392.56	18.921
392.92	18.081
393.28	19.175
393.64	18.532
393.99	19.033
394.35	19.383
394.71	19.615
395.07	18.365
395.42	20.171
395.78	19.755
396.14	19.341
396.50	19.404
396.85	21.287
397.21	19.913
397.57	19.627
397.92	19.820
398.28	19.346
398.64	18.640
399.00	19.866
399.35	20.318
399.71	20.443
400.07	19.578
400.42	19.498
400.78	19.819
401.14	20.049
401.49	20.431
401.85	20.393
402.21	20.681
402.57	19.865
402.92	21.089
403.28	21.388
403.63	20.707
403.99	20.218
404.35	20.698
404.70	20.725
405.06	21.198
405.42	20.791
405.77	20.622
406.13	20.800
406.49	21.390
406.84	20.818
407.20	20.485
407.55	22.078
407.91	20.384
408.27	20.898
408.62	21.915
408.98	20.838
409.34	21.782
409.69	22.092
410.05	20.709
410.40	21.181
410.76	21.661
411.11	20.958
411.47	22.097
411.83	20.898
412.18	21.096
412.54	22.243
412.89	21.066
413.25	21.475
413.60	21.567
413.96	21.348
414.31	21.393
414.67	21.587
415.03	22.463
415.38	21.400
415.74	21.053
416.09	21.481
416.45	22.078
416.80	22.215
417.16	22.874
417.51	22.572
417.87	22.817
418.22	22.624
418.58	22.011
418.93	22.034
419.29	22.178
419.64	22.455
420.00	22.730
420.35	22.475
420.71	21.755
421.06	22.509
421.42	23.175
421.77	22.659
422.12	23.095
422.48	22.246
422.83	23.213
423.19	22.542
423.54	23.086
423.90	22.684
424.25	22.357
424.61	22.921
424.96	22.708
425.31	23.388
425.67	23.633
426.02	23.380
426.38	23.818
426.73	23.580
427.09	23.702
427.44	24.075
427.79	23.337
428.15	22.997
428.50	22.840
428.85	23.739
429.21	24.142
429.56	23.804
429.92	24.050
430.27	23.722
430.62	24.187
430.98	23.321
431.33	24.181
431.68	24.867
432.04	24.620
432.39	23.095
432.74	24.157
433.10	25.044
433.45	24.911
433.80	23.908
434.16	24.904
434.51	23.913
434.86	24.146
435.22	24.731
435.57	23.771
435.92	24.789
436.28	23.904
436.63	24.538
436.98	24.207
437.34	24.786
437.69	24.852
438.04	24.618
438.39	25.342
438.75	24.255
439.10	25.564
439.45	25.000
439.81	25.369
440.16	25.623
440.51	25.089
440.86	24.659
441.22	25.301
441.57	24.566
441.92	25.505
442.27	24.892
442.63	24.812
442.98	24.711
443.33	25.000
443.68	24.829
444.03	25.286
444.39	25.930
444.74	25.953
445.09	24.835
445.44	26.535
445.79	26.020
446.15	25.901
446.50	26.487
446.85	26.724
447.20	26.032
447.55	25.462
447.91	25.674
448.26	26.644
448.61	26.122
448.96	26.993
449.31	26.556
449.66	26.952
450.02	26.606
450.37	25.617
450.72	25.373
451.07	25.141
451.42	26.014
451.77	26.111
452.12	26.144
452.47	25.565
452.83	25.000
453.18	27.116
453.53	25.788
453.88	26.506
454.23	26.885
454.58	26.103
454.93	25.978
455.28	26.140
455.63	25.203
455.98	26.233
456.34	24.793
456.69	26.390
457.04	25.820
457.39	26.458
457.74	25.554
458.09	26.422
458.44	25.264
458.79	25.700
459.14	25.000
459.49	26.829
459.84	26.099
460.19	25.390
460.54	26.217
460.89	27.083
461.24	26.880
461.59	26.449
461.94	26.485
462.29	26.777
462.64	25.923
462.99	26.023
463.34	26.727
463.69	25.773
464.04	25.750
464.39	27.090
464.74	25.184
465.09	26.596
465.44	25.926
465.79	26.740
466.14	26.397
466.49	26.569
466.84	26.479
467.19	26.051
467.54	27.285
467.89	27.593
468.24	26.921
468.59	27.151
468.94	26.501
469.29	27.363
469.64	26.778
469.99	27.931
470.34	26.972
470.68	27.435
471.03	28.279
471.38	26.426
471.73	27.846
472.08	27.698
472.43	28.034
472.78	28.127
473.13	26.121
473.48	26.549
473.83	28.186
474.17	27.148
474.52	27.702
474.87	27.744
475.22	27.959
475.57	27.830
475.92	27.644
476.27	27.681
476.61	27.690
476.96	28.498
477.31	27.184
477.66	28.588
478.01	28.132
478.36	26.812
478.70	27.873
479.05	29.079
479.40	27.665
479.75	27.577
480.10	27.639
480.45	28.691
480.79	28.173
481.14	28.977
481.49	28.416
481.84	27.380
482.19	27.281
482.53	28.095
482.88	28.571
483.23	27.141
483.58	27.836
483.92	27.335
484.27	27.310
484.62	27.164
484.97	28.494
485.31	27.292
485.66	25.986
486.01	25.959
486.36	26.045
486.70	26.674
487.05	26.849
487.40	27.299
487.75	27.792
488.09	27.557
488.44	27.550
488.79	27.290
489.13	28.151
489.48	27.790
489.83	27.468
490.17	27.054
490.52	28.284
490.87	27.585
491.22	27.508
491.56	28.606
491.91	27.412
492.26	28.482
492.60	27.321
492.95	28.037
493.30	28.004
493.64	27.338
493.99	28.164
494.34	28.035
494.68	27.399
495.03	27.075
495.37	28.127
495.72	28.822
496.07	27.910
496.41	26.579
496.76	27.971
497.11	28.216
497.45	28.502
497.80	28.521
498.14	27.960
498.49	27.887
498.84	27.885
499.18	27.576
499.53	28.607
499.87	27.754
500.22	28.372
500.56	28.736
500.91	28.270
501.26	28.374
501.60	29.216
501.95	29.372
502.29	29.612
502.64	29.026
502.98	28.420
503.33	29.002
503.67	28.432
504.02	29.118
504.36	28.678
504.71	28.659
505.06	29.241
505.40	28.969
505.75	29.858
506.09	29.484
506.44	29.486
506.78	29.101
507.13	29.678
507.47	29.852
507.82	29.880
508.16	29.235
508.51	29.132
508.85	30.067
509.19	30.159
509.54	30.402
509.88	29.570
510.23	29.579
510.57	30.508
510.92	30.388
511.26	31.188
511.61	30.571
511.95	29.989
512.30	30.372
512.64	31.328
512.98	30.471
513.33	30.704
513.67	31.232
514.02	31.015
514.36	31.685
514.70	31.524
515.05	31.129
515.39	31.545
515.74	31.498
516.08	31.799
516.42	31.279
516.77	30.931
517.11	32.687
517.46	33.553
517.80	33.111
518.14	31.721
518.49	32.309
518.83	32.100
519.17	31.506
519.52	32.449
519.86	32.058
520.20	32.201
520.55	32.400
520.89	33.586
521.23	33.141
521.58	33.186
521.92	32.935
522.26	33.312
522.61	33.226
522.95	33.161
523.29	32.635
523.64	33.121
523.98	32.846
524.32	32.892
524.66	33.117
525.01	33.552
525.35	34.299
525.69	34.062
526.04	33.094
526.38	33.971
526.72	33.859
527.06	32.560
527.41	33.951
527.75	33.712
528.09	36.079
528.43	34.396
528.78	34.173
529.12	34.929
529.46	34.997
529.80	33.204
530.15	34.041
530.49	34.232
530.83	34.123
531.17	34.589
531.51	32.030
531.86	32.453
532.20	33.770
532.54	34.000
532.88	33.901
533.22	33.199
533.57	33.311
533.91	35.226
534.25	34.245
534.59	33.526
534.93	33.036
535.27	34.331
535.62	34.211
535.96	33.962
536.30	33.910
536.64	33.630
536.98	33.076
537.32	33.594
537.66	34.274
538.01	34.050
538.35	33.356
538.69	33.244
539.03	32.282
539.37	32.663
539.71	33.765
540.05	32.591
540.39	33.379
540.73	33.450
541.07	32.721
541.42	34.209
541.76	33.356
542.10	32.701
542.44	33.125
542.78	33.033
543.12	33.086
543.46	32.757
543.80	32.858
544.14	33.517
544.48	31.918
544.82	33.894
545.16	31.711
545.50	33.288
545.84	33.240
546.18	31.417
546.52	31.969
546.86	32.226
547.20	31.880
547.54	32.666
547.88	32.996
548.22	31.857
548.56	32.889
548.90	30.988
549.24	33.194
549.58	32.028
549.92	33.896
550.26	34.539
550.60	32.057
550.94	31.343
551.28	33.005
551.62	32.556
551.96	32.723
552.30	31.441
552.64	32.486
552.98	31.960
553.32	31.723
553.66	33.382
554.00	31.893
554.34	32.161
554.68	33.110
555.02	31.737
555.36	31.997
555.69	32.119
556.03	31.022
556.37	32.148
556.71	31.465
557.05	32.989
557.39	32.253
557.73	31.467
558.07	31.575
558.41	32.400
558.75	32.256
559.08	31.596
559.42	31.314
559.76	31.728
560.10	31.975
560.44	31.319
560.78	31.942
561.12	31.605
561.45	30.612
561.79	31.155
562.13	31.294
562.47	31.571
562.81	30.519
563.15	30.737
563.48	31.383
563.82	30.780
564.16	31.144
564.50	31.682
564.84	30.405
565.17	30.993
565.51	31.217
565.85	30.913
566.19	30.397
566.52	29.882
566.86	30.025
567.20	29.505
567.54	29.246
567.88	28.555
568.21	28.680
568.55	29.421
568.89	28.764
569.23	29.331
569.56	29.328
569.90	28.067
570.24	27.581
570.57	28.045
570.91	28.495
571.25	27.930
571.59	27.420
571.92	27.633
572.26	27.354
572.60	27.841
572.93	28.085
573.27	27.786
573.61	28.016
573.95	27.975
574.28	27.198
574.62	26.364
574.96	27.288
575.29	26.881
575.63	27.503
575.97	27.310
576.30	27.203
576.64	26.775
576.98	27.018
577.31	27.105
577.65	26.397
577.98	26.319
578.32	26.543
578.66	26.601
578.99	26.737
579.33	27.286
579.67	26.757
580.00	26.584
580.34	26.539
580.67	26.409
581.01	26.446
581.35	26.258
581.68	25.819
582.02	25.910
582.35	26.093
582.69	26.087
583.02	26.260
583.36	26.431
583.70	26.944
584.03	26.881
584.37	26.639
584.70	26.631
585.04	26.550
585.37	26.051
585.71	25.712
586.04	26.241
586.38	25.467
586.72	25.822
587.05	26.622
587.39	25.876
587.72	25.612
588.06	26.183
588.39	26.224
588.73	26.564
589.06	26.156
589.40	26.385
589.73	26.051
590.07	26.467
590.40	26.126
590.73	27.026
591.07	26.578
591.40	26.348
591.74	26.501
592.07	26.426
592.41	26.126
592.74	26.003
593.08	25.265
593.41	25.690
593.75	25.484
594.08	25.699
594.41	26.325
594.75	26.387
595.08	25.504
595.42	24.946
595.75	26.211
596.09	25.674
596.42	25.858
596.75	26.591
597.09	26.661
597.42	26.066
597.75	26.400
598.09	25.774
598.42	26.353
598.76	25.693
599.09	26.170
599.42	25.000
599.76	25.235
600.09	25.640
600.42	25.537
600.76	24.797
601.09	25.122
601.42	25.441
601.76	24.865
602.09	25.578
602.42	25.794
602.76	25.336
603.09	24.641
603.42	25.510
603.76	24.786
604.09	25.336
604.42	25.785
604.76	25.447
605.09	25.872
605.42	25.776
605.75	24.839
606.09	24.586
606.42	25.603
606.75	24.416
607.09	23.980
607.42	24.956
607.75	23.545
608.08	24.977
608.42	24.742
608.75	24.606
609.08	24.400
609.41	25.882
609.75	24.609
610.08	24.951
610.41	24.393
610.74	24.832
611.07	24.800
611.41	25.077
611.74	25.104
612.07	24.805
612.40	25.730
612.73	25.082
613.07	24.002
613.40	25.330
613.73	24.269
614.06	24.820
614.39	24.236
614.72	25.486
615.06	23.833
615.39	24.669
615.72	23.758
616.05	24.662
616.38	24.800
616.71	24.055
617.05	25.184
617.38	24.399
617.71	24.326
618.04	24.132
618.37	24.353
618.70	25.032
619.03	24.399
619.36	25.267
619.69	24.488
620.03	24.382
620.36	24.217
620.69	24.554
621.02	24.769
621.35	23.794
621.68	24.205
622.01	24.434
622.34	24.584
622.67	25.059
623.00	24.924
623.33	24.458
623.66	23.941
623.99	25.131
624.32	24.431
624.65	24.629
624.99	23.218
625.32	23.749
625.65	24.186
625.98	23.855
626.31	24.245
626.64	24.334
626.97	23.789
627.30	24.551
627.63	23.702
627.96	23.290
628.29	25.953
628.62	25.048
628.95	23.848
629.28	24.433
629.61	25.742
629.94	25.242
630.26	25.025
630.59	24.276
630.92	24.197
631.25	24.305
631.58	25.696
631.91	24.178
632.24	22.722
632.57	24.444
632.90	24.621
633.23	24.101
633.56	24.700
633.89	24.761
634.22	25.795
634.55	25.700
634.88	22.794
635.20	25.250
635.53	23.127
635.86	23.974
636.19	25.310
636.52	23.293
636.85	23.402
637.18	24.239
637.51	24.345
637.83	24.804
638.16	23.467
638.49	23.632
638.82	24.575
639.15	23.670
639.48	25.936
639.81	24.444
640.13	25.352
640.46	25.141
640.79	22.878
641.12	24.704
641.45	22.125
641.77	26.068
642.10	26.021
642.43	25.786
642.76	21.136
643.09	25.719
643.41	25.359
643.74	26.171
644.07	24.434
644.40	25.539
644.73	22.881
645.05	23.037
645.38	23.422
645.71	26.531
646.04	22.054
646.36	25.174
646.69	23.427
647.02	24.408
647.35	25.229
647.67	26.433
648.00	22.464
648.33	23.390
648.66	24.207
648.98	21.273
649.31	23.006
649.64	22.848
649.96	22.591
650.29	21.732
650.62	20.923
650.94	23.103
651.27	22.968
651.60	27.797
651.92	25.806
652.25	23.451
652.58	25.083
652.90	22.727
653.23	22.241
653.56	20.992
653.88	22.696
654.21	21.672
654.54	23.256
654.86	21.138
655.19	22.969
655.52	21.986
655.84	18.523
656.17	22.176
656.49	29.201
656.82	29.660
657.15	23.003
657.47	17.042
657.80	12.964
658.13	13.853
658.45	20.538
658.78	20.476
659.10	20.448
659.43	20.959
659.75	20.880
660.08	20.000
660.41	19.980
660.73	20.386
661.06	21.939
661.38	20.736
661.71	24.385
662.03	23.679
662.36	21.239
662.68	21.935
663.01	25.000
663.33	20.950
663.66	19.956
663.98	22.247
664.31	21.758
664.63	19.144
664.96	22.101
665.28	25.322
665.61	22.030
665.93	18.630
666.26	25.105
666.58	18.844
666.91	23.094
667.23	20.046
667.56	21.839
667.88	22.897
668.21	20.536
668.53	21.839
668.86	24.221
669.18	20.331
669.50	23.733
669.83	22.434
670.15	21.429
670.48	22.069
670.80	22.757
671.13	22.654
671.45	23.516
671.77	20.905
672.10	19.688
672.42	20.611
672.75	18.929
673.07	20.000
673.39	21.828
673.72	21.357
674.04	22.746
674.37	20.935
674.69	19.753
675.01	20.085
675.34	20.350
675.66	21.133
675.98	19.027
676.31	23.077
676.63	23.583
676.95	17.176
677.28	21.101
677.60	20.343
677.92	23.503
678.25	20.607
678.57	21.589
678.89	19.190
679.22	19.876
679.54	21.224
679.86	19.336
680.18	20.577
680.51	19.231
680.83	17.739
681.15	21.611
681.48	17.635
681.80	19.018
682.12	20.208
682.44	18.310
682.77	15.368
683.09	18.080
683.41	20.465
683.73	19.420
684.06	18.142
684.38	17.308
684.70	18.941
685.02	21.901
685.34	20.744
685.67	20.075
685.99	19.573
686.31	19.138
686.63	18.750
686.96	20.779
687.28	16.168
687.60	21.361
687.92	14.981
688.24	19.200
688.56	22.368
688.89	17.149
689.21	19.955
689.53	17.793
689.85	18.202
690.17	19.780
690.49	20.773
690.82	17.422
691.14	19.082
691.46	17.401
691.78	17.582
692.10	19.745
692.42	14.066
692.74	17.609
693.06	18.427
693.39	17.564
693.71	19.556
694.03	20.682
694.35	19.369
694.67	23.000
694.99	19.330
695.31	19.638
695.63	20.000
695.95	19.847
696.27	16.438
696.59	15.591
696.91	13.687
697.23	17.005
697.56	17.746
697.88	20.166
698.20	18.575
698.52	15.654
698.84	18.182
699.16	17.494
699.48	17.531
699.80	19.121
700.12	19.303
700.44	19.437
700.76	19.101
701.08	18.127
701.40	18.563
701.72	19.077
702.04	15.723
702.36	19.512
702.68	17.683
703.00	20.468
703.32	15.599
703.64	19.578
703.96	15.836
704.28	19.880
704.60	14.634
704.91	16.614
705.23	16.772
705.55	18.276
705.87	20.775
706.19	20.879
706.51	15.493
706.83	14.331
707.15	17.988
707.47	15.978
707.79	18.782
708.11	16.710
708.43	16.244
708.74	19.149
709.06	16.310
709.38	16.427
709.70	16.216
710.02	15.888
710.34	15.667
710.66	12.704
710.98	17.028
711.29	16.558
711.61	18.065
711.93	18.065
712.25	17.483
712.57	12.632
712.89	17.216
713.20	20.567
713.52	12.774
713.84	17.742
714.16	15.534
714.48	15.506
714.80	14.696
715.11	17.151
715.43	12.422
715.75	14.907
716.07	16.265
716.39	17.845
716.70	17.626
717.02	13.333
717.34	17.803
717.66	11.638
717.97	13.492
718.29	17.323
718.61	15.880
718.93	14.729
719.24	17.343
719.56	15.730
719.88	12.687
720.20	16.206
720.51	17.188
720.83	15.953
721.15	5.285
721.46	18.321
721.78	17.530
722.10	19.124
722.42	13.306
722.73	14.286
723.05	13.878
723.37	16.807
723.68	12.400
724.00	12.340
724.32	15.900
724.63	14.815
724.95	11.538
725.27	17.722
725.58	17.695
725.90	15.481
726.22	12.319
726.53	10.588
726.85	18.248
727.16	16.296
727.48	18.008
727.80	16.406
728.11	15.984
728.43	15.625
728.74	12.302
729.06	9.600
729.38	13.043
729.69	18.861
730.01	14.870
730.32	15.867
730.64	10.985
730.96	18.881
731.27	14.381
731.59	13.016
731.90	13.592
732.22	9.936
732.53	14.865
732.85	12.081
733.16	15.842
733.48	9.122
733.80	12.838
734.11	12.838
734.43	13.313
734.74	12.613
735.06	10.663
735.37	14.894
735.69	11.650
736.00	13.531
736.32	15.957
736.63	13.448
736.95	13.014
737.26	13.448
737.58	12.847
737.89	13.746
738.21	11.032
738.52	12.167
738.83	16.327
739.15	13.924
739.46	8.949
739.78	12.676
740.09	12.329
740.41	9.643
740.72	12.411
741.04	11.200
741.35	11.404
741.66	12.889
741.98	12.981
742.29	14.356
742.61	11.707
742.92	15.789
743.23	12.264
743.55	13.964
743.86	9.417
744.18	16.176
744.49	11.168
744.80	12.755
745.12	16.355
745.43	13.270
745.74	13.063
746.06	12.617
746.37	10.092
746.68	12.981
747.00	19.139
747.31	12.981
747.62	13.761
747.94	12.664
748.25	12.385
748.56	21.778
748.88	16.432
749.19	13.333
749.50	7.767
749.82	9.859
750.13	7.917
750.44	15.000
750.75	12.915
751.07	12.100
751.38	13.121
751.69	11.969
752.01	8.984
752.32	8.077
752.63	12.313
752.94	11.200
753.26	8.787
753.57	12.917
753.88	12.146
754.19	8.765
754.51	10.526
754.82	7.692
755.13	6.957
755.44	11.382
755.75	7.600
756.07	9.225
756.38	9.353
756.69	13.993
757.00	10.903
757.31	7.443
757.63	8.951
757.94	11.582
758.25	13.228
758.56	10.054
758.87	12.798
759.18	11.672
759.50	9.091
759.81	11.037
760.12	11.385
760.43	9.226
760.74	11.017
761.05	12.983
761.36	9.456
761.67	8.761
761.99	7.216
762.30	10.584
762.61	10.700
762.92	10.684
763.23	10.246
763.54	12.554
763.85	7.755
764.16	10.569
764.47	14.000
764.78	12.857
765.10	8.197
765.41	9.726
765.72	13.043
766.03	6.931
766.34	11.923
766.65	10.460
766.96	6.103
767.27	11.881
767.58	5.056
767.89	12.346
768.20	6.077
768.51	12.563
768.82	9.135
769.13	15.929
769.44	12.971
769.75	7.692
770.06	8.969
770.37	3.922
770.68	6.311
770.99	9.223
771.30	17.227
771.61	10.612
771.92	12.863
772.23	11.261
772.54	9.945
772.85	7.558
773.16	7.407
773.47	7.692
773.78	12.069
774.09	10.000
774.39	6.211
774.70	12.245
775.01	4.828
775.32	9.286
775.63	6.015
775.94	3.008
776.25	-5.600
776.56	11.570
776.87	13.492
777.18	3.604
777.48	2.703
777.79	11.811
778.10	5.505
778.41	7.018
778.72	10.084
779.03	-3.521
779.34	12.162
779.65	9.859
779.95	5.960
780.26	-0.719
780.57	3.597
780.88	-3.521
781.19	0.840
781.50	10.067
781.80	8.772
782.11	5.814
782.42	11.950
782.73	14.379
783.04	1.379
783.34	8.397
783.65	3.356
783.96	5.385
784.27	8.571
784.57	8.511
784.88	-8.654
785.19	17.273
785.50	2.727
785.81	-0.952
786.11	9.244
786.42	7.080
786.73	0.943
787.04	2.752
787.34	-1.980
787.65	12.500
787.96	1.653
788.26	3.623
788.57	-1.587
788.88	5.691
789.19	8.000
789.49	3.817
789.80	12.879
790.11	-1.887
790.41	4.950
790.72	4.255
791.03	2.174
791.33	-8.235
791.64	2.469
791.95	2.174
792.25	5.682
792.56	16.667
792.87	1.282
793.17	-11.538
793.48	2.381
793.79	-1.250
794.09	19.231
794.40	16.667
794.70	5.405
795.01	1.562
795.32	15.652
795.62	-4.348
795.93	6.604
796.23	2.020
796.54	-6.098
796.85	8.333
797.15	9.091
797.46	4.348
797.76	-1.316
798.07	2.273
798.37	9.756
798.68	-3.226
798.99	-4.054
799.29	-1.205
799.60	21.795
799.90	-4.615
800.21	6.061
800.51	-12.000
800.82	1.333
801.12	-31.250
801.43	-16.667
801.73	-5.405
802.04	4.286
802.34	-8.197
802.65	-1.493
802.95	-7.273
803.26	-1.724
803.56	-4.615
803.87	-20.755
804.17	-4.839
804.48	-7.353
804.78	-24.390
805.09	0.000
805.39	4.412
805.70	-23.404
806.00	1.754
806.30	14.103
806.61	1.316
806.91	4.054
807.22	6.579
807.52	5.682
807.83	-13.559
808.13	-15.152
808.43	-3.333
808.74	-18.966
809.04	0.000
809.35	-12.245
809.65	-5.000
809.95	-16.327
810.26	5.634
810.56	-22.917
810.86	-16.327
811.17	-3.846
811.47	-17.021
811.77	8.333
812.08	18.868
812.38	-50.000
812.69	-14.545
812.99	-19.512
813.29	-8.108
813.59	-37.838
813.90	7.273
814.20	10.909
814.50	5.000
814.81	-3.636
815.11	12.281
815.41	0.000
815.72	-20.000
816.02	-25.714
816.32	-27.027
816.62	-10.417
816.93	-2.222
817.23	-13.333
817.53	-44.444
817.84	-27.027
818.14	-19.512
818.44	-12.000
818.74	-14.286
819.04	2.439
819.35	-16.667
819.65	-13.636
819.95	-111.111
820.25	-69.697
820.56	7.143
820.86	-22.222
821.16	-18.182
821.46	-23.913
821.76	-1.724
822.07	-2.174
822.37	-6.061
822.67	4.878
822.97	5.405
823.27	-40.000
823.57	6.897
823.88	-29.412
824.18	-2.778
824.48	0.000
824.78	4.762
825.08	-21.429
825.38	-33.333
825.69	-3.226
825.99	-2.439
826.29	-29.630
826.59	-34.375
826.89	9.677
827.19	-65.217
827.49	-11.111
827.79	-69.565
828.09	-41.935
828.39	-22.917
828.70	-46.875
829.00	-10.345
829.30	8.108
829.60	-100.000
829.90	-11.111
830.20	-18.750
830.50	-31.818
830.80	-105.882
831.10	-18.182
831.40	-17.647
831.70	-26.923
832.00	6.061
832.30	17.647
832.60	16.216
832.90	1500.000
833.20	-28.571
833.50	-90.000
833.80	-42.105
834.10	-87.500
834.40	-86.364
834.70	-126.667
835.00	-160.000
835.30	-75.000
835.60	-38.095
835.90	0.000
836.20	-56.000
836.50	-20.833
836.80	-63.158
837.10	-5.405
837.40	-3.333
837.70	-34.783
838.00	20.833
838.30	-26.316
838.60	-240.000
838.90	-180.000
839.19	-133.333
839.49	-84.615
839.79	-36.842
840.09	-200.000
840.39	-50.000
840.69	-18.182
840.99	-14.286
841.29	-25.000
841.59	-123.077
841.88	-106.667
842.18	-78.571
842.48	-40.000
842.78	-271.429
843.08	-64.286
843.38	-137.500
843.68	-56.250
843.97	28.571
844.27	-177.778
844.57	-27.273
844.87	-6.667
845.17	-22.727
845.47	800.000
845.76	-40.000
846.06	-141.667
846.36	-1300.000
846.66	-42.105
846.96	-72.727
847.25	-83.333
847.55	-255.556
847.85	-66.667
848.15	-130.769
848.44	-266.667
848.74	-83.333
849.04	-38.462
849.34	-300.000
849.63	-127.273
849.93	-135.714
850.23	20.000
850.53	-187.500
850.82	-33.333
851.12	-86.667
851.42	-41.176
851.71	-162.500
852.01	-29.412
852.31	-30.769
852.61	550.000
852.90	-47.059
853.20	-33.333
853.50	-75.000
853.79	-164.286
854.09	-250.000
854.39	-75.000
854.68	-20.000
854.98	-61.905
855.28	-24.000
855.57	-33.333
855.87	-29.167
856.17	-40.000
856.46	6.250
856.76	5.000
857.05	36.000
857.35	-33.333
857.65	-41.176
857.94	-150.000
858.24	-100.000
858.53	-50.000
858.83	-154.545
859.13	-8.000
859.42	-57.143
859.72	-187.500
860.01	0.000
860.31	-225.000
860.60	-87.500
860.90	-283.333
861.20	-283.333
861.49	-93.333
861.79	-43.750
862.08	300.000
862.38	-125.000
862.67	500.000
862.97	475.000
863.26	-163.636
863.56	-100.000
863.85	-26.316
864.15	-52.941
864.44	-260.000
864.74	-60.000
865.03	-155.556
865.33	-42.857
865.62	164.286
865.92	-10.526
866.21	-22.222
866.51	-63.636
866.80	-166.667
867.10	-112.500
867.39	-6.250
867.69	-40.000
867.98	-170.000
868.27	-17.647
868.57	0.000
868.86	1250.000
869.16	-350.000
869.45	-400.000
869.75	600.000
870.04	-70.000
870.33	-800.000
870.63	-57.895
870.92	-66.667
871.22	-600.000
871.51	-157.143
871.80	-133.333
872.10	-425.000
>>>>>End Processed Spectral Data<<<<<
