SpectraSuite Data File
++++++++++++++++++++++++++++++++++++
Date: Wed May 13 21:30:23 PDT 2015
User: schluterlab
Dark Spectrum Present: Yes
Reference Spectrum Present: Yes
Number of Sampled Component Spectra: 1
Spectrometers: USB2E3373
Integration Time (usec): 3000 (USB2E3373)
Spectra Averaged: 3 (USB2E3373)
Boxcar Smoothing: 0 (USB2E3373)
Correct for Electrical Dark: No (USB2E3373)
Strobe/Lamp Enabled: No (USB2E3373)
Correct for Detector Non-linearity: No (USB2E3373)
Correct for Stray Light: No (USB2E3373)
Number of Pixels in Processed Spectrum: 2048
>>>>>Begin Processed Spectral Data<<<<<
178.53	0.000
178.91	500.000
179.29	225.000
179.67	-800.000
180.04	-233.333
180.42	380.000
180.80	1400.000
181.18	200.000
181.56	-175.000
181.94	-350.000
182.31	-54.545
182.69	146.154
183.07	-200.000
183.45	283.333
183.83	200.000
184.20	228.571
184.58	-333.333
184.96	233.333
185.34	128.571
185.72	0.000
186.09	-700.000
186.47	-400.000
186.85	140.000
187.23	-150.000
187.61	700.000
187.98	2000.000
188.36	-175.000
188.74	0.000
189.12	27.273
189.49	50.000
189.87	108.333
190.25	440.000
190.63	500.000
191.00	-240.000
191.38	360.000
191.76	400.000
192.14	200.000
192.51	5.263
192.89	600.000
193.27	325.000
193.65	-360.000
194.02	254.545
194.40	110.000
194.78	-700.000
195.15	220.000
195.53	-140.000
195.91	-212.500
196.29	-266.667
196.66	0.000
197.04	600.000
197.42	0.000
197.79	0.000
198.17	-100.000
198.55	-266.667
198.92	200.000
199.30	-233.333
199.68	-70.000
200.05	800.000
200.43	283.333
200.81	-1800.000
201.18	-320.000
201.56	-250.000
201.94	750.000
202.31	8.696
202.69	-85.714
203.07	-700.000
203.44	-280.000
203.82	-400.000
204.19	-60.000
204.57	0.000
204.95	-266.667
205.32	0.000
205.70	-400.000
206.08	-100.000
206.45	-133.333
206.83	525.000
207.20	-500.000
207.58	0.000
207.96	-1500.000
208.33	-257.143
208.71	-2200.000
209.08	337.500
209.46	375.000
209.84	0.000
210.21	100.000
210.59	1600.000
210.96	140.000
211.34	1000.000
211.71	-700.000
212.09	-233.333
212.46	-100.000
212.84	-466.667
213.22	-25.000
213.59	-1100.000
213.97	-950.000
214.34	-550.000
214.72	-7.692
215.09	125.000
215.47	233.333
215.84	900.000
216.22	-75.000
216.59	-300.000
216.97	833.333
217.34	211.111
217.72	0.000
218.09	233.333
218.47	-1300.000
218.84	-142.857
219.22	-75.000
219.59	-566.667
219.97	-100.000
220.34	-62.500
220.72	-80.000
221.09	0.000
221.47	-183.333
221.84	-1100.000
222.22	0.000
222.59	2100.000
222.97	-533.333
223.34	-66.667
223.72	-1800.000
224.09	-100.000
224.46	9.091
224.84	-162.500
225.21	-271.429
225.59	-325.000
225.96	-233.333
226.34	-100.000
226.71	-242.857
227.08	1100.000
227.46	-125.000
227.83	-500.000
228.21	-43.750
228.58	-525.000
228.95	-35.294
229.33	-25.000
229.70	-125.000
230.08	-61.538
230.45	-100.000
230.82	-141.667
231.20	128.571
231.57	-450.000
231.95	1600.000
232.32	0.000
232.69	-29.412
233.07	-1800.000
233.44	-43.478
233.81	-1000.000
234.19	-37.500
234.56	-140.000
234.93	-60.000
235.31	-5.263
235.68	-161.538
236.05	-38.462
236.43	-5.556
236.80	-15.152
237.17	-100.000
237.55	-82.353
237.92	-58.621
238.29	-37.037
238.67	-27.778
239.04	-45.161
239.41	-25.532
239.79	10.638
240.16	-4.651
240.53	-17.857
240.91	-14.286
241.28	0.000
241.65	11.290
242.02	-6.579
242.40	8.696
242.77	-11.594
243.14	-3.846
243.51	-1.064
243.89	0.962
244.26	9.434
244.63	-7.692
245.00	4.167
245.38	6.723
245.75	-8.197
246.12	3.759
246.49	-6.504
246.87	-8.403
247.24	7.432
247.61	5.960
247.98	0.641
248.36	2.959
248.73	5.618
249.10	9.091
249.47	3.226
249.84	7.368
250.22	6.468
250.59	4.206
250.96	7.727
251.33	-2.392
251.70	10.460
252.08	4.603
252.45	7.407
252.82	9.886
253.19	3.502
253.56	5.396
253.94	7.473
254.31	7.042
254.68	6.711
255.05	5.941
255.42	6.643
255.79	7.669
256.16	7.571
256.54	5.397
256.91	6.329
257.28	10.377
257.65	6.688
258.02	8.504
258.39	8.772
258.76	4.360
259.14	11.080
259.51	5.618
259.88	5.962
260.25	6.667
260.62	5.056
260.99	8.753
261.36	8.290
261.73	6.667
262.10	6.361
262.47	6.420
262.85	5.473
263.22	8.462
263.59	8.312
263.96	7.543
264.33	8.654
264.70	8.372
265.07	6.019
265.44	9.655
265.81	6.178
266.18	6.150
266.55	8.079
266.92	8.898
267.29	7.613
267.66	10.191
268.03	9.259
268.40	7.415
268.77	10.950
269.14	8.367
269.51	11.704
269.88	8.350
270.25	8.686
270.62	5.738
270.99	8.858
271.36	8.532
271.73	10.843
272.10	8.381
272.47	7.486
272.84	10.236
273.21	8.219
273.58	8.197
273.95	8.302
274.32	11.007
274.69	10.565
275.06	10.601
275.43	9.605
275.80	10.106
276.17	8.840
276.54	7.815
276.91	9.582
277.28	8.303
277.65	8.741
278.02	8.571
278.39	8.348
278.76	9.030
279.13	9.262
279.50	9.483
279.87	6.884
280.23	9.189
280.60	7.093
280.97	8.442
281.34	8.360
281.71	7.480
282.08	6.838
282.45	8.197
282.82	7.188
283.19	10.518
283.56	8.281
283.92	10.092
284.29	8.112
284.66	7.743
285.03	6.515
285.40	8.308
285.77	8.709
286.14	9.878
286.51	9.445
286.87	8.769
287.24	8.555
287.61	8.283
287.98	7.206
288.35	7.899
288.72	8.752
289.08	9.402
289.45	8.223
289.82	7.262
290.19	8.415
290.56	7.386
290.93	8.287
291.29	7.661
291.66	8.743
292.03	8.719
292.40	7.806
292.77	7.363
293.13	8.229
293.50	7.451
293.87	8.533
294.24	6.746
294.60	8.453
294.97	7.540
295.34	5.541
295.71	4.074
296.08	8.639
296.44	6.633
296.81	7.308
297.18	8.000
297.55	7.193
297.91	6.957
298.28	6.901
298.65	7.266
299.02	8.181
299.38	6.258
299.75	7.452
300.12	6.395
300.48	7.135
300.85	6.697
301.22	6.039
301.59	5.164
301.95	6.039
302.32	6.301
302.69	4.746
303.05	7.198
303.42	6.023
303.79	7.361
304.15	6.681
304.52	7.849
304.89	4.983
305.25	6.147
305.62	8.026
305.99	6.420
306.35	7.315
306.72	7.325
307.09	6.257
307.45	5.538
307.82	5.263
308.19	5.329
308.55	6.141
308.92	7.073
309.29	6.206
309.65	6.494
310.02	6.362
310.38	5.488
310.75	5.621
311.12	6.608
311.48	6.034
311.85	5.610
312.22	8.027
312.58	5.314
312.95	5.871
313.31	6.795
313.68	5.821
314.05	5.766
314.41	6.244
314.78	6.262
315.14	7.315
315.51	7.231
315.87	6.117
316.24	6.703
316.61	6.119
316.97	6.759
317.34	6.150
317.70	7.493
318.07	7.276
318.43	6.865
318.80	6.195
319.16	5.747
319.53	6.272
319.89	5.962
320.26	7.671
320.62	6.024
320.99	5.329
321.35	5.239
321.72	5.582
322.08	6.273
322.45	6.753
322.81	7.116
323.18	6.261
323.54	7.310
323.91	6.775
324.27	6.031
324.64	5.662
325.00	5.949
325.37	7.935
325.73	6.229
326.10	6.140
326.46	6.355
326.83	6.877
327.19	7.154
327.56	6.688
327.92	6.195
328.29	7.179
328.65	6.223
329.01	5.805
329.38	8.522
329.74	7.210
330.11	6.673
330.47	6.163
330.84	6.318
331.20	7.088
331.56	6.431
331.93	5.599
332.29	7.472
332.66	6.441
333.02	7.211
333.38	6.404
333.75	6.741
334.11	7.899
334.48	6.713
334.84	6.360
335.20	8.233
335.57	5.918
335.93	6.357
336.29	6.042
336.66	6.154
337.02	7.130
337.38	7.224
337.75	6.718
338.11	6.319
338.47	5.651
338.84	6.529
339.20	6.261
339.56	6.741
339.93	6.655
340.29	7.857
340.65	7.357
341.02	6.739
341.38	7.432
341.74	6.723
342.11	7.102
342.47	6.360
342.83	6.618
343.20	7.530
343.56	6.950
343.92	6.255
344.28	7.062
344.65	6.041
345.01	6.376
345.37	5.757
345.73	7.761
346.10	7.063
346.46	6.098
346.82	7.063
347.19	7.120
347.55	6.866
347.91	6.313
348.27	7.098
348.63	6.651
349.00	6.682
349.36	5.808
349.72	7.115
350.08	6.552
350.45	6.891
350.81	6.964
351.17	8.006
351.53	7.620
351.89	5.798
352.26	5.560
352.62	6.589
352.98	5.671
353.34	6.602
353.70	7.165
354.07	6.353
354.43	6.998
354.79	6.651
355.15	6.366
355.51	5.467
355.87	7.349
356.24	6.742
356.60	6.802
356.96	7.061
357.32	7.430
357.68	7.181
358.04	6.517
358.40	6.512
358.77	6.804
359.13	7.237
359.49	6.207
359.85	6.975
360.21	7.633
360.57	5.323
360.93	5.387
361.29	6.514
361.66	7.137
362.02	6.227
362.38	6.942
362.74	6.672
363.10	6.580
363.46	6.916
363.82	6.726
364.18	6.236
364.54	6.273
364.90	5.784
365.26	6.511
365.62	6.889
365.98	6.050
366.35	6.738
366.71	6.277
367.07	6.662
367.43	6.063
367.79	6.393
368.15	6.681
368.51	5.556
368.87	7.258
369.23	6.335
369.59	7.329
369.95	5.733
370.31	5.649
370.67	6.734
371.03	6.088
371.39	7.026
371.75	7.143
372.11	6.624
372.47	6.921
372.83	6.935
373.19	6.403
373.55	6.792
373.91	6.931
374.27	5.809
374.63	5.974
374.99	5.153
375.35	6.781
375.71	5.774
376.07	5.826
376.42	6.016
376.78	7.332
377.14	6.576
377.50	6.910
377.86	6.707
378.22	6.321
378.58	6.368
378.94	6.750
379.30	6.808
379.66	6.473
380.02	5.576
380.38	5.843
380.74	6.814
381.09	6.574
381.45	6.771
381.81	6.346
382.17	5.860
382.53	7.015
382.89	6.815
383.25	6.296
383.61	6.538
383.97	5.750
384.32	6.364
384.68	6.416
385.04	5.925
385.40	6.912
385.76	7.482
386.12	6.585
386.48	5.643
386.83	6.821
387.19	5.984
387.55	6.560
387.91	6.458
388.27	6.227
388.62	5.930
388.98	6.133
389.34	6.454
389.70	6.166
390.06	6.562
390.42	7.410
390.77	6.278
391.13	6.755
391.49	6.705
391.85	6.581
392.20	5.952
392.56	6.730
392.92	6.261
393.28	6.566
393.64	6.422
393.99	6.242
394.35	6.975
394.71	6.154
395.07	5.157
395.42	7.191
395.78	5.727
396.14	6.151
396.50	6.595
396.85	6.246
397.21	6.242
397.57	6.087
397.92	5.868
398.28	6.768
398.64	5.829
399.00	6.473
399.35	7.378
399.71	6.523
400.07	6.747
400.42	5.580
400.78	6.526
401.14	6.438
401.49	5.992
401.85	6.265
402.21	5.573
402.57	6.990
402.92	7.447
403.28	6.504
403.63	6.758
403.99	6.526
404.35	6.047
404.70	5.801
405.06	6.988
405.42	5.967
405.77	6.048
406.13	6.114
406.49	5.932
406.84	6.044
407.20	6.394
407.55	6.104
407.91	6.089
408.27	6.238
408.62	7.796
408.98	5.980
409.34	5.507
409.69	7.342
410.05	6.343
410.40	6.452
410.76	6.378
411.11	6.716
411.47	7.100
411.83	6.051
412.18	5.919
412.54	7.268
412.89	5.580
413.25	6.195
413.60	5.893
413.96	6.554
414.31	6.597
414.67	6.413
415.03	6.969
415.38	5.746
415.74	6.563
416.09	6.411
416.45	6.904
416.80	6.577
417.16	6.410
417.51	6.363
417.87	7.143
418.22	5.947
418.58	5.585
418.93	5.775
419.29	6.601
419.64	6.425
420.00	6.730
420.35	6.276
420.71	6.399
421.06	6.888
421.42	6.934
421.77	5.954
422.12	6.361
422.48	5.998
422.83	6.379
423.19	6.728
423.54	7.244
423.90	6.354
424.25	6.875
424.61	6.654
424.96	6.032
425.31	6.113
425.67	6.643
426.02	7.420
426.38	6.095
426.73	5.742
427.09	6.379
427.44	6.870
427.79	6.473
428.15	6.789
428.50	6.465
428.85	7.196
429.21	6.415
429.56	7.173
429.92	6.663
430.27	6.595
430.62	7.188
430.98	7.668
431.33	6.556
431.68	7.188
432.04	6.873
432.39	5.774
432.74	6.744
433.10	6.159
433.45	6.805
433.80	6.322
434.16	6.062
434.51	6.576
434.86	6.832
435.22	6.452
435.57	6.265
435.92	6.393
436.28	6.306
436.63	6.236
436.98	6.580
437.34	6.716
437.69	6.257
438.04	6.508
438.39	6.227
438.75	6.734
439.10	7.519
439.45	7.082
439.81	7.328
440.16	6.667
440.51	6.897
440.86	6.817
441.22	6.540
441.57	7.267
441.92	6.947
442.27	7.035
442.63	6.405
442.98	6.192
443.33	6.603
443.68	6.537
444.03	7.004
444.39	6.991
444.74	6.681
445.09	7.269
445.44	7.324
445.79	6.763
446.15	7.321
446.50	6.993
446.85	7.857
447.20	7.580
447.55	8.114
447.91	6.910
448.26	7.490
448.61	7.192
448.96	7.005
449.31	6.910
449.66	7.519
450.02	7.334
450.37	6.757
450.72	6.774
451.07	6.959
451.42	6.425
451.77	6.999
452.12	6.774
452.47	7.876
452.83	7.842
453.18	6.556
453.53	6.936
453.88	7.169
454.23	7.602
454.58	7.659
454.93	7.569
455.28	7.258
455.63	6.363
455.98	6.695
456.34	7.120
456.69	7.987
457.04	7.307
457.39	7.156
457.74	7.181
458.09	6.991
458.44	6.522
458.79	7.633
459.14	7.135
459.49	7.317
459.84	7.215
460.19	6.963
460.54	7.786
460.89	7.545
461.24	6.905
461.59	7.246
461.94	7.585
462.29	6.740
462.64	7.520
462.99	8.115
463.34	7.044
463.69	7.410
464.04	6.543
464.39	7.261
464.74	7.678
465.09	7.440
465.44	8.081
465.79	7.936
466.14	6.899
466.49	6.628
466.84	8.010
467.19	6.752
467.54	7.777
467.89	7.165
468.24	7.498
468.59	6.692
468.94	6.960
469.29	7.733
469.64	7.113
469.99	8.759
470.34	7.552
470.68	7.212
471.03	7.334
471.38	8.275
471.73	7.888
472.08	7.491
472.43	8.179
472.78	7.843
473.13	7.058
473.48	7.697
473.83	6.968
474.17	7.096
474.52	6.796
474.87	7.419
475.22	7.307
475.57	7.418
475.92	7.415
476.27	7.459
476.61	7.135
476.96	7.253
477.31	7.659
477.66	7.740
478.01	6.868
478.36	7.193
478.70	7.358
479.05	7.270
479.40	7.384
479.75	7.173
480.10	6.986
480.45	7.602
480.79	6.919
481.14	7.599
481.49	7.548
481.84	7.163
482.19	7.272
482.53	7.571
482.88	6.951
483.23	7.411
483.58	7.372
483.92	7.004
484.27	7.594
484.62	6.880
484.97	7.715
485.31	6.778
485.66	7.288
486.01	7.105
486.36	7.141
486.70	7.120
487.05	7.648
487.40	7.278
487.75	7.867
488.09	7.757
488.44	7.921
488.79	8.213
489.13	8.111
489.48	8.038
489.83	7.235
490.17	7.127
490.52	8.275
490.87	7.557
491.22	7.913
491.56	8.241
491.91	7.441
492.26	7.592
492.60	7.311
492.95	8.017
493.30	7.994
493.64	7.050
493.99	7.343
494.34	7.659
494.68	7.255
495.03	6.917
495.37	6.910
495.72	7.719
496.07	7.063
496.41	6.972
496.76	7.678
497.11	7.934
497.45	7.247
497.80	7.723
498.14	8.262
498.49	7.363
498.84	7.743
499.18	7.865
499.53	6.844
499.87	7.181
500.22	7.715
500.56	7.874
500.91	7.696
501.26	7.882
501.60	6.863
501.95	7.331
502.29	7.961
502.64	7.859
502.98	8.044
503.33	7.543
503.67	7.498
504.02	7.794
504.36	7.826
504.71	7.368
505.06	8.558
505.40	7.268
505.75	7.782
506.09	7.971
506.44	7.762
506.78	7.517
507.13	7.640
507.47	8.006
507.82	7.954
508.16	7.599
508.51	7.541
508.85	7.517
509.19	7.196
509.54	8.525
509.88	7.634
510.23	7.684
510.57	8.104
510.92	7.974
511.26	8.086
511.61	7.409
511.95	7.663
512.30	7.329
512.64	8.343
512.98	7.368
513.33	8.507
513.67	7.553
514.02	8.039
514.36	8.539
514.70	8.372
515.05	7.256
515.39	7.370
515.74	7.046
516.08	7.906
516.42	8.122
516.77	7.791
517.11	7.995
517.46	8.283
517.80	8.777
518.14	7.471
518.49	7.595
518.83	8.115
519.17	7.711
519.52	8.263
519.86	7.893
520.20	8.065
520.55	8.396
520.89	8.476
521.23	8.013
521.58	7.522
521.92	8.171
522.26	8.263
522.61	7.757
522.95	8.161
523.29	8.000
523.64	8.201
523.98	8.323
524.32	8.570
524.66	7.727
525.01	8.453
525.35	8.032
525.69	8.482
526.04	8.078
526.38	8.604
526.72	8.481
527.06	8.124
527.41	7.942
527.75	7.944
528.09	8.033
528.43	9.023
528.78	7.558
529.12	8.279
529.46	7.997
529.80	7.961
530.15	8.752
530.49	8.086
530.83	8.192
531.17	8.904
531.51	8.092
531.86	7.656
532.20	8.063
532.54	7.655
532.88	7.828
533.22	8.754
533.57	8.477
533.91	8.516
534.25	8.854
534.59	8.301
534.93	8.291
535.27	8.408
535.62	7.500
535.96	9.239
536.30	8.444
536.64	8.544
536.98	8.619
537.32	7.687
537.66	7.828
538.01	8.044
538.35	7.320
538.69	8.763
539.03	8.792
539.37	8.719
539.71	7.640
540.05	7.220
540.39	7.983
540.73	8.380
541.07	7.823
541.42	8.754
541.76	8.796
542.10	8.599
542.44	8.177
542.78	8.258
543.12	8.693
543.46	8.224
543.80	7.943
544.14	8.190
544.48	8.560
544.82	8.272
545.16	8.384
545.50	9.723
545.84	7.994
546.18	8.485
546.52	8.821
546.86	7.915
547.20	7.434
547.54	8.006
547.88	8.772
548.22	8.143
548.56	7.672
548.90	7.307
549.24	8.611
549.58	7.402
549.92	9.538
550.26	9.373
550.60	8.108
550.94	8.284
551.28	8.327
551.62	8.271
551.96	8.638
552.30	7.933
552.64	7.910
552.98	8.594
553.32	7.931
553.66	8.291
554.00	8.135
554.34	7.912
554.68	8.128
555.02	8.308
555.36	9.077
555.69	7.866
556.03	8.363
556.37	7.539
556.71	7.849
557.05	7.675
557.39	8.440
557.73	8.018
558.07	7.310
558.41	9.235
558.75	8.391
559.08	8.420
559.42	8.891
559.76	8.792
560.10	9.531
560.44	9.064
560.78	7.482
561.12	8.269
561.45	9.184
561.79	8.391
562.13	8.439
562.47	8.786
562.81	8.658
563.15	7.790
563.48	9.635
563.82	8.071
564.16	8.869
564.50	7.870
564.84	8.311
565.17	8.808
565.51	8.757
565.85	6.995
566.19	8.808
566.52	7.733
566.86	7.901
567.20	7.941
567.54	8.060
567.88	8.343
568.21	7.279
568.55	7.929
568.89	7.677
569.23	8.341
569.56	8.052
569.90	8.397
570.24	7.653
570.57	7.881
570.91	7.989
571.25	7.739
571.59	8.058
571.92	7.656
572.26	7.663
572.60	8.038
572.93	8.154
573.27	7.896
573.61	7.630
573.95	7.800
574.28	7.760
574.62	7.801
574.96	8.071
575.29	7.949
575.63	8.404
575.97	8.125
576.30	7.847
576.64	7.755
576.98	7.947
577.31	7.903
577.65	7.687
577.98	7.656
578.32	7.662
578.66	7.976
578.99	8.052
579.33	8.321
579.67	8.070
580.00	7.776
580.34	7.731
580.67	8.060
581.01	7.929
581.35	8.057
581.68	7.704
582.02	7.712
582.35	7.865
582.69	8.271
583.02	7.846
583.36	8.127
583.70	8.365
584.03	8.115
584.37	8.115
584.70	7.963
585.04	8.233
585.37	8.117
585.71	7.767
586.04	7.870
586.38	8.287
586.72	8.036
587.05	8.404
587.39	8.553
587.72	8.298
588.06	8.482
588.39	8.424
588.73	8.063
589.06	8.115
589.40	7.981
589.73	8.049
590.07	8.822
590.40	8.520
590.73	8.387
591.07	8.441
591.40	8.478
591.74	8.537
592.07	8.489
592.41	9.395
592.74	8.410
593.08	7.624
593.41	8.382
593.75	8.269
594.08	8.359
594.41	7.459
594.75	8.471
595.08	8.327
595.42	7.981
595.75	8.134
596.09	8.891
596.42	8.374
596.75	8.907
597.09	9.099
597.42	8.210
597.75	8.400
598.09	8.652
598.42	8.770
598.76	8.144
599.09	9.044
599.42	8.308
599.76	8.449
600.09	8.283
600.42	8.588
600.76	8.241
601.09	8.814
601.42	8.350
601.76	8.494
602.09	8.431
602.42	8.956
602.76	8.431
603.09	8.624
603.42	8.237
603.76	8.769
604.09	8.379
604.42	7.869
604.76	8.119
605.09	8.971
605.42	8.727
605.75	7.880
606.09	8.113
606.42	8.728
606.75	8.355
607.09	8.422
607.42	9.063
607.75	7.746
608.08	8.927
608.42	7.966
608.75	8.552
609.08	8.770
609.41	9.240
609.75	8.220
610.08	8.777
610.41	8.503
610.74	8.614
611.07	8.517
611.41	8.854
611.74	9.783
612.07	8.494
612.40	9.027
612.73	8.452
613.07	8.925
613.40	8.645
613.73	8.234
614.06	8.734
614.39	8.171
614.72	9.217
615.06	8.778
615.39	8.885
615.72	8.423
616.05	8.052
616.38	8.935
616.71	7.798
617.05	8.784
617.38	8.811
617.71	8.456
618.04	8.044
618.37	8.833
618.70	8.538
619.03	8.316
619.36	8.826
619.69	7.895
620.03	8.834
620.36	8.629
620.69	7.923
621.02	8.154
621.35	7.768
621.68	8.557
622.01	8.414
622.34	8.010
622.67	9.554
623.00	8.207
623.33	8.975
623.66	8.178
623.99	9.227
624.32	8.584
624.65	8.457
624.99	9.184
625.32	10.306
625.65	8.992
625.98	8.531
626.31	9.306
626.64	8.856
626.97	7.353
627.30	8.896
627.63	8.304
627.96	7.792
628.29	8.372
628.62	9.865
628.95	7.916
629.28	9.261
629.61	10.335
629.94	8.124
630.26	10.148
630.59	9.091
630.92	8.333
631.25	9.166
631.58	10.278
631.91	8.378
632.24	8.562
632.57	8.778
632.90	9.685
633.23	6.835
633.56	9.233
633.89	9.809
634.22	10.365
634.55	8.526
634.88	9.559
635.20	9.625
635.53	8.140
635.86	8.590
636.19	10.050
636.52	8.659
636.85	8.203
637.18	8.526
637.51	8.614
637.83	8.355
638.16	7.467
638.49	8.411
638.82	9.412
639.15	9.309
639.48	8.155
639.81	7.778
640.13	9.296
640.46	9.463
640.79	8.489
641.12	7.692
641.45	8.734
641.77	8.100
642.10	9.834
642.43	8.962
642.76	7.571
643.09	9.585
643.41	8.931
643.74	10.501
644.07	9.709
644.40	7.629
644.73	9.322
645.05	7.155
645.38	9.136
645.71	9.524
646.04	7.576
646.36	8.333
646.69	9.965
647.02	8.197
647.35	10.055
647.67	8.133
648.00	7.065
648.33	7.458
648.66	8.347
648.98	8.851
649.31	7.669
649.64	8.451
649.96	9.795
650.29	8.170
650.62	9.885
650.94	10.172
651.27	6.890
651.60	9.790
651.92	10.215
652.25	8.878
652.58	10.396
652.90	8.923
653.23	6.112
653.56	8.430
653.88	6.314
654.21	8.020
654.54	7.309
654.86	9.756
655.19	6.443
655.52	8.962
655.84	7.278
656.17	8.772
656.49	12.005
656.82	12.094
657.15	9.570
657.47	7.284
657.80	5.572
658.13	6.068
658.45	9.382
658.78	9.422
659.10	9.189
659.43	9.668
659.75	9.242
660.08	9.655
660.41	8.519
660.73	9.366
661.06	7.143
661.38	8.140
661.71	9.631
662.03	8.245
662.36	5.752
662.68	10.323
663.01	9.534
663.33	9.071
663.66	5.543
663.98	8.315
664.31	8.791
664.63	8.333
664.96	8.972
665.28	10.944
665.61	4.320
665.93	7.281
666.26	9.494
666.58	7.281
666.91	9.417
667.23	10.138
667.56	7.126
667.88	7.243
668.21	8.705
668.53	8.276
668.86	8.393
669.18	8.511
669.50	9.908
669.83	6.205
670.15	7.381
670.48	8.736
670.80	9.409
671.13	6.407
671.45	8.219
671.77	8.405
672.10	9.162
672.42	8.015
672.75	7.857
673.07	6.182
673.39	8.582
673.72	9.980
674.04	8.197
674.37	11.585
674.69	7.407
675.01	6.624
675.34	10.066
675.66	11.547
675.98	9.956
676.31	7.466
676.63	12.472
676.95	8.235
677.28	7.110
677.60	4.657
677.92	9.091
678.25	9.111
678.57	10.387
678.89	7.249
679.22	8.489
679.54	7.347
679.86	8.984
680.18	5.385
680.51	6.923
680.83	7.018
681.15	9.234
681.48	9.419
681.80	8.180
682.12	8.125
682.44	8.652
682.77	6.105
683.09	7.589
683.41	5.116
683.73	8.705
684.06	7.743
684.38	6.838
684.70	4.888
685.02	6.405
685.34	9.589
685.67	9.193
685.99	9.253
686.31	8.448
686.63	8.456
686.96	8.534
687.28	6.188
687.60	9.452
687.92	10.117
688.24	7.600
688.56	9.868
688.89	6.236
689.21	7.399
689.53	4.955
689.85	6.742
690.17	9.451
690.49	7.488
690.82	7.160
691.14	7.246
691.46	8.817
691.78	5.714
692.10	8.280
692.42	6.813
692.74	9.348
693.06	5.169
693.39	5.386
693.71	10.000
694.03	11.136
694.35	9.234
694.67	8.250
694.99	7.990
695.31	9.561
695.63	8.049
695.95	8.142
696.27	4.110
696.59	5.108
696.91	8.101
697.23	5.076
697.56	6.954
697.88	9.563
698.20	9.071
698.52	5.841
698.84	9.330
699.16	9.220
699.48	8.395
699.80	11.370
700.12	6.702
700.44	4.225
700.76	7.303
701.08	6.949
701.40	6.287
701.72	7.385
702.04	7.547
702.36	8.232
702.68	3.354
703.00	7.895
703.32	5.850
703.64	8.133
703.96	6.452
704.28	6.627
704.60	7.317
704.91	3.762
705.23	6.646
705.55	7.586
705.87	9.507
706.19	2.930
706.51	5.634
706.83	5.732
707.15	8.841
707.47	7.438
707.79	8.122
708.11	7.969
708.43	8.883
708.74	8.777
709.06	8.021
709.38	7.493
709.70	8.108
710.02	10.280
710.34	6.000
710.66	8.143
710.98	7.430
711.29	4.870
711.61	6.129
711.93	7.742
712.25	4.196
712.57	8.070
712.89	6.593
713.20	9.574
713.52	4.015
713.84	8.065
714.16	7.767
714.48	2.848
714.80	2.236
715.11	11.919
715.43	6.211
715.75	11.491
716.07	10.241
716.39	7.407
716.70	10.072
717.02	0.784
717.34	9.848
717.66	-1.724
717.97	4.762
718.29	4.724
718.61	1.717
718.93	2.713
719.24	7.011
719.56	7.116
719.88	5.224
720.20	4.743
720.51	5.469
720.83	11.284
721.15	1.626
721.46	3.817
721.78	5.578
722.10	3.984
722.42	6.452
722.73	5.019
723.05	7.755
723.37	7.983
723.68	4.400
724.00	0.851
724.32	6.276
724.63	4.938
724.95	6.410
725.27	12.236
725.58	5.761
725.90	5.858
726.22	6.884
726.53	1.176
726.85	6.934
727.16	9.630
727.48	8.812
727.80	5.469
728.11	8.197
728.43	7.813
728.74	5.556
729.06	6.400
729.38	3.557
729.69	8.897
730.01	3.346
730.32	9.225
730.64	6.439
730.96	11.189
731.27	3.679
731.59	7.937
731.90	5.178
732.22	4.808
732.53	2.365
732.85	3.691
733.16	5.611
733.48	4.730
733.80	4.392
734.11	7.432
734.43	5.263
734.74	7.508
735.06	7.493
735.37	8.511
735.69	7.120
736.00	5.611
736.32	4.255
736.63	4.828
736.95	2.740
737.26	3.103
737.58	6.597
737.89	6.529
738.21	-1.068
738.52	6.464
738.83	5.714
739.15	2.532
739.46	9.339
739.78	3.521
740.09	5.479
740.41	-0.357
740.72	3.191
741.04	4.800
741.35	5.702
741.66	7.556
741.98	3.846
742.29	10.891
742.61	7.317
742.92	9.211
743.23	3.302
743.55	9.459
743.86	7.175
744.18	10.294
744.49	4.569
744.80	6.122
745.12	7.944
745.43	11.848
745.74	2.703
746.06	3.738
746.37	-0.459
746.68	6.250
747.00	7.177
747.31	3.846
747.62	10.092
747.94	6.550
748.25	2.752
748.56	12.444
748.88	12.676
749.19	11.429
749.50	0.000
749.82	0.469
750.13	-1.250
750.44	3.462
750.75	4.428
751.07	9.964
751.38	4.610
751.69	5.405
752.01	8.594
752.32	1.538
752.63	9.701
752.94	3.200
753.26	5.021
753.57	9.167
753.88	6.883
754.19	6.375
754.51	6.391
754.82	2.198
755.13	0.000
755.44	7.317
755.75	0.800
756.07	-0.369
756.38	6.835
756.69	7.509
757.00	8.411
757.31	3.883
757.63	4.321
757.94	8.192
758.25	8.466
758.56	8.152
758.87	5.060
759.18	6.625
759.50	6.397
759.81	8.027
760.12	8.308
760.43	3.571
760.74	4.520
761.05	7.735
761.36	4.585
761.67	2.417
761.99	4.467
762.30	6.204
762.61	6.996
762.92	10.256
763.23	11.475
763.54	6.061
763.85	2.449
764.16	0.813
764.47	2.400
764.78	6.786
765.10	6.230
765.41	5.167
765.72	4.969
766.03	4.950
766.34	5.000
766.65	4.603
766.96	2.817
767.27	9.901
767.58	-2.247
767.89	12.963
768.20	7.182
768.51	10.553
768.82	7.692
769.13	6.637
769.44	8.787
769.75	2.564
770.06	6.278
770.37	6.863
770.68	2.913
770.99	1.942
771.30	6.723
771.61	6.939
771.92	12.448
772.23	7.658
772.54	-6.077
772.85	4.651
773.16	6.878
773.47	2.959
773.78	7.471
774.09	10.625
774.39	6.211
774.70	10.884
775.01	0.690
775.32	4.286
775.63	7.519
775.94	0.000
776.25	-8.000
776.56	8.264
776.87	8.730
777.18	-8.108
777.48	-6.306
777.79	-0.787
778.10	1.835
778.41	-7.018
778.72	-7.563
779.03	-3.521
779.34	9.459
779.65	4.225
779.95	3.974
780.26	5.036
780.57	2.878
780.88	9.155
781.19	0.000
781.50	9.396
781.80	7.602
782.11	1.163
782.42	1.258
782.73	3.268
783.04	0.000
783.34	-6.107
783.65	6.711
783.96	-1.538
784.27	8.571
784.57	2.837
784.88	-13.462
785.19	-1.818
785.50	4.545
785.81	-4.762
786.11	3.361
786.42	6.195
786.73	-3.774
787.04	-8.257
787.34	-8.911
787.65	1.667
787.96	4.959
788.26	5.797
788.57	-7.937
788.88	-2.439
789.19	-8.800
789.49	2.290
789.80	7.576
790.11	-4.717
790.41	3.960
790.72	7.447
791.03	-9.783
791.33	-9.412
791.64	-4.938
791.95	1.087
792.25	3.409
792.56	3.846
792.87	10.256
793.17	-7.692
793.48	-5.952
793.79	-6.250
794.09	6.731
794.40	-1.042
794.70	2.703
795.01	0.781
795.32	-6.087
795.62	-14.130
795.93	1.887
796.23	3.030
796.54	-6.098
796.85	-9.524
797.15	7.576
797.46	-8.696
797.76	1.316
798.07	0.000
798.37	-2.439
798.68	-19.355
798.99	-6.757
799.29	-1.205
799.60	-10.256
799.90	-9.231
800.21	-7.576
800.51	1.333
800.82	8.000
801.12	-54.167
801.43	-26.667
801.73	-22.973
802.04	7.143
802.34	3.279
802.65	8.955
802.95	-10.909
803.26	-12.069
803.56	4.615
803.87	-5.660
804.17	-16.129
804.48	-17.647
804.78	-12.195
805.09	-1.449
805.39	-1.471
805.70	-31.915
806.00	0.000
806.30	-2.564
806.61	-13.158
806.91	-2.703
807.22	-9.211
807.52	-1.136
807.83	-33.898
808.13	-28.788
808.43	-13.333
808.74	-27.586
809.04	12.698
809.35	-24.490
809.65	11.667
809.95	-28.571
810.26	11.268
810.56	-8.333
810.86	-20.408
811.17	0.000
811.47	-14.894
811.77	-29.167
812.08	1.887
812.38	-25.000
812.69	-23.636
812.99	-21.951
813.29	-16.216
813.59	-32.432
813.90	-7.273
814.20	-20.000
814.50	-11.667
814.81	-5.455
815.11	-12.281
815.41	-18.605
815.72	-5.000
816.02	-20.000
816.32	0.000
816.62	14.583
816.93	6.667
817.23	-4.444
817.53	-33.333
817.84	-45.946
818.14	0.000
818.44	2.000
818.74	-14.286
819.04	-29.268
819.35	-30.556
819.65	-20.455
819.95	-116.667
820.25	-27.273
820.56	-38.095
820.86	-30.556
821.16	-29.545
821.46	-26.087
821.76	-15.517
822.07	-6.522
822.37	12.121
822.67	21.951
822.97	-2.703
823.27	-48.571
823.57	-20.690
823.88	-14.706
824.18	5.556
824.48	-5.714
824.78	-57.143
825.08	-17.857
825.38	-11.111
825.69	-29.032
825.99	-7.317
826.29	-14.815
826.59	-75.000
826.89	-35.484
827.19	-34.783
827.49	-47.222
827.79	-39.130
828.09	-6.452
828.39	-4.167
828.70	-15.625
829.00	-41.379
829.30	-35.135
829.60	-87.500
829.90	-18.519
830.20	-53.125
830.50	-59.091
830.80	-105.882
831.10	-40.909
831.40	-38.235
831.70	-42.308
832.00	-21.212
832.30	-5.882
832.60	-5.405
832.90	900.000
833.20	0.000
833.50	-50.000
833.80	-15.789
834.10	-41.667
834.40	-72.727
834.70	-140.000
835.00	-110.000
835.30	-37.500
835.60	-14.286
835.90	-14.286
836.20	-52.000
836.50	-8.333
836.80	-73.684
837.10	-8.108
837.40	16.667
837.70	-34.783
838.00	0.000
838.30	-89.474
838.60	-100.000
838.90	-200.000
839.19	-133.333
839.49	-69.231
839.79	-21.053
840.09	-183.333
840.39	-170.000
840.69	-36.364
840.99	-33.333
841.29	-54.167
841.59	-153.846
841.88	-100.000
842.18	-78.571
842.48	-10.000
842.78	-228.571
843.08	-121.429
843.38	-262.500
843.68	-50.000
843.97	7.143
844.27	-222.222
844.57	-127.273
844.87	-126.667
845.17	-40.909
845.47	866.667
845.76	-106.667
846.06	-150.000
846.36	-750.000
846.66	-78.947
846.96	-54.545
847.25	-83.333
847.55	-222.222
847.85	-47.619
848.15	-46.154
848.44	-283.333
848.74	-133.333
849.04	-107.692
849.34	-525.000
849.63	-154.545
849.93	-107.143
850.23	20.000
850.53	-87.500
850.82	-27.778
851.12	-26.667
851.42	-58.824
851.71	-100.000
852.01	35.294
852.31	-76.923
852.61	1150.000
852.90	-11.765
853.20	6.667
853.50	-68.750
853.79	-164.286
854.09	-475.000
854.39	-30.000
854.68	-22.500
854.98	-61.905
855.28	-56.000
855.57	4.167
855.87	-8.333
856.17	-48.000
856.46	-15.625
856.76	-15.000
857.05	-12.000
857.35	-133.333
857.65	-70.588
857.94	-158.333
858.24	-191.667
858.53	-40.000
858.83	-54.545
859.13	28.000
859.42	-50.000
859.72	-237.500
860.01	-25.000
860.31	-212.500
860.60	-68.750
860.90	-133.333
861.20	100.000
861.49	-20.000
861.79	-6.250
862.08	225.000
862.38	-175.000
862.67	285.714
862.97	300.000
863.26	-100.000
863.56	-90.909
863.85	-36.842
864.15	-35.294
864.44	-360.000
864.74	-110.000
865.03	-111.111
865.33	-14.286
865.62	185.714
865.92	31.579
866.21	-22.222
866.51	-72.727
866.80	-88.889
867.10	-75.000
867.39	-56.250
867.69	-73.333
867.98	-160.000
868.27	-23.529
868.57	0.000
868.86	850.000
869.16	-325.000
869.45	-200.000
869.75	500.000
870.04	-20.000
870.33	-600.000
870.63	0.000
870.92	-125.000
871.22	-2100.000
871.51	-128.571
871.80	-255.556
872.10	-75.000
>>>>>End Processed Spectral Data<<<<<
