SpectraSuite Data File
++++++++++++++++++++++++++++++++++++
Date: Wed May 13 21:29:01 PDT 2015
User: schluterlab
Dark Spectrum Present: Yes
Reference Spectrum Present: Yes
Number of Sampled Component Spectra: 1
Spectrometers: USB2E3373
Integration Time (usec): 3000 (USB2E3373)
Spectra Averaged: 3 (USB2E3373)
Boxcar Smoothing: 0 (USB2E3373)
Correct for Electrical Dark: No (USB2E3373)
Strobe/Lamp Enabled: No (USB2E3373)
Correct for Detector Non-linearity: No (USB2E3373)
Correct for Stray Light: No (USB2E3373)
Number of Pixels in Processed Spectrum: 2048
>>>>>Begin Processed Spectral Data<<<<<
178.53	0.000
178.91	400.000
179.29	191.667
179.67	-550.000
180.04	-333.333
180.42	160.000
180.80	1100.000
181.18	100.000
181.56	-375.000
181.94	-300.000
182.31	-18.182
182.69	192.308
183.07	-200.000
183.45	100.000
183.83	144.444
184.20	200.000
184.58	-66.667
184.96	333.333
185.34	214.286
185.72	0.000
186.09	-300.000
186.47	-260.000
186.85	80.000
187.23	-250.000
187.61	650.000
187.98	1100.000
188.36	37.500
188.74	0.000
189.12	-18.182
189.49	20.000
189.87	141.667
190.25	220.000
190.63	1500.000
191.00	-200.000
191.38	400.000
191.76	225.000
192.14	208.333
192.51	-5.263
192.89	600.000
193.27	475.000
193.65	-220.000
194.02	200.000
194.40	140.000
194.78	-1500.000
195.15	360.000
195.53	-300.000
195.91	-50.000
196.29	-300.000
196.66	0.000
197.04	700.000
197.42	-60.000
197.79	-20.000
198.17	-137.500
198.55	0.000
198.92	200.000
199.30	-366.667
199.68	-50.000
200.05	-0.000
200.43	183.333
200.81	-1700.000
201.18	-180.000
201.56	-66.667
201.94	450.000
202.31	4.348
202.69	-171.429
203.07	-400.000
203.44	-160.000
203.82	-200.000
204.19	-30.000
204.57	0.000
204.95	-116.667
205.32	0.000
205.70	-500.000
206.08	-250.000
206.45	-100.000
206.83	425.000
207.20	-200.000
207.58	-60.000
207.96	-1400.000
208.33	-114.286
208.71	-1800.000
209.08	225.000
209.46	375.000
209.84	0.000
210.21	160.000
210.59	2500.000
210.96	400.000
211.34	900.000
211.71	-550.000
212.09	-200.000
212.46	-190.000
212.84	33.333
213.22	-150.000
213.59	-1200.000
213.97	-750.000
214.34	-650.000
214.72	-23.077
215.09	237.500
215.47	233.333
215.84	950.000
216.22	-100.000
216.59	-600.000
216.97	800.000
217.34	255.556
217.72	0.000
218.09	700.000
218.47	0.000
218.84	-42.857
219.22	0.000
219.59	-166.667
219.97	-450.000
220.34	-175.000
220.72	-160.000
221.09	0.000
221.47	-50.000
221.84	-100.000
222.22	0.000
222.59	1000.000
222.97	-466.667
223.34	-75.000
223.72	-400.000
224.09	-700.000
224.46	-36.364
224.84	-112.500
225.21	-128.571
225.59	-225.000
225.96	16.667
226.34	20.000
226.71	-100.000
227.08	700.000
227.46	-125.000
227.83	-300.000
228.21	-62.500
228.58	-425.000
228.95	-47.059
229.33	-12.500
229.70	-87.500
230.08	-46.154
230.45	-100.000
230.82	-83.333
231.20	128.571
231.57	-75.000
231.95	900.000
232.32	25.000
232.69	0.000
233.07	-1200.000
233.44	-21.739
233.81	-600.000
234.19	-29.167
234.56	-73.333
234.93	-26.667
235.31	-42.105
235.68	-84.615
236.05	-23.077
236.43	11.111
236.80	12.121
237.17	-40.000
237.55	-111.765
237.92	6.897
238.29	-7.407
238.67	27.778
239.04	6.452
239.41	2.128
239.79	21.277
240.16	6.977
240.53	7.143
240.91	17.857
241.28	10.714
241.65	11.290
242.02	15.789
242.40	26.087
242.77	8.696
243.14	11.538
243.51	25.532
243.89	17.308
244.26	32.075
244.63	21.154
245.00	31.250
245.38	18.487
245.75	18.033
246.12	30.075
246.49	21.138
246.87	15.966
247.24	30.405
247.61	18.543
247.98	20.513
248.36	26.036
248.73	25.281
249.10	18.182
249.47	24.194
249.84	29.474
250.22	23.881
250.59	24.766
250.96	28.182
251.33	18.660
251.70	33.054
252.08	28.452
252.45	27.572
252.82	31.179
253.19	27.237
253.56	28.058
253.94	27.758
254.31	27.113
254.68	29.866
255.05	28.383
255.42	23.427
255.79	27.301
256.16	27.445
256.54	27.937
256.91	24.367
257.28	27.987
257.65	24.522
258.02	28.152
258.39	28.070
258.76	23.547
259.14	27.841
259.51	24.719
259.88	28.455
260.25	27.778
260.62	28.371
260.99	30.239
261.36	28.238
261.73	25.185
262.10	26.209
262.47	26.420
262.85	27.114
263.22	27.436
263.59	23.377
263.96	27.007
264.33	25.962
264.70	26.977
265.07	27.315
265.44	28.736
265.81	27.002
266.18	28.018
266.55	31.441
266.92	26.271
267.29	26.132
267.66	28.875
268.03	30.658
268.40	26.695
268.77	27.273
269.14	27.755
269.51	28.747
269.88	26.069
270.25	27.542
270.62	26.639
270.99	26.181
271.36	27.579
271.73	28.112
272.10	26.476
272.47	26.871
272.84	27.953
273.21	25.832
273.58	27.869
273.95	23.962
274.32	26.866
274.69	25.501
275.06	28.622
275.43	25.800
275.80	26.064
276.17	27.440
276.54	26.288
276.91	27.178
277.28	23.466
277.65	27.098
278.02	27.679
278.39	24.689
278.76	25.920
279.13	26.072
279.50	25.000
279.87	25.543
280.23	23.784
280.60	25.606
280.97	25.162
281.34	25.552
281.71	24.390
282.08	26.667
282.45	26.885
282.82	25.559
283.19	26.220
283.56	25.625
283.92	26.453
284.29	25.273
284.66	24.712
285.03	22.638
285.40	25.680
285.77	26.276
286.14	24.316
286.51	28.036
286.87	25.846
287.24	25.369
287.61	26.657
287.98	25.441
288.35	23.398
288.72	24.964
289.08	27.778
289.45	25.844
289.82	24.508
290.19	24.404
290.56	23.580
290.93	24.171
291.29	24.077
291.66	24.317
292.03	24.796
292.40	25.303
292.77	23.293
293.13	23.989
293.50	24.314
293.87	22.400
294.24	23.016
294.60	23.667
294.97	25.265
295.34	23.351
295.71	21.025
296.08	21.204
296.44	23.214
296.81	21.803
297.18	21.625
297.55	22.995
297.91	23.230
298.28	22.397
298.65	20.813
299.02	23.443
299.38	21.227
299.75	20.313
300.12	20.349
300.48	21.871
300.85	21.478
301.22	20.790
301.59	20.892
301.95	22.532
302.32	21.820
302.69	20.339
303.05	20.819
303.42	21.250
303.79	22.187
304.15	21.249
304.52	23.548
304.89	20.377
305.25	20.088
305.62	22.017
305.99	21.872
306.35	20.481
306.72	21.567
307.09	21.064
307.45	21.406
307.82	21.474
308.19	21.526
308.55	20.778
308.92	22.397
309.29	21.622
309.65	21.179
310.02	19.583
310.38	22.663
310.75	21.302
311.12	22.643
311.48	21.068
311.85	22.441
312.22	23.211
312.58	20.966
312.95	20.100
313.31	22.957
313.68	21.565
314.05	21.928
314.41	23.631
314.78	23.340
315.14	22.963
315.51	23.026
315.87	22.243
316.24	22.957
316.61	24.110
316.97	22.130
317.34	21.836
317.70	24.353
318.07	24.224
318.43	23.939
318.80	23.560
319.16	25.022
319.53	23.656
319.89	23.216
320.26	24.769
320.62	23.262
320.99	23.837
321.35	25.351
321.72	25.602
322.08	25.830
322.45	24.237
322.81	25.970
323.18	26.029
323.54	26.444
323.91	26.287
324.27	27.723
324.64	26.045
325.00	25.809
325.37	26.621
325.73	26.094
326.10	27.250
326.46	27.007
326.83	26.456
327.19	28.049
327.56	28.525
327.92	28.962
328.29	29.299
328.65	28.834
329.01	27.529
329.38	30.609
329.74	28.584
330.11	28.224
330.47	27.865
330.84	29.242
331.20	29.462
331.56	29.438
331.93	28.682
332.29	29.366
332.66	27.288
333.02	29.192
333.38	28.509
333.75	29.181
334.11	30.122
334.48	29.991
334.84	28.710
335.20	28.388
335.57	29.069
335.93	29.467
336.29	29.335
336.66	28.120
337.02	29.130
337.38	29.939
337.75	28.941
338.11	28.523
338.47	27.997
338.84	29.811
339.20	29.012
339.56	29.181
339.93	29.991
340.29	29.291
340.65	29.256
341.02	30.033
341.38	28.885
341.74	27.983
342.11	27.993
342.47	28.536
342.83	28.676
343.20	28.934
343.56	30.090
343.92	29.245
344.28	29.951
344.65	28.816
345.01	28.168
345.37	30.016
345.73	28.840
346.10	29.936
346.46	27.398
346.82	28.571
347.19	28.560
347.55	30.291
347.91	28.917
348.27	29.338
348.63	28.365
349.00	27.987
349.36	29.042
349.72	28.616
350.08	28.315
350.45	30.384
350.81	29.734
351.17	30.023
351.53	29.694
351.89	28.515
352.26	29.189
352.62	29.767
352.98	29.473
353.34	29.469
353.70	29.439
354.07	29.725
354.43	29.238
354.79	29.728
355.15	29.969
355.51	30.600
355.87	29.163
356.24	29.053
356.60	30.493
356.96	29.547
357.32	29.799
357.68	29.794
358.04	29.635
358.40	31.628
358.77	30.275
359.13	29.805
359.49	29.902
359.85	29.947
360.21	30.455
360.57	30.875
360.93	30.425
361.29	31.310
361.66	29.385
362.02	29.355
362.38	31.536
362.74	30.529
363.10	31.381
363.46	30.980
363.82	31.633
364.18	30.239
364.54	29.686
364.90	30.035
365.26	30.361
365.62	30.469
365.98	32.456
366.35	31.702
366.71	30.100
367.07	30.971
367.43	31.359
367.79	31.550
368.15	31.786
368.51	31.786
368.87	32.659
369.23	31.388
369.59	31.642
369.95	32.366
370.31	31.172
370.67	31.354
371.03	32.368
371.39	31.867
371.75	32.929
372.11	32.265
372.47	33.814
372.83	32.802
373.19	32.878
373.55	34.393
373.91	32.885
374.27	32.019
374.63	32.504
374.99	32.869
375.35	34.041
375.71	33.152
376.07	34.133
376.42	33.556
376.78	34.346
377.14	33.898
377.50	34.224
377.86	33.732
378.22	34.829
378.58	34.741
378.94	34.250
379.30	35.290
379.66	35.388
380.02	35.478
380.38	35.663
380.74	35.386
381.09	35.163
381.45	35.490
381.81	35.182
382.17	34.846
382.53	35.569
382.89	36.068
383.25	36.296
383.61	36.199
383.97	37.062
384.32	35.665
384.68	36.891
385.04	36.225
385.40	37.920
385.76	37.044
386.12	36.992
386.48	37.053
386.83	37.297
387.19	35.904
387.55	38.381
387.91	38.192
388.27	37.793
388.62	37.890
388.98	37.422
389.34	38.033
389.70	37.546
390.06	37.813
390.42	39.304
390.77	38.437
391.13	38.384
391.49	38.773
391.85	38.466
392.20	38.158
392.56	39.238
392.92	38.912
393.28	39.105
393.64	40.489
393.99	39.106
394.35	38.889
394.71	39.359
395.07	38.931
395.42	38.696
395.78	39.511
396.14	39.442
396.50	40.520
396.85	40.408
397.21	40.137
397.57	41.242
397.92	39.461
398.28	40.891
398.64	39.587
399.00	40.569
399.35	40.692
399.71	39.546
400.07	41.084
400.42	42.320
400.78	40.725
401.14	40.895
401.49	40.983
401.85	41.093
402.21	41.300
402.57	41.324
402.92	41.802
403.28	41.338
403.63	40.484
403.99	42.290
404.35	41.459
404.70	40.181
405.06	41.515
405.42	40.955
405.77	41.590
406.13	41.086
406.49	42.900
406.84	41.697
407.20	41.978
407.55	41.948
407.91	42.356
408.27	40.736
408.62	43.155
408.98	42.109
409.34	43.131
409.69	43.730
410.05	42.910
410.40	42.788
410.76	42.900
411.11	42.289
411.47	43.729
411.83	43.044
412.18	42.695
412.54	43.045
412.89	42.320
413.25	41.947
413.60	43.135
413.96	42.884
414.31	42.478
414.67	42.667
415.03	43.708
415.38	42.933
415.74	42.820
416.09	44.283
416.45	44.087
416.80	43.960
417.16	43.050
417.51	43.269
417.87	42.857
418.22	42.922
418.58	43.298
418.93	44.005
419.29	44.488
419.64	43.766
420.00	44.063
420.35	43.694
420.71	43.205
421.06	43.850
421.42	43.187
421.77	44.624
422.12	44.699
422.48	42.912
422.83	44.714
423.19	44.221
423.54	45.289
423.90	44.240
424.25	44.425
424.61	43.808
424.96	45.831
425.31	44.532
425.67	44.033
426.02	45.819
426.38	44.341
426.73	44.349
427.09	44.903
427.44	44.275
427.79	45.428
428.15	45.199
428.50	44.834
428.85	44.219
429.21	43.557
429.56	45.324
429.92	44.560
430.27	44.376
430.62	45.173
430.98	43.998
431.33	43.901
431.68	46.006
432.04	45.127
432.39	45.035
432.74	45.800
433.10	45.148
433.45	45.325
433.80	43.908
434.16	44.293
434.51	45.054
434.86	45.230
435.22	44.878
435.57	44.779
435.92	45.115
436.28	44.865
436.63	45.208
436.98	44.830
437.34	44.383
437.69	45.041
438.04	45.331
438.39	45.890
438.75	45.650
439.10	45.865
439.45	44.552
439.81	46.429
440.16	45.217
440.51	44.946
440.86	45.525
441.22	45.955
441.57	45.662
441.92	45.257
442.27	44.751
442.63	46.017
442.98	45.197
443.33	45.655
443.68	43.806
444.03	45.306
444.39	46.059
444.74	44.009
445.09	45.650
445.44	45.972
445.79	45.534
446.15	46.256
446.50	45.154
446.85	46.285
447.20	45.687
447.55	45.943
447.91	44.775
448.26	45.569
448.61	45.570
448.96	45.558
449.31	46.488
449.66	45.518
450.02	46.219
450.37	46.886
450.72	44.546
451.07	45.643
451.42	44.791
451.77	45.892
452.12	44.563
452.47	46.094
452.83	45.873
453.18	46.658
453.53	45.523
453.88	45.723
454.23	44.685
454.58	45.037
454.93	44.836
455.28	45.472
455.63	45.727
455.98	46.318
456.34	45.645
456.69	45.815
457.04	44.768
457.39	44.919
457.74	43.926
458.09	45.557
458.44	45.241
458.79	44.371
459.14	44.663
459.49	46.280
459.84	45.265
460.19	43.277
460.54	45.377
460.89	44.989
461.24	45.314
461.59	45.169
461.94	46.839
462.29	45.650
462.64	44.789
462.99	44.668
463.34	46.685
463.69	45.296
464.04	44.298
464.39	44.600
464.74	44.595
465.09	44.513
465.44	44.725
465.79	45.198
466.14	45.268
466.49	46.569
466.84	44.889
467.19	43.885
467.54	45.237
467.89	45.820
468.24	45.482
468.59	45.570
468.94	45.722
469.29	46.266
469.64	47.001
469.99	47.448
470.34	45.651
470.68	46.691
471.03	45.910
471.38	45.758
471.73	45.199
472.08	47.010
472.43	46.108
472.78	45.233
473.13	45.449
473.48	44.879
473.83	46.014
474.17	45.443
474.52	46.408
474.87	44.692
475.22	44.867
475.57	44.841
475.92	46.074
476.27	46.329
476.61	44.847
476.96	45.802
477.31	46.009
477.66	45.650
478.01	45.220
478.36	44.687
478.70	44.844
479.05	46.670
479.40	45.398
479.75	45.855
480.10	45.181
480.45	44.630
480.79	47.237
481.14	46.201
481.49	47.213
481.84	44.863
482.19	44.558
482.53	44.905
482.88	45.542
483.23	44.610
483.58	45.274
483.92	45.039
484.27	45.197
484.62	44.829
484.97	44.131
485.31	43.346
485.66	41.216
486.01	41.447
486.36	41.214
486.70	42.797
487.05	43.316
487.40	43.878
487.75	44.961
488.09	45.637
488.44	44.725
488.79	45.307
489.13	44.692
489.48	45.233
489.83	45.645
490.17	44.712
490.52	46.891
490.87	44.599
491.22	44.889
491.56	46.239
491.91	45.175
492.26	45.503
492.60	44.348
492.95	45.675
493.30	45.010
493.64	45.276
493.99	45.121
494.34	44.557
494.68	45.776
495.03	45.158
495.37	44.623
495.72	46.366
496.07	45.348
496.41	45.204
496.76	45.064
497.11	45.211
497.45	46.060
497.80	46.189
498.14	45.844
498.49	46.142
498.84	45.901
499.18	45.645
499.53	45.495
499.87	44.250
500.22	45.645
500.56	45.787
500.91	46.680
501.26	44.828
501.60	44.461
501.95	45.232
502.29	45.728
502.64	46.287
502.98	44.605
503.33	45.109
503.67	45.521
504.02	45.833
504.36	45.072
504.71	45.579
505.06	47.224
505.40	46.753
505.75	46.185
506.09	45.784
506.44	45.413
506.78	46.166
507.13	46.518
507.47	46.448
507.82	46.206
508.16	45.488
508.51	46.281
508.85	45.982
509.19	46.772
509.54	46.702
509.88	47.043
510.23	46.474
510.57	46.292
510.92	46.659
511.26	47.360
511.61	46.872
511.95	46.141
512.30	46.641
512.64	47.787
512.98	46.371
513.33	48.282
513.67	47.530
514.02	47.149
514.36	48.371
514.70	47.286
515.05	47.747
515.39	47.583
515.74	48.194
516.08	47.316
516.42	47.120
516.77	47.862
517.11	48.031
517.46	48.860
517.80	50.303
518.14	48.377
518.49	47.619
518.83	47.673
519.17	48.434
519.52	49.156
519.86	48.998
520.20	48.757
520.55	48.134
520.89	48.450
521.23	49.359
521.58	49.052
521.92	48.649
522.26	49.057
522.61	49.968
522.95	48.964
523.29	49.270
523.64	49.332
523.98	49.238
524.32	47.574
524.66	48.701
525.01	50.983
525.35	51.020
525.69	50.431
526.04	49.446
526.38	48.630
526.72	48.586
527.06	48.936
527.41	48.511
527.75	49.666
528.09	50.442
528.43	49.864
528.78	49.483
529.12	49.483
529.46	49.392
529.80	50.097
530.15	47.683
530.49	49.798
530.83	50.102
531.17	50.548
531.51	49.090
531.86	49.458
532.20	48.587
532.54	48.690
532.88	49.285
533.22	48.889
533.57	50.199
533.91	48.452
534.25	49.609
534.59	48.327
534.93	49.490
535.27	49.363
535.62	48.882
535.96	49.642
536.30	50.532
536.64	48.667
536.98	48.563
537.32	47.544
537.66	49.577
538.01	48.960
538.35	49.378
538.69	47.492
539.03	47.315
539.37	47.753
539.71	48.226
540.05	47.908
540.39	47.694
540.73	48.184
541.07	48.503
541.42	49.360
541.76	49.188
542.10	48.409
542.44	48.233
542.78	47.189
543.12	46.900
543.46	46.303
543.80	47.047
544.14	48.383
544.48	46.251
544.82	49.025
545.16	48.005
545.50	48.548
545.84	48.387
546.18	48.387
546.52	48.412
546.86	46.007
547.20	48.463
547.54	47.534
547.88	47.233
548.22	46.254
548.56	46.965
548.90	47.091
549.24	47.986
549.58	46.690
549.92	48.936
550.26	48.635
550.60	49.399
550.94	49.030
551.28	47.161
551.62	47.519
551.96	46.779
552.30	45.997
552.64	46.257
552.98	47.656
553.32	46.503
553.66	47.249
554.00	46.436
554.34	46.154
554.68	46.160
555.02	47.231
555.36	47.504
555.69	46.540
556.03	47.677
556.37	45.875
556.71	46.181
557.05	47.454
557.39	46.797
557.73	46.293
558.07	46.647
558.41	46.934
558.75	46.420
559.08	47.554
559.42	46.499
559.76	46.330
560.10	46.964
560.44	47.458
560.78	46.547
561.12	45.971
561.45	44.966
561.79	45.117
562.13	46.554
562.47	47.643
562.81	46.104
563.15	45.326
563.48	45.630
563.82	45.417
564.16	45.430
564.50	46.133
564.84	45.338
565.17	46.159
565.51	45.856
565.85	45.370
566.19	46.291
566.52	44.692
566.86	44.753
567.20	45.205
567.54	43.005
567.88	42.609
568.21	43.292
568.55	43.714
568.89	41.825
569.23	42.667
569.56	41.469
569.90	40.798
570.24	39.819
570.57	39.850
570.91	39.947
571.25	39.745
571.59	39.838
571.92	40.100
572.26	40.392
572.60	40.715
572.93	40.800
573.27	39.447
573.61	40.081
573.95	40.005
574.28	39.778
574.62	38.534
574.96	39.026
575.29	39.544
575.63	39.331
575.97	39.973
576.30	38.822
576.64	39.114
576.98	39.026
577.31	39.066
577.65	38.326
577.98	38.341
578.32	37.965
578.66	38.888
578.99	39.061
579.33	39.580
579.67	39.588
580.00	38.559
580.34	39.069
580.67	38.902
581.01	38.363
581.35	37.925
581.68	37.517
582.02	37.387
582.35	38.221
582.69	38.029
583.02	38.304
583.36	39.317
583.70	39.184
584.03	38.878
584.37	39.672
584.70	38.535
585.04	38.796
585.37	38.202
585.71	37.820
586.04	38.045
586.38	38.016
586.72	38.382
587.05	39.594
587.39	38.583
587.72	38.218
588.06	38.413
588.39	38.847
588.73	38.478
589.06	39.185
589.40	38.528
589.73	38.987
590.07	38.425
590.40	38.660
590.73	39.344
591.07	39.323
591.40	38.957
591.74	39.306
592.07	39.799
592.41	38.310
592.74	38.117
593.08	36.923
593.41	37.572
593.75	36.983
594.08	37.409
594.41	38.501
594.75	39.393
595.08	37.603
595.42	38.153
595.75	37.672
596.09	38.568
596.42	38.562
596.75	38.921
597.09	39.991
597.42	38.986
597.75	38.667
598.09	38.024
598.42	38.881
598.76	37.867
599.09	37.695
599.42	37.424
599.76	37.514
600.09	37.538
600.42	37.137
600.76	36.992
601.09	37.100
601.42	37.397
601.76	37.259
602.09	37.860
602.42	38.300
602.76	37.626
603.09	38.111
603.42	37.585
603.76	36.360
604.09	36.443
604.42	37.003
604.76	37.800
605.09	37.608
605.42	38.776
605.75	37.645
606.09	37.169
606.42	37.282
606.75	36.710
607.09	36.791
607.42	37.172
607.75	36.193
608.08	37.241
608.42	37.488
608.75	37.602
609.08	37.090
609.41	37.705
609.75	37.368
610.08	37.426
610.41	37.464
610.74	36.526
611.07	37.575
611.41	38.025
611.74	37.060
612.07	36.686
612.40	38.432
612.73	37.651
613.07	37.084
613.40	37.225
613.73	37.324
614.06	36.650
614.39	37.799
614.72	38.368
615.06	36.944
615.39	36.865
615.72	36.825
616.05	36.374
616.38	37.457
616.71	36.413
617.05	37.346
617.38	37.092
617.71	36.887
618.04	37.416
618.37	37.413
618.70	38.098
619.03	38.007
619.36	39.573
619.69	37.135
620.03	37.456
620.36	36.952
620.69	37.402
621.02	37.846
621.35	36.877
621.68	38.386
622.01	39.563
622.34	38.462
622.67	37.666
623.00	38.450
623.33	37.771
623.66	36.729
623.99	38.035
624.32	37.638
624.65	37.240
624.99	37.325
625.32	37.640
625.65	38.372
625.98	37.283
626.31	38.694
626.64	38.693
626.97	38.581
627.30	37.810
627.63	38.149
627.96	36.277
628.29	38.884
628.62	37.911
628.95	39.178
629.28	38.621
629.61	39.713
629.94	38.878
630.26	39.310
630.59	39.161
630.92	38.855
631.25	39.238
631.58	39.186
631.91	38.070
632.24	38.639
632.57	37.444
632.90	39.907
633.23	38.369
633.56	39.688
633.89	39.115
634.22	41.696
634.55	40.438
634.88	39.583
635.20	40.000
635.53	37.468
635.86	38.462
636.19	40.943
636.52	38.537
636.85	40.410
637.18	38.611
637.51	38.577
637.83	39.817
638.16	36.933
638.49	37.650
638.82	37.908
639.15	37.367
639.48	37.433
639.81	39.028
640.13	39.014
640.46	40.395
640.79	37.698
641.12	38.018
641.45	39.447
641.77	38.292
642.10	39.032
642.43	39.623
642.76	41.325
643.09	39.776
643.41	40.351
643.74	37.964
644.07	40.129
644.40	39.801
644.73	38.983
645.05	39.442
645.38	37.874
645.71	38.605
646.04	37.037
646.36	39.583
646.69	39.860
647.02	42.077
647.35	41.865
647.67	38.262
648.00	40.036
648.33	39.661
648.66	38.898
648.98	37.267
649.31	36.656
649.64	36.776
649.96	37.915
650.29	37.908
650.62	36.079
650.94	38.103
651.27	39.046
651.60	36.364
651.92	39.427
652.25	39.698
652.58	37.624
652.90	38.384
653.23	35.144
653.56	36.198
653.88	35.154
654.21	38.055
654.54	36.379
654.86	35.122
655.19	36.134
655.52	34.816
655.84	28.699
656.17	34.433
656.49	45.988
656.82	46.145
657.15	36.061
657.47	27.216
657.80	20.390
658.13	22.142
658.45	33.426
658.78	34.049
659.10	34.543
659.43	34.723
659.75	34.621
660.08	34.690
660.41	36.308
660.73	35.399
661.06	35.544
661.38	36.822
661.71	38.525
662.03	40.592
662.36	38.717
662.68	38.065
663.01	39.619
663.33	39.093
663.66	37.472
663.98	41.798
664.31	36.923
664.63	35.135
664.96	38.293
665.28	38.627
665.61	36.501
665.93	36.617
666.26	37.131
666.58	34.690
666.91	40.359
667.23	37.097
667.56	36.782
667.88	36.682
668.21	37.500
668.53	38.391
668.86	37.890
669.18	38.298
669.50	39.171
669.83	36.277
670.15	36.905
670.48	37.011
670.80	38.731
671.13	35.469
671.45	36.758
671.77	37.069
672.10	32.554
672.42	37.023
672.75	32.500
673.07	33.636
673.39	34.888
673.72	38.323
674.04	37.295
674.37	34.146
674.69	34.979
675.01	36.325
675.34	35.230
675.66	36.819
675.98	33.850
676.31	33.710
676.63	39.002
676.95	37.647
677.28	35.092
677.60	40.931
677.92	34.146
678.25	34.707
678.57	36.456
678.89	33.902
679.22	37.060
679.54	34.286
679.86	35.742
680.18	33.269
680.51	34.038
680.83	33.723
681.15	36.542
681.48	34.269
681.80	33.742
682.12	35.000
682.44	31.791
682.77	30.947
683.09	35.045
683.41	33.023
683.73	33.705
684.06	32.965
684.38	34.188
684.70	31.772
685.02	37.190
685.34	35.812
685.67	32.833
685.99	32.384
686.31	33.448
686.63	33.640
686.96	32.468
687.28	32.535
687.60	33.270
687.92	33.268
688.24	34.600
688.56	31.579
688.89	35.412
689.21	32.735
689.53	28.829
689.85	31.236
690.17	34.066
690.49	32.126
690.82	34.845
691.14	29.952
691.46	33.411
691.78	34.505
692.10	35.669
692.42	32.967
692.74	33.478
693.06	28.989
693.39	31.148
693.71	32.667
694.03	32.727
694.35	36.486
694.67	33.500
694.99	31.959
695.31	32.041
695.63	30.000
695.95	33.842
696.27	30.411
696.59	31.720
696.91	29.609
697.23	29.695
697.56	32.134
697.88	30.353
698.20	31.533
698.52	32.944
698.84	32.536
699.16	31.442
699.48	34.321
699.80	35.917
700.12	30.563
700.44	30.986
700.76	31.742
701.08	32.326
701.40	32.036
701.72	34.154
702.04	32.704
702.36	31.402
702.68	28.963
703.00	32.164
703.32	26.462
703.64	35.241
703.96	31.378
704.28	31.024
704.60	33.537
704.91	28.840
705.23	32.911
705.55	31.379
705.87	30.986
706.19	30.037
706.51	33.451
706.83	28.025
707.15	32.317
707.47	30.579
707.79	31.218
708.11	28.021
708.43	29.949
708.74	30.585
709.06	30.214
709.38	30.836
709.70	31.231
710.02	30.530
710.34	30.667
710.66	30.945
710.98	27.554
711.29	31.169
711.61	30.000
711.93	33.548
712.25	28.671
712.57	27.368
712.89	31.502
713.20	27.305
713.52	26.277
713.84	27.097
714.16	30.097
714.48	31.013
714.80	29.712
715.11	29.070
715.43	23.913
715.75	28.571
716.07	33.735
716.39	29.630
716.70	33.094
717.02	27.451
717.34	28.030
717.66	27.586
717.97	22.222
718.29	34.646
718.61	25.322
718.93	25.969
719.24	32.103
719.56	26.966
719.88	25.746
720.20	28.854
720.51	31.641
720.83	29.572
721.15	26.423
721.46	24.046
721.78	31.076
722.10	29.482
722.42	25.000
722.73	28.958
723.05	31.020
723.37	29.412
723.68	26.800
724.00	28.936
724.32	26.360
724.63	26.749
724.95	26.923
725.27	33.755
725.58	29.218
725.90	29.289
726.22	29.348
726.53	25.098
726.85	28.832
727.16	25.556
727.48	32.184
727.80	31.641
728.11	29.508
728.43	28.125
728.74	28.571
729.06	28.800
729.38	34.387
729.69	26.335
730.01	24.164
730.32	26.199
730.64	29.167
730.96	31.818
731.27	28.428
731.59	29.524
731.90	25.566
732.22	26.923
732.53	25.000
732.85	23.154
733.16	28.053
733.48	28.378
733.80	25.338
734.11	31.757
734.43	25.697
734.74	29.429
735.06	23.919
735.37	25.228
735.69	25.890
736.00	27.063
736.32	31.560
736.63	25.517
736.95	28.082
737.26	26.897
737.58	24.653
737.89	27.491
738.21	26.690
738.52	25.475
738.83	29.388
739.15	28.692
739.46	26.848
739.78	22.183
740.09	25.685
740.41	21.071
740.72	23.759
741.04	24.400
741.35	25.877
741.66	32.000
741.98	31.250
742.29	35.644
742.61	26.829
742.92	29.386
743.23	21.698
743.55	30.631
743.86	27.803
744.18	27.451
744.49	23.350
744.80	29.082
745.12	22.897
745.43	24.171
745.74	26.577
746.06	18.224
746.37	24.312
746.68	27.885
747.00	26.316
747.31	25.962
747.62	27.982
747.94	28.384
748.25	21.560
748.56	32.000
748.88	29.108
749.19	31.429
749.50	22.816
749.82	22.535
750.13	20.000
750.44	26.923
750.75	20.664
751.07	25.623
751.38	25.532
751.69	26.641
752.01	24.609
752.32	25.385
752.63	29.851
752.94	23.600
753.26	24.686
753.57	28.750
753.88	29.150
754.19	23.108
754.51	25.188
754.82	24.908
755.13	21.739
755.44	26.829
755.75	20.000
756.07	24.723
756.38	27.338
756.69	25.597
757.00	27.414
757.31	23.301
757.63	24.383
757.94	27.401
758.25	22.751
758.56	22.283
758.87	27.083
759.18	23.975
759.50	24.242
759.81	26.087
760.12	26.462
760.43	22.619
760.74	24.011
761.05	25.414
761.36	23.209
761.67	21.752
761.99	23.711
762.30	24.088
762.61	20.988
762.92	29.915
763.23	27.459
763.54	22.944
763.85	23.265
764.16	21.138
764.47	25.200
764.78	25.000
765.10	23.607
765.41	24.316
765.72	23.292
766.03	25.413
766.34	25.000
766.65	24.268
766.96	19.718
767.27	25.248
767.58	20.225
767.89	20.988
768.20	17.680
768.51	23.618
768.82	24.519
769.13	24.779
769.44	22.594
769.75	21.368
770.06	21.076
770.37	23.039
770.68	23.786
770.99	19.417
771.30	26.050
771.61	23.265
771.92	27.386
772.23	16.667
772.54	16.022
772.85	20.349
773.16	21.164
773.47	14.793
773.78	21.839
774.09	21.875
774.39	18.012
774.70	17.687
775.01	20.000
775.32	17.857
775.63	21.053
775.94	14.286
776.25	16.000
776.56	29.752
776.87	17.460
777.18	20.721
777.48	22.523
777.79	19.685
778.10	22.018
778.41	14.035
778.72	16.807
779.03	13.380
779.34	20.270
779.65	24.648
779.95	27.815
780.26	13.669
780.57	19.424
780.88	12.676
781.19	11.765
781.50	31.544
781.80	12.281
782.11	17.442
782.42	21.384
782.73	21.569
783.04	26.897
783.34	15.267
783.65	12.081
783.96	20.000
784.27	16.429
784.57	20.567
784.88	16.346
785.19	30.000
785.50	20.909
785.81	14.286
786.11	10.924
786.42	21.239
786.73	20.755
787.04	5.505
787.34	12.871
787.65	25.000
787.96	18.182
788.26	15.942
788.57	26.984
788.88	18.699
789.19	18.400
789.49	12.214
789.80	25.758
790.11	15.094
790.41	20.792
790.72	12.766
791.03	21.739
791.33	0.000
791.64	14.815
791.95	15.217
792.25	15.909
792.56	14.103
792.87	3.846
793.17	2.564
793.48	7.143
793.79	15.000
794.09	27.885
794.40	21.875
794.70	20.721
795.01	18.750
795.32	23.478
795.62	4.348
795.93	9.434
796.23	17.172
796.54	17.073
796.85	17.857
797.15	6.061
797.46	15.942
797.76	13.158
798.07	20.455
798.37	14.634
798.68	-8.065
798.99	0.000
799.29	32.530
799.60	16.667
799.90	16.923
800.21	25.758
800.51	6.667
800.82	14.667
801.12	-20.833
801.43	-3.333
801.73	-1.351
802.04	18.571
802.34	4.918
802.65	23.881
802.95	5.455
803.26	10.345
803.56	3.077
803.87	15.094
804.17	-8.065
804.48	11.765
804.78	4.878
805.09	5.797
805.39	2.941
805.70	-21.277
806.00	8.772
806.30	23.077
806.61	17.105
806.91	16.216
807.22	17.105
807.52	19.318
807.83	-10.169
808.13	-10.606
808.43	18.333
808.74	-13.793
809.04	9.524
809.35	6.122
809.65	-5.000
809.95	-14.286
810.26	26.761
810.56	-8.333
810.86	-10.204
811.17	9.615
811.47	-10.638
811.77	6.250
812.08	11.321
812.38	-9.375
812.69	21.818
812.99	17.073
813.29	8.108
813.59	-48.649
813.90	1.818
814.20	1.818
814.50	-3.333
814.81	14.545
815.11	-1.754
815.41	23.256
815.72	5.000
816.02	17.143
816.32	-16.216
816.62	12.500
816.93	28.889
817.23	-13.333
817.53	-11.111
817.84	-18.919
818.14	7.317
818.44	12.000
818.74	-10.204
819.04	9.756
819.35	5.556
819.65	0.000
819.95	-16.667
820.25	-9.091
820.56	4.762
820.86	-25.000
821.16	-15.909
821.46	2.174
821.76	-8.621
822.07	10.870
822.37	6.061
822.67	21.951
822.97	10.811
823.27	-31.429
823.57	17.241
823.88	2.941
824.18	5.556
824.48	5.714
824.78	14.286
825.08	0.000
825.38	-11.111
825.69	25.806
825.99	-2.439
826.29	0.000
826.59	-12.500
826.89	-22.581
827.19	-52.174
827.49	-5.556
827.79	-30.435
828.09	-41.935
828.39	2.083
828.70	-50.000
829.00	-6.897
829.30	0.000
829.60	-29.167
829.90	-3.704
830.20	-21.875
830.50	-22.727
830.80	-105.882
831.10	-27.273
831.40	-14.706
831.70	7.692
832.00	12.121
832.30	-5.882
832.60	8.108
832.90	-300.000
833.20	-28.571
833.50	-90.000
833.80	-2.632
834.10	-29.167
834.40	-22.727
834.70	-33.333
835.00	-120.000
835.30	-8.333
835.60	14.286
835.90	-42.857
836.20	-28.000
836.50	-16.667
836.80	-63.158
837.10	29.730
837.40	26.667
837.70	4.348
838.00	4.167
838.30	-21.053
838.60	-110.000
838.90	-100.000
839.19	-133.333
839.49	-7.692
839.79	-21.053
840.09	-316.667
840.39	-90.000
840.69	-54.545
840.99	33.333
841.29	-16.667
841.59	-100.000
841.88	-80.000
842.18	-35.714
842.48	23.333
842.78	-371.429
843.08	-64.286
843.38	-75.000
843.68	-31.250
843.97	28.571
844.27	-100.000
844.57	-100.000
844.87	-60.000
845.17	50.000
845.47	833.333
845.76	20.000
846.06	-91.667
846.36	-1100.000
846.66	-31.579
846.96	18.182
847.25	-111.111
847.55	-233.333
847.85	-47.619
848.15	7.692
848.44	-350.000
848.74	-58.333
849.04	-138.462
849.34	-275.000
849.63	-127.273
849.93	-214.286
850.23	20.000
850.53	-187.500
850.82	22.222
851.12	53.333
851.42	-47.059
851.71	-50.000
852.01	5.882
852.31	-15.385
852.61	750.000
852.90	-5.882
853.20	-40.000
853.50	-6.250
853.79	-135.714
854.09	-250.000
854.39	-50.000
854.68	-10.000
854.98	-23.810
855.28	-8.000
855.57	12.500
855.87	8.333
856.17	-40.000
856.46	-3.125
856.76	-10.000
857.05	44.000
857.35	-150.000
857.65	17.647
857.94	-158.333
858.24	-75.000
858.53	0.000
858.83	-81.818
859.13	12.000
859.42	-107.143
859.72	-200.000
860.01	-20.833
860.31	-312.500
860.60	-56.250
860.90	-250.000
861.20	-116.667
861.49	46.667
861.79	-18.750
862.08	200.000
862.38	-133.333
862.67	328.571
862.97	325.000
863.26	-145.455
863.56	-63.636
863.85	5.263
864.15	-5.882
864.44	-200.000
864.74	-10.000
865.03	-66.667
865.33	14.286
865.62	164.286
865.92	-21.053
866.21	-66.667
866.51	-118.182
866.80	22.222
867.10	-112.500
867.39	-12.500
867.69	-40.000
867.98	-120.000
868.27	-52.941
868.57	0.000
868.86	1000.000
869.16	-450.000
869.45	-328.571
869.75	350.000
870.04	20.000
870.33	-1200.000
870.63	-47.368
870.92	-25.000
871.22	-1000.000
871.51	-428.571
871.80	-222.222
872.10	-550.000
>>>>>End Processed Spectral Data<<<<<
