SpectraSuite Data File
++++++++++++++++++++++++++++++++++++
Date: Wed May 13 21:30:26 PDT 2015
User: schluterlab
Dark Spectrum Present: Yes
Reference Spectrum Present: Yes
Number of Sampled Component Spectra: 1
Spectrometers: USB2E3373
Integration Time (usec): 3000 (USB2E3373)
Spectra Averaged: 3 (USB2E3373)
Boxcar Smoothing: 0 (USB2E3373)
Correct for Electrical Dark: No (USB2E3373)
Strobe/Lamp Enabled: No (USB2E3373)
Correct for Detector Non-linearity: No (USB2E3373)
Correct for Stray Light: No (USB2E3373)
Number of Pixels in Processed Spectrum: 2048
>>>>>Begin Processed Spectral Data<<<<<
178.53	0.000
178.91	750.000
179.29	183.333
179.67	-800.000
180.04	-600.000
180.42	220.000
180.80	2000.000
181.18	316.667
181.56	-250.000
181.94	-150.000
182.31	0.000
182.69	161.538
183.07	-300.000
183.45	283.333
183.83	255.556
184.20	128.571
184.58	-133.333
184.96	700.000
185.34	285.714
185.72	0.000
186.09	-700.000
186.47	-60.000
186.85	100.000
187.23	-450.000
187.61	50.000
187.98	1300.000
188.36	12.500
188.74	0.000
189.12	-18.182
189.49	-30.000
189.87	75.000
190.25	280.000
190.63	700.000
191.00	-260.000
191.38	380.000
191.76	200.000
192.14	158.333
192.51	-26.316
192.89	533.333
193.27	200.000
193.65	-300.000
194.02	172.727
194.40	240.000
194.78	-1500.000
195.15	180.000
195.53	40.000
195.91	-112.500
196.29	33.333
196.66	0.000
197.04	400.000
197.42	-60.000
197.79	-50.000
198.17	-162.500
198.55	-333.333
198.92	375.000
199.30	-366.667
199.68	30.000
200.05	400.000
200.43	300.000
200.81	-1100.000
201.18	-260.000
201.56	-150.000
201.94	700.000
202.31	-21.739
202.69	-114.286
203.07	-766.667
203.44	-220.000
203.82	-266.667
204.19	-60.000
204.57	0.000
204.95	-100.000
205.32	0.000
205.70	-300.000
206.08	-350.000
206.45	-183.333
206.83	500.000
207.20	-166.667
207.58	-110.000
207.96	-1100.000
208.33	-171.429
208.71	-700.000
209.08	175.000
209.46	475.000
209.84	0.000
210.21	180.000
210.59	2500.000
210.96	380.000
211.34	1100.000
211.71	-800.000
212.09	-100.000
212.46	-160.000
212.84	0.000
213.22	25.000
213.59	-1200.000
213.97	-350.000
214.34	-800.000
214.72	-61.538
215.09	275.000
215.47	177.778
215.84	750.000
216.22	-12.500
216.59	-350.000
216.97	800.000
217.34	55.556
217.72	0.000
218.09	366.667
218.47	-800.000
218.84	-157.143
219.22	-125.000
219.59	-300.000
219.97	-75.000
220.34	-137.500
220.72	-180.000
221.09	0.000
221.47	-33.333
221.84	-700.000
222.22	0.000
222.59	900.000
222.97	-333.333
223.34	-66.667
223.72	-500.000
224.09	-650.000
224.46	-90.909
224.84	-62.500
225.21	-128.571
225.59	-325.000
225.96	-66.667
226.34	-100.000
226.71	-200.000
227.08	1100.000
227.46	-175.000
227.83	-800.000
228.21	-31.250
228.58	-475.000
228.95	17.647
229.33	-12.500
229.70	-87.500
230.08	-53.846
230.45	-162.500
230.82	-83.333
231.20	385.714
231.57	-300.000
231.95	1200.000
232.32	-58.333
232.69	-29.412
233.07	-900.000
233.44	-34.783
233.81	-200.000
234.19	12.500
234.56	-100.000
234.93	-6.667
235.31	-5.263
235.68	-7.692
236.05	-15.385
236.43	-5.556
236.80	3.030
237.17	-33.333
237.55	-17.647
237.92	10.345
238.29	-25.926
238.67	13.889
239.04	19.355
239.41	25.532
239.79	23.404
240.16	48.837
240.53	30.357
240.91	32.143
241.28	30.357
241.65	56.452
242.02	28.947
242.40	40.580
242.77	24.638
243.14	35.897
243.51	32.979
243.89	42.308
244.26	51.887
244.63	46.154
245.00	53.125
245.38	44.538
245.75	33.607
246.12	41.353
246.49	45.528
246.87	36.134
247.24	45.946
247.61	42.384
247.98	47.436
248.36	50.296
248.73	45.506
249.10	50.000
249.47	44.086
249.84	46.842
250.22	53.731
250.59	42.991
250.96	47.727
251.33	43.541
251.70	53.138
252.08	40.586
252.45	44.033
252.82	49.049
253.19	46.693
253.56	45.683
253.94	48.399
254.31	45.423
254.68	45.302
255.05	47.855
255.42	50.000
255.79	48.466
256.16	49.211
256.54	49.206
256.91	47.785
257.28	47.170
257.65	49.363
258.02	46.921
258.39	49.123
258.76	43.895
259.14	44.602
259.51	47.472
259.88	45.528
260.25	47.222
260.62	46.910
260.99	48.806
261.36	47.409
261.73	48.642
262.10	50.127
262.47	48.148
262.85	47.512
263.22	48.974
263.59	47.273
263.96	47.445
264.33	47.837
264.70	49.535
265.07	48.611
265.44	52.414
265.81	49.886
266.18	51.481
266.55	48.035
266.92	47.881
267.29	45.885
267.66	49.682
268.03	45.679
268.40	48.305
268.77	46.281
269.14	47.347
269.51	49.487
269.88	47.454
270.25	50.000
270.62	46.107
270.99	47.441
271.36	49.603
271.73	48.594
272.10	49.524
272.47	47.793
272.84	49.803
273.21	47.358
273.58	49.590
273.95	45.094
274.32	47.388
274.69	45.537
275.06	47.703
275.43	50.847
275.80	45.745
276.17	48.066
276.54	43.694
276.91	44.251
277.28	46.390
277.65	45.280
278.02	46.429
278.39	48.490
278.76	46.656
279.13	45.111
279.50	46.379
279.87	48.007
280.23	48.108
280.60	45.675
280.97	46.916
281.34	47.161
281.71	44.390
282.08	46.154
282.45	43.607
282.82	46.486
283.19	44.207
283.56	45.156
283.92	45.872
284.29	45.398
284.66	43.163
285.03	44.788
285.40	43.051
285.77	44.444
286.14	46.505
286.51	44.678
286.87	45.077
287.24	43.805
287.61	43.373
287.98	43.824
288.35	42.623
288.72	43.042
289.08	43.447
289.45	40.969
289.82	43.268
290.19	40.112
290.56	42.045
290.93	39.779
291.29	41.587
291.66	41.667
292.03	41.689
292.40	38.493
292.77	39.759
293.13	40.586
293.50	40.392
293.87	40.533
294.24	39.153
294.60	39.402
294.97	38.889
295.34	39.446
295.71	36.925
296.08	38.089
296.44	35.714
296.81	37.028
297.18	37.750
297.55	36.439
297.91	37.267
298.28	37.893
298.65	35.468
299.02	39.072
299.38	38.405
299.75	37.380
300.12	34.419
300.48	35.673
300.85	36.028
301.22	34.843
301.59	35.681
301.95	34.379
302.32	35.939
302.69	32.994
303.05	34.994
303.42	34.205
303.79	33.964
304.15	35.049
304.52	35.269
304.89	34.662
305.25	34.138
305.62	33.731
305.99	34.820
306.35	34.901
306.72	33.774
307.09	33.785
307.45	34.718
307.82	33.263
308.19	32.184
308.55	34.800
308.92	34.676
309.29	32.833
309.65	33.267
310.02	33.002
310.38	33.740
310.75	31.854
311.12	33.819
311.48	32.740
311.85	32.185
312.22	33.849
312.58	32.367
312.95	34.129
313.31	34.160
313.68	32.634
314.05	32.514
314.41	33.237
314.78	32.163
315.14	32.870
315.51	32.731
315.87	32.901
316.24	33.333
316.61	32.968
316.97	32.500
317.34	31.373
317.70	31.668
318.07	34.250
318.43	32.249
318.80	31.326
319.16	32.980
319.53	31.452
319.89	30.985
320.26	31.978
320.62	31.789
320.99	31.977
321.35	29.093
321.72	32.916
322.08	32.288
322.45	32.007
322.81	32.810
323.18	32.021
323.54	32.310
323.91	32.069
324.27	31.773
324.64	32.143
325.00	31.584
325.37	31.655
325.73	30.387
326.10	31.371
326.46	30.100
326.83	32.039
327.19	31.382
327.56	31.668
327.92	32.663
328.29	30.968
328.65	32.515
329.01	31.310
329.38	32.870
329.74	31.502
330.11	32.101
330.47	30.208
330.84	32.581
331.20	31.255
331.56	30.707
331.93	30.749
332.29	31.451
332.66	31.186
333.02	32.407
333.38	30.351
333.75	31.143
334.11	32.378
334.48	31.299
334.84	29.859
335.20	30.703
335.57	29.243
335.93	29.639
336.29	29.860
336.66	29.829
337.02	30.261
337.38	30.635
337.75	30.749
338.11	30.060
338.47	29.452
338.84	29.381
339.20	29.806
339.56	29.352
339.93	30.337
340.29	28.693
340.65	30.539
341.02	30.616
341.38	30.152
341.74	28.319
342.11	29.810
342.47	29.540
342.83	29.575
343.20	30.711
343.56	29.599
343.92	29.732
344.28	30.195
344.65	28.735
345.01	28.652
345.37	29.605
345.73	30.801
346.10	29.856
346.46	29.593
346.82	29.535
347.19	29.351
347.55	30.048
347.91	27.592
348.27	29.416
348.63	28.926
349.00	29.324
349.36	29.435
349.72	29.080
350.08	28.861
350.45	29.679
350.81	29.264
351.17	29.484
351.53	29.537
351.89	28.753
352.26	28.494
352.62	28.217
352.98	28.035
353.34	29.549
353.70	28.972
354.07	27.765
354.43	27.994
354.79	29.728
355.15	28.571
355.51	28.170
355.87	29.711
356.24	28.170
356.60	28.616
356.96	28.856
357.32	29.412
357.68	29.488
358.04	27.851
358.40	27.984
358.77	28.593
359.13	28.872
359.49	28.009
359.85	28.734
360.21	28.990
360.57	28.365
360.93	28.300
361.29	28.275
361.66	28.018
362.02	28.317
362.38	28.582
362.74	28.064
363.10	27.621
363.46	27.161
363.82	28.307
364.18	27.049
364.54	28.884
364.90	28.084
365.26	28.167
365.62	27.912
365.98	27.687
366.35	28.014
366.71	27.960
367.07	28.632
367.43	28.084
367.79	29.534
368.15	27.918
368.51	28.129
368.87	28.193
369.23	27.117
369.59	27.484
369.95	26.851
370.31	26.569
370.67	25.634
371.03	27.988
371.39	28.531
371.75	27.429
372.11	26.994
372.47	27.397
372.83	27.046
373.19	28.273
373.55	26.445
373.91	27.652
374.27	26.349
374.63	26.814
374.99	26.880
375.35	26.575
375.71	26.902
376.07	26.936
376.42	27.072
376.78	29.260
377.14	27.119
377.50	27.184
377.86	27.424
378.22	27.118
378.58	27.049
378.94	27.562
379.30	26.796
379.66	27.004
380.02	27.880
380.38	27.349
380.74	27.436
381.09	27.262
381.45	26.844
381.81	26.987
382.17	26.465
382.53	26.338
382.89	26.960
383.25	27.284
383.61	27.482
383.97	27.812
384.32	26.654
384.68	26.897
385.04	26.451
385.40	27.148
385.76	27.737
386.12	27.179
386.48	27.649
386.83	27.222
387.19	26.218
387.55	27.284
387.91	26.507
388.27	26.572
388.62	26.966
388.98	26.971
389.34	27.193
389.70	26.252
390.06	26.000
390.42	26.869
390.77	26.329
391.13	26.515
391.49	26.439
391.85	26.326
392.20	25.815
392.56	26.286
392.92	26.331
393.28	25.857
393.64	26.361
393.99	26.499
394.35	26.914
394.71	26.282
395.07	25.031
395.42	27.361
395.78	26.190
396.14	26.569
396.50	25.745
396.85	27.470
397.21	25.905
397.57	26.335
397.92	26.108
398.28	26.114
398.64	26.230
399.00	27.232
399.35	26.844
399.71	26.733
400.07	26.747
400.42	26.897
400.78	25.861
401.14	25.322
401.49	26.603
401.85	25.860
402.21	26.316
402.57	26.303
402.92	26.721
403.28	26.079
403.63	26.534
403.99	26.104
404.35	25.873
404.70	25.680
405.06	26.248
405.42	25.817
405.77	25.691
406.13	25.314
406.49	25.464
406.84	26.068
407.20	25.222
407.55	26.039
407.91	25.017
408.27	24.766
408.62	26.949
408.98	25.277
409.34	24.814
409.69	26.771
410.05	25.311
410.40	25.076
410.76	25.993
411.11	26.928
411.47	27.007
411.83	24.704
412.18	25.252
412.54	25.752
412.89	25.768
413.25	24.602
413.60	25.078
413.96	25.343
414.31	25.154
414.67	24.762
415.03	25.981
415.38	25.099
415.74	25.276
416.09	25.975
416.45	26.521
416.80	25.705
417.16	25.506
417.51	24.983
417.87	25.992
418.22	25.727
418.58	25.427
418.93	25.675
419.29	26.403
419.64	25.191
420.00	26.032
420.35	24.866
420.71	26.386
421.06	26.445
421.42	25.791
421.77	26.243
422.12	26.017
422.48	25.409
422.83	25.340
423.19	26.164
423.54	26.266
423.90	25.713
424.25	26.112
424.61	25.385
424.96	25.606
425.31	25.855
425.67	26.102
426.02	26.148
426.38	25.995
426.73	25.412
427.09	26.454
427.44	26.189
427.79	25.178
428.15	25.382
428.50	23.746
428.85	25.892
429.21	25.098
429.56	25.983
429.92	25.924
430.27	25.307
430.62	25.393
430.98	25.806
431.33	25.793
431.68	26.038
432.04	25.183
432.39	24.249
432.74	24.647
433.10	25.741
433.45	24.675
433.80	25.345
434.16	25.177
434.51	24.348
434.86	25.501
435.22	25.354
435.57	25.307
435.92	24.729
436.28	24.625
436.63	26.155
436.98	24.971
437.34	25.397
437.69	25.679
438.04	25.467
438.39	25.592
438.75	24.613
439.10	25.275
439.45	25.182
439.81	25.862
440.16	25.159
440.51	25.922
440.86	26.082
441.22	24.154
441.57	24.620
441.92	25.557
442.27	24.946
442.63	24.865
442.98	25.231
443.33	25.226
443.68	25.409
444.03	24.988
444.39	25.682
444.74	24.682
445.09	24.449
445.44	25.352
445.79	24.781
446.15	24.792
446.50	25.000
446.85	25.494
447.20	25.353
447.55	25.630
447.91	25.169
448.26	24.700
448.61	24.511
448.96	24.715
449.31	25.642
449.66	25.564
450.02	25.014
450.37	25.264
450.72	25.545
451.07	25.329
451.42	25.702
451.77	25.259
452.12	25.312
452.47	25.694
452.83	24.410
453.18	24.379
453.53	24.149
453.88	25.663
454.23	25.464
454.58	25.306
454.93	24.888
455.28	24.984
455.63	24.205
455.98	23.859
456.34	24.285
456.69	25.240
457.04	24.582
457.39	24.534
457.74	24.177
458.09	24.882
458.44	23.619
458.79	24.382
459.14	23.652
459.49	24.390
459.84	24.690
460.19	25.030
460.54	24.513
460.89	24.662
461.24	24.599
461.59	24.758
461.94	24.652
462.29	24.510
462.64	24.011
462.99	24.413
463.34	25.414
463.69	24.485
464.04	23.469
464.39	24.466
464.74	24.017
465.09	23.931
465.44	24.523
465.79	25.532
466.14	24.743
466.49	25.748
466.84	25.224
467.19	24.268
467.54	25.275
467.89	24.450
468.24	23.602
468.59	23.773
468.94	24.266
469.29	24.058
469.64	24.477
469.99	24.069
470.34	24.140
470.68	23.494
471.03	24.683
471.38	24.200
471.73	23.320
472.08	24.742
472.43	23.615
472.78	24.138
473.13	22.823
473.48	23.222
473.83	24.419
474.17	23.177
474.52	23.495
474.87	23.100
475.22	23.853
475.57	23.871
475.92	24.537
476.27	24.009
476.61	23.556
476.96	23.815
477.31	24.811
477.66	23.446
478.01	23.571
478.36	23.433
478.70	22.986
479.05	24.251
479.40	23.557
479.75	24.336
480.10	23.406
480.45	23.345
480.79	23.793
481.14	23.354
481.49	24.618
481.84	22.950
482.19	23.576
482.53	23.619
482.88	24.113
483.23	22.907
483.58	23.724
483.92	23.638
484.27	23.696
484.62	23.524
484.97	23.725
485.31	23.725
485.66	23.373
486.01	24.474
486.36	24.959
486.70	25.364
487.05	25.287
487.40	25.145
487.75	26.242
488.09	25.712
488.44	25.552
488.79	25.397
489.13	24.254
489.48	23.728
489.83	24.341
490.17	24.103
490.52	23.703
490.87	23.273
491.22	23.316
491.56	23.958
491.91	22.948
492.26	23.598
492.60	23.184
492.95	23.907
493.30	22.481
493.64	23.357
493.99	23.478
494.34	23.170
494.68	23.628
495.03	22.826
495.37	23.114
495.72	22.607
496.07	23.429
496.41	22.461
496.76	22.715
497.11	24.038
497.45	23.735
497.80	23.624
498.14	22.720
498.49	22.743
498.84	23.583
499.18	23.345
499.53	22.403
499.87	22.222
500.22	23.096
500.56	23.320
500.91	22.988
501.26	23.202
501.60	22.745
501.95	23.479
502.29	22.767
502.64	23.240
502.98	22.881
503.33	22.676
503.67	23.661
504.02	23.431
504.36	23.081
504.71	22.917
505.06	23.688
505.40	23.144
505.75	23.093
506.09	22.688
506.44	23.135
506.78	23.159
507.13	22.817
507.47	22.694
507.82	22.606
508.16	23.166
508.51	22.056
508.85	22.343
509.19	22.328
509.54	23.110
509.88	22.849
510.23	22.105
510.57	22.775
510.92	23.384
511.26	22.552
511.61	22.503
511.95	21.996
512.30	22.543
512.64	23.042
512.98	22.936
513.33	22.197
513.67	21.863
514.02	23.432
514.36	22.416
514.70	22.055
515.05	22.645
515.39	22.877
515.74	22.143
516.08	21.416
516.42	21.141
516.77	21.617
517.11	21.987
517.46	21.909
517.80	22.942
518.14	21.249
518.49	21.820
518.83	21.241
519.17	21.325
519.52	21.894
519.86	22.222
520.20	21.831
520.55	22.015
520.89	20.493
521.23	21.731
521.58	21.681
521.92	22.250
522.26	20.364
522.61	21.913
522.95	22.215
523.29	22.476
523.64	22.759
523.98	21.728
524.32	20.920
524.66	21.558
525.01	21.953
525.35	22.317
525.69	22.399
526.04	20.651
526.38	21.734
526.72	22.025
527.06	21.470
527.41	20.847
527.75	20.895
528.09	21.443
528.43	22.524
528.78	21.770
529.12	21.539
529.46	21.945
529.80	21.359
530.15	21.815
530.49	21.631
530.83	22.207
531.17	22.603
531.51	20.971
531.86	21.409
532.20	21.709
532.54	21.379
532.88	22.192
533.22	21.886
533.57	21.457
533.91	22.387
534.25	22.526
534.59	21.107
534.93	21.939
535.27	21.975
535.62	21.842
535.96	22.446
536.30	22.274
536.64	21.053
536.98	21.864
537.32	21.708
537.66	20.663
538.01	20.943
538.35	21.892
538.69	21.137
539.03	21.544
539.37	21.127
539.71	22.374
540.05	21.660
540.39	21.473
540.73	22.626
541.07	22.041
541.42	22.088
541.76	22.530
542.10	21.395
542.44	20.998
542.78	21.860
543.12	22.237
543.46	21.285
543.80	20.842
544.14	21.335
544.48	20.902
544.82	21.856
545.16	21.231
545.50	22.417
545.84	22.581
546.18	21.529
546.52	21.242
546.86	21.131
547.20	21.801
547.54	20.801
547.88	22.065
548.22	21.759
548.56	22.348
548.90	21.989
549.24	22.569
549.58	21.352
549.92	22.084
550.26	22.288
550.60	22.372
550.94	20.821
551.28	20.439
551.62	21.203
551.96	21.742
552.30	20.160
552.64	21.540
552.98	21.875
553.32	21.990
553.66	22.084
554.00	22.102
554.34	21.612
554.68	22.148
555.02	21.183
555.36	20.726
555.69	20.976
556.03	21.587
556.37	20.697
556.71	21.514
557.05	21.476
557.39	20.422
557.73	22.088
558.07	21.402
558.41	22.256
558.75	21.324
559.08	20.690
559.42	21.400
559.76	20.107
560.10	21.138
560.44	21.076
560.78	21.799
561.12	21.654
561.45	21.497
561.79	22.352
562.13	21.449
562.47	20.714
562.81	20.563
563.15	21.317
563.48	20.785
563.82	21.409
564.16	22.343
564.50	22.185
564.84	22.365
565.17	21.987
565.51	20.521
565.85	20.386
566.19	22.185
566.52	21.101
566.86	21.745
567.20	22.786
567.54	21.531
567.88	21.669
568.21	21.782
568.55	22.587
568.89	22.183
569.23	23.098
569.56	22.570
569.90	23.581
570.24	23.213
570.57	23.883
570.91	23.668
571.25	23.121
571.59	23.602
571.92	23.966
572.26	24.651
572.60	24.638
572.93	24.461
573.27	23.899
573.61	24.388
573.95	23.903
574.28	24.542
574.62	24.364
574.96	24.852
575.29	24.824
575.63	24.605
575.97	24.674
576.30	24.559
576.64	24.548
576.98	24.672
577.31	24.746
577.65	24.431
577.98	24.498
578.32	24.438
578.66	24.898
578.99	24.836
579.33	25.037
579.67	24.949
580.00	24.447
580.34	24.964
580.67	25.404
581.01	24.510
581.35	24.296
581.68	24.418
582.02	25.297
582.35	25.340
582.69	25.217
583.02	25.079
583.36	25.465
583.70	25.327
584.03	25.182
584.37	25.410
584.70	24.740
585.04	24.826
585.37	24.957
585.71	24.723
586.04	24.662
586.38	24.204
586.72	24.557
587.05	24.929
587.39	25.088
587.72	24.894
588.06	25.007
588.39	24.069
588.73	24.850
589.06	24.701
589.40	24.630
589.73	24.003
590.07	24.280
590.40	23.968
590.73	25.041
591.07	23.736
591.40	22.739
591.74	23.966
592.07	23.460
592.41	23.295
592.74	23.920
593.08	23.077
593.41	24.181
593.75	23.805
594.08	24.318
594.41	23.985
594.75	24.475
595.08	23.824
595.42	23.765
595.75	23.536
596.09	23.480
596.42	23.570
596.75	23.124
597.09	24.886
597.42	24.092
597.75	23.467
598.09	23.452
598.42	24.385
598.76	23.804
599.09	24.210
599.42	23.754
599.76	24.221
600.09	22.854
600.42	23.766
600.76	24.501
601.09	24.294
601.42	23.638
601.76	24.672
602.09	23.835
602.42	24.433
602.76	23.867
603.09	24.600
603.42	23.591
603.76	23.422
604.09	23.518
604.42	23.524
604.76	23.876
605.09	23.652
605.42	24.696
605.75	23.812
606.09	24.007
606.42	23.940
606.75	23.550
607.09	23.404
607.42	24.256
607.75	23.851
608.08	23.670
608.42	24.086
608.75	22.981
609.08	23.861
609.41	24.093
609.75	23.147
610.08	24.014
610.41	23.518
610.74	23.484
611.07	23.898
611.41	23.490
611.74	23.395
612.07	22.355
612.40	23.730
612.73	23.655
613.07	21.840
613.40	22.522
613.73	23.456
614.06	23.383
614.39	22.790
614.72	24.431
615.06	22.944
615.39	23.289
615.72	22.894
616.05	22.748
616.38	23.769
616.71	23.395
617.05	22.604
617.38	22.797
617.71	21.140
618.04	22.060
618.37	22.587
618.70	22.574
619.03	22.131
619.36	21.352
619.69	21.711
620.03	21.625
620.36	21.642
620.69	21.342
621.02	21.308
621.35	20.932
621.68	21.027
622.01	22.168
622.34	21.729
622.67	22.161
623.00	21.429
623.33	22.214
623.66	21.561
623.99	22.506
624.32	21.203
624.65	22.033
624.99	21.822
625.32	22.255
625.65	21.318
625.98	21.643
626.31	21.796
626.64	20.034
626.97	20.502
627.30	21.300
627.63	20.502
627.96	20.087
628.29	22.233
628.62	20.793
628.95	19.339
629.28	19.606
629.61	20.957
629.94	20.793
630.26	20.985
630.59	20.579
630.92	19.880
631.25	19.361
631.58	20.021
631.91	17.497
632.24	18.002
632.57	17.778
632.90	21.354
633.23	17.986
633.56	20.264
633.89	19.378
634.22	21.201
634.55	20.341
634.88	18.750
635.20	18.875
635.53	18.992
635.86	19.487
636.19	19.975
636.52	17.683
636.85	20.386
637.18	17.052
637.51	19.101
637.83	20.104
638.16	17.867
638.49	18.692
638.82	17.908
639.15	18.351
639.48	20.187
639.81	18.194
640.13	18.310
640.46	19.209
640.79	19.281
641.12	16.420
641.45	18.341
641.77	17.673
642.10	19.365
642.43	18.553
642.76	17.035
643.09	17.252
643.41	17.225
643.74	17.124
644.07	18.123
644.40	18.242
644.73	16.780
645.05	18.325
645.38	17.608
645.71	19.048
646.04	16.330
646.36	16.146
646.69	15.909
647.02	17.122
647.35	16.636
647.67	18.484
648.00	15.761
648.33	19.492
648.66	15.693
648.98	17.857
649.31	20.552
649.64	15.023
649.96	18.799
650.29	17.647
650.62	18.287
650.94	17.241
651.27	17.668
651.60	17.483
651.92	18.280
652.25	18.425
652.58	17.492
652.90	16.835
653.23	15.959
653.56	16.529
653.88	15.529
654.21	15.870
654.54	17.608
654.86	16.748
655.19	18.908
655.52	24.113
655.84	23.691
656.17	28.942
656.49	39.530
656.82	40.885
657.15	31.859
657.47	23.978
657.80	18.195
658.13	19.260
658.45	28.725
658.78	28.685
659.10	28.729
659.43	28.192
659.75	27.677
660.08	25.793
660.41	22.819
660.73	20.386
661.06	17.857
661.38	17.442
661.71	19.262
662.03	18.182
662.36	14.159
662.68	18.065
663.01	18.432
663.33	15.983
663.66	13.525
663.98	17.303
664.31	18.462
664.63	14.640
664.96	16.630
665.28	19.099
665.61	16.199
665.93	17.987
666.26	18.143
666.58	15.846
666.91	17.489
667.23	15.668
667.56	17.011
667.88	16.355
668.21	14.955
668.53	17.471
668.86	16.067
669.18	15.130
669.50	15.668
669.83	17.900
670.15	13.333
670.48	16.092
670.80	15.317
671.13	16.476
671.45	18.265
671.77	18.103
672.10	15.984
672.42	16.794
672.75	15.536
673.07	15.636
673.39	20.149
673.72	17.365
674.04	18.852
674.37	17.276
674.69	14.609
675.01	18.590
675.34	18.818
675.66	20.044
675.98	14.602
676.31	15.611
676.63	17.914
676.95	14.588
677.28	18.349
677.60	15.441
677.92	17.295
678.25	17.787
678.57	18.330
678.89	17.058
679.22	15.528
679.54	19.184
679.86	18.164
680.18	15.769
680.51	16.731
680.83	15.789
681.15	16.503
681.48	16.032
681.80	16.564
682.12	16.042
682.44	16.097
682.77	15.579
683.09	15.402
683.41	19.535
683.73	15.848
684.06	15.487
684.38	15.385
684.70	16.293
685.02	20.248
685.34	18.591
685.67	17.824
685.99	16.904
686.31	20.000
686.63	18.199
686.96	19.481
687.28	16.168
687.60	19.471
687.92	17.315
688.24	17.800
688.56	19.298
688.89	16.036
689.21	16.143
689.53	15.315
689.85	18.652
690.17	19.121
690.49	21.981
690.82	17.900
691.14	17.150
691.46	16.473
691.78	15.604
692.10	17.622
692.42	14.286
692.74	19.565
693.06	16.629
693.39	17.799
693.71	17.333
694.03	20.455
694.35	18.018
694.67	21.000
694.99	15.979
695.31	14.987
695.63	20.488
695.95	16.031
696.27	12.877
696.59	15.860
696.91	13.966
697.23	15.482
697.56	20.144
697.88	17.879
698.20	18.143
698.52	18.692
698.84	19.139
699.16	18.203
699.48	16.790
699.80	19.897
700.12	18.767
700.44	15.493
700.76	12.360
701.08	14.804
701.40	14.970
701.72	15.077
702.04	14.465
702.36	13.720
702.68	16.463
703.00	18.129
703.32	14.206
703.64	15.663
703.96	17.302
704.28	13.855
704.60	17.378
704.91	11.599
705.23	17.722
705.55	17.586
705.87	15.493
706.19	10.623
706.51	12.324
706.83	13.057
707.15	12.195
707.47	17.631
707.79	17.005
708.11	20.566
708.43	18.274
708.74	21.011
709.06	14.973
709.38	17.867
709.70	16.817
710.02	16.511
710.34	11.000
710.66	18.567
710.98	15.170
711.29	16.883
711.61	15.806
711.93	17.742
712.25	15.035
712.57	11.930
712.89	13.553
713.20	14.894
713.52	10.584
713.84	17.742
714.16	15.210
714.48	18.987
714.80	12.780
715.11	20.349
715.43	13.975
715.75	18.634
716.07	16.867
716.39	17.172
716.70	15.108
717.02	9.804
717.34	13.636
717.66	9.483
717.97	11.508
718.29	16.535
718.61	9.871
718.93	12.403
719.24	16.974
719.56	10.487
719.88	13.060
720.20	13.834
720.51	13.672
720.83	16.342
721.15	11.789
721.46	14.504
721.78	14.741
722.10	13.944
722.42	12.097
722.73	12.741
723.05	17.551
723.37	14.286
723.68	11.600
724.00	8.511
724.32	9.623
724.63	14.403
724.95	14.103
725.27	18.143
725.58	17.284
725.90	15.900
726.22	13.768
726.53	6.667
726.85	17.883
727.16	12.963
727.48	18.774
727.80	17.969
728.11	15.164
728.43	16.797
728.74	14.286
729.06	14.400
729.38	11.462
729.69	10.676
730.01	15.242
730.32	18.450
730.64	19.697
730.96	19.580
731.27	14.381
731.59	17.460
731.90	15.858
732.22	15.385
732.53	15.203
732.85	14.094
733.16	17.822
733.48	18.581
733.80	17.230
734.11	22.635
734.43	17.337
734.74	20.721
735.06	17.579
735.37	22.796
735.69	13.916
736.00	18.152
736.32	16.312
736.63	18.966
736.95	18.836
737.26	18.276
737.58	18.056
737.89	17.526
738.21	14.235
738.52	16.730
738.83	17.959
739.15	15.612
739.46	14.786
739.78	14.437
740.09	19.863
740.41	14.286
740.72	9.574
741.04	11.600
741.35	10.526
741.66	17.333
741.98	16.346
742.29	18.317
742.61	13.659
742.92	18.860
743.23	12.736
743.55	16.216
743.86	12.556
744.18	13.725
744.49	16.751
744.80	18.878
745.12	16.355
745.43	13.270
745.74	18.018
746.06	13.084
746.37	13.303
746.68	12.019
747.00	17.225
747.31	13.462
747.62	11.927
747.94	17.467
748.25	14.679
748.56	18.222
748.88	15.493
749.19	17.143
749.50	6.311
749.82	15.023
750.13	11.667
750.44	13.846
750.75	16.605
751.07	21.352
751.38	18.085
751.69	14.286
752.01	17.969
752.32	13.462
752.63	17.910
752.94	16.800
753.26	11.297
753.57	16.250
753.88	15.385
754.19	14.343
754.51	17.669
754.82	13.187
755.13	8.696
755.44	17.886
755.75	13.200
756.07	16.605
756.38	15.827
756.69	16.382
757.00	19.938
757.31	16.828
757.63	15.741
757.94	18.927
758.25	23.016
758.56	18.207
758.87	19.940
759.18	19.243
759.50	17.508
759.81	17.391
760.12	17.231
760.43	16.667
760.74	18.362
761.05	17.127
761.36	17.192
761.67	20.544
761.99	20.275
762.30	17.883
762.61	18.519
762.92	17.521
763.23	20.082
763.54	20.346
763.85	17.959
764.16	16.667
764.47	16.400
764.78	17.857
765.10	19.672
765.41	19.453
765.72	18.012
766.03	21.122
766.34	19.231
766.65	15.900
766.96	15.493
767.27	20.792
767.58	5.618
767.89	16.667
768.20	11.050
768.51	18.593
768.82	19.712
769.13	16.814
769.44	25.941
769.75	11.966
770.06	14.798
770.37	17.157
770.68	12.136
770.99	15.534
771.30	18.908
771.61	14.694
771.92	20.332
772.23	13.514
772.54	12.155
772.85	18.605
773.16	15.873
773.47	4.734
773.78	16.667
774.09	16.250
774.39	14.286
774.70	13.605
775.01	9.655
775.32	17.143
775.63	15.038
775.94	9.774
776.25	5.600
776.56	9.091
776.87	14.286
777.18	3.604
777.48	18.919
777.79	10.236
778.10	7.339
778.41	6.140
778.72	5.882
779.03	7.042
779.34	15.541
779.65	20.423
779.95	13.245
780.26	12.950
780.57	11.511
780.88	10.563
781.19	8.403
781.50	18.121
781.80	12.281
782.11	9.884
782.42	12.579
782.73	14.379
783.04	14.483
783.34	8.397
783.65	14.094
783.96	6.923
784.27	15.000
784.57	21.277
784.88	-0.962
785.19	15.455
785.50	3.636
785.81	16.190
786.11	10.084
786.42	8.850
786.73	4.717
787.04	5.505
787.34	0.000
787.65	10.833
787.96	10.744
788.26	20.290
788.57	15.079
788.88	9.756
789.19	7.200
789.49	12.214
789.80	22.727
790.11	7.547
790.41	14.851
790.72	11.702
791.03	4.348
791.33	18.824
791.64	7.407
791.95	15.217
792.25	11.364
792.56	28.205
792.87	-2.564
793.17	-5.128
793.48	0.000
793.79	-2.500
794.09	18.269
794.40	27.083
794.70	12.613
795.01	7.031
795.32	14.783
795.62	-1.087
795.93	8.491
796.23	14.141
796.54	3.659
796.85	8.333
797.15	1.515
797.46	0.000
797.76	-11.842
798.07	4.545
798.37	9.756
798.68	-16.129
798.99	6.757
799.29	14.458
799.60	10.256
799.90	12.308
800.21	10.606
800.51	1.333
800.82	8.000
801.12	-18.750
801.43	-8.333
801.73	8.108
802.04	14.286
802.34	-6.557
802.65	5.970
802.95	-10.909
803.26	0.000
803.56	6.154
803.87	3.774
804.17	-8.065
804.48	1.471
804.78	-21.951
805.09	20.290
805.39	-10.294
805.70	-27.660
806.00	-3.509
806.30	14.103
806.61	13.158
806.91	1.351
807.22	2.632
807.52	13.636
807.83	-3.390
808.13	-21.212
808.43	6.667
808.74	-5.172
809.04	12.698
809.35	-20.408
809.65	-11.667
809.95	-16.327
810.26	21.127
810.56	16.667
810.86	0.000
811.17	21.154
811.47	-38.298
811.77	-18.750
812.08	9.434
812.38	-40.625
812.69	1.818
812.99	-2.439
813.29	0.000
813.59	-18.919
813.90	14.545
814.20	-1.818
814.50	-1.667
814.81	-1.818
815.11	1.754
815.41	23.256
815.72	0.000
816.02	-25.714
816.32	16.216
816.62	12.500
816.93	4.444
817.23	-11.111
817.53	-41.667
817.84	-21.622
818.14	-4.878
818.44	-8.000
818.74	10.204
819.04	-9.756
819.35	-13.889
819.65	9.091
819.95	-100.000
820.25	-27.273
820.56	-14.286
820.86	-19.444
821.16	-9.091
821.46	2.174
821.76	5.172
822.07	8.696
822.37	3.030
822.67	4.878
822.97	-2.703
823.27	-25.714
823.57	3.448
823.88	-5.882
824.18	0.000
824.48	-11.429
824.78	-52.381
825.08	-28.571
825.38	-14.815
825.69	-29.032
825.99	4.878
826.29	-7.407
826.59	-37.500
826.89	9.677
827.19	-60.870
827.49	-25.000
827.79	-69.565
828.09	-25.806
828.39	8.333
828.70	-37.500
829.00	-3.448
829.30	-13.514
829.60	-66.667
829.90	-33.333
830.20	-3.125
830.50	-27.273
830.80	-147.059
831.10	-72.727
831.40	-14.706
831.70	-46.154
832.00	0.000
832.30	23.529
832.60	-18.919
832.90	700.000
833.20	-3.571
833.50	-110.000
833.80	-5.263
834.10	-104.167
834.40	-31.818
834.70	-86.667
835.00	-180.000
835.30	-50.000
835.60	-38.095
835.90	-33.333
836.20	-28.000
836.50	-25.000
836.80	-42.105
837.10	5.405
837.40	-6.667
837.70	-21.739
838.00	-4.167
838.30	-21.053
838.60	-150.000
838.90	-180.000
839.19	-150.000
839.49	-92.308
839.79	-73.684
840.09	-250.000
840.39	-90.000
840.69	-72.727
840.99	-23.810
841.29	-37.500
841.59	-100.000
841.88	-86.667
842.18	-42.857
842.48	6.667
842.78	-71.429
843.08	-50.000
843.38	-137.500
843.68	-75.000
843.97	-7.143
844.27	-177.778
844.57	-109.091
844.87	-106.667
845.17	22.727
845.47	566.667
845.76	-80.000
846.06	-150.000
846.36	-1100.000
846.66	-63.158
846.96	-50.000
847.25	-83.333
847.55	-255.556
847.85	-47.619
848.15	-53.846
848.44	-300.000
848.74	-66.667
849.04	-61.538
849.34	-400.000
849.63	-100.000
849.93	-150.000
850.23	-15.000
850.53	-150.000
850.82	-33.333
851.12	-53.333
851.42	-23.529
851.71	-137.500
852.01	-23.529
852.31	-84.615
852.61	850.000
852.90	-5.882
853.20	0.000
853.50	-68.750
853.79	-142.857
854.09	-250.000
854.39	-65.000
854.68	-10.000
854.98	-14.286
855.28	-32.000
855.57	8.333
855.87	-16.667
856.17	-4.000
856.46	12.500
856.76	0.000
857.05	20.000
857.35	-33.333
857.65	-17.647
857.94	-83.333
858.24	-125.000
858.53	-45.000
858.83	-100.000
859.13	-28.000
859.42	-85.714
859.72	-200.000
860.01	-41.667
860.31	-200.000
860.60	-12.500
860.90	-83.333
861.20	-66.667
861.49	40.000
861.79	-100.000
862.08	650.000
862.38	-150.000
862.67	200.000
862.97	550.000
863.26	-163.636
863.56	-100.000
863.85	0.000
864.15	-82.353
864.44	-80.000
864.74	-170.000
865.03	-166.667
865.33	-64.286
865.62	164.286
865.92	-31.579
866.21	-66.667
866.51	-100.000
866.80	-33.333
867.10	-175.000
867.39	-18.750
867.69	-40.000
867.98	-110.000
868.27	-52.941
868.57	0.000
868.86	1100.000
869.16	-275.000
869.45	-271.429
869.75	350.000
870.04	-30.000
870.33	-1400.000
870.63	-47.368
870.92	-58.333
871.22	-1300.000
871.51	-257.143
871.80	-200.000
872.10	-300.000
>>>>>End Processed Spectral Data<<<<<
