SpectraSuite Data File
++++++++++++++++++++++++++++++++++++
Date: Wed May 13 21:07:34 PDT 2015
User: schluterlab
Dark Spectrum Present: Yes
Reference Spectrum Present: Yes
Number of Sampled Component Spectra: 1
Spectrometers: USB2E3373
Integration Time (usec): 3000 (USB2E3373)
Spectra Averaged: 3 (USB2E3373)
Boxcar Smoothing: 0 (USB2E3373)
Correct for Electrical Dark: No (USB2E3373)
Strobe/Lamp Enabled: No (USB2E3373)
Correct for Detector Non-linearity: No (USB2E3373)
Correct for Stray Light: No (USB2E3373)
Number of Pixels in Processed Spectrum: 2048
>>>>>Begin Processed Spectral Data<<<<<
178.53	0.000
178.91	150.000
179.29	175.000
179.67	-900.000
180.04	-400.000
180.42	100.000
180.80	500.000
181.18	250.000
181.56	-300.000
181.94	-225.000
182.31	-45.455
182.69	84.615
183.07	-140.000
183.45	133.333
183.83	111.111
184.20	142.857
184.58	-266.667
184.96	166.667
185.34	185.714
185.72	0.000
186.09	0.000
186.47	-260.000
186.85	160.000
187.23	-450.000
187.61	300.000
187.98	700.000
188.36	25.000
188.74	0.000
189.12	18.182
189.49	-20.000
189.87	91.667
190.25	300.000
190.63	900.000
191.00	-140.000
191.38	220.000
191.76	450.000
192.14	150.000
192.51	-63.158
192.89	400.000
193.27	400.000
193.65	-220.000
194.02	163.636
194.40	210.000
194.78	-900.000
195.15	-40.000
195.53	0.000
195.91	-75.000
196.29	-133.333
196.66	0.000
197.04	250.000
197.42	-60.000
197.79	-40.000
198.17	-112.500
198.55	300.000
198.92	150.000
199.30	-333.333
199.68	-30.000
200.05	400.000
200.43	166.667
200.81	-1600.000
201.18	-300.000
201.56	-150.000
201.94	650.000
202.31	17.391
202.69	-100.000
203.07	-266.667
203.44	-60.000
203.82	-100.000
204.19	-40.000
204.57	0.000
204.95	16.667
205.32	0.000
205.70	-100.000
206.08	-200.000
206.45	-150.000
206.83	150.000
207.20	-133.333
207.58	20.000
207.96	-1700.000
208.33	-28.571
208.71	-1100.000
209.08	200.000
209.46	350.000
209.84	0.000
210.21	110.000
210.59	1700.000
210.96	320.000
211.34	1400.000
211.71	-850.000
212.09	-100.000
212.46	-140.000
212.84	-100.000
213.22	75.000
213.59	-1000.000
213.97	-550.000
214.34	-800.000
214.72	-61.538
215.09	250.000
215.47	288.889
215.84	450.000
216.22	-25.000
216.59	-750.000
216.97	500.000
217.34	55.556
217.72	0.000
218.09	233.333
218.47	-500.000
218.84	-100.000
219.22	-112.500
219.59	-233.333
219.97	-125.000
220.34	-100.000
220.72	-100.000
221.09	0.000
221.47	-183.333
221.84	-300.000
222.22	0.000
222.59	1300.000
222.97	-300.000
223.34	-58.333
223.72	-300.000
224.09	-550.000
224.46	-81.818
224.84	-37.500
225.21	-114.286
225.59	-200.000
225.96	-133.333
226.34	10.000
226.71	-114.286
227.08	450.000
227.46	0.000
227.83	0.000
228.21	-31.250
228.58	-250.000
228.95	-5.882
229.33	56.250
229.70	25.000
230.08	-38.462
230.45	-87.500
230.82	-108.333
231.20	271.429
231.57	-300.000
231.95	1000.000
232.32	-25.000
232.69	-11.765
233.07	-500.000
233.44	4.348
233.81	-250.000
234.19	29.167
234.56	-40.000
234.93	-20.000
235.31	-5.263
235.68	-7.692
236.05	-30.769
236.43	61.111
236.80	9.091
237.17	-46.667
237.55	11.765
237.92	-17.241
238.29	-25.926
238.67	-2.778
239.04	16.129
239.41	4.255
239.79	14.894
240.16	11.628
240.53	14.286
240.91	23.214
241.28	21.429
241.65	8.065
242.02	13.158
242.40	24.638
242.77	15.942
243.14	16.667
243.51	20.213
243.89	12.500
244.26	20.755
244.63	15.385
245.00	22.917
245.38	18.487
245.75	22.131
246.12	14.286
246.49	13.008
246.87	5.882
247.24	22.297
247.61	16.556
247.98	14.103
248.36	16.568
248.73	20.225
249.10	17.172
249.47	14.516
249.84	21.053
250.22	22.886
250.59	18.692
250.96	23.182
251.33	19.617
251.70	24.686
252.08	21.757
252.45	23.868
252.82	23.194
253.19	19.066
253.56	15.108
253.94	24.555
254.31	20.070
254.68	24.832
255.05	22.442
255.42	19.231
255.79	20.245
256.16	25.237
256.54	18.413
256.91	20.886
257.28	23.899
257.65	19.108
258.02	21.114
258.39	21.930
258.76	24.419
259.14	21.875
259.51	18.820
259.88	22.222
260.25	20.278
260.62	19.382
260.99	23.873
261.36	19.948
261.73	20.494
262.10	23.664
262.47	19.753
262.85	18.159
263.22	24.359
263.59	23.636
263.96	21.655
264.33	19.471
264.70	20.465
265.07	23.148
265.44	23.448
265.81	22.426
266.18	22.551
266.55	18.559
266.92	19.915
267.29	19.959
267.66	21.868
268.03	23.045
268.40	19.703
268.77	22.314
269.14	21.837
269.51	23.614
269.88	21.181
270.25	20.763
270.62	18.033
270.99	21.654
271.36	22.421
271.73	21.285
272.10	20.000
272.47	18.618
272.84	23.228
273.21	22.114
273.58	22.951
273.95	20.000
274.32	22.201
274.69	20.765
275.06	21.731
275.43	19.774
275.80	20.745
276.17	21.547
276.54	21.847
276.91	19.861
277.28	20.939
277.65	22.203
278.02	21.964
278.39	21.492
278.76	21.572
279.13	21.269
279.50	19.655
279.87	21.196
280.23	21.982
280.60	18.858
280.97	21.104
281.34	21.924
281.71	18.211
282.08	18.974
282.45	21.148
282.82	21.086
283.19	20.579
283.56	19.063
283.92	21.101
284.29	19.969
284.66	20.593
285.03	19.870
285.40	18.580
285.77	21.321
286.14	20.669
286.51	23.388
286.87	20.154
287.24	18.584
287.61	21.235
287.98	20.000
288.35	18.182
288.72	19.943
289.08	21.795
289.45	17.327
289.82	18.003
290.19	18.233
290.56	18.324
290.93	17.818
291.29	19.289
291.66	18.443
292.03	19.346
292.40	18.170
292.77	17.135
293.13	17.852
293.50	18.170
293.87	18.000
294.24	15.873
294.60	19.376
294.97	20.238
295.34	16.491
295.71	15.769
296.08	15.707
296.44	16.709
296.81	17.783
297.18	17.500
297.55	18.278
297.91	16.894
298.28	16.707
298.65	17.611
299.02	18.803
299.38	16.196
299.75	16.707
300.12	16.047
300.48	17.076
300.85	15.127
301.22	16.725
301.59	15.962
301.95	16.376
302.32	15.869
302.69	14.350
303.05	15.504
303.42	14.773
303.79	16.299
304.15	15.882
304.52	15.699
304.89	15.615
305.25	15.477
305.62	13.991
305.99	16.431
306.35	17.137
306.72	16.785
307.09	15.641
307.45	16.187
307.82	15.579
308.19	13.898
308.55	15.660
308.92	15.422
309.29	16.817
309.65	16.084
310.02	15.408
310.38	14.837
310.75	15.483
311.12	15.452
311.48	15.331
311.85	17.323
312.22	17.698
312.58	15.266
312.95	17.612
313.31	17.355
313.68	16.889
314.05	16.919
314.41	18.732
314.78	18.027
315.14	19.444
315.51	17.793
315.87	18.721
316.24	19.008
316.61	18.539
316.97	18.519
317.34	19.697
317.70	20.339
318.07	20.674
318.43	20.777
318.80	20.593
319.16	20.690
319.53	20.609
319.89	20.506
320.26	23.198
320.62	22.335
320.99	22.674
321.35	22.544
321.72	23.099
322.08	23.432
322.45	24.514
322.81	25.508
323.18	24.597
323.54	26.625
323.91	25.203
324.27	26.193
324.64	25.871
325.00	25.722
325.37	28.498
325.73	26.599
326.10	26.325
326.46	27.676
326.83	28.155
327.19	27.805
327.56	29.895
327.92	29.364
328.29	30.134
328.65	31.989
329.01	30.431
329.38	32.348
329.74	31.159
330.11	31.560
330.47	29.948
330.84	31.859
331.20	30.145
331.56	31.431
331.93	32.127
332.29	31.798
332.66	31.186
333.02	33.884
333.38	33.596
333.75	31.741
334.11	32.899
334.48	32.781
334.84	31.890
335.20	33.105
335.57	33.420
335.93	32.474
336.29	33.100
336.66	33.333
337.02	33.391
337.38	32.550
337.75	33.850
338.11	32.109
338.47	32.449
338.84	32.732
339.20	34.656
339.56	33.447
339.93	33.535
340.29	34.073
340.65	34.217
341.02	32.446
341.38	32.939
341.74	32.689
342.11	33.443
342.47	33.891
342.83	32.761
343.20	34.010
343.56	33.279
343.92	32.656
344.28	33.360
344.65	33.796
345.01	34.140
345.37	33.635
345.73	34.069
346.10	33.628
346.46	34.309
346.82	33.788
347.19	34.177
347.55	34.814
347.91	33.437
348.27	35.095
348.63	33.814
349.00	34.434
349.36	33.909
349.72	33.952
350.08	33.619
350.45	34.064
350.81	33.490
351.17	33.718
351.53	34.407
351.89	34.790
352.26	33.591
352.62	34.186
352.98	33.466
353.34	33.333
353.70	33.255
354.07	33.961
354.43	33.826
354.79	34.696
355.15	33.618
355.51	34.169
355.87	33.776
356.24	33.788
356.60	33.464
356.96	32.924
357.32	34.365
357.68	34.989
358.04	33.670
358.40	33.721
358.77	33.563
359.13	34.319
359.49	34.217
359.85	34.344
360.21	34.079
360.57	33.080
360.93	33.991
361.29	34.345
361.66	32.954
362.02	34.544
362.38	33.604
362.74	34.373
363.10	33.478
363.46	33.429
363.82	34.146
364.18	33.140
364.54	33.552
364.90	33.868
365.26	33.900
365.62	34.020
365.98	34.520
366.35	34.397
366.71	33.738
367.07	33.806
367.43	33.728
367.79	34.399
368.15	35.513
368.51	34.248
368.87	34.613
369.23	33.665
369.59	33.615
369.95	33.672
370.31	32.775
370.67	33.382
371.03	34.076
371.39	34.280
371.75	34.857
372.11	33.903
372.47	33.526
372.83	33.495
373.19	34.173
373.55	33.526
373.91	33.451
374.27	32.019
374.63	34.211
374.99	33.148
375.35	33.630
375.71	33.016
376.07	33.927
376.42	33.556
376.78	34.676
377.14	34.169
377.50	33.638
377.86	34.595
378.22	33.186
378.58	33.165
378.94	34.000
379.30	33.979
379.66	33.970
380.02	34.069
380.38	34.940
380.74	34.071
381.09	33.655
381.45	33.676
381.81	34.504
382.17	33.522
382.53	33.292
382.89	33.896
383.25	33.395
383.61	34.383
383.97	34.000
384.32	33.270
384.68	34.300
385.04	32.926
385.40	32.814
385.76	33.759
386.12	34.216
386.48	33.417
386.83	32.666
387.19	33.806
387.55	34.212
387.91	33.579
388.27	32.614
388.62	33.833
388.98	31.977
389.34	32.143
389.70	32.418
390.06	32.938
390.42	32.796
390.77	33.184
391.13	31.944
391.49	32.511
391.85	33.610
392.20	32.895
392.56	32.444
392.92	32.651
393.28	33.295
393.64	33.028
393.99	31.212
394.35	32.531
394.71	33.397
395.07	31.258
395.42	33.333
395.78	32.625
396.14	33.164
396.50	31.706
396.85	31.931
397.21	31.835
397.57	31.491
397.92	31.677
398.28	32.092
398.64	32.240
399.00	31.585
399.35	32.520
399.71	32.033
400.07	30.964
400.42	31.661
400.78	30.634
401.14	32.066
401.49	31.516
401.85	31.388
402.21	31.703
402.57	31.330
402.92	31.790
403.28	32.083
403.63	31.060
403.99	31.286
404.35	32.294
404.70	31.239
405.06	31.474
405.42	31.281
405.77	31.336
406.13	30.457
406.49	31.156
406.84	31.013
407.20	30.669
407.55	32.338
407.91	30.046
408.27	30.318
408.62	31.369
408.98	29.531
409.34	30.260
409.69	31.189
410.05	30.473
410.40	29.945
410.76	30.084
411.11	30.721
411.47	31.321
411.83	30.692
412.18	29.345
412.54	29.825
412.89	29.781
413.25	29.499
413.60	30.408
413.96	30.025
414.31	30.210
414.67	28.635
415.03	30.447
415.38	30.185
415.74	29.955
416.09	30.866
416.45	30.485
416.80	30.134
417.16	29.487
417.51	29.940
417.87	30.026
418.22	29.541
418.58	28.581
418.93	28.500
419.29	29.901
419.64	29.835
420.00	28.889
420.35	29.169
420.71	29.738
421.06	29.643
421.42	30.414
421.77	29.827
422.12	30.888
422.48	29.335
422.83	29.888
423.19	29.500
423.54	28.857
423.90	28.563
424.25	30.098
424.61	28.651
424.96	29.213
425.31	27.482
425.67	30.805
426.02	30.271
426.38	29.664
426.73	29.139
427.09	29.706
427.44	29.536
427.79	29.038
428.15	28.991
428.50	28.580
428.85	30.012
429.21	28.700
429.56	29.171
429.92	29.308
430.27	28.783
430.62	29.119
430.98	29.825
431.33	28.694
431.68	29.553
432.04	29.352
432.39	28.753
432.74	29.123
433.10	29.227
433.45	28.994
433.80	28.966
434.16	28.837
434.51	28.913
434.86	29.859
435.22	28.806
435.57	28.563
435.92	29.674
436.28	27.748
436.63	28.984
436.98	28.613
437.34	29.365
437.69	28.749
438.04	27.731
438.39	28.829
438.75	28.784
439.10	28.976
439.45	29.661
439.81	28.695
440.16	28.638
440.51	28.894
440.86	29.816
441.22	28.227
441.57	29.121
441.92	28.253
442.27	28.788
442.63	29.064
442.98	28.704
443.33	28.555
443.68	28.150
444.03	28.962
444.39	29.797
444.74	28.382
445.09	28.249
445.44	28.901
445.79	28.756
446.15	28.619
446.50	27.808
446.85	28.167
447.20	28.803
447.55	27.420
447.91	27.865
448.26	28.473
448.61	27.906
448.96	28.132
449.31	27.870
449.66	28.224
450.02	28.766
450.37	28.202
450.72	27.555
451.07	27.524
451.42	27.324
451.77	27.937
452.12	27.510
452.47	28.793
452.83	27.241
453.18	27.944
453.53	27.932
453.88	27.229
454.23	27.812
454.58	27.451
454.93	27.838
455.28	27.746
455.63	27.074
455.98	26.963
456.34	26.637
456.69	28.371
457.04	27.616
457.39	27.721
457.74	27.050
458.09	27.666
458.44	27.027
458.79	25.975
459.14	26.629
459.49	27.378
459.84	27.396
460.19	26.471
460.54	27.311
460.89	27.083
461.24	26.880
461.59	27.657
461.94	27.054
462.29	26.471
462.64	26.583
462.99	26.895
463.34	27.693
463.69	26.546
464.04	26.711
464.39	26.541
464.74	26.658
465.09	26.162
465.44	27.666
465.79	27.832
466.14	25.713
466.49	27.097
466.84	26.121
467.19	25.605
467.54	26.701
467.89	25.519
468.24	26.490
468.59	27.087
468.94	26.884
469.29	26.173
469.64	26.918
469.99	26.828
470.34	25.421
470.68	25.948
471.03	26.446
471.38	26.078
471.73	25.171
472.08	26.460
472.43	26.979
472.78	25.355
473.13	24.802
473.48	25.310
473.83	25.926
474.17	25.977
474.52	26.472
474.87	25.090
475.22	25.785
475.57	25.432
475.92	26.336
476.27	25.583
476.61	25.538
476.96	25.642
477.31	24.865
477.66	25.763
478.01	24.670
478.36	25.123
478.70	25.242
479.05	25.305
479.40	25.065
479.75	25.292
480.10	25.497
480.45	24.620
480.79	24.888
481.14	25.633
481.49	24.963
481.84	24.788
482.19	24.965
482.53	24.429
482.88	25.264
483.23	24.013
483.58	24.149
483.92	24.125
484.27	23.788
484.62	23.746
484.97	24.844
485.31	25.294
485.66	24.855
486.01	25.545
486.36	25.633
486.70	24.977
487.05	25.494
487.40	25.407
487.75	24.806
488.09	24.148
488.44	23.940
488.79	23.959
489.13	24.095
489.48	24.027
489.83	23.895
490.17	23.423
490.52	24.123
490.87	23.366
491.22	23.976
491.56	24.245
491.91	23.860
492.26	24.226
492.60	23.136
492.95	23.615
493.30	23.159
493.64	22.494
493.99	22.850
494.34	23.459
494.68	23.437
495.03	23.073
495.37	22.725
495.72	22.657
496.07	23.721
496.41	22.836
496.76	23.537
497.11	22.770
497.45	23.298
497.80	24.180
498.14	24.584
498.49	22.340
498.84	22.419
499.18	23.494
499.53	24.077
499.87	22.222
500.22	23.295
500.56	24.022
500.91	23.843
501.26	23.941
501.60	22.108
501.95	23.335
502.29	22.476
502.64	23.674
502.98	23.025
503.33	22.968
503.67	23.612
504.02	23.039
504.36	22.338
504.71	22.256
505.06	22.771
505.40	22.990
505.75	22.787
506.09	22.688
506.44	22.530
506.78	22.448
507.13	23.181
507.47	22.057
507.82	21.926
508.16	22.744
508.51	21.849
508.85	22.032
509.19	21.958
509.54	22.466
509.88	21.559
510.23	21.842
510.57	21.981
510.92	22.091
511.26	22.662
511.61	20.692
511.95	22.381
512.30	21.544
512.64	22.815
512.98	21.662
513.33	22.254
513.67	21.181
514.02	22.121
514.36	21.798
514.70	21.824
515.05	22.235
515.39	21.403
515.74	21.670
516.08	20.767
516.42	20.795
516.77	20.562
517.11	20.635
517.46	21.729
517.80	21.913
518.14	21.249
518.49	20.796
518.83	20.883
519.17	21.205
519.52	21.049
519.86	20.826
520.20	19.770
520.55	20.896
520.89	20.367
521.23	21.795
521.58	21.176
521.92	20.302
522.26	20.560
522.61	20.233
522.95	20.725
523.29	20.571
523.64	20.661
523.98	20.267
524.32	21.298
524.66	20.519
525.01	20.773
525.35	19.882
525.69	20.146
526.04	20.521
526.38	21.096
526.72	19.790
527.06	20.181
527.41	19.523
527.75	20.494
528.09	21.307
528.43	20.421
528.78	20.220
529.12	20.828
529.46	21.049
529.80	20.194
530.15	21.300
530.49	20.687
530.83	19.838
531.17	20.205
531.51	19.218
531.86	19.444
532.20	19.986
532.54	19.655
532.88	20.354
533.22	20.741
533.57	20.000
533.91	20.645
534.25	21.094
534.59	19.949
534.93	20.472
535.27	20.127
535.62	19.737
535.96	20.950
536.30	20.279
536.64	19.686
536.98	19.201
537.32	19.431
537.66	19.817
538.01	19.972
538.35	19.406
538.69	18.930
539.03	19.195
539.37	19.651
539.71	19.577
540.05	19.703
540.39	19.546
540.73	19.344
541.07	20.000
541.42	20.471
541.76	19.824
542.10	19.093
542.44	20.305
542.78	19.917
543.12	20.148
543.46	18.521
543.80	20.299
544.14	19.615
544.48	19.111
544.82	19.704
545.16	19.946
545.50	19.919
545.84	18.794
546.18	18.724
546.52	18.560
546.86	18.799
547.20	18.942
547.54	18.442
547.88	18.354
548.22	18.893
548.56	19.079
548.90	18.945
549.24	19.097
549.58	19.075
549.92	19.076
550.26	18.893
550.60	18.243
550.94	19.179
551.28	18.092
551.62	19.098
551.96	18.375
552.30	17.831
552.64	18.715
552.98	19.034
553.32	18.529
553.66	18.562
554.00	18.359
554.34	17.729
554.68	18.717
555.02	17.964
555.36	18.457
555.69	18.572
556.03	18.370
556.37	18.848
556.71	18.290
557.05	18.893
557.39	18.312
557.73	18.003
558.07	18.237
558.41	18.622
558.75	18.707
559.08	16.760
559.42	18.332
559.76	18.119
560.10	18.294
560.44	19.086
560.78	18.489
561.12	18.570
561.45	18.844
561.79	18.776
562.13	19.339
562.47	17.786
562.81	16.667
563.15	17.564
563.48	17.825
563.82	17.647
564.16	18.213
564.50	18.046
564.84	18.378
565.17	18.344
565.51	18.382
565.85	17.655
566.19	18.212
566.52	17.431
566.86	17.257
567.20	18.021
567.54	19.171
567.88	18.197
568.21	18.088
568.55	18.675
568.89	17.747
569.23	18.286
569.56	18.148
569.90	18.443
570.24	18.736
570.57	18.731
570.91	18.442
571.25	18.376
571.59	18.611
571.92	18.950
572.26	19.008
572.60	18.479
572.93	18.713
573.27	18.585
573.61	18.860
573.95	19.170
574.28	19.051
574.62	18.736
574.96	19.267
575.29	18.531
575.63	18.862
575.97	18.505
576.30	18.420
576.64	18.706
576.98	19.122
577.31	19.155
577.65	18.489
577.98	19.305
578.32	18.942
578.66	18.711
578.99	18.920
579.33	18.716
579.67	18.712
580.00	18.236
580.34	18.783
580.67	19.059
581.01	18.540
581.35	18.910
581.68	18.550
582.02	19.099
582.35	19.092
582.69	18.705
583.02	18.540
583.36	18.751
583.70	18.373
584.03	18.226
584.37	18.169
584.70	18.162
585.04	18.858
585.37	18.420
585.71	18.669
586.04	18.647
586.38	18.179
586.72	18.264
587.05	18.528
587.39	18.137
587.72	18.484
588.06	18.413
588.39	18.444
588.73	17.870
589.06	17.426
589.40	17.922
589.73	17.499
590.07	18.775
590.40	18.326
590.73	18.639
591.07	18.136
591.40	17.522
591.74	17.386
592.07	17.891
592.41	18.490
592.74	18.441
593.08	17.299
593.41	18.593
593.75	18.120
594.08	18.100
594.41	17.879
594.75	18.553
595.08	18.596
595.42	17.573
595.75	18.257
596.09	17.513
596.42	17.606
596.75	17.595
597.09	18.380
597.42	17.811
597.75	17.556
598.09	17.441
598.42	17.897
598.76	17.674
599.09	18.007
599.42	17.711
599.76	17.987
600.09	18.072
600.42	18.117
600.76	17.664
601.09	18.041
601.42	17.366
601.76	16.834
602.09	17.268
602.42	17.582
602.76	16.779
603.09	17.864
603.42	17.233
603.76	17.537
604.09	17.115
604.42	17.162
604.76	17.460
605.09	16.901
605.42	18.129
605.75	17.259
606.09	17.219
606.42	17.539
606.75	17.056
607.09	17.376
607.42	17.688
607.75	16.674
608.08	17.493
608.42	16.870
608.75	17.105
609.08	17.099
609.41	16.592
609.75	16.843
610.08	16.913
610.41	16.958
610.74	16.891
611.07	17.184
611.41	16.837
611.74	17.029
612.07	16.258
612.40	17.405
612.73	17.069
613.07	16.574
613.40	17.126
613.73	16.468
614.06	16.528
614.39	17.399
614.72	17.435
615.06	16.333
615.39	16.887
615.72	16.145
616.05	16.329
616.38	16.094
616.71	16.017
617.05	16.032
617.38	16.513
617.71	15.319
618.04	16.453
618.37	16.782
618.70	16.688
619.03	16.014
619.36	15.374
619.69	15.424
620.03	15.406
620.36	15.240
620.69	14.704
621.02	15.923
621.35	15.454
621.68	15.403
622.01	16.343
622.34	15.464
622.67	15.897
623.00	15.805
623.33	16.156
623.66	15.539
623.99	15.979
624.32	16.214
624.65	15.430
624.99	15.283
625.32	16.281
625.65	15.194
625.98	15.482
626.31	15.837
626.64	15.305
626.97	16.090
627.30	15.997
627.63	14.533
627.96	14.286
628.29	15.814
628.62	15.957
628.95	13.327
629.28	14.483
629.61	16.077
629.94	14.313
630.26	14.483
630.59	14.685
630.92	13.855
631.25	14.418
631.58	15.096
631.91	13.892
632.24	13.831
632.57	14.000
632.90	13.769
633.23	13.189
633.56	14.748
633.89	14.354
634.22	15.194
634.55	13.520
634.88	14.583
635.20	15.500
635.53	13.566
635.86	12.564
636.19	14.392
636.52	13.902
636.85	13.028
637.18	14.251
637.51	13.608
637.83	14.883
638.16	14.400
638.49	13.218
638.82	12.941
639.15	12.899
639.48	14.037
639.81	14.722
640.13	13.380
640.46	12.994
640.79	13.957
641.12	12.130
641.45	12.227
641.77	13.697
642.10	13.767
642.43	13.050
642.76	12.934
643.09	11.981
643.41	15.152
643.74	11.955
644.07	14.401
644.40	12.272
644.73	11.356
645.05	12.565
645.38	11.794
645.71	11.054
646.04	9.933
646.36	12.847
646.69	13.462
647.02	14.390
647.35	12.614
647.67	12.200
648.00	11.594
648.33	13.559
648.66	12.855
648.98	13.820
649.31	14.417
649.64	12.363
649.96	15.008
650.29	12.092
650.62	13.015
650.94	11.379
651.27	12.898
651.60	15.035
651.92	13.620
652.25	15.243
652.58	14.356
652.90	13.468
653.23	11.205
653.56	12.562
653.88	10.068
654.21	10.751
654.54	11.960
654.86	13.659
655.19	12.185
655.52	17.215
655.84	17.722
656.17	21.445
656.49	28.401
656.82	27.268
657.15	20.196
657.47	14.169
657.80	10.658
658.13	10.914
658.45	15.478
658.78	15.229
659.10	14.719
659.43	14.428
659.75	15.159
660.08	14.276
660.41	12.576
660.73	12.810
661.06	12.415
661.38	13.178
661.71	12.705
662.03	13.108
662.36	12.168
662.68	13.548
663.01	14.831
663.33	12.311
663.66	8.426
663.98	12.584
664.31	12.527
664.63	9.234
664.96	14.661
665.28	13.519
665.61	10.151
665.93	11.563
666.26	12.447
666.58	11.135
666.91	15.247
667.23	11.982
667.56	10.575
667.88	12.850
668.21	12.500
668.53	10.115
668.86	12.710
669.18	12.293
669.50	11.751
669.83	11.933
670.15	10.000
670.48	10.345
670.80	13.786
671.13	10.297
671.45	13.242
671.77	10.776
672.10	11.306
672.42	9.733
672.75	11.964
673.07	12.909
673.39	12.500
673.72	13.972
674.04	12.090
674.37	13.821
674.69	12.963
675.01	10.897
675.34	12.691
675.66	13.943
675.98	11.283
676.31	11.991
676.63	15.193
676.95	10.824
677.28	11.239
677.60	13.725
677.92	13.304
678.25	12.148
678.57	13.442
678.89	10.661
679.22	13.458
679.54	12.449
679.86	14.453
680.18	12.500
680.51	13.462
680.83	11.696
681.15	11.984
681.48	12.425
681.80	10.634
682.12	11.458
682.44	12.072
682.77	8.632
683.09	10.714
683.41	10.465
683.73	10.714
684.06	11.062
684.38	12.393
684.70	11.813
685.02	10.744
685.34	12.916
685.67	13.884
685.99	12.989
686.31	13.621
686.63	12.684
686.96	13.915
687.28	12.375
687.60	15.879
687.92	10.895
688.24	13.400
688.56	11.404
688.89	10.690
689.21	11.659
689.53	8.333
689.85	12.584
690.17	11.648
690.49	14.493
690.82	8.592
691.14	7.971
691.46	9.745
691.78	10.989
692.10	12.739
692.42	12.308
692.74	14.348
693.06	9.663
693.39	9.836
693.71	12.444
694.03	11.136
694.35	13.739
694.67	15.750
694.99	13.402
695.31	10.336
695.63	11.220
695.95	10.178
696.27	10.137
696.59	9.677
696.91	10.056
697.23	9.898
697.56	11.990
697.88	14.761
698.20	13.607
698.52	12.150
698.84	11.483
699.16	10.165
699.48	14.815
699.80	13.437
700.12	13.405
700.44	8.169
700.76	8.708
701.08	10.574
701.40	11.976
701.72	12.308
702.04	9.119
702.36	12.500
702.68	9.146
703.00	11.404
703.32	8.914
703.64	10.542
703.96	12.903
704.28	10.542
704.60	12.500
704.91	8.150
705.23	9.494
705.55	9.310
705.87	10.915
706.19	11.722
706.51	7.042
706.83	9.873
707.15	8.841
707.47	12.948
707.79	12.183
708.11	11.054
708.43	12.944
708.74	10.372
709.06	11.765
709.38	9.798
709.70	9.009
710.02	12.150
710.34	9.667
710.66	8.143
710.98	6.502
711.29	12.338
711.61	9.677
711.93	11.935
712.25	7.343
712.57	9.474
712.89	6.227
713.20	12.411
713.52	9.489
713.84	12.581
714.16	11.327
714.48	12.025
714.80	5.751
715.11	12.209
715.43	7.453
715.75	9.938
716.07	12.651
716.39	11.448
716.70	11.151
717.02	10.588
717.34	8.712
717.66	6.897
717.97	6.746
718.29	11.024
718.61	8.155
718.93	12.016
719.24	11.808
719.56	7.116
719.88	7.090
720.20	9.091
720.51	11.328
720.83	8.949
721.15	6.911
721.46	11.832
721.78	8.367
722.10	9.960
722.42	9.677
722.73	11.197
723.05	10.204
723.37	13.025
723.68	10.000
724.00	7.234
724.32	10.879
724.63	11.934
724.95	7.265
725.27	10.549
725.58	9.877
725.90	9.205
726.22	13.406
726.53	5.490
726.85	11.314
727.16	10.741
727.48	13.793
727.80	9.375
728.11	4.918
728.43	10.938
728.74	11.508
729.06	8.000
729.38	13.834
729.69	12.100
730.01	11.524
730.32	9.225
730.64	11.742
730.96	15.035
731.27	9.699
731.59	11.429
731.90	12.621
732.22	9.936
732.53	11.149
732.85	8.054
733.16	14.191
733.48	10.473
733.80	12.500
734.11	17.568
734.43	11.146
734.74	13.514
735.06	12.104
735.37	10.638
735.69	9.709
736.00	7.921
736.32	15.603
736.63	10.345
736.95	11.644
737.26	9.310
737.58	10.417
737.89	12.371
738.21	8.541
738.52	11.027
738.83	12.245
739.15	8.439
739.46	10.895
739.78	9.155
740.09	7.877
740.41	8.929
740.72	9.574
741.04	7.200
741.35	8.333
741.66	7.111
741.98	11.538
742.29	13.861
742.61	8.293
742.92	14.474
743.23	6.604
743.55	9.009
743.86	5.381
744.18	7.353
744.49	7.614
744.80	7.653
745.12	8.879
745.43	9.953
745.74	13.063
746.06	9.346
746.37	10.550
746.68	13.942
747.00	11.005
747.31	9.615
747.62	9.633
747.94	13.974
748.25	7.798
748.56	15.556
748.88	12.207
749.19	12.381
749.50	4.369
749.82	7.042
750.13	6.667
750.44	7.308
750.75	9.963
751.07	11.744
751.38	8.865
751.69	14.672
752.01	10.156
752.32	13.077
752.63	8.209
752.94	14.800
753.26	8.787
753.57	5.000
753.88	9.717
754.19	11.952
754.51	11.278
754.82	8.425
755.13	5.652
755.44	9.350
755.75	7.600
756.07	7.749
756.38	11.511
756.69	10.239
757.00	10.903
757.31	10.032
757.63	8.951
757.94	10.734
758.25	12.963
758.56	11.141
758.87	13.690
759.18	13.249
759.50	11.448
759.81	11.706
760.12	12.923
760.43	10.119
760.74	13.277
761.05	11.326
761.36	11.748
761.67	10.574
761.99	9.278
762.30	12.409
762.61	12.346
762.92	14.530
763.23	11.885
763.54	11.688
763.85	6.122
764.16	9.350
764.47	8.400
764.78	9.286
765.10	9.836
765.41	11.550
765.72	11.180
766.03	11.551
766.34	13.077
766.65	10.460
766.96	11.268
767.27	11.881
767.58	1.685
767.89	7.407
768.20	6.077
768.51	10.553
768.82	11.538
769.13	13.274
769.44	13.808
769.75	6.410
770.06	9.417
770.37	8.333
770.68	12.136
770.99	12.136
771.30	7.983
771.61	13.061
771.92	13.693
772.23	13.964
772.54	6.630
772.85	5.233
773.16	14.286
773.47	1.183
773.78	8.621
774.09	6.250
774.39	8.075
774.70	7.483
775.01	8.276
775.32	5.000
775.63	6.015
775.94	12.782
776.25	4.000
776.56	16.529
776.87	9.524
777.18	1.802
777.48	-4.505
777.79	6.299
778.10	3.670
778.41	0.000
778.72	-8.403
779.03	6.338
779.34	10.135
779.65	15.493
779.95	11.258
780.26	7.914
780.57	8.633
780.88	9.155
781.19	-6.723
781.50	8.054
781.80	5.848
782.11	6.395
782.42	12.579
782.73	11.111
783.04	4.138
783.34	3.053
783.65	6.711
783.96	12.308
784.27	7.857
784.57	19.149
784.88	-3.846
785.19	13.636
785.50	5.455
785.81	4.762
786.11	5.882
786.42	15.044
786.73	1.887
787.04	2.752
787.34	-0.990
787.65	9.167
787.96	0.000
788.26	10.145
788.57	2.381
788.88	-0.813
789.19	5.600
789.49	0.763
789.80	15.152
790.11	2.830
790.41	-1.980
790.72	2.128
791.03	-2.174
791.33	-2.353
791.64	7.407
791.95	16.304
792.25	2.273
792.56	14.103
792.87	8.974
793.17	-6.410
793.48	0.000
793.79	-12.500
794.09	13.462
794.40	3.125
794.70	6.306
795.01	2.344
795.32	6.957
795.62	-7.609
795.93	15.094
796.23	2.020
796.54	1.220
796.85	0.000
797.15	-13.636
797.46	4.348
797.76	-2.632
798.07	12.500
798.37	8.537
798.68	-3.226
798.99	-9.459
799.29	13.253
799.60	-11.538
799.90	3.077
800.21	-4.545
800.51	4.000
800.82	2.667
801.12	-22.917
801.43	-1.667
801.73	-13.514
802.04	18.571
802.34	4.918
802.65	4.478
802.95	1.818
803.26	0.000
803.56	30.769
803.87	24.528
804.17	-4.839
804.48	0.000
804.78	-21.951
805.09	5.797
805.39	8.824
805.70	-31.915
806.00	-7.018
806.30	7.692
806.61	5.263
806.91	17.568
807.22	-1.316
807.52	14.773
807.83	-11.864
808.13	-16.667
808.43	8.333
808.74	-15.517
809.04	1.587
809.35	-8.163
809.65	1.667
809.95	-6.122
810.26	11.268
810.56	-35.417
810.86	-14.286
811.17	1.923
811.47	6.383
811.77	-8.333
812.08	-3.774
812.38	12.500
812.69	3.636
812.99	4.878
813.29	-29.730
813.59	-29.730
813.90	-10.909
814.20	0.000
814.50	-15.000
814.81	9.091
815.11	-7.018
815.41	13.953
815.72	-12.500
816.02	-5.714
816.32	-2.703
816.62	6.250
816.93	11.111
817.23	-22.222
817.53	-41.667
817.84	-10.811
818.14	-2.439
818.44	2.000
818.74	-2.041
819.04	0.000
819.35	-22.222
819.65	-2.273
819.95	-66.667
820.25	-24.242
820.56	-23.810
820.86	11.111
821.16	-6.818
821.46	-13.043
821.76	3.448
822.07	-8.696
822.37	9.091
822.67	17.073
822.97	18.919
823.27	-11.429
823.57	-6.897
823.88	-8.824
824.18	-11.111
824.48	17.143
824.78	-23.810
825.08	-21.429
825.38	-37.037
825.69	-25.806
825.99	0.000
826.29	-14.815
826.59	-6.250
826.89	-19.355
827.19	-47.826
827.49	-16.667
827.79	-60.870
828.09	-35.484
828.39	-8.333
828.70	-37.500
829.00	-37.931
829.30	-29.730
829.60	-54.167
829.90	-25.926
830.20	-3.125
830.50	-36.364
830.80	-70.588
831.10	-63.636
831.40	-11.765
831.70	-15.385
832.00	0.000
832.30	-32.353
832.60	-2.703
832.90	500.000
833.20	-25.000
833.50	-55.000
833.80	-2.632
834.10	-29.167
834.40	-90.909
834.70	-53.333
835.00	-100.000
835.30	-29.167
835.60	-57.143
835.90	-14.286
836.20	-56.000
836.50	-62.500
836.80	-57.895
837.10	-16.216
837.40	33.333
837.70	0.000
838.00	8.333
838.30	-31.579
838.60	-140.000
838.90	-120.000
839.19	-83.333
839.49	-115.385
839.79	36.842
840.09	-100.000
840.39	-150.000
840.69	-68.182
840.99	-19.048
841.29	-20.833
841.59	-123.077
841.88	-60.000
842.18	-64.286
842.48	20.000
842.78	-314.286
843.08	-78.571
843.38	-87.500
843.68	-68.750
843.97	14.286
844.27	-155.556
844.57	-145.455
844.87	-86.667
845.17	-13.636
845.47	566.667
845.76	-33.333
846.06	-58.333
846.36	-750.000
846.66	-42.105
846.96	-4.545
847.25	-88.889
847.55	-211.111
847.85	-28.571
848.15	7.692
848.44	-300.000
848.74	-83.333
849.04	-46.154
849.34	-175.000
849.63	-45.455
849.93	-50.000
850.23	20.000
850.53	-100.000
850.82	-44.444
851.12	-40.000
851.42	-76.471
851.71	-87.500
852.01	-17.647
852.31	-23.077
852.61	700.000
852.90	5.882
853.20	20.000
853.50	-50.000
853.79	-171.429
854.09	-300.000
854.39	-70.000
854.68	-20.000
854.98	9.524
855.28	-48.000
855.57	-8.333
855.87	25.000
856.17	-32.000
856.46	-15.625
856.76	-5.000
857.05	4.000
857.35	-50.000
857.65	-5.882
857.94	-141.667
858.24	-41.667
858.53	10.000
858.83	-109.091
859.13	12.000
859.42	-28.571
859.72	-125.000
860.01	25.000
860.31	-187.500
860.60	-25.000
860.90	-200.000
861.20	-66.667
861.49	53.333
861.79	-25.000
862.08	275.000
862.38	-133.333
862.67	157.143
862.97	150.000
863.26	-109.091
863.56	-54.545
863.85	15.789
864.15	5.882
864.44	-220.000
864.74	-100.000
865.03	-222.222
865.33	0.000
865.62	107.143
865.92	-47.368
866.21	-61.111
866.51	-118.182
866.80	-100.000
867.10	-50.000
867.39	18.750
867.69	-80.000
867.98	-100.000
868.27	-5.882
868.57	0.000
868.86	900.000
869.16	-475.000
869.45	-228.571
869.75	300.000
870.04	30.000
870.33	-600.000
870.63	-10.526
870.92	-100.000
871.22	200.000
871.51	-200.000
871.80	-200.000
872.10	-300.000
>>>>>End Processed Spectral Data<<<<<
