SpectraSuite Data File
++++++++++++++++++++++++++++++++++++
Date: Wed May 13 21:09:23 PDT 2015
User: schluterlab
Dark Spectrum Present: Yes
Reference Spectrum Present: Yes
Number of Sampled Component Spectra: 1
Spectrometers: USB2E3373
Integration Time (usec): 3000 (USB2E3373)
Spectra Averaged: 3 (USB2E3373)
Boxcar Smoothing: 0 (USB2E3373)
Correct for Electrical Dark: No (USB2E3373)
Strobe/Lamp Enabled: No (USB2E3373)
Correct for Detector Non-linearity: No (USB2E3373)
Correct for Stray Light: No (USB2E3373)
Number of Pixels in Processed Spectrum: 2048
>>>>>Begin Processed Spectral Data<<<<<
178.53	0.000
178.91	450.000
179.29	183.333
179.67	-200.000
180.04	-533.333
180.42	100.000
180.80	600.000
181.18	216.667
181.56	-450.000
181.94	-100.000
182.31	9.091
182.69	69.231
183.07	-320.000
183.45	300.000
183.83	155.556
184.20	157.143
184.58	-233.333
184.96	566.667
185.34	200.000
185.72	0.000
186.09	-100.000
186.47	-180.000
186.85	120.000
187.23	-450.000
187.61	1000.000
187.98	500.000
188.36	-25.000
188.74	0.000
189.12	-63.636
189.49	60.000
189.87	133.333
190.25	280.000
190.63	600.000
191.00	60.000
191.38	220.000
191.76	500.000
192.14	133.333
192.51	-21.053
192.89	200.000
193.27	350.000
193.65	-140.000
194.02	163.636
194.40	150.000
194.78	-800.000
195.15	160.000
195.53	-140.000
195.91	-25.000
196.29	-300.000
196.66	0.000
197.04	250.000
197.42	-40.000
197.79	-30.000
198.17	-150.000
198.55	-366.667
198.92	550.000
199.30	-466.667
199.68	-80.000
200.05	150.000
200.43	66.667
200.81	-900.000
201.18	-200.000
201.56	-66.667
201.94	775.000
202.31	-8.696
202.69	-100.000
203.07	-466.667
203.44	-140.000
203.82	-300.000
204.19	-80.000
204.57	0.000
204.95	-50.000
205.32	0.000
205.70	-200.000
206.08	-50.000
206.45	33.333
206.83	275.000
207.20	-166.667
207.58	-60.000
207.96	-1000.000
208.33	-185.714
208.71	-1700.000
209.08	225.000
209.46	325.000
209.84	0.000
210.21	130.000
210.59	1400.000
210.96	260.000
211.34	1000.000
211.71	-400.000
212.09	-83.333
212.46	-220.000
212.84	-133.333
213.22	-25.000
213.59	-1200.000
213.97	-100.000
214.34	-800.000
214.72	15.385
215.09	187.500
215.47	177.778
215.84	650.000
216.22	-25.000
216.59	-500.000
216.97	600.000
217.34	100.000
217.72	0.000
218.09	300.000
218.47	-500.000
218.84	-114.286
219.22	-87.500
219.59	-100.000
219.97	25.000
220.34	-112.500
220.72	-220.000
221.09	0.000
221.47	-133.333
221.84	-1100.000
222.22	0.000
222.59	300.000
222.97	-233.333
223.34	-50.000
223.72	-1800.000
224.09	-650.000
224.46	-18.182
224.84	-37.500
225.21	-42.857
225.59	-275.000
225.96	-250.000
226.34	-70.000
226.71	-171.429
227.08	550.000
227.46	112.500
227.83	-800.000
228.21	-31.250
228.58	-325.000
228.95	-5.882
229.33	50.000
229.70	-100.000
230.08	-53.846
230.45	-12.500
230.82	-58.333
231.20	100.000
231.57	-300.000
231.95	1000.000
232.32	-8.333
232.69	-23.529
233.07	-1100.000
233.44	43.478
233.81	-300.000
234.19	-4.167
234.56	-60.000
234.93	53.333
235.31	84.211
235.68	15.385
236.05	61.538
236.43	-16.667
236.80	39.394
237.17	20.000
237.55	-23.529
237.92	10.345
238.29	0.000
238.67	27.778
239.04	-3.226
239.41	6.383
239.79	46.809
240.16	41.860
240.53	39.286
240.91	17.857
241.28	42.857
241.65	40.323
242.02	15.789
242.40	23.188
242.77	23.188
243.14	23.077
243.51	38.298
243.89	29.808
244.26	37.736
244.63	20.192
245.00	41.667
245.38	41.176
245.75	32.787
246.12	36.842
246.49	34.146
246.87	36.975
247.24	38.514
247.61	37.748
247.98	36.538
248.36	36.095
248.73	32.584
249.10	31.818
249.47	40.323
249.84	43.158
250.22	41.294
250.59	32.243
250.96	40.455
251.33	33.493
251.70	40.167
252.08	35.983
252.45	41.975
252.82	37.262
253.19	40.856
253.56	36.331
253.94	42.705
254.31	44.014
254.68	39.933
255.05	42.574
255.42	40.559
255.79	40.798
256.16	42.902
256.54	37.143
256.91	39.557
257.28	41.195
257.65	39.172
258.02	40.176
258.39	40.643
258.76	43.895
259.14	42.330
259.51	42.135
259.88	40.108
260.25	41.944
260.62	43.258
260.99	41.379
261.36	40.155
261.73	38.025
262.10	40.458
262.47	39.753
262.85	39.303
263.22	42.051
263.59	39.481
263.96	41.849
264.33	41.827
264.70	40.698
265.07	40.278
265.44	40.460
265.81	43.021
266.18	41.913
266.55	41.048
266.92	39.195
267.29	38.889
267.66	40.340
268.03	40.947
268.40	41.314
268.77	40.702
269.14	41.837
269.51	41.273
269.88	36.864
270.25	40.890
270.62	37.500
270.99	38.583
271.36	41.270
271.73	40.361
272.10	39.619
272.47	42.418
272.84	41.929
273.21	38.748
273.58	40.574
273.95	40.000
274.32	40.672
274.69	38.434
275.06	40.636
275.43	40.866
275.80	39.362
276.17	38.490
276.54	38.011
276.91	39.373
277.28	39.170
277.65	40.385
278.02	41.250
278.39	39.787
278.76	39.632
279.13	39.966
279.50	39.138
279.87	38.949
280.23	39.640
280.60	38.235
280.97	37.662
281.34	41.483
281.71	36.423
282.08	38.120
282.45	38.197
282.82	37.700
283.19	39.329
283.56	36.875
283.92	38.226
284.29	36.349
284.66	38.880
285.03	36.482
285.40	37.009
285.77	37.988
286.14	36.474
286.51	39.430
286.87	36.308
287.24	37.168
287.61	37.952
287.98	38.382
288.35	37.109
288.72	36.585
289.08	37.607
289.45	36.564
289.82	36.762
290.19	34.502
290.56	33.523
290.93	35.497
291.29	34.747
291.66	36.885
292.03	35.559
292.40	34.320
292.77	34.270
293.13	34.310
293.50	34.248
293.87	34.267
294.24	34.524
294.60	33.420
294.97	33.730
295.34	31.794
295.71	33.771
296.08	31.806
296.44	32.398
296.81	31.790
297.18	31.875
297.55	30.425
297.91	33.168
298.28	32.203
298.65	30.665
299.02	32.845
299.38	33.374
299.75	30.529
300.12	29.767
300.48	29.357
300.85	30.947
301.22	30.894
301.59	30.282
301.95	29.036
302.32	30.455
302.69	27.684
303.05	28.571
303.42	29.318
303.79	30.284
304.15	29.901
304.52	29.892
304.89	28.793
305.25	25.686
305.62	27.874
305.99	29.380
306.35	30.721
306.72	27.772
307.09	28.884
307.45	28.647
307.82	28.947
308.19	29.572
308.55	28.557
308.92	29.175
309.29	28.028
309.65	27.972
310.02	28.330
310.38	29.268
310.75	28.402
311.12	28.669
311.48	27.695
311.85	28.543
312.22	27.950
312.58	27.633
312.95	28.259
313.31	28.466
313.68	27.672
314.05	29.301
314.41	28.146
314.78	28.558
315.14	27.407
315.51	28.449
315.87	27.711
316.24	26.722
316.61	28.676
316.97	28.611
317.34	26.827
317.70	28.992
318.07	28.660
318.43	27.552
318.80	26.353
319.16	28.028
319.53	27.151
319.89	27.010
320.26	27.449
320.62	28.082
320.99	26.841
321.35	26.567
321.72	27.526
322.08	27.214
322.45	27.105
322.81	27.819
323.18	28.801
323.54	28.610
323.91	28.546
324.27	27.093
324.64	26.481
325.00	27.034
325.37	26.962
325.73	25.926
326.10	27.166
326.46	28.679
326.83	27.589
327.19	26.341
327.56	27.478
327.92	27.514
328.29	27.963
328.65	28.046
329.01	26.825
329.38	28.522
329.74	26.781
330.11	26.691
330.47	26.649
330.84	28.971
331.20	26.388
331.56	27.355
331.93	27.304
332.29	28.149
332.66	27.034
333.02	27.628
333.38	27.719
333.75	27.133
334.11	26.562
334.48	27.986
334.84	25.883
335.20	28.045
335.57	26.023
335.93	26.718
336.29	26.445
336.66	25.214
337.02	26.435
337.38	26.632
337.75	26.357
338.11	25.107
338.47	25.257
338.84	27.405
339.20	26.455
339.56	26.365
339.93	25.843
340.29	25.961
340.65	25.492
341.02	26.373
341.38	26.605
341.74	25.546
342.11	26.177
342.47	27.029
342.83	26.797
343.20	25.381
343.56	26.410
343.92	25.670
344.28	25.325
344.65	26.367
345.01	25.182
345.37	25.658
345.73	26.144
346.10	24.318
346.46	25.122
346.82	25.201
347.19	26.345
347.55	26.010
347.91	24.474
348.27	25.079
348.63	24.199
349.00	25.865
349.36	26.060
349.72	25.986
350.08	25.117
350.45	25.059
350.81	25.430
351.17	25.173
351.53	24.588
351.89	24.464
352.26	22.857
352.62	23.876
352.98	25.000
353.34	25.604
353.70	25.545
354.07	25.333
354.43	24.806
354.79	25.401
355.15	25.699
355.51	24.677
355.87	25.645
356.24	24.157
356.60	24.863
356.96	25.249
357.32	25.464
357.68	24.905
358.04	25.136
358.40	25.349
358.77	24.541
359.13	25.681
359.49	24.375
359.85	25.474
360.21	25.058
360.57	25.323
360.93	24.886
361.29	24.352
361.66	24.601
362.02	24.018
362.38	24.594
362.74	24.220
363.10	24.512
363.46	24.352
363.82	24.834
364.18	23.205
364.54	24.435
364.90	23.415
365.26	23.638
365.62	24.645
365.98	24.698
366.35	23.830
366.71	24.251
367.07	23.529
367.43	24.948
367.79	23.905
368.15	24.402
368.51	22.574
368.87	24.564
369.23	24.982
369.59	23.890
369.95	23.803
370.31	23.570
370.67	23.823
371.03	24.202
371.39	24.485
371.75	23.357
372.11	22.863
372.47	23.792
372.83	23.994
373.19	23.094
373.55	23.483
373.91	23.904
374.27	22.822
374.63	24.467
374.99	23.050
375.35	23.767
375.71	23.437
376.07	24.195
376.42	23.797
376.78	24.108
377.14	23.254
377.50	24.381
377.86	22.975
378.22	23.641
378.58	23.770
378.94	24.938
379.30	22.923
379.66	23.366
380.02	23.407
380.38	23.133
380.74	24.387
381.09	23.402
381.45	23.216
381.81	23.105
382.17	22.621
382.53	23.200
382.89	23.402
383.25	23.457
383.61	24.516
383.97	23.812
384.32	22.432
384.68	23.689
385.04	22.847
385.40	22.665
385.76	24.331
386.12	23.886
386.48	23.135
386.83	22.966
387.19	23.072
387.55	23.544
387.91	23.493
388.27	22.811
388.62	23.221
388.98	23.404
389.34	23.559
389.70	22.527
390.06	23.688
390.42	23.518
390.77	23.447
391.13	23.359
391.49	22.707
391.85	22.939
392.20	23.058
392.56	23.492
392.92	22.703
393.28	23.533
393.64	23.364
393.99	22.032
394.35	23.580
394.71	23.077
395.07	22.138
395.42	23.035
395.78	23.037
396.14	23.082
396.50	22.448
396.85	23.837
397.21	23.096
397.57	22.547
397.92	22.395
398.28	22.279
398.64	23.133
399.00	23.270
399.35	23.723
399.71	22.539
400.07	23.012
400.42	23.072
400.78	22.417
401.14	22.318
401.49	22.588
401.85	22.604
402.21	22.724
402.57	22.869
402.92	23.967
403.28	23.139
403.63	23.373
403.99	23.417
404.35	22.382
404.70	22.296
405.06	22.959
405.42	22.048
405.77	21.774
406.13	22.914
406.49	23.367
406.84	23.382
407.20	22.143
407.55	23.052
407.91	22.634
408.27	22.208
408.62	23.143
408.98	22.133
409.34	22.215
409.69	23.652
410.05	22.575
410.40	22.094
410.76	22.623
411.11	23.383
411.47	23.358
411.83	22.084
412.18	23.678
412.54	22.619
412.89	22.132
413.25	22.242
413.60	22.571
413.96	22.285
414.31	23.120
414.67	21.651
415.03	23.207
415.38	21.731
415.74	22.287
416.09	23.397
416.45	22.078
416.80	22.416
417.16	22.402
417.51	22.505
417.87	23.280
418.22	23.335
418.58	21.222
418.93	22.536
419.29	22.904
419.64	22.074
420.00	23.111
420.35	22.355
420.71	22.303
421.06	23.001
421.42	23.418
421.77	22.543
422.12	22.980
422.48	22.301
422.83	22.741
423.19	22.369
423.54	22.556
423.90	21.853
424.25	22.992
424.61	22.921
424.96	22.117
425.31	21.985
425.67	22.751
426.02	23.263
426.38	22.512
426.73	22.297
427.09	21.451
427.44	22.725
427.79	21.912
428.15	21.774
428.50	21.994
428.85	23.063
429.21	22.060
429.56	22.370
429.92	22.488
430.27	21.933
430.62	23.400
430.98	22.528
431.33	23.267
431.68	23.908
432.04	22.254
432.39	21.767
432.74	23.421
433.10	23.010
433.45	22.071
433.80	22.241
434.16	22.338
434.51	22.228
434.86	22.085
435.22	22.977
435.57	22.666
435.92	22.316
436.28	22.703
436.63	22.748
436.98	22.327
437.34	22.650
437.69	21.901
438.04	21.902
438.39	23.101
438.75	21.812
439.10	23.135
439.45	22.337
439.81	21.860
440.16	22.725
440.51	21.641
440.86	22.822
441.22	22.318
441.57	22.722
441.92	22.810
442.27	22.727
442.63	22.067
442.98	22.917
443.33	22.912
443.68	22.035
444.03	22.156
444.39	22.608
444.74	21.701
445.09	21.641
445.44	22.986
445.79	22.509
446.15	22.463
446.50	22.247
446.85	22.181
447.20	22.321
447.55	22.888
447.91	21.966
448.26	21.841
448.61	22.094
448.96	22.836
449.31	22.730
449.66	21.457
450.02	22.172
450.37	23.267
450.72	21.699
451.07	23.197
451.42	21.210
451.77	22.946
452.12	22.163
452.47	22.918
452.83	21.698
453.18	22.024
453.53	22.068
453.88	22.410
454.23	22.126
454.58	22.855
454.93	20.975
455.28	22.608
455.63	21.709
455.98	21.302
456.34	21.551
456.69	22.428
457.04	22.477
457.39	22.309
457.74	21.484
458.09	21.801
458.44	22.033
458.79	22.076
459.14	21.966
459.49	22.378
459.84	22.266
460.19	22.209
460.54	23.175
460.89	21.903
461.24	21.455
461.59	22.524
461.94	22.061
462.29	22.059
462.64	21.504
462.99	22.938
463.34	23.619
463.69	22.358
464.04	20.708
464.39	22.453
464.74	21.560
465.09	22.505
465.44	22.840
465.79	22.484
466.14	21.551
466.49	22.287
466.84	21.817
467.19	21.847
467.54	22.683
467.89	22.627
468.24	22.127
468.59	22.562
468.94	22.669
469.29	21.811
469.64	22.245
469.99	22.345
470.34	22.589
470.68	21.487
471.03	21.721
471.38	21.766
471.73	22.291
472.08	20.893
472.43	21.306
472.78	22.245
473.13	21.570
473.48	20.678
473.83	21.720
474.17	21.224
474.52	22.265
474.87	21.773
475.22	21.135
475.57	21.751
475.92	22.410
476.27	21.503
476.61	21.914
476.96	21.588
477.31	22.006
477.66	21.751
478.01	21.319
478.36	21.253
478.70	21.590
479.05	22.142
479.40	21.321
479.75	21.838
480.10	22.438
480.45	21.187
480.79	21.702
481.14	21.682
481.49	22.595
481.84	20.735
482.19	21.723
482.53	21.762
482.88	21.716
483.23	20.789
483.58	22.117
483.92	21.741
484.27	21.363
484.62	21.438
484.97	21.858
485.31	21.263
485.66	21.337
486.01	21.297
486.36	21.718
486.70	22.210
487.05	23.082
487.40	22.806
487.75	23.342
488.09	22.834
488.44	23.379
488.79	23.164
489.13	22.584
489.48	22.103
489.83	21.840
490.17	21.380
490.52	22.674
490.87	21.743
491.22	21.055
491.56	21.993
491.91	21.027
492.26	21.470
492.60	21.693
492.95	21.914
493.30	21.609
493.64	21.247
493.99	21.208
494.34	21.387
494.68	20.955
495.03	21.591
495.37	21.363
495.72	21.253
496.07	21.042
496.41	20.309
496.76	21.252
497.11	21.643
497.45	21.206
497.80	21.908
498.14	20.806
498.49	21.432
498.84	21.306
499.18	21.254
499.53	21.418
499.87	21.009
500.22	21.503
500.56	21.464
500.91	21.579
501.26	21.626
501.60	21.176
501.95	21.275
502.29	21.359
502.64	21.311
502.98	22.206
503.33	21.168
503.67	21.081
504.02	21.078
504.36	21.644
504.71	21.138
505.06	21.854
505.40	21.546
505.75	22.228
506.09	22.330
506.44	21.522
506.78	21.026
507.13	21.466
507.47	20.679
507.82	20.722
508.16	21.055
508.51	20.145
508.85	21.203
509.19	20.847
509.54	21.984
509.88	21.398
510.23	21.684
510.57	21.239
510.92	21.175
511.26	21.397
511.61	21.076
511.95	20.507
512.30	20.655
512.64	20.999
512.98	20.886
513.33	21.070
513.67	21.635
514.02	21.494
514.36	20.000
514.70	21.132
515.05	20.772
515.39	20.224
515.74	20.900
516.08	20.354
516.42	20.565
516.77	20.387
517.11	20.047
517.46	20.408
517.80	21.671
518.14	21.127
518.49	20.675
518.83	21.480
519.17	20.181
519.52	21.049
519.86	20.583
520.20	19.951
520.55	21.642
520.89	19.924
521.23	20.641
521.58	22.187
521.92	20.930
522.26	21.340
522.61	20.556
522.95	21.632
523.29	20.444
523.64	21.297
523.98	20.712
524.32	20.164
524.66	20.649
525.01	20.118
525.35	20.935
525.69	20.676
526.04	20.195
526.38	21.415
526.72	19.921
527.06	19.987
527.41	20.185
527.75	19.760
528.09	21.103
528.43	21.303
528.78	19.832
529.12	20.246
529.46	20.985
529.80	20.129
530.15	20.270
530.49	20.553
530.83	20.515
531.17	20.274
531.51	20.229
531.86	20.732
532.20	20.675
532.54	19.724
532.88	20.286
533.22	20.337
533.57	20.662
533.91	20.065
534.25	21.680
534.59	21.042
534.93	20.472
535.27	21.401
535.62	20.592
535.96	21.275
536.30	21.277
536.64	20.232
536.98	20.392
537.32	20.854
537.66	21.016
538.01	20.527
538.35	20.028
538.69	20.535
539.03	21.678
539.37	19.852
539.71	21.010
540.05	20.513
540.39	20.853
540.73	20.321
541.07	20.884
541.42	21.010
541.76	20.230
542.10	19.025
542.44	20.513
542.78	20.264
543.12	20.081
543.46	21.216
543.80	20.842
544.14	20.578
544.48	19.244
544.82	21.385
545.16	20.149
545.50	22.215
545.84	20.196
546.18	21.318
546.52	20.536
546.86	20.424
547.20	20.658
547.54	20.372
547.88	21.592
548.22	21.824
548.56	19.746
548.90	20.162
549.24	20.278
549.58	20.142
549.92	20.910
550.26	21.328
550.60	20.646
550.94	20.746
551.28	20.363
551.62	20.677
551.96	20.864
552.30	19.869
552.64	19.492
552.98	20.597
553.32	19.899
553.66	20.910
554.00	20.662
554.34	20.806
554.68	20.656
555.02	20.734
555.36	20.348
555.69	20.830
556.03	20.300
556.37	19.488
556.71	19.622
557.05	20.369
557.39	20.347
557.73	20.877
558.07	20.121
558.41	20.969
558.75	20.015
559.08	19.808
559.42	21.007
559.76	20.336
560.10	20.138
560.44	21.297
560.78	19.640
561.12	20.182
561.45	20.136
561.79	20.151
562.13	20.464
562.47	20.643
562.81	20.924
563.15	19.830
563.48	20.853
563.82	20.793
564.16	19.770
564.50	20.896
564.84	20.608
565.17	20.993
565.51	20.989
565.85	19.454
566.19	20.464
566.52	19.725
566.86	20.417
567.20	20.770
567.54	20.438
567.88	20.325
568.21	20.424
568.55	20.344
568.89	20.140
569.23	20.898
569.56	21.026
569.90	21.702
570.24	20.289
570.57	21.017
570.91	21.338
571.25	20.605
571.59	20.716
571.92	21.003
572.26	21.919
572.60	22.205
572.93	21.806
573.27	21.652
573.61	22.430
573.95	21.814
574.28	21.939
574.62	21.526
574.96	21.580
575.29	21.640
575.63	21.786
575.97	22.446
576.30	21.971
576.64	22.007
576.98	22.023
577.31	22.010
577.65	21.957
577.98	22.036
578.32	21.945
578.66	22.332
578.99	22.418
579.33	22.289
579.67	22.276
580.00	22.335
580.34	22.225
580.67	22.440
581.01	22.085
581.35	22.020
581.68	21.787
582.02	21.748
582.35	22.326
582.69	22.126
583.02	22.527
583.36	22.356
583.70	22.556
584.03	22.594
584.37	22.295
584.70	22.876
585.04	22.331
585.37	22.211
585.71	22.118
586.04	22.306
586.38	21.863
586.72	21.326
587.05	22.081
587.39	21.884
587.72	22.234
588.06	22.681
588.39	22.278
588.73	22.533
589.06	22.017
589.40	22.085
589.73	21.200
590.07	22.093
590.40	21.545
590.73	22.731
591.07	22.064
591.40	21.261
591.74	21.165
592.07	22.319
592.41	21.665
592.74	21.026
593.08	21.060
593.41	21.805
593.75	21.447
594.08	21.416
594.41	21.609
594.75	21.477
595.08	21.621
595.42	21.367
595.75	21.909
596.09	22.248
596.42	21.487
596.75	21.545
597.09	21.702
597.42	21.893
597.75	21.822
598.09	20.811
598.42	21.432
598.76	21.201
599.09	21.329
599.42	20.770
599.76	21.480
600.09	21.084
600.42	21.657
600.76	21.434
601.09	21.733
601.42	22.344
601.76	22.008
602.09	22.051
602.42	21.998
602.76	21.518
603.09	21.684
603.42	22.191
603.76	21.239
604.09	21.542
604.42	21.808
604.76	21.563
605.09	21.069
605.42	22.177
605.75	20.600
606.09	21.151
606.42	21.571
606.75	21.515
607.09	20.789
607.42	21.454
607.75	20.613
608.08	21.912
608.42	20.947
608.75	21.644
609.08	20.480
609.41	20.914
609.75	20.625
610.08	21.499
610.41	21.623
610.74	20.837
611.07	21.643
611.41	22.211
611.74	21.377
612.07	21.365
612.40	22.108
612.73	21.570
613.07	20.510
613.40	20.980
613.73	20.964
614.06	21.061
614.39	21.290
614.72	21.655
615.06	20.556
615.39	21.137
615.72	20.734
616.05	21.340
616.38	20.848
616.71	20.396
617.05	21.990
617.38	20.579
617.71	20.343
618.04	20.719
618.37	20.694
618.70	21.087
619.03	20.206
619.36	21.281
619.69	20.029
620.03	20.636
620.36	21.016
620.69	20.628
621.02	19.308
621.35	19.787
621.68	19.560
622.01	20.388
622.34	20.301
622.67	20.047
623.00	20.213
623.33	20.718
623.66	20.223
623.99	20.030
624.32	19.369
624.65	20.475
624.99	20.279
625.32	20.911
625.65	19.845
625.98	20.853
626.31	20.163
626.64	20.292
626.97	19.896
627.30	19.504
627.63	19.291
627.96	20.260
628.29	18.698
628.62	19.923
628.95	18.637
629.28	19.015
629.61	19.809
629.94	19.923
630.26	19.310
630.59	18.681
630.92	18.574
631.25	18.538
631.58	21.520
631.91	17.815
632.24	18.661
632.57	18.111
632.90	19.370
633.23	17.866
633.56	20.144
633.89	18.541
634.22	21.437
634.55	18.514
634.88	18.505
635.20	19.125
635.53	19.251
635.86	18.077
636.19	17.990
636.52	18.659
636.85	17.008
637.18	18.514
637.51	17.478
637.83	20.235
638.16	18.133
638.49	18.825
638.82	18.301
639.15	19.415
639.48	19.118
639.81	16.250
640.13	18.169
640.46	20.480
640.79	16.835
641.12	17.160
641.45	18.049
641.77	18.999
642.10	19.818
642.43	20.283
642.76	18.927
643.09	16.294
643.41	18.022
643.74	17.286
644.07	16.505
644.40	19.403
644.73	18.475
645.05	17.103
645.38	17.442
645.71	16.156
646.04	13.805
646.36	17.882
646.69	16.084
647.02	18.761
647.35	17.733
647.67	19.039
648.00	17.572
648.33	17.797
648.66	16.194
648.98	17.547
649.31	17.178
649.64	15.180
649.96	19.905
650.29	18.137
650.62	17.133
650.94	18.448
651.27	17.314
651.60	17.832
651.92	16.308
652.25	18.593
652.58	18.647
652.90	18.350
653.23	17.148
653.56	17.355
653.88	14.676
654.21	16.553
654.54	16.944
654.86	17.236
655.19	18.487
655.52	20.567
655.84	20.232
656.17	24.743
656.49	33.889
656.82	34.979
657.15	27.486
657.47	20.799
657.80	15.779
658.13	17.061
658.45	25.319
658.78	25.746
659.10	26.120
659.43	25.314
659.75	24.597
660.08	23.655
660.41	22.008
660.73	19.146
661.06	19.218
661.38	17.248
661.71	18.648
662.03	17.548
662.36	17.035
662.68	15.914
663.01	17.373
663.33	15.335
663.66	14.191
663.98	18.652
664.31	18.022
664.63	11.937
664.96	18.162
665.28	20.172
665.61	14.255
665.93	16.916
666.26	20.675
666.58	16.702
666.91	19.507
667.23	17.972
667.56	17.241
667.88	15.888
668.21	15.402
668.53	19.540
668.86	16.067
669.18	16.548
669.50	17.972
669.83	16.945
670.15	14.762
670.48	18.391
670.80	17.505
671.13	16.247
671.45	17.808
671.77	16.595
672.10	15.789
672.42	18.130
672.75	16.250
673.07	17.455
673.39	18.843
673.72	17.166
674.04	19.057
674.37	18.699
674.69	16.255
675.01	16.667
675.34	17.943
675.66	18.954
675.98	16.150
676.31	19.457
676.63	21.769
676.95	16.471
677.28	15.596
677.60	16.176
677.92	17.517
678.25	18.221
678.57	18.941
678.89	16.844
679.22	15.528
679.54	19.796
679.86	17.578
680.18	15.769
680.51	18.269
680.83	15.205
681.15	19.843
681.48	16.633
681.80	17.791
682.12	16.667
682.44	18.913
682.77	17.053
683.09	15.402
683.41	14.884
683.73	16.741
684.06	16.150
684.38	16.239
684.70	18.126
685.02	17.562
685.34	18.787
685.67	17.636
685.99	17.972
686.31	18.621
686.63	18.382
686.96	18.553
687.28	16.567
687.60	18.904
687.92	19.650
688.24	16.400
688.56	17.763
688.89	15.367
689.21	15.919
689.53	14.640
689.85	18.427
690.17	17.143
690.49	16.667
690.82	15.036
691.14	17.150
691.46	16.241
691.78	15.604
692.10	16.985
692.42	15.165
692.74	19.130
693.06	14.831
693.39	16.159
693.71	20.222
694.03	20.000
694.35	18.468
694.67	18.500
694.99	17.784
695.31	18.088
695.63	18.049
695.95	15.522
696.27	12.055
696.59	15.591
696.91	15.363
697.23	17.766
697.56	15.588
697.88	18.087
698.20	20.518
698.52	17.757
698.84	15.311
699.16	16.548
699.48	17.531
699.80	19.638
700.12	15.818
700.44	17.746
700.76	15.730
701.08	12.387
701.40	15.868
701.72	15.692
702.04	14.780
702.36	17.378
702.68	12.500
703.00	17.836
703.32	13.928
703.64	16.867
703.96	17.889
704.28	15.663
704.60	16.463
704.91	13.166
705.23	15.506
705.55	13.448
705.87	13.028
706.19	13.187
706.51	13.380
706.83	10.828
707.15	14.939
707.47	16.804
707.79	14.721
708.11	13.625
708.43	18.528
708.74	14.628
709.06	17.380
709.38	16.427
709.70	15.916
710.02	13.707
710.34	14.333
710.66	12.052
710.98	11.455
711.29	18.831
711.61	15.161
711.93	19.677
712.25	10.490
712.57	9.474
712.89	16.850
713.20	18.440
713.52	16.058
713.84	12.903
714.16	12.945
714.48	12.025
714.80	14.058
715.11	18.023
715.43	14.907
715.75	19.876
716.07	15.361
716.39	17.845
716.70	19.424
717.02	14.118
717.34	14.394
717.66	12.069
717.97	13.095
718.29	18.504
718.61	12.017
718.93	15.116
719.24	20.664
719.56	14.232
719.88	12.687
720.20	19.368
720.51	16.406
720.83	14.397
721.15	11.382
721.46	16.031
721.78	10.757
722.10	14.343
722.42	13.306
722.73	15.830
723.05	12.245
723.37	12.185
723.68	8.800
724.00	11.064
724.32	15.900
724.63	16.049
724.95	14.103
725.27	18.143
725.58	15.638
725.90	10.879
726.22	18.478
726.53	12.549
726.85	14.964
727.16	19.259
727.48	17.625
727.80	16.797
728.11	16.803
728.43	14.453
728.74	13.095
729.06	16.000
729.38	15.810
729.69	16.370
730.01	7.807
730.32	15.867
730.64	13.258
730.96	18.182
731.27	15.050
731.59	22.222
731.90	14.887
732.22	15.385
732.53	17.905
732.85	14.765
733.16	17.822
733.48	15.541
733.80	19.257
734.11	16.892
734.43	19.195
734.74	20.420
735.06	15.274
735.37	15.805
735.69	13.592
736.00	15.512
736.32	18.085
736.63	19.655
736.95	15.068
737.26	15.862
737.58	12.847
737.89	16.495
738.21	14.235
738.52	15.589
738.83	16.327
739.15	13.080
739.46	16.342
739.78	11.972
740.09	17.123
740.41	13.571
740.72	13.830
741.04	13.200
741.35	15.789
741.66	18.222
741.98	17.788
742.29	17.822
742.61	16.585
742.92	17.982
743.23	10.849
743.55	18.468
743.86	12.108
744.18	15.196
744.49	6.599
744.80	15.816
745.12	16.355
745.43	11.374
745.74	14.865
746.06	11.215
746.37	16.972
746.68	13.942
747.00	12.440
747.31	19.712
747.62	17.890
747.94	21.834
748.25	12.844
748.56	17.778
748.88	19.718
749.19	20.000
749.50	13.107
749.82	14.554
750.13	11.667
750.44	14.615
750.75	18.819
751.07	18.149
751.38	15.957
751.69	15.058
752.01	20.703
752.32	12.692
752.63	19.030
752.94	15.600
753.26	14.226
753.57	15.833
753.88	17.409
754.19	15.139
754.51	11.654
754.82	18.681
755.13	16.087
755.44	16.667
755.75	14.800
756.07	14.391
756.38	19.424
756.69	16.041
757.00	17.445
757.31	17.476
757.63	12.963
757.94	19.209
758.25	18.519
758.56	19.565
758.87	22.321
759.18	17.666
759.50	17.172
759.81	22.074
760.12	19.077
760.43	15.179
760.74	19.774
761.05	18.785
761.36	15.759
761.67	21.148
761.99	15.464
762.30	14.599
762.61	14.815
762.92	21.368
763.23	18.852
763.54	16.017
763.85	13.469
764.16	15.854
764.47	18.000
764.78	15.357
765.10	15.738
765.41	15.502
765.72	22.360
766.03	18.152
766.34	17.308
766.65	13.389
766.96	17.840
767.27	15.347
767.58	14.607
767.89	14.815
768.20	14.917
768.51	18.090
768.82	15.865
769.13	19.027
769.44	16.736
769.75	6.410
770.06	16.143
770.37	11.765
770.68	18.447
770.99	18.932
771.30	15.966
771.61	13.469
771.92	16.183
772.23	13.964
772.54	8.840
772.85	15.698
773.16	17.460
773.47	2.367
773.78	21.264
774.09	13.125
774.39	18.634
774.70	22.449
775.01	13.793
775.32	16.429
775.63	9.774
775.94	8.271
776.25	2.400
776.56	12.397
776.87	9.524
777.18	5.405
777.48	15.315
777.79	14.173
778.10	11.927
778.41	3.509
778.72	8.403
779.03	2.817
779.34	16.892
779.65	11.972
779.95	16.556
780.26	8.633
780.57	16.547
780.88	11.972
781.19	3.361
781.50	18.792
781.80	13.450
782.11	14.535
782.42	16.981
782.73	14.379
783.04	11.724
783.34	-0.763
783.65	10.067
783.96	3.077
784.27	17.857
784.57	14.894
784.88	0.962
785.19	24.545
785.50	10.000
785.81	4.762
786.11	3.361
786.42	15.044
786.73	5.660
787.04	-2.752
787.34	4.950
787.65	21.667
787.96	6.612
788.26	18.841
788.57	7.143
788.88	5.691
789.19	8.800
789.49	12.977
789.80	17.424
790.11	0.000
790.41	11.881
790.72	12.766
791.03	10.870
791.33	-2.353
791.64	11.111
791.95	5.435
792.25	20.455
792.56	8.974
792.87	2.564
793.17	-10.256
793.48	13.095
793.79	2.500
794.09	23.077
794.40	6.250
794.70	27.027
795.01	7.813
795.32	18.261
795.62	8.696
795.93	6.604
796.23	20.202
796.54	3.659
796.85	1.190
797.15	-3.030
797.46	5.797
797.76	3.947
798.07	3.409
798.37	2.439
798.68	-8.065
798.99	4.054
799.29	15.663
799.60	11.538
799.90	16.923
800.21	3.030
800.51	12.000
800.82	20.000
801.12	-20.833
801.43	-1.667
801.73	4.054
802.04	11.429
802.34	1.639
802.65	2.985
802.95	-7.273
803.26	0.000
803.56	12.308
803.87	5.660
804.17	4.839
804.48	14.706
804.78	-7.317
805.09	13.043
805.39	0.000
805.70	-12.766
806.00	-7.018
806.30	24.359
806.61	10.526
806.91	10.811
807.22	14.474
807.52	19.318
807.83	-3.390
808.13	-9.091
808.43	-8.333
808.74	-15.517
809.04	7.937
809.35	-4.082
809.65	5.000
809.95	-14.286
810.26	43.662
810.56	-12.500
810.86	-8.163
811.17	23.077
811.47	-10.638
811.77	-2.083
812.08	-7.547
812.38	-21.875
812.69	10.909
812.99	-21.951
813.29	2.703
813.59	-37.838
813.90	-1.818
814.20	0.000
814.50	3.333
814.81	9.091
815.11	10.526
815.41	9.302
815.72	-7.500
816.02	-11.429
816.32	-10.811
816.62	8.333
816.93	-8.889
817.23	8.889
817.53	-2.778
817.84	2.703
818.14	-2.439
818.44	6.000
818.74	-18.367
819.04	9.756
819.35	16.667
819.65	27.273
819.95	-50.000
820.25	-9.091
820.56	-19.048
820.86	0.000
821.16	-25.000
821.46	8.696
821.76	1.724
822.07	21.739
822.37	-9.091
822.67	19.512
822.97	5.405
823.27	-34.286
823.57	-6.897
823.88	-32.353
824.18	13.889
824.48	-2.857
824.78	19.048
825.08	-28.571
825.38	-29.630
825.69	0.000
825.99	14.634
826.29	-14.815
826.59	-25.000
826.89	12.903
827.19	-21.739
827.49	-8.333
827.79	-34.783
828.09	-32.258
828.39	-20.833
828.70	-53.125
829.00	10.345
829.30	13.514
829.60	8.333
829.90	-33.333
830.20	12.500
830.50	9.091
830.80	-35.294
831.10	-72.727
831.40	-14.706
831.70	19.231
832.00	-6.061
832.30	11.765
832.60	10.811
832.90	1100.000
833.20	0.000
833.50	-95.000
833.80	-5.263
834.10	-20.833
834.40	-63.636
834.70	-86.667
835.00	-20.000
835.30	-12.500
835.60	-66.667
835.90	-33.333
836.20	-40.000
836.50	-29.167
836.80	-21.053
837.10	16.216
837.40	33.333
837.70	-47.826
838.00	-4.167
838.30	-31.579
838.60	-120.000
838.90	-210.000
839.19	-33.333
839.49	-23.077
839.79	-68.421
840.09	-300.000
840.39	-150.000
840.69	-45.455
840.99	4.762
841.29	-16.667
841.59	-76.923
841.88	-33.333
842.18	21.429
842.48	20.000
842.78	-114.286
843.08	-50.000
843.38	-150.000
843.68	-106.250
843.97	0.000
844.27	-155.556
844.57	-27.273
844.87	-93.333
845.17	-9.091
845.47	666.667
845.76	-40.000
846.06	-125.000
846.36	-1200.000
846.66	-10.526
846.96	-22.727
847.25	-77.778
847.55	-88.889
847.85	-47.619
848.15	-30.769
848.44	-266.667
848.74	-91.667
849.04	-61.538
849.34	-350.000
849.63	-118.182
849.93	-64.286
850.23	20.000
850.53	-137.500
850.82	50.000
851.12	-53.333
851.42	-82.353
851.71	37.500
852.01	70.588
852.31	7.692
852.61	700.000
852.90	70.588
853.20	-13.333
853.50	-50.000
853.79	-107.143
854.09	25.000
854.39	-10.000
854.68	0.000
854.98	-14.286
855.28	-16.000
855.57	12.500
855.87	-50.000
856.17	-36.000
856.46	-25.000
856.76	5.000
857.05	28.000
857.35	-33.333
857.65	-58.824
857.94	-108.333
858.24	-116.667
858.53	-35.000
858.83	-72.727
859.13	8.000
859.42	-50.000
859.72	-150.000
860.01	-4.167
860.31	-112.500
860.60	-25.000
860.90	-166.667
861.20	-100.000
861.49	20.000
861.79	0.000
862.08	225.000
862.38	-150.000
862.67	371.429
862.97	225.000
863.26	-27.273
863.56	-45.455
863.85	31.579
864.15	-35.294
864.44	-180.000
864.74	-70.000
865.03	-211.111
865.33	-64.286
865.62	157.143
865.92	-10.526
866.21	-38.889
866.51	-118.182
866.80	-188.889
867.10	-150.000
867.39	-18.750
867.69	-106.667
867.98	-70.000
868.27	52.941
868.57	0.000
868.86	750.000
869.16	-75.000
869.45	-171.429
869.75	350.000
870.04	-30.000
870.33	-1900.000
870.63	-31.579
870.92	-91.667
871.22	-800.000
871.51	-185.714
871.80	-255.556
872.10	-225.000
>>>>>End Processed Spectral Data<<<<<
