SpectraSuite Data File
++++++++++++++++++++++++++++++++++++
Date: Wed May 13 21:07:30 PDT 2015
User: schluterlab
Dark Spectrum Present: Yes
Reference Spectrum Present: Yes
Number of Sampled Component Spectra: 1
Spectrometers: USB2E3373
Integration Time (usec): 3000 (USB2E3373)
Spectra Averaged: 3 (USB2E3373)
Boxcar Smoothing: 0 (USB2E3373)
Correct for Electrical Dark: No (USB2E3373)
Strobe/Lamp Enabled: No (USB2E3373)
Correct for Detector Non-linearity: No (USB2E3373)
Correct for Stray Light: No (USB2E3373)
Number of Pixels in Processed Spectrum: 2048
>>>>>Begin Processed Spectral Data<<<<<
178.53	0.000
178.91	250.000
179.29	100.000
179.67	-750.000
180.04	-233.333
180.42	260.000
180.80	900.000
181.18	133.333
181.56	-350.000
181.94	-100.000
182.31	-45.455
182.69	92.308
183.07	-160.000
183.45	116.667
183.83	166.667
184.20	157.143
184.58	66.667
184.96	100.000
185.34	228.571
185.72	0.000
186.09	-800.000
186.47	-60.000
186.85	100.000
187.23	-200.000
187.61	700.000
187.98	1800.000
188.36	25.000
188.74	0.000
189.12	-54.545
189.49	0.000
189.87	91.667
190.25	280.000
190.63	800.000
191.00	0.000
191.38	200.000
191.76	200.000
192.14	116.667
192.51	-15.789
192.89	366.667
193.27	325.000
193.65	0.000
194.02	281.818
194.40	120.000
194.78	-700.000
195.15	100.000
195.53	-160.000
195.91	0.000
196.29	-200.000
196.66	0.000
197.04	50.000
197.42	-80.000
197.79	0.000
198.17	-62.500
198.55	100.000
198.92	200.000
199.30	-233.333
199.68	60.000
200.05	250.000
200.43	150.000
200.81	-1100.000
201.18	-200.000
201.56	-166.667
201.94	575.000
202.31	30.435
202.69	-100.000
203.07	-333.333
203.44	-80.000
203.82	-100.000
204.19	20.000
204.57	0.000
204.95	-50.000
205.32	0.000
205.70	-200.000
206.08	-275.000
206.45	-50.000
206.83	100.000
207.20	0.000
207.58	0.000
207.96	-900.000
208.33	-57.143
208.71	-1000.000
209.08	212.500
209.46	375.000
209.84	0.000
210.21	130.000
210.59	2100.000
210.96	240.000
211.34	-500.000
211.71	-50.000
212.09	-66.667
212.46	-80.000
212.84	-266.667
213.22	175.000
213.59	0.000
213.97	-300.000
214.34	-550.000
214.72	-23.077
215.09	137.500
215.47	111.111
215.84	250.000
216.22	-87.500
216.59	-100.000
216.97	500.000
217.34	44.444
217.72	0.000
218.09	233.333
218.47	-100.000
218.84	-128.571
219.22	-137.500
219.59	-433.333
219.97	-50.000
220.34	62.500
220.72	-40.000
221.09	0.000
221.47	-16.667
221.84	-700.000
222.22	0.000
222.59	1900.000
222.97	233.333
223.34	33.333
223.72	-1800.000
224.09	0.000
224.46	-18.182
224.84	-37.500
225.21	14.286
225.59	-225.000
225.96	-50.000
226.34	-70.000
226.71	-85.714
227.08	200.000
227.46	-75.000
227.83	-300.000
228.21	-43.750
228.58	-200.000
228.95	-17.647
229.33	81.250
229.70	-100.000
230.08	30.769
230.45	-112.500
230.82	-16.667
231.20	157.143
231.57	-375.000
231.95	900.000
232.32	83.333
232.69	-11.765
233.07	-100.000
233.44	-17.391
233.81	-850.000
234.19	45.833
234.56	-66.667
234.93	-20.000
235.31	78.947
235.68	-84.615
236.05	30.769
236.43	61.111
236.80	9.091
237.17	-6.667
237.55	5.882
237.92	27.586
238.29	33.333
238.67	55.556
239.04	41.935
239.41	46.809
239.79	44.681
240.16	53.488
240.53	19.643
240.91	48.214
241.28	48.214
241.65	40.323
242.02	40.789
242.40	55.072
242.77	37.681
243.14	48.718
243.51	44.681
243.89	34.615
244.26	46.226
244.63	37.500
245.00	57.292
245.38	42.857
245.75	42.623
246.12	51.880
246.49	43.902
246.87	42.857
247.24	47.973
247.61	46.358
247.98	43.590
248.36	37.278
248.73	41.011
249.10	44.444
249.47	44.624
249.84	47.895
250.22	45.771
250.59	47.664
250.96	50.000
251.33	38.756
251.70	43.515
252.08	43.096
252.45	48.148
252.82	47.909
253.19	42.802
253.56	43.885
253.94	49.822
254.31	47.183
254.68	49.329
255.05	50.825
255.42	48.601
255.79	41.411
256.16	47.319
256.54	49.206
256.91	43.987
257.28	44.969
257.65	44.904
258.02	45.455
258.39	48.830
258.76	44.767
259.14	50.000
259.51	46.067
259.88	49.593
260.25	47.500
260.62	46.348
260.99	47.480
261.36	46.114
261.73	47.901
262.10	44.529
262.47	46.667
262.85	45.522
263.22	45.897
263.59	46.494
263.96	47.202
264.33	45.913
264.70	46.744
265.07	43.750
265.44	51.034
265.81	46.682
266.18	44.419
266.55	45.633
266.92	46.610
267.29	45.473
267.66	48.832
268.03	48.560
268.40	45.551
268.77	46.281
269.14	46.327
269.51	47.639
269.88	43.381
270.25	46.610
270.62	46.311
270.99	47.835
271.36	45.437
271.73	48.795
272.10	46.286
272.47	46.257
272.84	45.669
273.21	45.597
273.58	46.107
273.95	46.226
274.32	44.963
274.69	46.448
275.06	44.700
275.43	47.081
275.80	45.745
276.17	47.514
276.54	44.050
276.91	43.554
277.28	45.668
277.65	45.979
278.02	45.536
278.39	44.050
278.76	43.813
279.13	45.111
279.50	43.966
279.87	45.833
280.23	47.748
280.60	43.772
280.97	44.968
281.34	43.375
281.71	43.740
282.08	44.786
282.45	44.590
282.82	44.728
283.19	45.732
283.56	44.531
283.92	46.636
284.29	44.462
284.66	43.328
285.03	43.648
285.40	41.541
285.77	43.844
286.14	41.945
286.51	46.777
286.87	41.077
287.24	41.888
287.61	44.428
287.98	41.029
288.35	42.325
288.72	44.907
289.08	41.595
289.45	42.584
289.82	40.998
290.19	41.515
290.56	39.773
290.93	39.088
291.29	39.535
291.66	39.344
292.03	39.782
292.40	39.166
292.77	39.491
293.13	38.215
293.50	37.778
293.87	39.733
294.24	38.757
294.60	38.492
294.97	39.286
295.34	35.752
295.71	35.480
296.08	37.827
296.44	37.245
296.81	36.175
297.18	35.750
297.55	35.613
297.91	37.640
298.28	36.925
298.65	35.591
299.02	37.363
299.38	35.706
299.75	34.495
300.12	31.628
300.48	33.801
300.85	34.873
301.22	34.611
301.59	34.390
301.95	34.262
302.32	33.139
302.69	33.672
303.05	34.109
303.42	34.205
303.79	33.859
304.15	33.625
304.52	33.763
304.89	33.887
305.25	30.735
305.62	33.080
305.99	34.929
306.35	34.901
306.72	34.791
307.09	34.098
307.45	34.398
307.82	32.632
308.19	34.065
308.55	33.572
308.92	33.988
309.29	33.734
309.65	33.367
310.02	32.107
310.38	32.927
310.75	33.629
311.12	32.750
311.48	34.718
311.85	33.661
312.22	34.623
312.58	33.816
312.95	33.035
313.31	32.874
313.68	35.115
314.05	34.972
314.41	35.351
314.78	36.243
315.14	35.093
315.51	35.014
315.87	35.218
316.24	35.904
316.61	37.352
316.97	35.833
317.34	35.740
317.70	38.180
318.07	37.711
318.43	38.211
318.80	38.482
319.16	38.196
319.53	38.889
319.89	38.482
320.26	39.741
320.62	39.944
320.99	39.922
321.35	39.663
321.72	41.771
322.08	42.159
322.45	42.923
322.81	43.715
323.18	44.007
323.54	45.217
323.91	44.535
324.27	45.635
324.64	45.209
325.00	45.669
325.37	47.782
325.73	45.960
326.10	46.426
326.46	47.742
326.83	46.764
327.19	48.537
327.56	49.234
327.92	47.868
328.29	51.252
328.65	51.008
329.01	52.155
329.38	51.217
329.74	50.129
330.11	51.488
330.47	49.826
330.84	51.264
331.20	51.409
331.56	52.899
331.93	52.369
332.29	53.606
332.66	53.220
333.02	52.302
333.38	54.561
333.75	52.901
334.11	53.472
334.48	55.100
334.84	53.092
335.20	52.916
335.57	53.003
335.93	52.148
336.29	54.116
336.66	53.761
337.02	53.739
337.38	53.525
337.75	52.283
338.11	53.886
338.47	53.339
338.84	53.608
339.20	54.674
339.56	53.840
339.93	54.105
340.29	53.117
340.65	53.464
341.02	54.409
341.38	54.476
341.74	53.782
342.11	55.078
342.47	54.226
342.83	52.533
343.20	55.668
343.56	55.437
343.92	51.422
344.28	55.438
344.65	55.592
345.01	53.995
345.37	55.181
345.73	54.493
346.10	54.976
346.46	54.797
346.82	54.735
347.19	54.509
347.55	55.412
347.91	54.716
348.27	54.574
348.63	56.410
349.00	54.953
349.36	55.024
349.72	53.906
350.08	53.666
350.45	55.286
350.81	53.286
351.17	54.426
351.53	56.952
351.89	56.076
352.26	53.282
352.62	54.341
352.98	55.591
353.34	54.670
353.70	53.738
354.07	56.000
354.43	55.443
354.79	56.571
355.15	54.658
355.51	54.518
355.87	54.730
356.24	56.260
356.60	54.730
356.96	56.408
357.32	55.960
357.68	56.990
358.04	54.538
358.40	56.357
358.77	56.575
359.13	56.187
359.49	56.018
359.85	55.648
360.21	57.209
360.57	57.414
360.93	56.146
361.29	56.699
361.66	56.036
362.02	54.337
362.38	55.613
362.74	54.605
363.10	56.833
363.46	55.980
363.82	57.206
364.18	56.055
364.54	55.945
364.90	55.958
365.26	56.688
365.62	56.960
365.98	56.868
366.35	57.163
366.71	55.492
367.07	56.485
367.43	56.237
367.79	56.984
368.15	56.329
368.51	56.259
368.87	57.990
369.23	57.295
369.59	57.082
369.95	57.837
370.31	55.300
370.67	56.770
371.03	58.055
371.39	56.352
371.75	57.786
372.11	58.618
372.47	57.246
372.83	56.865
373.19	57.482
373.55	57.803
373.91	56.436
374.27	56.432
374.63	57.752
374.99	56.616
375.35	56.918
375.71	56.590
376.07	59.013
376.42	57.754
376.78	58.058
377.14	59.119
377.50	59.061
377.86	58.234
378.22	58.217
378.58	57.692
378.94	58.250
379.30	57.152
379.66	57.460
380.02	57.721
380.38	57.410
380.74	58.159
381.09	58.504
381.45	58.343
381.81	58.903
382.17	57.593
382.53	57.969
382.89	57.479
383.25	57.901
383.61	59.080
383.97	57.875
384.32	57.278
384.68	58.297
385.04	57.056
385.40	59.963
385.76	57.908
386.12	59.070
386.48	57.994
386.83	58.698
387.19	58.051
387.55	58.124
387.91	60.394
388.27	58.385
388.62	58.427
388.98	58.511
389.34	58.083
389.70	58.059
390.06	57.750
390.42	60.374
390.77	57.719
391.13	58.018
391.49	56.989
391.85	57.444
392.20	57.644
392.56	58.476
392.92	57.168
393.28	58.106
393.64	59.266
393.99	57.405
394.35	57.716
394.71	59.744
395.07	56.792
395.42	58.379
395.78	58.301
396.14	58.909
396.50	58.085
396.85	58.764
397.21	58.801
397.57	57.205
397.92	57.246
398.28	57.304
398.64	58.166
399.00	56.752
399.35	58.797
399.71	57.135
400.07	56.928
400.42	57.931
400.78	56.616
401.14	57.940
401.49	57.460
401.85	57.740
402.21	59.009
402.57	57.265
402.92	57.760
403.28	55.910
403.63	56.541
403.99	57.774
404.35	57.668
404.70	55.891
405.06	56.489
405.42	55.842
405.77	56.567
406.13	56.400
406.49	56.441
406.84	56.838
407.20	55.950
407.55	57.468
407.91	56.386
408.27	55.895
408.62	55.494
408.98	55.919
409.34	55.507
409.69	58.155
410.05	55.597
410.40	54.839
410.76	55.716
411.11	56.530
411.47	57.863
411.83	55.833
412.18	54.723
412.54	55.764
412.89	56.113
413.25	54.631
413.60	56.364
413.96	55.868
414.31	55.610
414.67	54.794
415.03	56.631
415.38	55.416
415.74	55.686
416.09	56.907
416.45	56.801
416.80	55.570
417.16	55.601
417.51	55.057
417.87	56.349
418.22	55.333
418.58	54.468
418.93	55.430
419.29	56.106
419.64	55.153
420.00	55.937
420.35	55.170
420.71	55.271
421.06	54.797
421.42	56.144
421.77	54.913
422.12	56.676
422.48	55.016
422.83	55.759
423.19	57.159
423.54	56.007
423.90	55.463
424.25	56.268
424.61	55.022
424.96	56.180
425.31	54.010
425.67	55.614
426.02	57.126
426.38	56.095
426.73	55.895
427.09	57.036
427.44	54.727
427.79	55.582
428.15	54.434
428.50	55.166
428.85	55.474
429.21	53.461
429.56	55.792
429.92	55.544
430.27	54.857
430.62	55.666
430.98	54.839
431.33	55.078
431.68	55.485
432.04	54.592
432.39	54.619
432.74	54.016
433.10	55.026
433.45	55.207
433.80	55.287
434.16	55.270
434.51	55.163
434.86	55.124
435.22	55.857
435.57	54.975
435.92	55.850
436.28	55.616
436.63	54.734
436.98	54.818
437.34	56.349
437.69	54.427
438.04	55.122
438.39	55.729
438.75	55.125
439.10	55.003
439.45	55.085
439.81	56.527
440.16	55.014
440.51	55.172
440.86	55.898
441.22	56.454
441.57	54.338
441.92	55.003
442.27	55.736
442.63	54.790
442.98	55.208
443.33	55.982
443.68	55.561
444.03	56.682
444.39	56.371
444.74	56.046
445.09	54.956
445.44	55.606
445.79	56.273
446.15	56.018
446.50	55.837
446.85	55.906
447.20	56.142
447.55	56.128
447.91	54.607
448.26	54.717
448.61	55.409
448.96	55.866
449.31	55.054
449.66	55.350
450.02	55.713
450.37	54.818
450.72	55.568
451.07	55.361
451.42	54.959
451.77	55.995
452.12	54.783
452.47	55.520
452.83	55.483
453.18	54.106
453.53	55.044
453.88	56.084
454.23	55.810
454.58	54.779
454.93	54.009
455.28	54.271
455.63	55.396
455.98	54.534
456.34	55.054
456.69	55.080
457.04	54.861
457.39	55.502
457.74	54.219
458.09	54.088
458.44	55.112
458.79	53.652
459.14	53.258
459.49	55.183
459.84	55.581
460.19	54.142
460.54	55.474
460.89	54.786
461.24	54.316
461.59	55.495
461.94	54.867
462.29	53.922
462.64	54.222
462.99	54.527
463.34	54.075
463.69	54.381
464.04	54.082
464.39	54.667
464.74	52.887
465.09	53.875
465.44	53.255
465.79	55.549
466.14	54.162
466.49	54.604
466.84	53.796
467.19	53.949
467.54	53.532
467.89	53.237
468.24	54.333
468.59	54.621
468.94	53.384
469.29	54.263
469.64	53.835
469.99	54.276
470.34	53.136
470.68	52.565
471.03	52.891
471.38	53.408
471.73	53.361
472.08	53.058
472.43	53.100
472.78	53.955
473.13	50.066
473.48	53.033
473.83	52.480
474.17	52.474
474.52	52.686
474.87	51.870
475.22	53.563
475.57	52.370
475.92	52.781
476.27	52.855
476.61	51.869
476.96	52.484
477.31	51.996
477.66	52.542
478.01	52.473
478.36	51.771
478.70	53.169
479.05	53.108
479.40	52.678
479.75	53.454
480.10	52.269
480.45	51.692
480.79	52.713
481.14	53.799
481.49	52.837
481.84	52.215
482.19	51.413
482.53	52.810
482.88	51.055
483.23	50.962
483.58	51.181
483.92	51.848
484.27	50.091
484.62	50.688
484.97	51.307
485.31	52.622
485.66	50.264
486.01	51.429
486.36	52.435
486.70	53.403
487.05	53.973
487.40	53.258
487.75	54.034
488.09	53.394
488.44	52.927
488.79	53.369
489.13	51.650
489.48	50.663
489.83	50.826
490.17	50.295
490.52	51.893
490.87	49.467
491.22	49.976
491.56	50.743
491.91	51.080
492.26	50.435
492.60	49.062
492.95	50.437
493.30	49.467
493.64	49.880
493.99	49.420
494.34	50.145
494.68	50.167
495.03	49.555
495.37	49.051
495.72	49.724
496.07	50.170
496.41	49.977
496.76	50.457
497.11	49.108
497.45	50.000
497.80	50.782
498.14	49.421
498.49	49.370
498.84	49.646
499.18	49.477
499.53	49.926
499.87	48.617
500.22	49.179
500.56	50.100
500.91	50.000
501.26	49.015
501.60	48.676
501.95	48.251
502.29	50.146
502.64	49.807
502.98	48.699
503.33	49.148
503.67	48.978
504.02	48.873
504.36	48.390
504.71	48.526
505.06	48.956
505.40	48.866
505.75	49.186
506.09	48.646
506.44	48.538
506.78	48.349
507.13	49.012
507.47	48.834
507.82	48.195
508.16	48.127
508.51	48.244
508.85	48.730
509.19	48.307
509.54	48.472
509.88	47.581
510.23	47.105
510.57	48.729
510.92	48.384
511.26	48.790
511.61	47.750
511.95	47.905
512.30	47.640
512.64	47.900
512.98	47.091
513.33	47.775
513.67	47.871
514.02	47.548
514.36	46.461
514.70	46.882
515.05	48.157
515.39	46.521
515.74	47.721
516.08	46.667
516.42	46.313
516.77	47.159
517.11	46.384
517.46	48.379
517.80	46.550
518.14	46.601
518.49	45.750
518.83	46.181
519.17	46.024
519.52	47.226
519.86	46.327
520.20	46.392
520.55	45.709
520.89	46.110
521.23	47.179
521.58	45.891
521.92	46.072
522.26	45.153
522.61	45.960
522.95	45.790
523.29	45.397
523.64	45.455
523.98	46.061
524.32	45.495
524.66	45.974
525.01	46.723
525.35	45.622
525.69	45.991
526.04	44.300
526.38	43.913
526.72	45.957
527.06	43.520
527.41	44.672
527.75	44.927
528.09	45.882
528.43	45.319
528.78	43.669
529.12	45.019
529.46	44.786
529.80	43.883
530.15	44.723
530.49	45.957
530.83	45.159
531.17	44.863
531.51	43.965
531.86	44.783
532.20	45.141
532.54	45.724
532.88	44.520
533.22	45.589
533.57	46.093
533.91	44.774
534.25	46.094
534.59	45.302
534.93	45.344
535.27	44.204
535.62	45.789
535.96	44.697
536.30	44.880
536.64	44.634
536.98	43.518
537.32	44.128
537.66	45.346
538.01	43.897
538.35	43.923
538.69	43.880
539.03	43.490
539.37	43.662
539.71	43.179
540.05	43.725
540.39	44.184
540.73	43.366
541.07	43.401
541.42	43.771
541.76	44.452
542.10	43.466
542.44	41.996
542.78	43.720
543.12	43.059
543.46	43.262
543.80	43.109
544.14	44.322
544.48	43.265
544.82	42.300
545.16	42.258
545.50	43.619
545.84	42.146
546.18	43.338
546.52	42.555
546.86	40.777
547.20	42.102
547.54	42.745
547.88	43.657
548.22	41.759
548.56	42.695
548.90	42.558
549.24	42.639
549.58	42.206
549.92	43.213
550.26	44.059
550.60	43.168
550.94	42.239
551.28	41.787
551.62	42.481
551.96	42.240
552.30	42.285
552.64	40.749
552.98	42.543
553.32	42.682
553.66	42.920
554.00	41.181
554.34	42.051
554.68	41.089
555.02	40.195
555.36	42.133
555.69	40.859
556.03	41.101
556.37	41.892
556.71	41.556
557.05	40.738
557.39	41.673
557.73	41.225
558.07	40.919
558.41	42.089
558.75	41.493
559.08	40.898
559.42	41.857
559.76	40.673
560.10	40.584
560.44	41.710
560.78	41.583
561.12	41.275
561.45	39.456
561.79	40.922
562.13	40.788
562.47	41.214
562.81	41.270
563.15	41.218
563.48	40.399
563.82	41.382
564.16	40.826
564.50	41.723
564.84	39.865
565.17	41.523
565.51	41.845
565.85	39.707
566.19	41.457
566.52	40.236
566.86	40.961
567.20	41.051
567.54	40.933
567.88	40.146
568.21	40.467
568.55	40.845
568.89	40.479
569.23	41.384
569.56	41.176
569.90	41.143
570.24	41.300
570.57	41.829
570.91	41.744
571.25	41.911
571.59	41.822
571.92	42.622
572.26	42.620
572.60	42.193
572.93	42.393
573.27	42.059
573.61	42.010
573.95	42.517
574.28	42.485
574.62	42.236
574.96	42.200
575.29	42.352
575.63	42.439
575.97	43.071
576.30	42.236
576.64	41.996
576.98	42.558
577.31	41.897
577.65	41.573
577.98	42.727
578.32	42.930
578.66	42.444
578.99	42.512
579.33	42.829
579.67	41.624
580.00	42.161
580.34	41.226
580.67	42.185
581.01	41.581
581.35	42.016
581.68	41.529
582.02	42.541
582.35	42.778
582.69	42.995
583.02	42.691
583.36	42.450
583.70	42.751
584.03	42.437
584.37	42.131
584.70	42.317
585.04	42.038
585.37	41.385
585.71	41.438
586.04	41.880
586.38	41.147
586.72	40.910
587.05	41.455
587.39	40.782
587.72	41.622
588.06	41.505
588.39	40.946
588.73	41.576
589.06	42.127
589.40	41.211
589.73	40.676
590.07	40.977
590.40	40.931
590.73	41.045
591.07	40.827
591.40	40.000
591.74	39.973
592.07	40.073
592.41	40.154
592.74	40.664
593.08	39.453
593.41	40.141
593.75	40.698
594.08	40.449
594.41	40.183
594.75	41.229
595.08	40.067
595.42	39.549
595.75	40.022
596.09	40.223
596.42	40.319
596.75	40.018
597.09	40.400
597.42	39.883
597.75	38.978
598.09	39.253
598.42	39.732
598.76	38.791
599.09	40.216
599.42	40.219
599.76	40.030
600.09	39.646
600.42	39.736
600.76	38.803
601.09	39.510
601.42	39.161
601.76	39.112
602.09	39.643
602.42	39.785
602.76	39.052
603.09	39.548
603.42	38.505
603.76	38.971
604.09	39.209
604.42	38.845
604.76	39.852
605.09	39.012
605.42	39.451
605.75	38.972
606.09	38.783
606.42	39.568
606.75	38.442
607.09	39.317
607.42	38.923
607.75	37.593
608.08	38.999
608.42	38.941
608.75	39.417
609.08	38.413
609.41	39.046
609.75	38.275
610.08	38.708
610.41	38.192
610.74	37.344
611.07	38.226
611.41	38.025
611.74	37.164
612.07	36.790
612.40	38.432
612.73	37.486
613.07	37.639
613.40	37.996
613.73	37.053
614.06	37.258
614.39	37.243
614.72	37.923
615.06	36.889
615.39	37.748
615.72	37.797
616.05	37.275
616.38	36.254
616.71	36.713
617.05	37.899
617.38	35.367
617.71	35.539
618.04	36.137
618.37	36.719
618.70	36.611
619.03	36.082
619.36	36.370
619.69	35.453
620.03	36.113
620.36	35.212
620.69	34.333
621.02	36.000
621.35	33.851
621.68	34.963
622.01	35.518
622.34	34.734
622.67	36.022
623.00	37.158
623.33	36.051
623.66	34.870
623.99	34.959
624.32	34.483
624.65	35.237
624.99	34.460
625.32	35.325
625.65	34.651
625.98	34.834
626.31	35.020
626.64	34.480
626.97	34.170
627.30	35.672
627.63	34.516
627.96	33.593
628.29	34.419
628.62	32.398
628.95	32.766
629.28	33.399
629.61	33.589
629.94	33.752
630.26	31.921
630.59	32.667
630.92	33.333
631.25	32.338
631.58	32.655
631.91	30.753
632.24	33.041
632.57	31.556
632.90	31.622
633.23	31.535
633.56	34.053
633.89	30.502
634.22	34.393
634.55	33.374
634.88	29.534
635.20	33.125
635.53	32.429
635.86	30.897
636.19	31.762
636.52	30.610
636.85	31.966
637.18	30.572
637.51	32.210
637.83	31.723
638.16	31.867
638.49	30.574
638.82	30.327
639.15	31.250
639.48	29.545
639.81	30.139
640.13	31.831
640.46	31.356
640.79	30.360
641.12	30.178
641.45	29.403
641.77	29.455
642.10	29.652
642.43	29.717
642.76	29.653
643.09	30.671
643.41	30.463
643.74	29.725
644.07	27.670
644.40	29.353
644.73	28.814
645.05	28.447
645.38	26.080
645.71	30.102
646.04	28.283
646.36	30.208
646.69	27.797
647.02	29.326
647.35	29.250
647.67	27.726
648.00	28.261
648.33	30.000
648.66	28.214
648.98	29.037
649.31	29.141
649.64	29.421
649.96	32.385
650.29	28.268
650.62	27.348
650.94	29.310
651.27	29.152
651.60	28.671
651.92	31.183
652.25	28.811
652.58	29.868
652.90	30.640
653.23	25.127
653.56	28.264
653.88	26.621
654.21	30.034
654.54	26.744
654.86	26.504
655.19	30.252
655.52	34.236
655.84	35.110
656.17	42.652
656.49	57.253
656.82	58.196
657.15	44.653
657.47	33.251
657.80	24.906
658.13	26.528
658.45	40.159
658.78	39.809
659.10	38.571
659.43	37.897
659.75	36.235
660.08	35.172
660.41	31.947
660.73	30.854
661.06	28.571
661.38	26.163
661.71	28.279
662.03	26.850
662.36	25.000
662.68	26.452
663.01	28.178
663.33	25.486
663.66	22.838
663.98	30.787
664.31	25.495
664.63	21.847
664.96	28.009
665.28	25.536
665.61	25.486
665.93	27.195
666.26	27.004
666.58	24.839
666.91	28.475
667.23	26.267
667.56	26.207
667.88	27.103
668.21	24.777
668.53	25.977
668.86	23.741
669.18	26.005
669.50	25.115
669.83	30.072
670.15	25.714
670.48	24.368
670.80	29.978
671.13	25.858
671.45	28.539
671.77	26.293
672.10	25.536
672.42	29.580
672.75	27.679
673.07	26.909
673.39	27.985
673.72	27.345
674.04	29.098
674.37	28.659
674.69	25.514
675.01	27.991
675.34	28.446
675.66	27.233
675.98	25.221
676.31	24.208
676.63	28.345
676.95	24.706
677.28	24.312
677.60	25.000
677.92	27.494
678.25	27.766
678.57	27.495
678.89	26.439
679.22	26.501
679.54	26.939
679.86	27.148
680.18	30.000
680.51	26.923
680.83	27.485
681.15	29.077
681.48	26.453
681.80	28.016
682.12	26.042
682.44	26.157
682.77	26.947
683.09	27.455
683.41	25.349
683.73	24.554
684.06	25.000
684.38	26.282
684.70	25.866
685.02	29.545
685.34	28.963
685.67	28.143
685.99	28.292
686.31	28.448
686.63	28.125
686.96	29.499
687.28	27.146
687.60	30.813
687.92	26.459
688.24	25.600
688.56	26.754
688.89	26.503
689.21	27.354
689.53	24.099
689.85	25.618
690.17	27.692
690.49	25.845
690.82	26.492
691.14	27.778
691.46	24.826
691.78	25.275
692.10	28.662
692.42	25.055
692.74	29.130
693.06	25.393
693.39	29.040
693.71	28.444
694.03	25.909
694.35	27.477
694.67	31.250
694.99	25.000
695.31	25.581
695.63	28.049
695.95	24.936
696.27	23.836
696.59	24.462
696.91	25.978
697.23	24.365
697.56	28.537
697.88	25.988
698.20	29.158
698.52	25.935
698.84	28.469
699.16	23.877
699.48	27.654
699.80	29.199
700.12	27.346
700.44	25.634
700.76	23.315
701.08	29.305
701.40	23.054
701.72	22.154
702.04	22.956
702.36	26.220
702.68	23.780
703.00	26.608
703.32	22.284
703.64	27.108
703.96	26.979
704.28	26.807
704.60	25.305
704.91	23.824
705.23	25.633
705.55	25.517
705.87	20.070
706.19	24.542
706.51	23.239
706.83	23.248
707.15	23.476
707.47	24.242
707.79	24.112
708.11	26.478
708.43	25.127
708.74	23.936
709.06	23.262
709.38	24.496
709.70	25.526
710.02	29.283
710.34	25.667
710.66	23.453
710.98	24.149
711.29	25.000
711.61	26.129
711.93	24.516
712.25	20.979
712.57	22.105
712.89	22.711
713.20	27.305
713.52	21.533
713.84	24.516
714.16	24.919
714.48	25.949
714.80	26.518
715.11	27.616
715.43	26.087
715.75	26.087
716.07	22.590
716.39	25.589
716.70	26.259
717.02	18.431
717.34	25.000
717.66	18.966
717.97	19.048
718.29	22.835
718.61	30.901
718.93	23.643
719.24	28.413
719.56	19.850
719.88	20.896
720.20	24.506
720.51	20.313
720.83	26.070
721.15	19.919
721.46	19.847
721.78	24.701
722.10	21.116
722.42	16.935
722.73	28.571
723.05	24.898
723.37	26.471
723.68	22.000
724.00	17.447
724.32	25.523
724.63	26.337
724.95	20.085
725.27	22.363
725.58	20.988
725.90	23.849
726.22	23.551
726.53	24.706
726.85	25.912
727.16	24.444
727.48	25.287
727.80	17.969
728.11	22.131
728.43	20.313
728.74	26.587
729.06	18.000
729.38	28.063
729.69	25.623
730.01	24.907
730.32	26.568
730.64	20.076
730.96	29.021
731.27	21.070
731.59	27.937
731.90	25.890
732.22	25.000
732.53	25.000
732.85	23.826
733.16	26.403
733.48	26.014
733.80	25.338
734.11	27.027
734.43	27.245
734.74	26.426
735.06	25.937
735.37	23.404
735.69	28.155
736.00	26.403
736.32	25.532
736.63	23.448
736.95	28.425
737.26	21.379
737.58	26.389
737.89	24.399
738.21	21.708
738.52	26.996
738.83	24.082
739.15	27.426
739.46	24.903
739.78	25.000
740.09	27.055
740.41	26.071
740.72	22.695
741.04	22.400
741.35	20.175
741.66	21.778
741.98	26.923
742.29	29.208
742.61	21.951
742.92	27.193
743.23	21.226
743.55	24.775
743.86	25.561
744.18	21.078
744.49	25.381
744.80	22.449
745.12	21.963
745.43	20.853
745.74	24.324
746.06	21.963
746.37	24.312
746.68	16.346
747.00	26.316
747.31	25.481
747.62	19.725
747.94	20.524
748.25	26.147
748.56	25.333
748.88	27.230
749.19	28.571
749.50	21.845
749.82	22.066
750.13	17.917
750.44	22.308
750.75	22.509
751.07	24.911
751.38	26.241
751.69	29.730
752.01	26.562
752.32	24.615
752.63	23.881
752.94	21.600
753.26	24.268
753.57	17.500
753.88	24.696
754.19	24.303
754.51	22.932
754.82	18.681
755.13	18.696
755.44	19.919
755.75	20.800
756.07	23.985
756.38	28.777
756.69	27.645
757.00	25.234
757.31	22.654
757.63	25.000
757.94	28.814
758.25	25.926
758.56	25.815
758.87	27.976
759.18	26.498
759.50	22.896
759.81	28.094
760.12	25.846
760.43	24.702
760.74	26.836
761.05	26.796
761.36	25.501
761.67	25.680
761.99	25.773
762.30	22.628
762.61	19.342
762.92	29.915
763.23	27.049
763.54	29.004
763.85	17.143
764.16	22.764
764.47	21.600
764.78	25.357
765.10	27.869
765.41	24.620
765.72	23.292
766.03	29.373
766.34	28.846
766.65	22.594
766.96	26.291
767.27	24.257
767.58	13.483
767.89	27.778
768.20	19.337
768.51	26.633
768.82	23.077
769.13	24.779
769.44	23.013
769.75	23.077
770.06	21.973
770.37	22.549
770.68	25.728
770.99	21.359
771.30	28.571
771.61	22.857
771.92	25.311
772.23	27.027
772.54	18.785
772.85	21.512
773.16	28.571
773.47	17.160
773.78	25.287
774.09	23.750
774.39	23.602
774.70	25.850
775.01	17.931
775.32	18.571
775.63	19.549
775.94	12.782
776.25	19.200
776.56	19.008
776.87	21.429
777.18	15.315
777.48	14.414
777.79	20.472
778.10	21.101
778.41	24.561
778.72	15.966
779.03	11.972
779.34	25.000
779.65	23.239
779.95	27.815
780.26	15.108
780.57	21.583
780.88	20.423
781.19	13.445
781.50	20.805
781.80	19.298
782.11	15.116
782.42	20.126
782.73	21.569
783.04	23.448
783.34	19.847
783.65	21.477
783.96	20.769
784.27	20.000
784.57	24.823
784.88	10.577
785.19	30.909
785.50	28.182
785.81	12.381
786.11	15.126
786.42	23.894
786.73	17.925
787.04	11.927
787.34	10.891
787.65	29.167
787.96	19.008
788.26	20.290
788.57	11.111
788.88	15.447
789.19	12.800
789.49	16.794
789.80	26.515
790.11	27.358
790.41	20.792
790.72	21.277
791.03	13.043
791.33	16.471
791.64	16.049
791.95	16.304
792.25	28.409
792.56	1.282
792.87	12.821
793.17	12.821
793.48	22.619
793.79	11.250
794.09	23.077
794.40	29.167
794.70	25.225
795.01	17.188
795.32	25.217
795.62	17.391
795.93	16.038
796.23	17.172
796.54	29.268
796.85	28.571
797.15	1.515
797.46	13.043
797.76	17.105
798.07	19.318
798.37	6.098
798.68	11.290
798.99	22.973
799.29	31.325
799.60	20.513
799.90	30.769
800.21	1.515
800.51	4.000
800.82	25.333
801.12	-12.500
801.43	5.000
801.73	13.514
802.04	31.429
802.34	19.672
802.65	8.955
802.95	14.545
803.26	12.069
803.56	24.615
803.87	15.094
804.17	14.516
804.48	13.235
804.78	-12.195
805.09	15.942
805.39	19.118
805.70	-8.511
806.00	-5.263
806.30	29.487
806.61	28.947
806.91	32.432
807.22	18.421
807.52	19.318
807.83	8.475
808.13	-7.576
808.43	15.000
808.74	-17.241
809.04	12.698
809.35	6.122
809.65	8.333
809.95	6.122
810.26	21.127
810.56	0.000
810.86	-16.327
811.17	25.000
811.47	-2.128
811.77	-2.083
812.08	3.774
812.38	-3.125
812.69	18.182
812.99	14.634
813.29	-2.703
813.59	-13.514
813.90	-1.818
814.20	7.273
814.50	1.667
814.81	20.000
815.11	22.807
815.41	58.140
815.72	5.000
816.02	17.143
816.32	-16.216
816.62	33.333
816.93	13.333
817.23	-2.222
817.53	-25.000
817.84	18.919
818.14	7.317
818.44	12.000
818.74	2.041
819.04	14.634
819.35	-11.111
819.65	27.273
819.95	-61.111
820.25	9.091
820.56	-14.286
820.86	-16.667
821.16	0.000
821.46	2.174
821.76	12.069
822.07	15.217
822.37	27.273
822.67	36.585
822.97	27.027
823.27	-28.571
823.57	34.483
823.88	-8.824
824.18	-19.444
824.48	20.000
824.78	-9.524
825.08	-21.429
825.38	-7.407
825.69	22.581
825.99	14.634
826.29	11.111
826.59	28.125
826.89	3.226
827.19	-26.087
827.49	-22.222
827.79	-56.522
828.09	-16.129
828.39	10.417
828.70	-18.750
829.00	-24.138
829.30	10.811
829.60	-12.500
829.90	-18.519
830.20	-12.500
830.50	9.091
830.80	-135.294
831.10	4.545
831.40	-11.765
831.70	15.385
832.00	6.061
832.30	-2.941
832.60	18.919
832.90	800.000
833.20	-3.571
833.50	-75.000
833.80	-2.632
834.10	-50.000
834.40	-63.636
834.70	-6.667
835.00	-60.000
835.30	-8.333
835.60	-19.048
835.90	-23.810
836.20	-40.000
836.50	-12.500
836.80	-42.105
837.10	13.514
837.40	6.667
837.70	-13.043
838.00	29.167
838.30	0.000
838.60	-120.000
838.90	-120.000
839.19	-75.000
839.49	-15.385
839.79	15.789
840.09	-333.333
840.39	-150.000
840.69	-4.545
840.99	9.524
841.29	-25.000
841.59	-46.154
841.88	-86.667
842.18	-50.000
842.48	20.000
842.78	-85.714
843.08	14.286
843.38	-87.500
843.68	-87.500
843.97	-7.143
844.27	-122.222
844.57	-127.273
844.87	-73.333
845.17	22.727
845.47	533.333
845.76	-33.333
846.06	-150.000
846.36	-850.000
846.66	-26.316
846.96	-59.091
847.25	-94.444
847.55	-177.778
847.85	-23.810
848.15	38.462
848.44	-216.667
848.74	-58.333
849.04	-46.154
849.34	-25.000
849.63	-118.182
849.93	-142.857
850.23	20.000
850.53	-37.500
850.82	44.444
851.12	-53.333
851.42	-58.824
851.71	12.500
852.01	5.882
852.31	7.692
852.61	550.000
852.90	5.882
853.20	13.333
853.50	-62.500
853.79	-142.857
854.09	-125.000
854.39	-40.000
854.68	-10.000
854.98	-19.048
855.28	12.000
855.57	-8.333
855.87	-25.000
856.17	-60.000
856.46	-25.000
856.76	-65.000
857.05	8.000
857.35	-116.667
857.65	-29.412
857.94	-66.667
858.24	16.667
858.53	-40.000
858.83	-154.545
859.13	8.000
859.42	0.000
859.72	-125.000
860.01	16.667
860.31	-62.500
860.60	-6.250
860.90	-283.333
861.20	-66.667
861.49	-33.333
861.79	12.500
862.08	250.000
862.38	-108.333
862.67	357.143
862.97	400.000
863.26	-72.727
863.56	18.182
863.85	21.053
864.15	-52.941
864.44	-200.000
864.74	-60.000
865.03	-66.667
865.33	64.286
865.62	107.143
865.92	26.316
866.21	-33.333
866.51	-18.182
866.80	33.333
867.10	-125.000
867.39	25.000
867.69	-40.000
867.98	-70.000
868.27	-17.647
868.57	0.000
868.86	750.000
869.16	-250.000
869.45	-171.429
869.75	750.000
870.04	10.000
870.33	-1400.000
870.63	-57.895
870.92	-116.667
871.22	-500.000
871.51	-100.000
871.80	-100.000
872.10	-400.000
>>>>>End Processed Spectral Data<<<<<
