SpectraSuite Data File
++++++++++++++++++++++++++++++++++++
Date: Wed May 13 21:24:27 PDT 2015
User: schluterlab
Dark Spectrum Present: Yes
Reference Spectrum Present: Yes
Number of Sampled Component Spectra: 1
Spectrometers: USB2E3373
Integration Time (usec): 3000 (USB2E3373)
Spectra Averaged: 3 (USB2E3373)
Boxcar Smoothing: 0 (USB2E3373)
Correct for Electrical Dark: No (USB2E3373)
Strobe/Lamp Enabled: No (USB2E3373)
Correct for Detector Non-linearity: No (USB2E3373)
Correct for Stray Light: No (USB2E3373)
Number of Pixels in Processed Spectrum: 2048
>>>>>Begin Processed Spectral Data<<<<<
178.53	0.000
178.91	350.000
179.29	133.333
179.67	-300.000
180.04	-333.333
180.42	160.000
180.80	1900.000
181.18	166.667
181.56	-400.000
181.94	-50.000
182.31	0.000
182.69	123.077
183.07	-220.000
183.45	350.000
183.83	177.778
184.20	114.286
184.58	-266.667
184.96	166.667
185.34	185.714
185.72	0.000
186.09	-900.000
186.47	-400.000
186.85	280.000
187.23	-550.000
187.61	550.000
187.98	1800.000
188.36	-225.000
188.74	0.000
189.12	-63.636
189.49	0.000
189.87	100.000
190.25	340.000
190.63	500.000
191.00	-320.000
191.38	260.000
191.76	450.000
192.14	33.333
192.51	-21.053
192.89	800.000
193.27	275.000
193.65	-220.000
194.02	200.000
194.40	160.000
194.78	-600.000
195.15	180.000
195.53	-200.000
195.91	-12.500
196.29	-400.000
196.66	0.000
197.04	400.000
197.42	-40.000
197.79	-50.000
198.17	-150.000
198.55	-500.000
198.92	75.000
199.30	-400.000
199.68	-40.000
200.05	550.000
200.43	250.000
200.81	-1500.000
201.18	-320.000
201.56	-100.000
201.94	375.000
202.31	26.087
202.69	-28.571
203.07	-533.333
203.44	-280.000
203.82	-366.667
204.19	-50.000
204.57	0.000
204.95	-83.333
205.32	0.000
205.70	50.000
206.08	-175.000
206.45	-216.667
206.83	450.000
207.20	-566.667
207.58	-120.000
207.96	-1500.000
208.33	-142.857
208.71	-700.000
209.08	150.000
209.46	525.000
209.84	0.000
210.21	220.000
210.59	2300.000
210.96	340.000
211.34	1400.000
211.71	-850.000
212.09	-250.000
212.46	-140.000
212.84	-133.333
213.22	-150.000
213.59	-1700.000
213.97	-350.000
214.34	-900.000
214.72	-30.769
215.09	150.000
215.47	211.111
215.84	750.000
216.22	-162.500
216.59	100.000
216.97	466.667
217.34	244.444
217.72	0.000
218.09	433.333
218.47	-800.000
218.84	-114.286
219.22	-137.500
219.59	-366.667
219.97	50.000
220.34	-137.500
220.72	-280.000
221.09	0.000
221.47	-283.333
221.84	0.000
222.22	0.000
222.59	500.000
222.97	-600.000
223.34	-16.667
223.72	-800.000
224.09	-450.000
224.46	-109.091
224.84	-75.000
225.21	-128.571
225.59	-375.000
225.96	-16.667
226.34	-70.000
226.71	-242.857
227.08	450.000
227.46	-100.000
227.83	-100.000
228.21	-18.750
228.58	-350.000
228.95	-47.059
229.33	-12.500
229.70	-62.500
230.08	-46.154
230.45	-150.000
230.82	-58.333
231.20	171.429
231.57	-200.000
231.95	400.000
232.32	-83.333
232.69	-29.412
233.07	-1400.000
233.44	-39.130
233.81	-1100.000
234.19	20.833
234.56	-80.000
234.93	40.000
235.31	10.526
235.68	-61.538
236.05	-46.154
236.43	-11.111
236.80	-9.091
237.17	-60.000
237.55	-64.706
237.92	-13.793
238.29	18.519
238.67	-8.333
239.04	-6.452
239.41	-8.511
239.79	4.255
240.16	13.953
240.53	23.214
240.91	21.429
241.28	32.143
241.65	12.903
242.02	19.737
242.40	31.884
242.77	18.841
243.14	29.487
243.51	23.404
243.89	21.154
244.26	46.226
244.63	23.077
245.00	26.042
245.38	28.571
245.75	27.049
246.12	30.075
246.49	27.642
246.87	19.328
247.24	28.378
247.61	37.086
247.98	36.538
248.36	24.852
248.73	32.022
249.10	28.788
249.47	27.419
249.84	33.158
250.22	32.338
250.59	33.645
250.96	32.727
251.33	24.402
251.70	32.636
252.08	29.707
252.45	39.095
252.82	32.700
253.19	34.630
253.56	30.935
253.94	37.722
254.31	34.507
254.68	33.557
255.05	31.683
255.42	33.566
255.79	35.276
256.16	35.647
256.54	34.921
256.91	31.962
257.28	34.277
257.65	32.484
258.02	32.845
258.39	34.503
258.76	31.977
259.14	34.659
259.51	32.865
259.88	32.520
260.25	34.444
260.62	33.427
260.99	37.666
261.36	32.124
261.73	31.358
262.10	35.623
262.47	33.580
262.85	35.323
263.22	35.641
263.59	36.104
263.96	32.847
264.33	30.048
264.70	34.186
265.07	32.870
265.44	37.931
265.81	36.613
266.18	34.396
266.55	33.843
266.92	33.263
267.29	33.951
267.66	36.943
268.03	36.008
268.40	34.746
268.77	35.950
269.14	36.939
269.51	36.345
269.88	34.012
270.25	33.686
270.62	32.582
270.99	34.646
271.36	34.722
271.73	35.542
272.10	34.095
272.47	33.973
272.84	37.008
273.21	33.855
273.58	35.041
273.95	33.585
274.32	33.209
274.69	34.791
275.06	34.806
275.43	33.145
275.80	36.348
276.17	33.333
276.54	31.616
276.91	34.321
277.28	35.199
277.65	32.168
278.02	34.821
278.39	31.794
278.76	33.779
279.13	32.247
279.50	32.586
279.87	33.152
280.23	35.676
280.60	31.315
280.97	35.065
281.34	32.492
281.71	31.220
282.08	32.821
282.45	32.623
282.82	32.428
283.19	32.012
283.56	32.031
283.92	32.110
284.29	31.357
284.66	30.478
285.03	31.759
285.40	32.326
285.77	31.832
286.14	31.611
286.51	33.733
286.87	32.615
287.24	29.351
287.61	31.024
287.98	31.324
288.35	31.893
288.72	30.990
289.08	30.769
289.45	29.809
289.82	30.711
290.19	30.856
290.56	28.551
290.93	30.387
291.29	30.369
291.66	29.645
292.03	29.700
292.40	29.206
292.77	30.254
293.13	29.568
293.50	29.281
293.87	28.267
294.24	28.836
294.60	28.218
294.97	30.423
295.34	27.704
295.71	25.756
296.08	26.832
296.44	24.872
296.81	27.040
297.18	27.250
297.55	25.708
297.91	28.696
298.28	26.513
298.65	27.217
299.02	27.717
299.38	26.380
299.75	26.322
300.12	25.116
300.48	25.146
300.85	27.136
301.22	27.294
301.59	25.469
301.95	25.203
302.32	24.154
302.69	24.746
303.05	25.360
303.42	24.091
303.79	25.868
304.15	25.082
304.52	24.731
304.89	24.806
305.25	23.820
305.62	25.922
305.99	24.483
306.35	26.646
306.72	26.246
307.09	24.713
307.45	25.133
307.82	24.632
308.19	23.824
308.55	24.360
308.92	25.639
309.29	23.824
309.65	24.076
310.02	23.559
310.38	23.272
310.75	23.373
311.12	24.490
311.48	22.948
311.85	23.622
312.22	25.532
312.58	23.961
312.95	24.179
313.31	24.426
313.68	23.855
314.05	23.913
314.41	24.304
314.78	24.858
315.14	23.796
315.51	23.977
315.87	23.726
316.24	23.416
316.61	23.014
316.97	24.074
317.34	22.014
317.70	24.888
318.07	22.893
318.43	23.848
318.80	22.688
319.16	21.662
319.53	22.670
319.89	23.668
320.26	23.383
320.62	22.892
320.99	22.771
321.35	21.890
321.72	22.522
322.08	22.601
322.45	24.237
322.81	23.383
323.18	22.451
323.54	23.195
323.91	24.210
324.27	23.312
324.64	20.993
325.00	22.572
325.37	23.208
325.73	22.643
326.10	23.129
326.46	23.662
326.83	22.492
327.19	23.496
327.56	24.416
327.92	22.687
328.29	23.623
328.65	22.699
329.01	23.043
329.38	24.522
329.74	23.777
330.11	23.535
330.47	23.351
330.84	23.195
331.20	23.313
331.56	23.551
331.93	23.859
332.29	23.632
332.66	23.475
333.02	24.848
333.38	22.895
333.75	23.464
334.11	23.958
334.48	23.627
334.84	22.350
335.20	23.156
335.57	22.802
335.93	23.883
336.29	22.504
336.66	22.479
337.02	22.522
337.38	23.064
337.75	22.653
338.11	22.289
338.47	22.175
338.84	23.282
339.20	23.898
339.56	22.696
339.93	22.645
340.29	22.118
340.65	23.695
341.02	23.128
341.38	21.791
341.74	22.185
342.11	23.204
342.47	21.757
342.83	21.977
343.20	22.589
343.56	22.240
343.92	21.771
344.28	22.808
344.65	23.102
345.01	22.195
345.37	22.451
345.73	23.529
346.10	22.713
346.46	21.870
346.82	21.589
347.19	22.231
347.55	22.132
347.91	22.525
348.27	22.634
348.63	22.436
349.00	22.327
349.36	22.214
349.72	22.119
350.08	21.295
350.45	22.240
350.81	22.926
351.17	22.633
351.53	21.917
351.89	21.525
352.26	20.232
352.62	21.705
352.98	22.045
353.34	21.739
353.70	22.274
354.07	22.039
354.43	21.306
354.79	21.715
355.15	21.817
355.51	21.185
355.87	21.658
356.24	22.472
356.60	21.032
356.96	22.410
357.32	21.594
357.68	22.078
358.04	21.567
358.40	21.318
358.77	21.407
359.13	21.634
359.49	21.726
359.85	21.228
360.21	21.588
360.57	20.760
360.93	21.700
361.29	21.244
361.66	21.640
362.02	21.053
362.38	22.083
362.74	21.102
363.10	20.463
363.46	21.902
363.82	21.656
364.18	21.755
364.54	21.809
364.90	19.930
365.26	21.444
365.62	21.165
365.98	20.783
366.35	20.851
366.71	19.971
367.07	21.828
367.43	21.324
367.79	21.195
368.15	21.238
368.51	19.620
368.87	20.935
369.23	20.356
369.59	20.578
369.95	20.319
370.31	20.432
370.67	20.999
371.03	21.084
371.39	21.859
371.75	20.929
372.11	20.869
372.47	21.125
372.83	21.983
373.19	20.935
373.55	21.098
373.91	20.651
374.27	20.816
374.63	21.906
374.99	20.195
375.35	21.849
375.71	20.788
376.07	21.453
376.42	20.856
376.78	20.938
377.14	20.068
377.50	21.317
377.86	20.983
378.22	20.480
378.58	20.618
378.94	21.688
379.30	21.112
379.66	21.208
380.02	21.078
380.38	20.542
380.74	21.219
381.09	20.386
381.45	21.584
381.81	20.764
382.17	21.235
382.53	20.923
382.89	21.049
383.25	20.556
383.61	21.368
383.97	21.000
384.32	21.046
384.68	20.666
385.04	19.670
385.40	20.922
385.76	21.898
386.12	21.369
386.48	20.627
386.83	20.338
387.19	20.419
387.55	21.398
387.91	20.664
388.27	21.208
388.62	21.223
388.98	20.588
389.34	20.677
389.70	20.818
390.06	21.063
390.42	20.876
390.77	20.564
391.13	20.644
391.49	20.683
391.85	20.000
392.20	21.429
392.56	20.635
392.92	20.480
393.28	20.163
393.64	20.245
393.99	19.829
394.35	20.679
394.71	20.064
395.07	19.371
395.42	20.841
395.78	20.270
396.14	20.355
396.50	20.736
396.85	20.714
397.21	20.474
397.57	19.814
397.92	20.060
398.28	20.812
398.64	21.190
399.00	21.261
399.35	21.793
399.71	20.676
400.07	20.843
400.42	20.690
400.78	20.846
401.14	19.681
401.49	21.150
401.85	21.253
402.21	20.867
402.57	21.091
402.92	21.527
403.28	20.763
403.63	20.149
403.99	21.433
404.35	19.950
404.70	20.060
405.06	20.611
405.42	20.540
405.77	19.988
406.13	19.943
406.49	19.593
406.84	19.841
407.20	20.485
407.55	21.234
407.91	19.854
408.27	19.900
408.62	20.933
408.98	21.023
409.34	19.554
409.69	22.287
410.05	20.336
410.40	19.842
410.76	20.337
411.11	20.522
411.47	21.566
411.83	20.774
412.18	20.340
412.54	20.927
412.89	20.125
413.25	20.295
413.60	20.376
413.96	20.350
414.31	20.962
414.67	22.032
415.03	21.042
415.38	19.683
415.74	19.818
416.09	20.886
416.45	20.301
416.80	21.141
417.16	21.053
417.51	20.965
417.87	21.032
418.22	21.332
418.58	20.302
418.93	21.030
419.29	21.188
419.64	20.802
420.00	21.079
420.35	21.279
420.71	20.719
421.06	20.787
421.42	21.046
421.77	21.792
422.12	21.375
422.48	21.047
422.83	21.028
423.19	20.874
423.54	21.260
423.90	20.606
424.25	21.202
424.61	20.209
424.96	20.757
425.31	20.639
425.67	21.046
426.02	21.437
426.38	21.082
426.73	21.075
427.09	21.076
427.44	21.550
427.79	21.140
428.15	21.346
428.50	20.423
428.85	20.972
429.21	20.540
429.56	20.935
429.92	21.395
430.27	20.501
430.62	21.196
430.98	21.787
431.33	20.849
431.68	21.459
432.04	22.648
432.39	21.016
432.74	19.742
433.10	21.383
433.45	21.479
433.80	21.207
434.16	20.918
434.51	20.815
434.86	21.496
435.22	21.788
435.57	21.130
435.92	20.989
436.28	19.880
436.63	20.727
436.98	21.093
437.34	20.940
437.69	20.661
438.04	20.147
438.39	21.357
438.75	20.858
439.10	22.036
439.45	20.581
439.81	21.613
440.16	21.681
440.51	20.630
440.86	21.162
441.22	20.425
441.57	20.987
441.92	21.306
442.27	21.050
442.63	20.452
442.98	20.428
443.33	20.316
443.68	20.822
444.03	21.411
444.39	21.418
444.74	20.486
445.09	20.870
445.44	21.803
445.79	20.909
446.15	21.409
446.50	20.485
446.85	21.486
447.20	21.328
447.55	21.712
447.91	20.787
448.26	20.869
448.61	21.116
448.96	21.355
449.31	21.645
449.66	21.400
450.02	20.637
450.37	21.328
450.72	20.838
451.07	21.442
451.42	19.963
451.77	21.911
452.12	21.390
452.47	21.304
452.83	21.639
453.18	21.133
453.53	20.870
453.88	21.867
454.23	22.497
454.58	21.446
454.93	21.424
455.28	21.259
455.63	20.711
455.98	21.850
456.34	22.314
456.69	21.406
457.04	21.176
457.39	21.587
457.74	21.484
458.09	22.156
458.44	22.327
458.79	21.472
459.14	21.348
459.49	21.890
459.84	21.477
460.19	20.708
460.54	21.837
460.89	21.284
461.24	21.332
461.59	21.196
461.94	21.239
462.29	21.201
462.64	22.098
462.99	21.194
463.34	22.238
463.69	21.649
464.04	21.609
464.39	21.293
464.74	21.376
465.09	21.885
465.44	21.212
465.79	21.967
466.14	20.753
466.49	22.581
466.84	21.399
467.19	21.338
467.54	21.970
467.89	22.124
468.24	21.881
468.59	21.479
468.94	21.903
469.29	21.943
469.64	21.339
469.99	22.069
470.34	21.510
470.68	21.710
471.03	22.003
471.38	21.697
471.73	21.742
472.08	21.993
472.43	22.230
472.78	22.110
473.13	20.515
473.48	21.005
473.83	20.841
474.17	22.070
474.52	22.524
474.87	21.291
475.22	21.618
475.57	21.807
475.92	21.810
476.27	20.804
476.61	21.631
476.96	22.444
477.31	21.467
477.66	21.808
478.01	21.099
478.36	22.016
478.70	21.912
479.05	22.752
479.40	21.321
479.75	21.785
480.10	21.571
480.45	21.481
480.79	21.553
481.14	21.327
481.49	22.348
481.84	21.913
482.19	22.001
482.53	22.905
482.88	22.244
483.23	21.992
483.58	23.062
483.92	21.790
484.27	21.455
484.62	20.950
484.97	21.983
485.31	22.155
485.66	21.588
486.01	21.523
486.36	21.570
486.70	21.509
487.05	21.406
487.40	21.466
487.75	21.390
488.09	21.489
488.44	21.696
488.79	21.991
489.13	21.312
489.48	21.548
489.83	21.751
490.17	21.562
490.52	23.188
490.87	21.650
491.22	22.138
491.56	23.527
491.91	22.276
492.26	22.340
492.60	21.982
492.95	22.789
493.30	22.481
493.64	21.439
493.99	22.415
494.34	22.495
494.68	22.005
495.03	22.875
495.37	22.238
495.72	22.657
496.07	22.065
496.41	21.526
496.76	22.578
497.11	22.254
497.45	21.595
497.80	22.716
498.14	23.476
498.49	21.634
498.84	22.520
499.18	22.200
499.53	22.698
499.87	22.562
500.22	22.300
500.56	23.170
500.91	22.334
501.26	22.020
501.60	21.618
501.95	22.329
502.29	22.427
502.64	22.758
502.98	22.495
503.33	22.579
503.67	22.687
504.02	22.108
504.36	22.437
504.71	22.815
505.06	22.517
505.40	23.505
505.75	22.889
506.09	22.381
506.44	22.077
506.78	22.905
507.13	23.233
507.47	22.481
507.82	22.972
508.16	22.955
508.51	21.591
508.85	23.069
509.19	22.222
509.54	22.681
509.88	23.226
510.23	22.842
510.57	23.411
510.92	22.198
511.26	23.212
511.61	22.228
511.95	22.602
512.30	22.599
512.64	23.212
512.98	22.825
513.33	22.817
513.67	22.771
514.02	23.147
514.36	23.202
514.70	22.748
515.05	23.288
515.39	22.406
515.74	22.735
516.08	22.596
516.42	22.350
516.77	23.140
517.11	22.457
517.46	24.130
517.80	23.668
518.14	23.148
518.49	22.725
518.83	23.449
519.17	22.229
519.52	24.186
519.86	23.254
520.20	22.438
520.55	23.197
520.89	22.960
521.23	24.423
521.58	23.072
521.92	22.879
522.26	23.032
522.61	23.271
522.95	23.640
523.29	22.857
523.64	23.713
523.98	23.698
524.32	23.503
524.66	23.377
525.01	23.853
525.35	23.963
525.69	22.863
526.04	23.257
526.38	23.454
526.72	23.011
527.06	22.760
527.41	22.700
527.75	21.629
528.09	24.030
528.43	24.220
528.78	23.773
529.12	23.415
529.46	23.544
529.80	22.848
530.15	22.716
530.49	24.596
530.83	23.764
531.17	23.493
531.51	23.331
531.86	23.442
532.20	23.777
532.54	22.621
532.88	23.417
533.22	24.242
533.57	23.377
533.91	24.323
534.25	23.763
534.59	23.102
534.93	23.597
535.27	23.503
535.62	22.697
535.96	24.398
536.30	23.870
536.64	23.718
536.98	22.915
537.32	23.986
537.66	23.695
538.01	23.648
538.35	23.204
538.69	23.545
539.03	24.094
539.37	22.938
539.71	22.578
540.05	23.954
540.39	23.882
540.73	24.651
541.07	24.626
541.42	23.838
541.76	23.748
542.10	23.764
542.44	23.562
542.78	23.525
543.12	23.854
543.46	23.912
543.80	23.557
544.14	23.675
544.48	23.225
544.82	23.268
545.16	24.138
545.50	23.970
545.84	23.352
546.18	23.001
546.52	22.936
546.86	22.261
547.20	22.230
547.54	22.802
547.88	23.482
548.22	23.713
548.56	23.416
548.90	23.072
549.24	24.167
549.58	23.843
549.92	24.358
550.26	25.240
550.60	22.523
550.94	24.776
551.28	23.618
551.62	24.060
551.96	23.792
552.30	22.926
552.64	23.376
552.98	24.787
553.32	23.648
553.66	24.945
554.00	24.118
554.34	23.956
554.68	23.714
555.02	24.027
555.36	23.071
555.69	24.472
556.03	23.517
556.37	23.898
556.71	23.476
557.05	23.026
557.39	23.512
557.73	24.811
558.07	22.833
558.41	23.543
558.75	24.249
559.08	22.855
559.42	23.446
559.76	23.777
560.10	24.289
560.44	24.392
560.78	22.446
561.12	23.196
561.45	22.313
561.79	23.728
562.13	23.558
562.47	23.714
562.81	22.799
563.15	23.159
563.48	23.538
563.82	24.008
564.16	24.441
564.50	24.016
564.84	23.378
565.17	22.980
565.51	23.195
565.85	22.185
566.19	23.576
566.52	22.739
566.86	22.630
567.20	22.847
567.54	23.143
567.88	22.452
568.21	22.596
568.55	22.953
568.89	22.532
569.23	22.044
569.56	22.111
569.90	21.817
570.24	21.661
570.57	22.040
570.91	21.871
571.25	21.688
571.59	21.888
571.92	21.619
572.26	22.245
572.60	21.836
572.93	21.868
573.27	21.713
573.61	22.517
573.95	21.655
574.28	21.810
574.62	21.476
574.96	21.727
575.29	21.389
575.63	20.996
575.97	21.984
576.30	21.476
576.64	21.535
576.98	21.948
577.31	21.279
577.65	21.537
577.98	21.560
578.32	21.414
578.66	21.707
578.99	21.667
579.33	21.564
579.67	21.716
580.00	22.087
580.34	21.546
580.67	21.754
581.01	21.665
581.35	22.167
581.68	21.446
582.02	21.784
582.35	21.555
582.69	21.411
583.02	21.240
583.36	21.366
583.70	21.247
584.03	21.434
584.37	21.366
584.70	21.598
585.04	21.945
585.37	21.482
585.71	21.852
586.04	21.479
586.38	21.073
586.72	21.467
587.05	22.222
587.39	21.993
587.72	21.755
588.06	21.587
588.39	21.439
588.73	21.781
589.06	21.694
589.40	21.569
589.73	20.985
590.07	21.728
590.40	21.469
590.73	21.799
591.07	21.563
591.40	21.913
591.74	22.277
592.07	22.410
592.41	21.922
592.74	21.258
593.08	22.256
593.41	22.415
593.75	21.350
594.08	21.934
594.41	21.645
594.75	21.927
595.08	21.658
595.42	21.654
595.75	21.909
596.09	21.632
596.42	21.650
596.75	22.422
597.09	21.747
597.42	22.611
597.75	22.089
598.09	22.678
598.42	22.550
598.76	21.788
599.09	22.809
599.42	21.186
599.76	21.855
600.09	22.063
600.42	22.034
600.76	21.766
601.09	22.147
601.42	21.247
601.76	21.544
602.09	21.727
602.42	22.534
602.76	21.812
603.09	22.382
603.42	21.951
603.76	21.629
604.09	21.265
604.42	21.599
604.76	21.694
605.09	21.658
605.42	22.627
605.75	21.799
606.09	21.358
606.42	21.613
606.75	20.996
607.09	21.809
607.42	21.848
607.75	20.832
608.08	22.678
608.42	21.837
608.75	22.217
609.08	21.950
609.41	22.255
609.75	20.978
610.08	21.992
610.41	22.157
610.74	21.944
611.07	21.693
611.41	22.108
611.74	21.998
612.07	21.782
612.40	21.946
612.73	21.844
613.07	21.452
613.40	21.861
613.73	22.102
614.06	22.222
614.39	22.068
614.72	23.487
615.06	21.944
615.39	22.130
615.72	21.760
616.05	22.466
616.38	22.738
616.71	21.536
617.05	22.052
617.38	22.304
617.71	22.059
618.04	22.364
618.37	22.145
618.70	23.027
619.03	21.718
619.36	22.562
619.69	22.149
620.03	21.555
620.36	21.016
620.69	21.913
621.02	21.308
621.35	21.913
621.68	22.249
622.01	23.382
622.34	21.412
622.67	23.414
623.00	21.581
623.33	22.663
623.66	22.454
623.99	23.781
624.32	22.450
624.65	23.887
624.99	23.145
625.32	22.704
625.65	22.403
625.98	21.801
626.31	22.531
626.64	22.356
626.97	21.280
627.30	23.867
627.63	22.145
627.96	21.558
628.29	23.814
628.62	23.985
628.95	21.944
629.28	22.069
629.61	23.636
629.94	23.017
630.26	23.251
630.59	22.777
630.92	21.988
631.25	21.833
631.58	23.555
631.91	22.057
632.24	22.942
632.57	22.333
632.90	23.921
633.23	21.942
633.56	23.261
633.89	24.522
634.22	25.677
634.55	23.508
634.88	21.201
635.20	23.750
635.53	24.160
635.86	23.590
636.19	24.318
636.52	22.805
636.85	23.160
637.18	21.803
637.51	23.471
637.83	25.326
638.16	22.400
638.49	21.896
638.82	22.614
639.15	21.941
639.48	24.332
639.81	25.139
640.13	21.972
640.46	24.576
640.79	23.165
641.12	21.746
641.45	23.435
641.77	22.680
642.10	24.811
642.43	24.214
642.76	21.767
643.09	21.725
643.41	23.126
643.74	21.971
644.07	21.845
644.40	23.881
644.73	22.542
645.05	26.527
645.38	20.764
645.71	23.639
646.04	22.054
646.36	23.611
646.69	23.427
647.02	22.951
647.35	23.766
647.67	23.845
648.00	22.645
648.33	22.712
648.66	22.037
648.98	24.068
649.31	22.546
649.64	22.848
649.96	21.801
650.29	21.895
650.62	22.405
650.94	21.897
651.27	23.145
651.60	24.126
651.92	23.477
652.25	23.451
652.58	24.917
652.90	20.875
653.23	21.732
653.56	20.000
653.88	20.478
654.21	23.208
654.54	22.757
654.86	22.439
655.19	22.829
655.52	23.146
655.84	21.701
656.17	25.933
656.49	33.779
656.82	32.630
657.15	24.398
657.47	17.620
657.80	13.117
658.13	13.887
658.45	19.920
658.78	20.406
659.10	20.590
659.43	20.443
659.75	19.853
660.08	21.034
660.41	20.892
660.73	21.074
661.06	21.429
661.38	22.093
661.71	22.336
662.03	25.581
662.36	19.912
662.68	22.796
663.01	20.975
663.33	21.166
663.66	22.173
663.98	22.247
664.31	22.637
664.63	19.595
664.96	24.508
665.28	24.034
665.61	21.166
665.93	22.698
666.26	25.105
666.58	21.842
666.91	24.215
667.23	26.267
667.56	22.989
667.88	20.794
668.21	20.089
668.53	23.908
668.86	24.221
669.18	20.095
669.50	21.429
669.83	23.866
670.15	20.476
670.48	21.149
670.80	26.477
671.13	20.137
671.45	24.201
671.77	23.060
672.10	22.027
672.42	22.328
672.75	21.429
673.07	22.909
673.39	22.761
673.72	23.353
674.04	21.926
674.37	22.358
674.69	23.251
675.01	22.650
675.34	22.538
675.66	24.401
675.98	22.345
676.31	21.719
676.63	24.490
676.95	22.353
677.28	22.477
677.60	20.833
677.92	23.725
678.25	22.993
678.57	24.847
678.89	20.043
679.22	23.188
679.54	23.673
679.86	24.414
680.18	22.692
680.51	20.962
680.83	20.858
681.15	22.790
681.48	21.443
681.80	21.881
682.12	22.292
682.44	19.517
682.77	17.895
683.09	18.750
683.41	21.628
683.73	18.750
684.06	24.336
684.38	19.017
684.70	21.181
685.02	23.140
685.34	22.701
685.67	23.077
685.99	22.598
686.31	22.931
686.63	22.794
686.96	21.892
687.28	18.363
687.60	21.928
687.92	23.346
688.24	19.000
688.56	23.465
688.89	19.822
689.21	21.749
689.53	19.595
689.85	23.371
690.17	22.637
690.49	19.082
690.82	24.344
691.14	22.222
691.46	21.114
691.78	22.857
692.10	21.231
692.42	19.780
692.74	19.348
693.06	19.326
693.39	22.482
693.71	21.333
694.03	22.727
694.35	23.198
694.67	24.750
694.99	20.619
695.31	24.806
695.63	24.390
695.95	24.173
696.27	21.370
696.59	22.312
696.91	19.553
697.23	20.305
697.56	21.823
697.88	21.622
698.20	22.246
698.52	20.561
698.84	22.488
699.16	21.513
699.48	24.444
699.80	23.514
700.12	24.933
700.44	21.690
700.76	23.596
701.08	25.378
701.40	22.455
701.72	23.385
702.04	20.440
702.36	19.512
702.68	20.122
703.00	26.608
703.32	17.827
703.64	25.000
703.96	21.994
704.28	19.880
704.60	22.256
704.91	19.436
705.23	21.835
705.55	19.655
705.87	23.592
706.19	21.245
706.51	22.887
706.83	19.745
707.15	22.256
707.47	23.967
707.79	22.843
708.11	21.337
708.43	20.558
708.74	20.745
709.06	21.925
709.38	21.902
709.70	22.823
710.02	23.053
710.34	21.000
710.66	20.195
710.98	21.053
711.29	24.026
711.61	19.677
711.93	16.774
712.25	19.930
712.57	18.947
712.89	20.147
713.20	21.631
713.52	20.803
713.84	17.419
714.16	15.858
714.48	19.304
714.80	18.211
715.11	23.837
715.43	16.460
715.75	22.671
716.07	19.578
716.39	25.589
716.70	22.662
717.02	17.647
717.34	20.455
717.66	20.259
717.97	16.667
718.29	25.197
718.61	18.884
718.93	17.829
719.24	19.557
719.56	20.599
719.88	16.791
720.20	19.763
720.51	20.703
720.83	24.125
721.15	17.073
721.46	20.611
721.78	19.920
722.10	18.725
722.42	17.742
722.73	17.761
723.05	21.633
723.37	25.210
723.68	19.600
724.00	18.298
724.32	20.502
724.63	20.988
724.95	16.667
725.27	22.363
725.58	25.514
725.90	20.084
726.22	18.478
726.53	17.647
726.85	22.628
727.16	21.111
727.48	21.456
727.80	25.000
728.11	20.492
728.43	22.266
728.74	22.619
729.06	14.400
729.38	22.134
729.69	23.132
730.01	18.216
730.32	20.295
730.64	18.561
730.96	22.378
731.27	19.398
731.59	23.175
731.90	20.712
732.22	18.590
732.53	17.905
732.85	18.792
733.16	21.122
733.48	19.932
733.80	19.257
734.11	23.649
734.43	17.647
734.74	23.423
735.06	19.885
735.37	23.404
735.69	21.359
736.00	17.492
736.32	19.858
736.63	19.655
736.95	23.630
737.26	20.345
737.58	19.097
737.89	17.526
738.21	16.726
738.52	15.209
738.83	20.816
739.15	18.565
739.46	16.732
739.78	20.070
740.09	19.521
740.41	17.143
740.72	20.213
741.04	18.800
741.35	17.544
741.66	22.667
741.98	20.192
742.29	28.218
742.61	20.976
742.92	25.877
743.23	20.755
743.55	18.468
743.86	19.731
744.18	20.588
744.49	19.289
744.80	19.898
745.12	17.757
745.43	25.592
745.74	22.072
746.06	20.561
746.37	15.596
746.68	20.192
747.00	26.316
747.31	18.750
747.62	23.853
747.94	22.707
748.25	22.018
748.56	23.111
748.88	23.005
749.19	20.000
749.50	18.447
749.82	20.657
750.13	17.083
750.44	20.000
750.75	18.450
751.07	22.776
751.38	20.567
751.69	14.672
752.01	21.484
752.32	15.385
752.63	19.403
752.94	20.000
753.26	17.992
753.57	18.750
753.88	27.126
754.19	21.514
754.51	16.165
754.82	22.344
755.13	19.130
755.44	20.732
755.75	21.600
756.07	17.343
756.38	20.504
756.69	21.843
757.00	21.495
757.31	18.770
757.63	19.136
757.94	22.316
758.25	25.397
758.56	18.478
758.87	24.702
759.18	20.820
759.50	19.192
759.81	22.742
760.12	21.231
760.43	16.667
760.74	16.949
761.05	20.994
761.36	17.765
761.67	16.616
761.99	17.182
762.30	16.423
762.61	16.461
762.92	19.231
763.23	24.590
763.54	21.212
763.85	20.000
764.16	15.447
764.47	17.200
764.78	17.143
765.10	21.967
765.41	21.277
765.72	19.255
766.03	19.802
766.34	19.615
766.65	17.155
766.96	18.779
767.27	21.287
767.58	10.674
767.89	22.222
768.20	19.890
768.51	24.121
768.82	18.750
769.13	21.239
769.44	17.992
769.75	14.103
770.06	21.076
770.37	18.137
770.68	17.961
770.99	16.019
771.30	23.950
771.61	18.776
771.92	20.332
772.23	18.018
772.54	17.127
772.85	14.535
773.16	19.577
773.47	10.651
773.78	23.563
774.09	20.000
774.39	18.634
774.70	25.170
775.01	13.103
775.32	18.571
775.63	7.519
775.94	15.789
776.25	12.800
776.56	9.091
776.87	22.222
777.18	15.315
777.48	15.315
777.79	24.409
778.10	14.679
778.41	21.053
778.72	18.487
779.03	14.085
779.34	19.595
779.65	21.127
779.95	19.205
780.26	19.424
780.57	15.827
780.88	9.859
781.19	10.924
781.50	21.477
781.80	22.222
782.11	10.465
782.42	19.497
782.73	13.072
783.04	16.552
783.34	11.450
783.65	16.107
783.96	12.308
784.27	17.143
784.57	19.149
784.88	-1.923
785.19	23.636
785.50	20.000
785.81	18.095
786.11	12.605
786.42	18.584
786.73	16.981
787.04	11.009
787.34	1.980
787.65	20.000
787.96	13.223
788.26	19.565
788.57	11.111
788.88	7.317
789.19	14.400
789.49	9.160
789.80	21.970
790.11	14.151
790.41	17.822
790.72	11.702
791.03	15.217
791.33	22.353
791.64	6.173
791.95	13.043
792.25	21.591
792.56	23.077
792.87	20.513
793.17	1.282
793.48	-5.952
793.79	12.500
794.09	25.962
794.40	29.167
794.70	18.919
795.01	17.188
795.32	12.174
795.62	1.087
795.93	10.377
796.23	16.162
796.54	2.439
796.85	13.095
797.15	4.545
797.46	15.942
797.76	-1.316
798.07	12.500
798.37	2.439
798.68	6.452
798.99	9.459
799.29	20.482
799.60	12.821
799.90	3.077
800.21	28.788
800.51	2.667
800.82	8.000
801.12	-10.417
801.43	-13.333
801.73	-1.351
802.04	8.571
802.34	3.279
802.65	22.388
802.95	16.364
803.26	3.448
803.56	1.538
803.87	22.642
804.17	14.516
804.48	17.647
804.78	-9.756
805.09	11.594
805.39	5.882
805.70	-6.383
806.00	0.000
806.30	8.974
806.61	14.474
806.91	8.108
807.22	18.421
807.52	25.000
807.83	-1.695
808.13	-6.061
808.43	1.667
808.74	-15.517
809.04	9.524
809.35	4.082
809.65	-15.000
809.95	-4.082
810.26	30.986
810.56	-4.167
810.86	2.041
811.17	21.154
811.47	-19.149
811.77	-14.583
812.08	-11.321
812.38	-15.625
812.69	0.000
812.99	-12.195
813.29	-45.946
813.59	-5.405
813.90	-1.818
814.20	-7.273
814.50	-6.667
814.81	20.000
815.11	8.772
815.41	30.233
815.72	-5.000
816.02	22.857
816.32	2.703
816.62	12.500
816.93	4.444
817.23	-17.778
817.53	-25.000
817.84	-24.324
818.14	12.195
818.44	10.000
818.74	-6.122
819.04	-7.317
819.35	5.556
819.65	2.273
819.95	-50.000
820.25	-30.303
820.56	-9.524
820.86	-8.333
821.16	0.000
821.46	-13.043
821.76	3.448
822.07	21.739
822.37	6.061
822.67	17.073
822.97	5.405
823.27	-5.714
823.57	27.586
823.88	-29.412
824.18	5.556
824.48	-11.429
824.78	-4.762
825.08	-42.857
825.38	18.519
825.69	-19.355
825.99	12.195
826.29	0.000
826.59	-3.125
826.89	-54.839
827.19	-39.130
827.49	-11.111
827.79	-4.348
828.09	-3.226
828.39	12.500
828.70	-43.750
829.00	-48.276
829.30	29.730
829.60	-41.667
829.90	3.704
830.20	-34.375
830.50	-18.182
830.80	-111.765
831.10	-9.091
831.40	-41.176
831.70	-7.692
832.00	-24.242
832.30	5.882
832.60	5.405
832.90	1900.000
833.20	-10.714
833.50	-40.000
833.80	-15.789
834.10	-75.000
834.40	-59.091
834.70	-40.000
835.00	-60.000
835.30	-20.833
835.60	-28.571
835.90	-19.048
836.20	-24.000
836.50	-50.000
836.80	-78.947
837.10	-5.405
837.40	-36.667
837.70	39.130
838.00	12.500
838.30	-42.105
838.60	-170.000
838.90	-130.000
839.19	-58.333
839.49	-46.154
839.79	-68.421
840.09	-133.333
840.39	-170.000
840.69	-36.364
840.99	-28.571
841.29	-29.167
841.59	-100.000
841.88	-133.333
842.18	-57.143
842.48	0.000
842.78	-242.857
843.08	-28.571
843.38	-125.000
843.68	-43.750
843.97	21.429
844.27	-166.667
844.57	-100.000
844.87	-73.333
845.17	0.000
845.47	533.333
845.76	-60.000
846.06	-33.333
846.36	-650.000
846.66	-73.684
846.96	-36.364
847.25	-55.556
847.55	-166.667
847.85	-85.714
848.15	-30.769
848.44	-333.333
848.74	-58.333
849.04	-76.923
849.34	-350.000
849.63	-190.909
849.93	-100.000
850.23	10.000
850.53	-62.500
850.82	-61.111
851.12	-93.333
851.42	-41.176
851.71	-75.000
852.01	-35.294
852.31	-115.385
852.61	700.000
852.90	-5.882
853.20	-33.333
853.50	-62.500
853.79	-121.429
854.09	-375.000
854.39	-35.000
854.68	5.000
854.98	-52.381
855.28	-4.000
855.57	-66.667
855.87	-54.167
856.17	-40.000
856.46	3.125
856.76	-5.000
857.05	8.000
857.35	-91.667
857.65	-35.294
857.94	-100.000
858.24	-66.667
858.53	-40.000
858.83	-218.182
859.13	-32.000
859.42	-85.714
859.72	-150.000
860.01	-20.833
860.31	-100.000
860.60	-81.250
860.90	-333.333
861.20	-150.000
861.49	20.000
861.79	-31.250
862.08	625.000
862.38	-50.000
862.67	142.857
862.97	300.000
863.26	-27.273
863.56	-45.455
863.85	-15.789
864.15	-29.412
864.44	-360.000
864.74	-110.000
865.03	-166.667
865.33	-85.714
865.62	114.286
865.92	-47.368
866.21	-27.778
866.51	-45.455
866.80	-77.778
867.10	-200.000
867.39	-31.250
867.69	-100.000
867.98	-70.000
868.27	5.882
868.57	0.000
868.86	600.000
869.16	-300.000
869.45	-200.000
869.75	400.000
870.04	-30.000
870.33	-1300.000
870.63	-42.105
870.92	-141.667
871.22	-1200.000
871.51	-257.143
871.80	-133.333
872.10	-275.000
>>>>>End Processed Spectral Data<<<<<
