SpectraSuite Data File
++++++++++++++++++++++++++++++++++++
Date: Wed May 13 21:24:24 PDT 2015
User: schluterlab
Dark Spectrum Present: Yes
Reference Spectrum Present: Yes
Number of Sampled Component Spectra: 1
Spectrometers: USB2E3373
Integration Time (usec): 3000 (USB2E3373)
Spectra Averaged: 3 (USB2E3373)
Boxcar Smoothing: 0 (USB2E3373)
Correct for Electrical Dark: No (USB2E3373)
Strobe/Lamp Enabled: No (USB2E3373)
Correct for Detector Non-linearity: No (USB2E3373)
Correct for Stray Light: No (USB2E3373)
Number of Pixels in Processed Spectrum: 2048
>>>>>Begin Processed Spectral Data<<<<<
178.53	0.000
178.91	300.000
179.29	216.667
179.67	-650.000
180.04	-166.667
180.42	380.000
180.80	2200.000
181.18	183.333
181.56	-575.000
181.94	-275.000
182.31	-18.182
182.69	153.846
183.07	-40.000
183.45	250.000
183.83	255.556
184.20	185.714
184.58	-66.667
184.96	100.000
185.34	157.143
185.72	0.000
186.09	-600.000
186.47	-320.000
186.85	280.000
187.23	-250.000
187.61	700.000
187.98	700.000
188.36	-37.500
188.74	0.000
189.12	-63.636
189.49	90.000
189.87	166.667
190.25	420.000
190.63	1200.000
191.00	-40.000
191.38	260.000
191.76	525.000
192.14	183.333
192.51	-21.053
192.89	566.667
193.27	650.000
193.65	-260.000
194.02	181.818
194.40	290.000
194.78	-1300.000
195.15	300.000
195.53	-260.000
195.91	-37.500
196.29	-100.000
196.66	0.000
197.04	550.000
197.42	-160.000
197.79	30.000
198.17	-287.500
198.55	-400.000
198.92	325.000
199.30	-333.333
199.68	10.000
200.05	400.000
200.43	216.667
200.81	-800.000
201.18	-220.000
201.56	-116.667
201.94	550.000
202.31	4.348
202.69	-28.571
203.07	-600.000
203.44	-140.000
203.82	-366.667
204.19	-100.000
204.57	0.000
204.95	-100.000
205.32	0.000
205.70	-850.000
206.08	-450.000
206.45	-233.333
206.83	450.000
207.20	-300.000
207.58	-80.000
207.96	-1800.000
208.33	-100.000
208.71	-1800.000
209.08	275.000
209.46	600.000
209.84	0.000
210.21	220.000
210.59	2400.000
210.96	280.000
211.34	1500.000
211.71	-400.000
212.09	-350.000
212.46	-170.000
212.84	-366.667
213.22	-100.000
213.59	300.000
213.97	-100.000
214.34	-550.000
214.72	-92.308
215.09	212.500
215.47	144.444
215.84	800.000
216.22	-50.000
216.59	-800.000
216.97	633.333
217.34	155.556
217.72	0.000
218.09	100.000
218.47	-500.000
218.84	-85.714
219.22	-212.500
219.59	-300.000
219.97	-250.000
220.34	12.500
220.72	-220.000
221.09	0.000
221.47	-266.667
221.84	0.000
222.22	0.000
222.59	1100.000
222.97	-333.333
223.34	-33.333
223.72	-1300.000
224.09	-650.000
224.46	-118.182
224.84	-50.000
225.21	-157.143
225.59	-425.000
225.96	-350.000
226.34	-90.000
226.71	-57.143
227.08	750.000
227.46	-125.000
227.83	-700.000
228.21	-75.000
228.58	-475.000
228.95	5.882
229.33	-6.250
229.70	-62.500
230.08	-53.846
230.45	-250.000
230.82	-166.667
231.20	171.429
231.57	-400.000
231.95	1900.000
232.32	58.333
232.69	11.765
233.07	-1400.000
233.44	-52.174
233.81	-550.000
234.19	20.833
234.56	-100.000
234.93	-33.333
235.31	5.263
235.68	-84.615
236.05	-69.231
236.43	27.778
236.80	27.273
237.17	-33.333
237.55	-17.647
237.92	-24.138
238.29	-55.556
238.67	-5.556
239.04	-25.806
239.41	17.021
239.79	29.787
240.16	6.977
240.53	12.500
240.91	35.714
241.28	33.929
241.65	6.452
242.02	19.737
242.40	14.493
242.77	11.594
243.14	24.359
243.51	22.340
243.89	25.000
244.26	31.132
244.63	17.308
245.00	22.917
245.38	19.328
245.75	22.951
246.12	21.805
246.49	17.886
246.87	10.084
247.24	24.324
247.61	23.841
247.98	26.282
248.36	28.994
248.73	24.157
249.10	22.222
249.47	23.656
249.84	28.947
250.22	25.373
250.59	30.374
250.96	27.273
251.33	21.053
251.70	30.126
252.08	29.707
252.45	29.218
252.82	31.179
253.19	28.016
253.56	28.417
253.94	33.808
254.31	29.577
254.68	26.846
255.05	28.383
255.42	33.217
255.79	28.834
256.16	29.338
256.54	28.254
256.91	27.848
257.28	31.132
257.65	28.025
258.02	27.273
258.39	30.702
258.76	31.105
259.14	30.398
259.51	26.124
259.88	31.978
260.25	29.167
260.62	26.685
260.99	29.973
261.36	31.865
261.73	26.173
262.10	26.209
262.47	27.901
262.85	28.856
263.22	30.513
263.59	27.792
263.96	27.737
264.33	30.529
264.70	29.302
265.07	33.333
265.44	30.805
265.81	29.748
266.18	25.968
266.55	28.166
266.92	27.966
267.29	28.601
267.66	29.724
268.03	30.658
268.40	29.661
268.77	30.992
269.14	31.224
269.51	28.953
269.88	27.088
270.25	31.356
270.62	29.713
270.99	28.937
271.36	29.563
271.73	30.522
272.10	31.048
272.47	29.559
272.84	29.921
273.21	31.507
273.58	31.148
273.95	24.340
274.32	30.970
274.69	29.144
275.06	27.385
275.43	30.132
275.80	29.078
276.17	31.123
276.54	26.110
276.91	29.094
277.28	27.076
277.65	29.895
278.02	30.357
278.39	30.728
278.76	28.595
279.13	27.787
279.50	29.828
279.87	27.717
280.23	31.892
280.60	27.336
280.97	28.734
281.34	29.653
281.71	26.992
282.08	29.402
282.45	27.213
282.82	27.157
283.19	29.268
283.56	27.656
283.92	28.746
284.29	27.613
284.66	29.325
285.03	27.199
285.40	26.133
285.77	26.426
286.14	27.508
286.51	28.936
286.87	26.615
287.24	26.254
287.61	27.108
287.98	26.176
288.35	27.273
288.72	28.551
289.08	28.775
289.45	25.257
289.82	26.778
290.19	26.928
290.56	24.858
290.93	24.586
291.29	26.676
291.66	26.503
292.03	26.567
292.40	24.899
292.77	24.900
293.13	26.220
293.50	25.882
293.87	25.467
294.24	23.413
294.60	24.447
294.97	25.529
295.34	21.108
295.71	23.127
296.08	23.037
296.44	23.852
296.81	22.899
297.18	22.000
297.55	23.467
297.91	24.720
298.28	22.397
298.65	22.537
299.02	24.664
299.38	21.595
299.75	22.596
300.12	20.814
300.48	22.222
300.85	23.326
301.22	21.835
301.59	20.657
301.95	19.628
302.32	21.237
302.69	20.678
303.05	21.262
303.42	21.932
303.79	21.977
304.15	21.468
304.52	23.118
304.89	21.595
305.25	20.198
305.62	22.993
305.99	20.348
306.35	21.735
306.72	20.855
307.09	22.211
307.45	22.151
307.82	20.947
308.19	20.481
308.55	21.392
308.92	21.807
309.29	19.720
309.65	20.180
310.02	19.682
310.38	20.732
310.75	20.414
311.12	20.991
311.48	20.673
311.85	20.374
312.22	21.373
312.58	19.324
312.95	20.199
313.31	20.937
313.68	20.706
314.05	20.983
314.41	21.422
314.78	20.209
315.14	19.630
315.51	19.600
315.87	20.853
316.24	21.304
316.61	20.548
316.97	19.722
317.34	19.519
317.70	21.231
318.07	20.142
318.43	19.603
318.80	19.372
319.16	19.540
319.53	20.430
319.89	19.783
320.26	20.333
320.62	20.111
320.99	19.283
321.35	19.364
321.72	18.672
322.08	19.096
322.45	19.981
322.81	19.963
323.18	18.694
323.54	19.404
323.91	19.783
324.27	20.252
324.64	18.815
325.00	19.948
325.37	20.137
325.73	19.865
326.10	20.606
326.46	20.652
326.83	19.256
327.19	19.675
327.56	21.434
327.92	20.515
328.29	20.033
328.65	19.807
329.01	20.141
329.38	20.696
329.74	20.172
330.11	20.830
330.47	19.792
330.84	19.946
331.20	19.214
331.56	20.290
331.93	19.897
332.29	20.417
332.66	20.678
333.02	21.286
333.38	20.439
333.75	20.392
334.11	21.615
334.48	21.709
334.84	19.258
335.20	21.355
335.57	19.495
335.93	20.103
336.29	19.177
336.66	21.026
337.02	20.174
337.38	20.627
337.75	19.897
338.11	19.983
338.47	19.949
338.84	20.361
339.20	20.547
339.56	20.222
339.93	19.620
340.29	19.385
340.65	20.274
341.02	20.965
341.38	18.243
341.74	18.739
342.11	20.066
342.47	19.916
342.83	20.425
343.20	19.966
343.56	19.379
343.92	19.253
344.28	19.886
344.65	20.816
345.01	19.613
345.37	20.148
345.73	19.526
346.10	20.305
346.46	19.268
346.82	19.663
347.19	19.383
347.55	19.871
347.91	19.174
348.27	18.375
348.63	19.471
349.00	19.497
349.36	19.545
349.72	18.794
350.08	20.593
350.45	19.890
350.81	18.858
351.17	19.323
351.53	19.874
351.89	17.633
352.26	18.687
352.62	19.612
352.98	19.329
353.34	18.841
353.70	19.159
354.07	18.196
354.43	18.429
354.79	19.872
355.15	19.410
355.51	18.375
355.87	20.094
356.24	19.422
356.60	18.686
356.96	19.186
357.32	18.963
357.68	19.251
358.04	19.628
358.40	19.767
358.77	18.960
359.13	19.144
359.49	18.547
359.85	19.030
360.21	19.738
360.57	18.707
360.93	18.361
361.29	18.653
361.66	19.058
362.02	18.977
362.38	18.316
362.74	18.057
363.10	19.523
363.46	18.012
363.82	19.512
364.18	17.766
364.54	18.162
364.90	19.024
365.26	18.117
365.62	18.466
365.98	18.790
366.35	19.220
366.71	17.618
367.07	19.561
367.43	19.094
367.79	18.972
368.15	18.214
368.51	18.495
368.87	17.795
369.23	18.648
369.59	18.746
369.95	17.852
370.31	18.759
370.67	17.596
371.03	18.114
371.39	18.169
371.75	19.000
372.11	18.661
372.47	18.457
372.83	18.724
373.19	17.626
373.55	18.064
373.91	18.317
374.27	17.981
374.63	18.137
374.99	17.270
375.35	17.192
375.71	18.546
376.07	18.163
376.42	18.115
376.78	18.824
377.14	18.915
377.50	17.927
377.86	18.592
378.22	17.509
378.58	17.718
378.94	19.188
379.30	17.739
379.66	18.372
380.02	18.750
380.38	18.133
380.74	17.812
381.09	17.973
381.45	18.742
381.81	18.299
382.17	17.958
382.53	17.723
382.89	18.456
383.25	17.407
383.61	18.341
383.97	18.938
384.32	18.336
384.68	17.952
385.04	17.838
385.40	16.812
385.76	18.309
386.12	18.076
386.48	17.492
386.83	17.647
387.19	18.630
387.55	17.719
387.91	17.958
388.27	17.324
388.62	18.414
388.98	17.897
389.34	18.421
389.70	18.437
390.06	18.125
390.42	17.848
390.77	17.745
391.13	18.308
391.49	18.280
391.85	17.891
392.20	18.484
392.56	18.159
392.92	17.554
393.28	17.548
393.64	17.492
393.99	17.075
394.35	17.654
394.71	18.077
395.07	17.044
395.42	17.672
395.78	18.018
396.14	17.755
396.50	17.502
396.85	17.718
397.21	17.104
397.57	16.957
397.92	17.425
398.28	17.823
398.64	17.486
399.00	17.857
399.35	17.253
399.71	16.948
400.07	17.590
400.42	17.429
400.78	17.825
401.14	17.597
401.49	16.717
401.85	17.322
402.21	17.771
402.57	17.351
402.92	18.210
403.28	17.761
403.63	16.553
403.99	16.315
404.35	17.145
404.70	17.039
405.06	17.851
405.42	17.211
405.77	17.627
406.13	16.743
406.49	17.975
406.84	17.033
407.20	17.052
407.55	17.857
407.91	17.009
408.27	17.592
408.62	18.907
408.98	17.694
409.34	17.512
409.69	18.259
410.05	17.226
410.40	16.799
410.76	17.569
411.11	17.351
411.47	18.447
411.83	16.344
412.18	17.884
412.54	18.672
412.89	17.680
413.25	16.755
413.60	17.367
413.96	16.792
414.31	16.831
414.67	17.016
415.03	16.779
415.38	17.041
415.74	16.829
416.09	17.250
416.45	17.362
416.80	17.517
417.16	18.219
417.51	17.683
417.87	17.130
418.22	18.229
418.58	17.608
418.93	17.012
419.29	17.690
419.64	17.875
420.00	16.698
420.35	17.155
420.71	17.367
421.06	17.405
421.42	17.762
421.77	17.861
422.12	18.281
422.48	17.339
422.83	17.602
423.19	17.021
423.54	18.080
423.90	16.983
424.25	16.753
424.61	16.697
424.96	17.741
425.31	17.162
425.67	18.342
426.02	17.668
426.38	18.284
426.73	17.288
427.09	16.698
427.44	17.851
427.79	16.508
428.15	16.514
428.50	16.677
428.85	17.282
429.21	17.164
429.56	17.535
429.92	17.283
430.27	17.434
430.62	17.786
430.98	17.874
431.33	17.840
431.68	18.158
432.04	17.690
432.39	17.494
432.74	16.248
433.10	18.013
433.45	18.047
433.80	18.333
434.16	17.531
434.51	17.554
434.86	17.727
435.22	17.544
435.57	17.875
435.92	17.310
436.28	17.477
436.63	16.917
436.98	17.333
437.34	17.766
437.69	17.710
438.04	16.865
438.39	17.123
438.75	16.985
439.10	17.351
439.45	16.707
439.81	17.426
440.16	17.449
440.51	16.766
440.86	17.190
441.22	17.958
441.57	17.679
441.92	16.900
442.27	17.478
442.63	17.169
442.98	16.609
443.33	17.043
443.68	17.923
444.03	17.635
444.39	17.600
444.74	16.676
445.09	16.905
445.44	18.141
445.79	16.933
446.15	17.582
446.50	17.291
446.85	17.638
447.20	17.512
447.55	17.907
447.91	17.416
448.26	17.439
448.61	16.916
448.96	17.483
449.31	17.533
449.66	17.178
450.02	17.339
450.37	17.215
450.72	17.164
451.07	17.367
451.42	16.407
451.77	17.651
452.12	17.112
452.47	17.237
452.83	17.217
453.18	16.359
453.53	16.772
453.88	16.627
454.23	17.244
454.58	16.912
454.93	16.742
455.28	18.112
455.63	16.282
455.98	16.677
456.34	16.910
456.69	16.933
457.04	16.656
457.39	17.980
457.74	16.756
458.09	17.773
458.44	16.510
458.79	17.408
459.14	16.292
459.49	17.134
459.84	16.967
460.19	16.026
460.54	16.971
460.89	16.892
461.24	16.831
461.59	17.210
461.94	17.509
462.29	16.115
462.64	16.161
462.99	16.432
463.34	16.713
463.69	17.204
464.04	16.387
464.39	16.412
464.74	16.339
465.09	16.925
465.44	16.554
465.79	17.711
466.14	17.104
466.49	15.953
466.84	18.111
467.19	16.178
467.54	17.563
467.89	16.719
468.24	16.472
468.59	17.655
468.94	16.986
469.29	16.193
469.64	15.272
469.99	16.621
470.34	15.644
470.68	15.688
471.03	17.137
471.38	17.177
471.73	16.324
472.08	16.770
472.43	16.557
472.78	17.174
473.13	16.623
473.48	16.243
473.83	16.259
474.17	16.536
474.52	17.023
474.87	16.405
475.22	17.512
475.57	16.397
475.92	16.576
476.27	16.667
476.61	16.308
476.96	16.448
477.31	16.127
477.66	16.102
478.01	16.374
478.36	16.403
478.70	15.360
479.05	17.148
479.40	16.017
479.75	16.472
480.10	16.420
480.45	16.430
480.79	16.874
481.14	16.413
481.49	17.316
481.84	15.881
482.19	16.860
482.53	16.190
482.88	16.635
483.23	15.448
483.58	16.115
483.92	15.856
484.27	15.737
484.62	16.023
484.97	16.342
485.31	16.803
485.66	18.020
486.01	18.722
486.36	18.690
486.70	17.912
487.05	17.616
487.40	16.973
487.75	17.140
488.09	15.421
488.44	15.563
488.79	16.011
489.13	16.421
489.48	16.375
489.83	15.989
490.17	15.524
490.52	16.737
490.87	15.716
491.22	15.780
491.56	16.387
491.91	16.323
492.26	15.861
492.60	15.777
492.95	15.889
493.30	16.473
493.64	15.923
493.99	16.667
494.34	16.618
494.68	15.370
495.03	15.069
495.37	15.912
495.72	15.890
496.07	16.074
496.41	16.285
496.76	16.819
497.11	16.056
497.45	15.759
497.80	16.658
498.14	16.020
498.49	15.835
498.84	15.941
499.18	16.078
499.53	15.608
499.87	16.060
500.22	16.526
500.56	16.449
500.91	15.594
501.26	15.961
501.60	15.441
501.95	16.243
502.29	15.777
502.64	16.008
502.98	16.667
503.33	16.107
503.67	16.602
504.02	15.049
504.36	15.453
504.71	15.447
505.06	16.607
505.40	15.052
505.75	16.582
506.09	16.505
506.44	16.230
506.78	16.100
507.13	15.644
507.47	15.589
507.82	15.699
508.16	15.726
508.51	14.876
508.85	15.345
509.19	15.238
509.54	16.193
509.88	15.323
510.23	15.211
510.57	16.102
510.92	16.541
511.26	14.796
511.61	15.477
511.95	15.711
512.30	14.992
512.64	15.778
512.98	15.346
513.33	15.493
513.67	15.616
514.02	16.420
514.36	15.730
514.70	14.838
515.05	15.272
515.39	15.035
515.74	14.269
516.08	15.339
516.42	15.207
516.77	14.236
517.11	15.050
517.46	16.026
517.80	15.920
518.14	14.758
518.49	15.732
518.83	15.215
519.17	15.361
519.52	15.501
519.86	14.451
520.20	14.494
520.55	14.241
520.89	14.548
521.23	15.513
521.58	15.044
521.92	14.708
522.26	14.834
522.61	14.609
522.95	14.443
523.29	15.238
523.64	16.020
523.98	14.740
524.32	14.682
524.66	13.766
525.01	14.679
525.35	15.734
525.69	15.573
526.04	13.746
526.38	14.595
526.72	14.267
527.06	14.507
527.41	14.494
527.75	14.152
528.09	14.295
528.43	14.925
528.78	14.793
529.12	14.489
529.46	13.500
529.80	14.757
530.15	15.058
530.49	14.757
530.83	14.963
531.17	14.726
531.51	13.891
531.86	13.821
532.20	14.473
532.54	14.828
532.88	15.317
533.22	15.556
533.57	15.166
533.91	16.323
534.25	15.169
534.59	15.251
534.93	15.115
535.27	15.287
535.62	14.539
535.96	15.485
536.30	14.894
536.64	14.081
536.98	14.506
537.32	15.445
537.66	14.810
538.01	14.424
538.35	14.434
538.69	14.381
539.03	14.899
539.37	14.219
539.71	15.143
540.05	15.047
540.39	14.178
540.73	15.084
541.07	14.898
541.42	15.286
541.76	15.156
542.10	14.286
542.44	14.484
542.78	15.545
543.12	15.296
543.46	13.960
543.80	15.547
544.14	15.760
544.48	14.731
544.82	15.467
545.16	13.793
545.50	15.057
545.84	14.516
546.18	14.306
546.52	13.409
546.86	15.406
547.20	13.796
547.54	14.510
547.88	15.317
548.22	15.309
548.56	14.743
548.90	15.156
549.24	15.486
549.58	14.021
549.92	15.187
550.26	15.867
550.60	14.339
550.94	14.627
551.28	15.140
551.62	14.962
551.96	14.714
552.30	13.683
552.64	14.619
552.98	15.483
553.32	15.141
553.66	14.160
554.00	14.975
554.34	15.018
554.68	14.392
555.02	14.296
555.36	14.902
555.69	13.183
556.03	14.510
556.37	14.225
556.71	14.436
557.05	13.875
557.39	14.017
557.73	14.675
558.07	14.017
558.41	14.307
558.75	15.242
559.08	13.793
559.42	13.926
559.76	14.679
560.10	14.835
560.44	14.959
560.78	14.532
561.12	15.347
561.45	14.830
561.79	15.956
562.13	15.120
562.47	13.929
562.81	14.502
563.15	15.368
563.48	14.453
563.82	14.364
564.16	14.150
564.50	14.858
564.84	14.595
565.17	15.232
565.51	14.906
565.85	13.524
566.19	14.503
566.52	14.744
566.86	14.286
567.20	15.027
567.54	15.486
567.88	14.670
568.21	15.481
568.55	15.910
568.89	15.603
569.23	16.774
569.56	16.854
569.90	16.718
570.24	16.498
570.57	17.093
570.91	17.044
571.25	16.911
571.59	16.897
571.92	17.072
572.26	17.315
572.60	16.692
572.93	16.995
573.27	16.763
573.61	17.391
573.95	17.610
574.28	17.350
574.62	17.132
574.96	17.618
575.29	17.001
575.63	17.097
575.97	16.929
576.30	16.850
576.64	16.636
576.98	17.230
577.31	17.646
577.65	17.362
577.98	17.753
578.32	17.613
578.66	17.762
578.99	17.136
579.33	16.642
579.67	16.853
580.00	16.820
580.34	16.990
580.67	17.099
581.01	16.978
581.35	17.929
581.68	17.906
582.02	18.162
582.35	18.247
582.69	17.546
583.02	16.705
583.36	16.749
583.70	16.423
584.03	16.797
584.37	16.475
584.70	17.390
585.04	17.674
585.37	17.108
585.71	17.487
586.04	17.293
586.38	16.496
586.72	16.690
587.05	17.456
587.39	17.187
587.72	16.995
588.06	16.416
588.39	16.821
588.73	16.396
589.06	16.360
589.40	16.581
589.73	16.098
590.07	16.187
590.40	15.979
590.73	16.045
591.07	16.339
591.40	15.478
591.74	15.562
592.07	15.472
592.41	16.602
592.74	16.937
593.08	17.094
593.41	17.309
593.75	16.796
594.08	16.580
594.41	16.600
594.75	16.567
595.08	16.542
595.42	16.428
595.75	16.631
596.09	16.590
596.42	15.645
596.75	16.060
597.09	16.924
597.42	16.689
597.75	16.356
598.09	16.393
598.42	16.107
598.76	17.212
599.09	17.207
599.42	16.994
599.76	17.274
600.09	16.604
600.42	16.460
600.76	16.482
601.09	16.723
601.42	16.464
601.76	16.332
602.09	16.538
602.42	16.591
602.76	15.856
603.09	16.591
603.42	16.313
603.76	16.407
604.09	16.285
604.42	16.074
604.76	16.368
605.09	16.312
605.42	16.734
605.75	15.460
606.09	16.184
606.42	16.708
606.75	16.797
607.09	15.780
607.42	16.331
607.75	15.886
608.08	16.637
608.42	15.792
608.75	15.862
609.08	15.728
609.41	15.748
609.75	15.179
610.08	16.124
610.41	16.132
610.74	16.410
611.07	15.281
611.41	16.070
611.74	16.046
612.07	15.633
612.40	15.730
612.73	15.477
613.07	15.466
613.40	15.914
613.73	15.980
614.06	15.865
614.39	15.509
614.72	16.047
615.06	16.278
615.39	15.618
615.72	15.173
616.05	15.597
616.38	16.037
616.71	14.637
617.05	15.848
617.38	14.911
617.71	14.645
618.04	15.174
618.37	15.394
618.70	14.554
619.03	14.227
619.36	15.302
619.69	14.693
620.03	14.417
620.36	13.918
620.69	14.133
621.02	14.154
621.35	13.573
621.68	13.773
622.01	13.916
622.34	14.433
622.67	15.427
623.00	15.350
623.33	15.183
623.66	14.796
623.99	16.279
624.32	14.747
624.65	14.614
624.99	15.136
625.32	15.385
625.65	13.953
625.98	13.744
626.31	14.857
626.64	12.382
626.97	14.446
627.30	14.970
627.63	12.457
627.96	12.987
628.29	13.488
628.62	14.313
628.95	13.727
629.28	12.808
629.61	13.493
629.94	15.184
630.26	13.498
630.59	13.586
630.92	12.048
631.25	12.564
631.58	13.919
631.91	11.029
632.24	12.623
632.57	11.333
632.90	11.785
633.23	11.990
633.56	13.909
633.89	12.560
634.22	14.134
634.55	12.424
634.88	10.662
635.20	14.250
635.53	12.791
635.86	10.769
636.19	13.151
636.52	12.439
636.85	11.942
637.18	11.084
637.51	12.609
637.83	13.185
638.16	12.000
638.49	11.749
638.82	10.980
639.15	12.766
639.48	11.364
639.81	12.222
640.13	13.099
640.46	12.994
640.79	12.230
641.12	10.503
641.45	11.790
641.77	10.309
642.10	10.741
642.43	11.164
642.76	9.148
643.09	9.105
643.41	10.526
643.74	10.178
644.07	9.223
644.40	11.111
644.73	11.864
645.05	9.948
645.38	11.130
645.71	10.544
646.04	10.774
646.36	10.938
646.69	9.790
647.02	10.018
647.35	9.689
647.67	10.166
648.00	10.326
648.33	13.051
648.66	12.020
648.98	11.801
649.31	12.730
649.64	12.363
649.96	12.480
650.29	10.948
650.62	11.532
650.94	11.724
651.27	11.131
651.60	13.112
651.92	11.470
652.25	14.238
652.58	13.366
652.90	12.626
653.23	10.696
653.56	10.413
653.88	7.338
654.21	9.898
654.54	11.462
654.86	8.780
655.19	12.045
655.52	18.891
655.84	21.247
656.17	25.601
656.49	32.724
656.82	30.077
657.15	21.080
657.47	14.747
657.80	10.420
658.13	10.376
658.45	14.661
658.78	13.946
659.10	13.727
659.43	13.801
659.75	13.545
660.08	12.966
660.41	11.258
660.73	10.882
661.06	9.524
661.38	9.496
661.71	7.582
662.03	10.571
662.36	9.292
662.68	13.763
663.01	10.169
663.33	10.367
663.66	6.652
663.98	9.213
664.31	9.451
664.63	6.757
664.96	10.284
665.28	11.803
665.61	7.343
665.93	11.777
666.26	12.236
666.58	10.278
666.91	11.211
667.23	8.986
667.56	11.264
667.88	10.047
668.21	9.152
668.53	9.195
668.86	8.393
669.18	8.511
669.50	12.673
669.83	9.547
670.15	8.333
670.48	8.276
670.80	14.661
671.13	7.323
671.45	10.502
671.77	9.914
672.10	12.476
672.42	12.023
672.75	9.643
673.07	14.909
673.39	10.634
673.72	10.978
674.04	12.500
674.37	10.976
674.69	10.494
675.01	11.111
675.34	10.066
675.66	10.893
675.98	9.071
676.31	8.597
676.63	13.832
676.95	7.765
677.28	9.404
677.60	8.088
677.92	12.639
678.25	12.581
678.57	12.016
678.89	10.021
679.22	11.387
679.54	11.224
679.86	13.672
680.18	11.346
680.51	11.731
680.83	9.747
681.15	10.609
681.48	11.022
681.80	12.270
682.12	8.958
682.44	9.054
682.77	10.526
683.09	7.812
683.41	6.279
683.73	8.259
684.06	9.513
684.38	12.393
684.70	10.387
685.02	11.777
685.34	13.894
685.67	12.758
685.99	11.566
686.31	15.172
686.63	12.500
686.96	14.100
687.28	11.377
687.60	14.745
687.92	13.813
688.24	11.000
688.56	11.184
688.89	6.904
689.21	11.435
689.53	8.108
689.85	10.787
690.17	9.890
690.49	10.386
690.82	9.308
691.14	12.077
691.46	12.993
691.78	11.209
692.10	11.040
692.42	10.110
692.74	11.522
693.06	9.663
693.39	9.602
693.71	13.333
694.03	13.636
694.35	12.613
694.67	12.500
694.99	10.309
695.31	8.527
695.63	10.976
695.95	11.705
696.27	7.397
696.59	8.333
696.91	5.866
697.23	9.391
697.56	10.552
697.88	14.553
698.20	10.799
698.52	11.215
698.84	9.091
699.16	11.348
699.48	9.877
699.80	10.853
700.12	10.724
700.44	7.042
700.76	8.427
701.08	8.761
701.40	7.784
701.72	8.923
702.04	9.434
702.36	8.232
702.68	5.488
703.00	11.111
703.32	9.471
703.64	10.542
703.96	10.264
704.28	9.337
704.60	8.537
704.91	5.329
705.23	11.392
705.55	7.241
705.87	5.634
706.19	8.059
706.51	8.099
706.83	9.873
707.15	9.451
707.47	13.774
707.79	14.467
708.11	8.483
708.43	10.660
708.74	8.777
709.06	13.102
709.38	8.646
709.70	11.111
710.02	11.838
710.34	8.000
710.66	9.772
710.98	8.978
711.29	11.039
711.61	8.387
711.93	6.452
712.25	4.895
712.57	5.965
712.89	9.524
713.20	8.865
713.52	8.759
713.84	10.968
714.16	10.356
714.48	8.544
714.80	7.029
715.11	12.791
715.43	9.938
715.75	12.112
716.07	13.855
716.39	6.397
716.70	9.353
717.02	7.059
717.34	7.576
717.66	3.879
717.97	1.984
718.29	9.843
718.61	6.867
718.93	6.589
719.24	8.487
719.56	9.738
719.88	10.075
720.20	7.115
720.51	9.375
720.83	8.171
721.15	0.813
721.46	10.305
721.78	10.359
722.10	2.390
722.42	5.645
722.73	11.969
723.05	7.347
723.37	11.345
723.68	8.400
724.00	5.532
724.32	2.510
724.63	11.111
724.95	7.265
725.27	13.502
725.58	12.757
725.90	8.368
726.22	10.145
726.53	3.922
726.85	9.854
727.16	9.259
727.48	9.962
727.80	12.109
728.11	7.787
728.43	10.547
728.74	13.492
729.06	6.400
729.38	11.462
729.69	11.388
730.01	10.409
730.32	12.546
730.64	8.712
730.96	15.734
731.27	8.696
731.59	17.143
731.90	11.003
732.22	5.449
732.53	6.419
732.85	8.725
733.16	16.502
733.48	9.459
733.80	9.459
734.11	13.851
734.43	13.003
734.74	11.111
735.06	11.239
735.37	10.942
735.69	10.680
736.00	12.541
736.32	8.511
736.63	10.000
736.95	11.986
737.26	11.724
737.58	12.500
737.89	15.120
738.21	9.253
738.52	9.125
738.83	11.837
739.15	9.705
739.46	9.339
739.78	9.507
740.09	8.562
740.41	10.000
740.72	6.738
741.04	9.200
741.35	9.211
741.66	14.222
741.98	9.135
742.29	11.386
742.61	10.244
742.92	8.772
743.23	8.962
743.55	12.162
743.86	5.381
744.18	6.863
744.49	6.091
744.80	4.592
745.12	12.150
745.43	9.953
745.74	7.207
746.06	10.748
746.37	7.339
746.68	8.654
747.00	11.962
747.31	6.731
747.62	8.716
747.94	9.607
748.25	6.881
748.56	12.444
748.88	11.268
749.19	12.857
749.50	6.796
749.82	6.573
750.13	7.917
750.44	8.846
750.75	11.808
751.07	13.523
751.38	10.993
751.69	10.425
752.01	6.250
752.32	8.462
752.63	11.194
752.94	9.200
753.26	12.971
753.57	10.417
753.88	10.526
754.19	7.570
754.51	10.526
754.82	5.861
755.13	8.696
755.44	10.163
755.75	7.200
756.07	10.332
756.38	13.309
756.69	12.969
757.00	13.396
757.31	9.061
757.63	10.494
757.94	12.994
758.25	12.698
758.56	11.685
758.87	13.095
759.18	8.833
759.50	12.458
759.81	13.378
760.12	14.769
760.43	12.202
760.74	8.475
761.05	13.812
761.36	12.034
761.67	12.689
761.99	10.997
762.30	11.679
762.61	10.288
762.92	11.966
763.23	12.705
763.54	15.152
763.85	14.286
764.16	11.382
764.47	13.200
764.78	11.071
765.10	12.787
765.41	16.413
765.72	14.907
766.03	14.191
766.34	12.692
766.65	10.460
766.96	7.042
767.27	12.871
767.58	-1.124
767.89	2.469
768.20	12.155
768.51	17.588
768.82	13.942
769.13	13.717
769.44	13.389
769.75	7.265
770.06	11.659
770.37	5.392
770.68	15.049
770.99	8.252
771.30	14.286
771.61	8.980
771.92	12.863
772.23	9.459
772.54	6.630
772.85	12.791
773.16	11.111
773.47	6.509
773.78	9.195
774.09	2.500
774.39	3.727
774.70	11.565
775.01	6.897
775.32	16.429
775.63	3.759
775.94	3.759
776.25	-0.800
776.56	0.826
776.87	16.667
777.18	-5.405
777.48	3.604
777.79	1.575
778.10	9.174
778.41	5.263
778.72	7.563
779.03	-0.704
779.34	11.486
779.65	8.451
779.95	15.232
780.26	-0.719
780.57	9.353
780.88	9.155
781.19	2.521
781.50	14.094
781.80	11.696
782.11	3.488
782.42	3.774
782.73	16.340
783.04	11.724
783.34	5.344
783.65	7.383
783.96	6.154
784.27	9.286
784.57	11.348
784.88	-8.654
785.19	5.455
785.50	1.818
785.81	-7.619
786.11	7.563
786.42	7.965
786.73	-7.547
787.04	-0.917
787.34	-8.911
787.65	13.333
787.96	8.264
788.26	7.971
788.57	10.317
788.88	2.439
789.19	12.000
789.49	9.160
789.80	6.061
790.11	1.887
790.41	18.812
790.72	9.574
791.03	5.435
791.33	-8.235
791.64	-1.235
791.95	8.696
792.25	0.000
792.56	11.538
792.87	1.282
793.17	-7.692
793.48	-1.190
793.79	-2.500
794.09	14.423
794.40	7.292
794.70	0.901
795.01	4.688
795.32	9.565
795.62	-4.348
795.93	8.491
796.23	9.091
796.54	4.878
796.85	0.000
797.15	-3.030
797.46	-8.696
797.76	-3.947
798.07	4.545
798.37	2.439
798.68	-25.806
798.99	-2.703
799.29	2.410
799.60	-2.564
799.90	-10.769
800.21	6.061
800.51	4.000
800.82	8.000
801.12	-27.083
801.43	-15.000
801.73	6.757
802.04	4.286
802.34	-11.475
802.65	14.925
802.95	-18.182
803.26	3.448
803.56	20.000
803.87	0.000
804.17	16.129
804.48	-1.471
804.78	-39.024
805.09	-7.246
805.39	11.765
805.70	-14.894
806.00	-22.807
806.30	7.692
806.61	10.526
806.91	6.757
807.22	-2.632
807.52	15.909
807.83	-25.424
808.13	-24.242
808.43	5.000
808.74	-32.759
809.04	-7.937
809.35	-12.245
809.65	-15.000
809.95	-20.408
810.26	12.676
810.56	-18.750
810.86	-10.204
811.17	1.923
811.47	-31.915
811.77	-12.500
812.08	0.000
812.38	-43.750
812.69	5.455
812.99	0.000
813.29	-16.216
813.59	-29.730
813.90	0.000
814.20	0.000
814.50	-16.667
814.81	-9.091
815.11	-7.018
815.41	13.953
815.72	-12.500
816.02	14.286
816.32	-29.730
816.62	2.083
816.93	-6.667
817.23	-17.778
817.53	-41.667
817.84	0.000
818.14	-26.829
818.44	-2.000
818.74	2.041
819.04	-2.439
819.35	-13.889
819.65	-20.455
819.95	-88.889
820.25	-21.212
820.56	-28.571
820.86	-22.222
821.16	-6.818
821.46	-2.174
821.76	5.172
822.07	-4.348
822.37	12.121
822.67	7.317
822.97	-13.514
823.27	-34.286
823.57	6.897
823.88	-41.176
824.18	-22.222
824.48	-31.429
824.78	-52.381
825.08	-57.143
825.38	-44.444
825.69	12.903
825.99	-12.195
826.29	-51.852
826.59	-31.250
826.89	-19.355
827.19	-47.826
827.49	-55.556
827.79	-95.652
828.09	-45.161
828.39	16.667
828.70	-46.875
829.00	-10.345
829.30	29.730
829.60	-83.333
829.90	-25.926
830.20	-18.750
830.50	-31.818
830.80	-94.118
831.10	-68.182
831.40	-26.471
831.70	-30.769
832.00	3.030
832.30	-2.941
832.60	-24.324
832.90	1600.000
833.20	-71.429
833.50	-80.000
833.80	-42.105
834.10	-70.833
834.40	-63.636
834.70	-93.333
835.00	-140.000
835.30	-45.833
835.60	-47.619
835.90	-57.143
836.20	-56.000
836.50	-58.333
836.80	-68.421
837.10	-5.405
837.40	-3.333
837.70	4.348
838.00	4.167
838.30	-26.316
838.60	-140.000
838.90	-150.000
839.19	-116.667
839.49	-53.846
839.79	-57.895
840.09	-283.333
840.39	-80.000
840.69	-31.818
840.99	-42.857
841.29	-66.667
841.59	-76.923
841.88	-86.667
842.18	-100.000
842.48	-33.333
842.78	-271.429
843.08	-78.571
843.38	-162.500
843.68	-87.500
843.97	14.286
844.27	-211.111
844.57	-163.636
844.87	-53.333
845.17	-4.545
845.47	900.000
845.76	-66.667
846.06	-158.333
846.36	-1000.000
846.66	-78.947
846.96	-13.636
847.25	-100.000
847.55	-166.667
847.85	-23.810
848.15	-7.692
848.44	-300.000
848.74	-83.333
849.04	-30.769
849.34	-200.000
849.63	-90.909
849.93	-150.000
850.23	-10.000
850.53	-150.000
850.82	-72.222
851.12	-20.000
851.42	-35.294
851.71	-162.500
852.01	-35.294
852.31	-76.923
852.61	650.000
852.90	-5.882
853.20	-53.333
853.50	-31.250
853.79	-164.286
854.09	-200.000
854.39	-55.000
854.68	-12.500
854.98	-76.190
855.28	-76.000
855.57	-62.500
855.87	-16.667
856.17	-64.000
856.46	-9.375
856.76	0.000
857.05	4.000
857.35	-141.667
857.65	-35.294
857.94	-141.667
858.24	-108.333
858.53	-5.000
858.83	-127.273
859.13	0.000
859.42	-71.429
859.72	-175.000
860.01	4.167
860.31	-300.000
860.60	-43.750
860.90	-283.333
861.20	-116.667
861.49	-6.667
861.79	-75.000
862.08	575.000
862.38	-66.667
862.67	385.714
862.97	450.000
863.26	-90.909
863.56	-136.364
863.85	10.526
864.15	-41.176
864.44	-340.000
864.74	-110.000
865.03	-177.778
865.33	-28.571
865.62	171.429
865.92	-21.053
866.21	-61.111
866.51	-54.545
866.80	-244.444
867.10	-250.000
867.39	-37.500
867.69	-66.667
867.98	-80.000
868.27	-23.529
868.57	0.000
868.86	600.000
869.16	-125.000
869.45	-314.286
869.75	950.000
870.04	30.000
870.33	-1100.000
870.63	-36.842
870.92	-125.000
871.22	-600.000
871.51	-214.286
871.80	-244.444
872.10	-400.000
>>>>>End Processed Spectral Data<<<<<
