SpectraSuite Data File
++++++++++++++++++++++++++++++++++++
Date: Wed May 13 21:13:48 PDT 2015
User: schluterlab
Dark Spectrum Present: Yes
Reference Spectrum Present: Yes
Number of Sampled Component Spectra: 1
Spectrometers: USB2E3373
Integration Time (usec): 3000 (USB2E3373)
Spectra Averaged: 3 (USB2E3373)
Boxcar Smoothing: 0 (USB2E3373)
Correct for Electrical Dark: No (USB2E3373)
Strobe/Lamp Enabled: No (USB2E3373)
Correct for Detector Non-linearity: No (USB2E3373)
Correct for Stray Light: No (USB2E3373)
Number of Pixels in Processed Spectrum: 2048
>>>>>Begin Processed Spectral Data<<<<<
178.53	0.000
178.91	800.000
179.29	191.667
179.67	-900.000
180.04	-466.667
180.42	480.000
180.80	1400.000
181.18	116.667
181.56	-525.000
181.94	-300.000
182.31	-45.455
182.69	100.000
183.07	-200.000
183.45	283.333
183.83	177.778
184.20	128.571
184.58	-200.000
184.96	266.667
185.34	257.143
185.72	0.000
186.09	-800.000
186.47	-260.000
186.85	100.000
187.23	50.000
187.61	350.000
187.98	1200.000
188.36	25.000
188.74	0.000
189.12	-109.091
189.49	10.000
189.87	150.000
190.25	440.000
190.63	1100.000
191.00	-220.000
191.38	500.000
191.76	375.000
192.14	183.333
192.51	-21.053
192.89	300.000
193.27	275.000
193.65	-80.000
194.02	245.455
194.40	150.000
194.78	-1100.000
195.15	240.000
195.53	-120.000
195.91	-100.000
196.29	-366.667
196.66	0.000
197.04	400.000
197.42	-180.000
197.79	40.000
198.17	-212.500
198.55	-300.000
198.92	250.000
199.30	-166.667
199.68	-60.000
200.05	100.000
200.43	266.667
200.81	-1500.000
201.18	-280.000
201.56	-250.000
201.94	725.000
202.31	8.696
202.69	-42.857
203.07	-633.333
203.44	-360.000
203.82	-200.000
204.19	-120.000
204.57	0.000
204.95	-83.333
205.32	0.000
205.70	-200.000
206.08	-300.000
206.45	-183.333
206.83	525.000
207.20	-133.333
207.58	-30.000
207.96	-1500.000
208.33	-114.286
208.71	-1600.000
209.08	237.500
209.46	575.000
209.84	0.000
210.21	120.000
210.59	1200.000
210.96	440.000
211.34	1100.000
211.71	-800.000
212.09	-266.667
212.46	-210.000
212.84	-433.333
213.22	-100.000
213.59	-400.000
213.97	-400.000
214.34	-500.000
214.72	15.385
215.09	162.500
215.47	277.778
215.84	950.000
216.22	-87.500
216.59	-750.000
216.97	566.667
217.34	188.889
217.72	0.000
218.09	500.000
218.47	-700.000
218.84	-214.286
219.22	-175.000
219.59	0.000
219.97	-425.000
220.34	-125.000
220.72	-200.000
221.09	0.000
221.47	-233.333
221.84	-600.000
222.22	0.000
222.59	1600.000
222.97	-266.667
223.34	-50.000
223.72	-1200.000
224.09	-400.000
224.46	-118.182
224.84	-75.000
225.21	-100.000
225.59	-575.000
225.96	-100.000
226.34	-100.000
226.71	-214.286
227.08	700.000
227.46	-262.500
227.83	-700.000
228.21	-6.250
228.58	-375.000
228.95	-111.765
229.33	-43.750
229.70	-100.000
230.08	-53.846
230.45	-137.500
230.82	-166.667
231.20	285.714
231.57	-175.000
231.95	1800.000
232.32	-58.333
232.69	-29.412
233.07	-2200.000
233.44	0.000
233.81	-1100.000
234.19	-25.000
234.56	-113.333
234.93	-86.667
235.31	-47.368
235.68	-84.615
236.05	-84.615
236.43	-77.778
236.80	-24.242
237.17	-146.667
237.55	-70.588
237.92	-86.207
238.29	-114.815
238.67	-13.889
239.04	-38.710
239.41	-23.404
239.79	-10.638
240.16	-6.977
240.53	-23.214
240.91	3.571
241.28	-19.643
241.65	-22.581
242.02	-10.526
242.40	-8.696
242.77	-15.942
243.14	-10.256
243.51	-13.830
243.89	-1.923
244.26	-4.717
244.63	-17.308
245.00	-13.542
245.38	-10.924
245.75	-7.377
246.12	-3.759
246.49	-14.634
246.87	-15.966
247.24	-4.054
247.61	-6.623
247.98	-7.692
248.36	-13.018
248.73	-10.674
249.10	-3.030
249.47	-7.527
249.84	-4.211
250.22	-2.488
250.59	0.935
250.96	0.000
251.33	-7.656
251.70	-2.092
252.08	-1.674
252.45	-2.469
252.82	-2.281
253.19	-5.058
253.56	-10.072
253.94	0.000
254.31	-3.169
254.68	-0.336
255.05	0.990
255.42	-3.147
255.79	-0.920
256.16	-0.631
256.54	-2.540
256.91	-3.797
257.28	-3.459
257.65	-5.096
258.02	-4.399
258.39	-2.632
258.76	-2.907
259.14	-2.557
259.51	-4.775
259.88	-0.271
260.25	-4.444
260.62	-4.494
260.99	-0.531
261.36	0.259
261.73	-3.457
262.10	-3.817
262.47	-2.222
262.85	-0.995
263.22	-3.333
263.59	-2.857
263.96	-2.920
264.33	-4.087
264.70	-0.233
265.07	0.000
265.44	-0.920
265.81	-2.059
266.18	-3.189
266.55	-3.930
266.92	-2.119
267.29	-1.646
267.66	-1.486
268.03	-0.206
268.40	-3.390
268.77	-0.620
269.14	-1.633
269.51	2.259
269.88	-1.629
270.25	-2.542
270.62	-3.484
270.99	-0.591
271.36	0.397
271.73	-3.012
272.10	-2.476
272.47	-0.384
272.84	-1.772
273.21	-1.957
273.58	-2.869
273.95	-1.132
274.32	0.373
274.69	0.546
275.06	1.767
275.43	-1.507
275.80	1.241
276.17	-0.921
276.54	-1.243
276.91	0.348
277.28	-2.527
277.65	-0.175
278.02	-1.071
278.39	-2.842
278.76	0.669
279.13	-1.887
279.50	-2.069
279.87	-1.993
280.23	-1.802
280.60	-3.287
280.97	-0.974
281.34	1.104
281.71	-2.439
282.08	-2.564
282.45	0.492
282.82	-0.639
283.19	1.220
283.56	-2.031
283.92	-0.153
284.29	-0.312
284.66	-1.977
285.03	-1.954
285.40	1.208
285.77	-0.450
286.14	-2.128
286.51	-0.450
286.87	-3.692
287.24	-0.885
287.61	-2.108
287.98	0.000
288.35	-2.981
288.72	-0.430
289.08	1.709
289.45	-0.734
289.82	-1.059
290.19	-0.140
290.56	-1.136
290.93	-0.691
291.29	-1.778
291.66	-1.503
292.03	-0.409
292.40	-0.942
292.77	0.402
293.13	-0.558
293.50	-1.046
293.87	0.533
294.24	-0.265
294.60	-0.650
294.97	1.190
295.34	-1.847
295.71	-1.840
296.08	-1.309
296.44	-0.510
296.81	-0.731
297.18	-0.250
297.55	0.354
297.91	-0.248
298.28	0.000
298.65	-2.340
299.02	-0.122
299.38	-2.086
299.75	-0.120
300.12	-1.279
300.48	-1.404
300.85	0.000
301.22	-1.045
301.59	-1.408
301.95	-0.929
302.32	-1.400
302.69	-1.695
303.05	0.000
303.42	-0.795
303.79	-0.315
304.15	-0.657
304.52	0.323
304.89	-0.775
305.25	-0.439
305.62	-1.410
305.99	-0.326
306.35	1.985
306.72	0.203
307.09	-0.417
307.45	-0.106
307.82	-0.947
308.19	-2.194
308.55	-0.921
308.92	0.786
309.29	-1.201
309.65	0.300
310.02	0.199
310.38	-0.610
310.75	-0.296
311.12	0.000
311.48	-1.385
311.85	0.394
312.22	0.774
312.58	-0.193
312.95	0.498
313.31	0.275
313.68	0.382
314.05	0.851
314.41	1.057
314.78	1.328
315.14	1.204
315.51	1.808
315.87	3.800
316.24	2.296
316.61	3.562
316.97	2.315
317.34	2.406
317.70	3.211
318.07	3.815
318.43	4.336
318.80	4.188
319.16	3.625
319.53	5.735
319.89	4.788
320.26	5.823
320.62	5.746
320.99	5.426
321.35	5.613
321.72	6.833
322.08	7.196
322.45	8.973
322.81	8.688
323.18	8.140
323.54	10.379
323.91	11.111
324.27	10.891
324.64	11.063
325.00	10.761
325.37	12.287
325.73	11.532
326.10	12.784
326.46	13.043
326.83	14.887
327.19	13.821
327.56	15.713
327.92	15.849
328.29	16.611
328.65	17.616
329.01	15.215
329.38	18.174
329.74	18.798
330.11	17.403
330.47	17.622
330.84	18.051
331.20	17.763
331.56	19.203
331.93	19.121
332.29	20.243
332.66	19.237
333.02	20.417
333.38	20.000
333.75	20.734
334.11	22.049
334.48	21.534
334.84	20.583
335.20	22.384
335.57	21.236
335.93	20.619
336.29	22.242
336.66	21.880
337.02	22.261
337.38	22.193
337.75	21.878
338.11	23.057
338.47	21.918
338.84	23.110
339.20	23.457
339.56	23.464
339.93	23.336
340.29	25.278
340.65	24.636
341.02	24.126
341.38	23.733
341.74	22.605
342.11	24.277
342.47	22.594
342.83	24.020
343.20	24.873
343.56	25.511
343.92	25.020
344.28	25.325
344.65	24.653
345.01	24.374
345.37	24.836
345.73	25.163
346.10	26.806
346.46	24.634
346.82	25.201
347.19	25.396
347.55	26.656
347.91	24.474
348.27	24.921
348.63	26.603
349.00	26.022
349.36	26.845
349.72	27.069
350.08	26.755
350.45	27.251
350.81	26.995
351.17	26.790
351.53	27.258
351.89	26.370
352.26	26.409
352.62	28.062
352.98	27.396
353.34	27.053
353.70	26.947
354.07	27.137
354.43	28.149
354.79	28.045
355.15	26.630
355.51	26.651
355.87	28.225
356.24	28.491
356.60	27.678
356.96	28.396
357.32	28.947
357.68	28.648
358.04	28.937
358.40	28.527
358.77	28.593
359.13	29.339
359.49	28.766
359.85	29.113
360.21	29.915
360.57	29.354
360.93	28.604
361.29	29.090
361.66	29.689
362.02	28.762
362.38	29.099
362.74	28.644
363.10	29.718
363.46	29.683
363.82	30.599
364.18	28.861
364.54	29.030
364.90	29.895
365.26	30.290
365.62	29.403
365.98	29.893
366.35	30.426
366.71	29.458
367.07	29.483
367.43	30.453
367.79	30.090
368.15	30.309
368.51	30.591
368.87	30.495
369.23	28.541
369.59	30.867
369.95	30.552
370.31	29.847
370.67	29.978
371.03	31.180
371.39	31.157
371.75	31.143
372.11	31.268
372.47	30.642
372.83	31.761
373.19	31.151
373.55	31.358
373.91	30.622
374.27	31.674
374.63	31.437
374.99	31.476
375.35	30.959
375.71	30.435
376.07	31.391
376.42	30.949
376.78	32.034
377.14	32.475
377.50	31.160
377.86	32.205
378.22	32.048
378.58	31.526
378.94	32.563
379.30	32.230
379.66	33.107
380.02	32.721
380.38	32.349
380.74	32.337
381.09	32.268
381.45	32.890
381.81	31.547
382.17	30.813
382.53	32.738
382.89	31.182
383.25	32.778
383.61	32.748
383.97	32.062
384.32	32.010
384.68	32.634
385.04	31.827
385.40	33.375
385.76	32.603
386.12	33.505
386.48	32.038
386.83	33.292
387.19	33.128
387.55	33.354
387.91	34.071
388.27	32.306
388.62	32.647
388.98	33.730
389.34	32.393
389.70	32.601
390.06	32.375
390.42	32.861
390.77	32.095
391.13	33.081
391.49	32.385
391.85	32.524
392.20	32.143
392.56	33.016
392.92	32.124
393.28	32.655
393.64	31.865
393.99	32.313
394.35	33.395
394.71	32.885
395.07	31.447
395.42	33.333
395.78	33.012
396.14	32.530
396.50	32.340
396.85	32.186
397.21	32.335
397.57	32.609
397.92	32.395
398.28	32.882
398.64	32.362
399.00	33.203
399.35	32.747
399.71	32.499
400.07	33.675
400.42	32.978
400.78	32.628
401.14	31.821
401.49	32.355
401.85	32.862
402.21	32.570
402.57	32.557
402.92	33.229
403.28	32.770
403.63	33.044
403.99	31.798
404.35	32.294
404.70	32.205
405.06	32.296
405.42	30.842
405.77	31.048
406.13	31.657
406.49	32.115
406.84	32.234
407.20	31.557
407.55	32.792
407.91	31.105
408.27	31.753
408.62	32.106
408.98	30.518
409.34	31.621
409.69	32.554
410.05	31.654
410.40	30.432
410.76	30.566
411.11	31.779
411.47	32.382
411.83	30.942
412.18	31.738
412.54	31.391
412.89	30.721
413.25	30.147
413.60	31.034
413.96	30.462
414.31	31.011
414.67	30.540
415.03	31.123
415.38	31.176
415.74	30.669
416.09	31.262
416.45	29.665
416.80	30.537
417.16	30.769
417.51	29.940
417.87	29.365
418.22	29.476
418.58	29.763
418.93	30.006
419.29	29.901
419.64	29.707
420.00	29.841
420.35	30.245
420.71	29.068
421.06	29.090
421.42	30.900
421.77	29.480
422.12	29.169
422.48	29.498
422.83	30.183
423.19	29.327
423.54	29.800
423.90	28.444
424.25	28.943
424.61	28.589
424.96	28.031
425.31	28.155
425.67	29.571
426.02	28.975
426.38	29.104
426.73	28.833
427.09	28.580
427.44	28.949
427.79	28.385
428.15	28.563
428.50	27.311
428.85	29.028
429.21	27.687
429.56	29.171
429.92	28.839
430.27	28.323
430.62	27.912
430.98	28.715
431.33	28.694
431.68	28.381
432.04	27.887
432.39	27.252
432.74	27.039
433.10	27.600
433.45	26.746
433.80	28.218
434.16	26.379
434.51	26.250
434.86	26.502
435.22	26.995
435.57	27.211
435.92	25.935
436.28	26.907
436.63	25.404
436.98	27.086
437.34	26.679
437.69	26.623
438.04	26.033
438.39	26.837
438.75	26.698
439.10	26.721
439.45	26.332
439.81	26.108
440.16	26.551
440.51	25.268
440.86	26.200
441.22	24.957
441.57	24.620
441.92	25.765
442.27	25.325
442.63	25.780
442.98	24.537
443.33	25.903
443.68	24.934
444.03	25.186
444.39	25.434
444.74	24.959
445.09	25.275
445.44	25.296
445.79	24.884
446.15	25.180
446.50	25.165
446.85	24.906
447.20	24.778
447.55	25.126
447.91	23.652
448.26	23.785
448.61	24.396
448.96	24.487
449.31	25.471
449.66	23.887
450.02	24.503
450.37	23.502
450.72	23.249
451.07	23.323
451.42	23.581
451.77	23.554
452.12	24.183
452.47	23.693
452.83	23.703
453.18	23.552
453.53	23.644
453.88	23.554
454.23	24.351
454.58	23.775
454.93	23.412
455.28	23.057
455.63	22.895
455.98	22.763
456.34	22.886
456.69	23.323
457.04	22.291
457.39	22.850
457.74	22.202
458.09	22.512
458.44	22.444
458.79	21.362
459.14	22.360
459.49	22.073
459.84	22.322
460.19	22.869
460.54	22.384
460.89	22.917
461.24	21.887
461.59	22.162
461.94	21.871
462.29	22.059
462.64	21.372
462.99	21.865
463.34	22.238
463.69	22.745
464.04	21.369
464.39	21.538
464.74	21.253
465.09	21.575
465.44	20.595
465.79	20.874
466.14	20.468
466.49	20.997
466.84	21.219
467.19	20.191
467.54	20.285
467.89	20.930
468.24	20.590
468.59	20.650
468.94	21.009
469.29	19.828
469.64	19.874
469.99	20.621
470.34	21.106
470.68	19.257
471.03	19.464
471.38	20.654
471.73	20.027
472.08	20.893
472.43	20.515
472.78	20.757
473.13	19.327
473.48	18.917
473.83	19.460
474.17	19.661
474.52	19.223
474.87	19.300
475.22	19.444
475.57	19.409
475.92	18.975
476.27	18.415
476.61	18.969
476.96	18.961
477.31	18.393
477.66	18.927
478.01	19.286
478.36	18.801
478.70	18.314
479.05	18.812
479.40	18.721
479.75	18.810
480.10	18.256
480.45	18.195
480.79	18.218
481.14	18.085
481.49	18.994
481.84	18.096
482.19	18.018
482.53	17.905
482.88	17.785
483.23	17.132
483.58	18.526
483.92	18.045
484.27	17.429
484.62	17.177
484.97	17.959
485.31	17.196
485.66	16.713
486.01	16.974
486.36	17.094
486.70	17.045
487.05	17.432
487.40	17.551
487.75	17.313
488.09	17.423
488.44	17.105
488.79	17.865
489.13	17.177
489.48	17.272
489.83	16.883
490.17	16.704
490.52	17.719
490.87	16.458
491.22	16.675
491.56	17.489
491.91	16.419
492.26	16.925
492.60	16.162
492.95	16.764
493.30	16.715
493.64	16.259
493.99	16.377
494.34	17.052
494.68	15.704
495.03	15.415
495.37	16.156
495.72	16.591
496.07	16.171
496.41	15.161
496.76	15.905
497.11	15.399
497.45	16.294
497.80	16.355
498.14	16.222
498.49	15.431
498.84	15.688
499.18	15.530
499.53	15.510
499.87	15.041
500.22	15.281
500.56	15.296
500.91	15.845
501.26	15.567
501.60	15.000
501.95	15.860
502.29	15.680
502.64	15.574
502.98	15.848
503.33	15.328
503.67	15.774
504.02	15.245
504.36	14.710
504.71	15.244
505.06	14.977
505.40	15.000
505.75	15.361
506.09	14.308
506.44	15.222
506.78	15.236
507.13	15.437
507.47	14.528
507.82	14.809
508.16	14.881
508.51	14.618
508.85	14.515
509.19	13.651
509.54	15.013
509.88	14.140
510.23	14.211
510.57	13.877
510.92	14.278
511.26	13.806
511.61	14.160
511.95	14.333
512.30	14.436
512.64	14.018
512.98	14.017
513.33	13.577
513.67	14.310
514.02	14.595
514.36	14.270
514.70	13.799
515.05	14.394
515.39	13.974
515.74	13.440
516.08	13.628
516.42	13.652
516.77	13.181
517.11	13.992
517.46	14.046
517.80	14.407
518.14	13.288
518.49	13.502
518.83	13.484
519.17	13.554
519.52	14.536
519.86	13.358
520.20	14.251
520.55	13.308
520.89	13.283
521.23	14.487
521.58	13.085
521.92	14.079
522.26	12.882
522.61	14.027
522.95	12.759
523.29	13.206
523.64	13.668
523.98	12.452
524.32	13.296
524.66	13.312
525.01	12.713
525.35	13.101
525.69	13.386
526.04	12.834
526.38	13.576
526.72	13.018
527.06	12.444
527.41	12.574
527.75	13.685
528.09	12.934
528.43	13.297
528.78	12.532
529.12	12.807
529.46	12.732
529.80	13.010
530.15	12.613
530.49	12.466
530.83	12.390
531.17	12.055
531.51	12.138
531.86	12.534
532.20	12.336
532.54	12.690
532.88	12.253
533.22	12.121
533.57	11.325
533.91	12.581
534.25	13.021
534.59	12.291
534.93	11.480
535.27	12.102
535.62	12.039
535.96	12.427
536.30	12.699
536.64	12.030
536.98	11.703
537.32	12.028
537.66	11.425
538.01	11.234
538.35	12.017
538.69	11.706
539.03	11.141
539.37	11.335
539.71	11.664
540.05	12.078
540.39	10.668
540.73	12.360
541.07	11.973
541.42	11.852
541.76	12.652
542.10	11.171
542.44	11.642
542.78	11.381
543.12	11.523
543.46	11.057
543.80	10.726
544.14	11.769
544.48	9.423
544.82	10.962
545.16	11.359
545.50	12.019
545.84	11.851
546.18	11.360
546.52	11.221
546.86	11.449
547.20	10.579
547.54	11.508
547.88	11.134
548.22	11.466
548.56	10.274
548.90	11.637
549.24	11.667
549.58	11.388
549.92	11.152
550.26	13.137
550.60	9.985
550.94	9.851
551.28	11.506
551.62	11.729
551.96	11.859
552.30	9.534
552.64	10.311
552.98	10.440
553.32	11.175
553.66	11.152
554.00	10.871
554.34	10.696
554.68	10.664
555.02	10.629
555.36	10.212
555.69	9.614
556.03	10.579
556.37	10.028
556.71	10.792
557.05	10.480
557.39	10.173
557.73	11.195
558.07	10.399
558.41	10.901
558.75	10.393
559.08	9.783
559.42	10.779
559.76	10.550
560.10	9.377
560.44	10.096
560.78	9.856
561.12	10.091
561.45	9.796
561.79	9.354
562.13	10.056
562.47	10.071
562.81	9.812
563.15	10.482
563.48	9.704
563.82	10.739
564.16	11.104
564.50	11.126
564.84	10.000
565.17	10.132
565.51	9.759
565.85	8.261
566.19	9.801
566.52	9.830
566.86	9.355
567.20	9.652
567.54	9.729
567.88	9.127
568.21	9.560
568.55	10.381
568.89	9.222
569.23	9.716
569.56	9.220
569.90	10.353
570.24	9.422
570.57	9.724
570.91	9.720
571.25	8.981
571.59	9.110
571.92	9.446
572.26	9.712
572.60	9.701
572.93	8.872
573.27	9.171
573.61	9.963
573.95	9.201
574.28	9.616
574.62	9.306
574.96	9.547
575.29	8.977
575.63	9.062
575.97	9.592
576.30	9.334
576.64	9.353
576.98	9.132
577.31	9.342
577.65	8.880
577.98	9.435
578.32	9.052
578.66	8.989
578.99	9.131
579.33	9.470
579.67	8.936
580.00	9.093
580.34	9.501
580.67	9.456
581.01	9.025
581.35	8.892
581.68	9.161
582.02	8.775
582.35	9.059
582.69	9.005
583.02	9.281
583.36	9.423
583.70	9.315
584.03	9.437
584.37	9.044
584.70	9.294
585.04	9.004
585.37	8.627
585.71	9.238
586.04	8.997
586.38	8.708
586.72	8.963
587.05	9.193
587.39	9.340
587.72	8.856
588.06	8.810
588.39	9.320
588.73	8.694
589.06	8.891
589.40	9.047
589.73	8.516
590.07	9.223
590.40	9.390
590.73	8.874
591.07	9.695
591.40	8.826
591.74	8.626
592.07	8.809
592.41	8.451
592.74	9.144
593.08	8.513
593.41	8.510
593.75	8.495
594.08	8.290
594.41	8.629
594.75	8.771
595.08	8.476
595.42	8.733
595.75	8.894
596.09	9.007
596.42	8.619
596.75	8.293
597.09	8.872
597.42	8.659
597.75	8.978
598.09	8.470
598.42	8.949
598.76	8.606
599.09	8.563
599.42	8.535
599.76	8.524
600.09	8.321
600.42	8.588
600.76	8.315
601.09	8.362
601.42	8.428
601.76	8.687
602.09	8.877
602.42	8.791
602.76	8.389
603.09	8.460
603.42	8.437
603.76	8.418
604.09	8.024
604.42	8.079
604.76	8.250
605.09	8.790
605.42	9.267
605.75	7.794
606.09	8.237
606.42	8.188
606.75	8.095
607.09	7.801
607.42	8.625
607.75	7.965
608.08	8.656
608.42	7.919
608.75	8.457
609.08	8.035
609.41	8.197
609.75	7.363
610.08	8.383
610.41	8.649
610.74	8.229
611.07	8.367
611.41	9.314
611.74	8.903
612.07	7.921
612.40	8.649
612.73	7.903
613.07	8.149
613.40	8.095
613.73	8.017
614.06	7.629
614.39	7.727
614.72	8.440
615.06	7.667
615.39	8.113
615.72	7.343
616.05	7.207
616.38	8.305
616.71	7.798
617.05	8.047
617.38	8.441
617.71	7.782
618.04	7.617
618.37	8.013
618.70	7.827
619.03	7.766
619.36	8.327
619.69	8.553
620.03	7.915
620.36	8.281
620.69	7.066
621.02	7.077
621.35	7.114
621.68	8.557
622.01	6.634
622.34	7.534
622.67	8.301
623.00	8.511
623.33	7.704
623.66	7.435
623.99	7.877
624.32	8.804
624.65	8.754
624.99	7.348
625.32	9.410
625.65	7.674
625.98	7.425
626.31	8.898
626.64	7.395
626.97	7.958
627.30	7.357
627.63	7.266
627.96	6.147
628.29	8.279
628.62	8.801
628.95	7.715
629.28	7.783
629.61	9.187
629.94	7.447
630.26	8.177
630.59	8.192
630.92	7.530
631.25	6.694
631.58	6.745
631.91	6.257
632.24	6.696
632.57	6.222
632.90	8.635
633.23	5.156
633.56	8.393
633.89	8.612
634.22	10.130
634.55	8.161
634.88	7.353
635.20	8.125
635.53	6.589
635.86	7.692
636.19	8.189
636.52	6.829
636.85	7.238
637.18	6.699
637.51	7.615
637.83	8.355
638.16	5.067
638.49	7.610
638.82	7.320
639.15	7.048
639.48	7.219
639.81	7.361
640.13	7.606
640.46	6.921
640.79	7.194
641.12	6.213
641.45	5.531
641.77	6.922
642.10	6.808
642.43	8.176
642.76	5.678
643.09	7.188
643.41	8.453
643.74	5.977
644.07	6.796
644.40	7.629
644.73	5.932
645.05	5.410
645.38	5.648
645.71	7.993
646.04	4.377
646.36	7.118
646.69	5.420
647.02	5.282
647.35	6.764
647.67	6.654
648.00	4.529
648.33	6.949
648.66	4.674
648.98	6.832
649.31	6.135
649.64	5.008
649.96	7.109
650.29	5.556
650.62	6.919
650.94	6.207
651.27	6.890
651.60	6.643
651.92	6.093
652.25	5.863
652.58	7.261
652.90	4.714
653.23	2.886
653.56	5.289
653.88	4.949
654.21	5.631
654.54	5.648
654.86	5.203
655.19	6.443
655.52	8.188
655.84	6.624
656.17	8.058
656.49	11.035
656.82	10.774
657.15	8.286
657.47	6.205
657.80	4.525
658.13	5.070
658.45	7.490
658.78	7.416
659.10	6.977
659.43	7.601
659.75	6.944
660.08	6.828
660.41	5.375
660.73	7.163
661.06	5.102
661.38	3.488
661.71	5.328
662.03	7.611
662.36	4.867
662.68	7.097
663.01	9.322
663.33	5.184
663.66	3.548
663.98	6.742
664.31	3.736
664.63	2.477
664.96	4.376
665.28	8.798
665.61	6.048
665.93	5.996
666.26	6.751
666.58	5.353
666.91	6.951
667.23	2.995
667.56	6.437
667.88	5.607
668.21	5.357
668.53	6.667
668.86	5.516
669.18	4.965
669.50	5.530
669.83	3.819
670.15	5.000
670.48	4.598
670.80	6.346
671.13	5.721
671.45	4.795
671.77	2.155
672.10	5.458
672.42	5.344
672.75	4.464
673.07	4.727
673.39	5.224
673.72	6.188
674.04	4.713
674.37	5.081
674.69	4.733
675.01	7.051
675.34	6.346
675.66	8.061
675.98	3.761
676.31	4.299
676.63	6.349
676.95	4.941
677.28	5.275
677.60	5.637
677.92	5.543
678.25	5.423
678.57	6.925
678.89	4.051
679.22	6.832
679.54	7.347
679.86	5.273
680.18	5.192
680.51	3.654
680.83	5.068
681.15	7.662
681.48	4.409
681.80	7.771
682.12	3.750
682.44	4.427
682.77	4.421
683.09	3.125
683.41	4.884
683.73	5.580
684.06	6.195
684.38	3.419
684.70	3.259
685.02	5.372
685.34	4.305
685.67	5.253
685.99	6.584
686.31	7.414
686.63	3.309
686.96	7.421
687.28	4.192
687.60	6.805
687.92	4.864
688.24	4.800
688.56	5.702
688.89	4.677
689.21	4.260
689.53	4.054
689.85	5.618
690.17	5.714
690.49	3.865
690.82	3.341
691.14	3.140
691.46	4.872
691.78	4.615
692.10	5.732
692.42	5.495
692.74	5.652
693.06	1.798
693.39	3.747
693.71	6.889
694.03	7.727
694.35	6.081
694.67	6.000
694.99	5.412
695.31	5.426
695.63	6.585
695.95	4.326
696.27	0.274
696.59	2.151
696.91	6.145
697.23	3.299
697.56	6.235
697.88	7.692
698.20	4.752
698.52	5.140
698.84	5.502
699.16	4.965
699.48	5.432
699.80	6.460
700.12	5.630
700.44	2.535
700.76	5.337
701.08	4.532
701.40	7.784
701.72	6.462
702.04	2.516
702.36	3.963
702.68	2.134
703.00	7.895
703.32	1.393
703.64	5.422
703.96	2.933
704.28	1.506
704.60	4.878
704.91	3.448
705.23	5.696
705.55	4.483
705.87	3.873
706.19	1.832
706.51	1.408
706.83	0.000
707.15	1.220
707.47	6.061
707.79	4.569
708.11	4.627
708.43	4.061
708.74	4.521
709.06	3.743
709.38	4.611
709.70	5.405
710.02	4.050
710.34	-1.000
710.66	5.537
710.98	2.167
711.29	4.870
711.61	4.839
711.93	5.161
712.25	2.797
712.57	0.000
712.89	1.465
713.20	4.965
713.52	1.825
713.84	3.226
714.16	3.883
714.48	5.063
714.80	2.556
715.11	8.140
715.43	3.106
715.75	5.590
716.07	4.217
716.39	5.724
716.70	5.396
717.02	1.176
717.34	6.061
717.66	2.155
717.97	1.190
718.29	3.937
718.61	-0.429
718.93	-0.388
719.24	2.214
719.56	3.745
719.88	2.239
720.20	1.186
720.51	0.391
720.83	5.837
721.15	-6.098
721.46	-1.908
721.78	2.390
722.10	1.195
722.42	0.000
722.73	2.703
723.05	-2.857
723.37	2.521
723.68	0.000
724.00	2.553
724.32	3.766
724.63	2.058
724.95	2.564
725.27	5.485
725.58	3.292
725.90	-0.418
726.22	1.812
726.53	-2.745
726.85	6.934
727.16	0.000
727.48	3.065
727.80	4.687
728.11	1.639
728.43	4.687
728.74	1.587
729.06	0.800
729.38	2.372
729.69	7.117
730.01	2.230
730.32	3.690
730.64	-0.758
730.96	5.944
731.27	-0.334
731.59	1.270
731.90	1.942
732.22	-0.641
732.53	0.676
732.85	1.678
733.16	5.611
733.48	2.703
733.80	2.703
734.11	8.784
734.43	2.786
734.74	3.904
735.06	3.746
735.37	3.040
735.69	3.560
736.00	2.970
736.32	2.128
736.63	1.724
736.95	4.795
737.26	1.034
737.58	5.208
737.89	6.529
738.21	0.000
738.52	0.380
738.83	6.531
739.15	4.219
739.46	1.167
739.78	1.056
740.09	3.082
740.41	3.214
740.72	0.355
741.04	1.200
741.35	-1.316
741.66	4.444
741.98	4.808
742.29	4.950
742.61	-0.488
742.92	4.386
743.23	-0.943
743.55	2.252
743.86	0.897
744.18	-2.451
744.49	-2.538
744.80	0.510
745.12	2.336
745.43	2.370
745.74	6.306
746.06	2.336
746.37	2.294
746.68	5.769
747.00	-1.435
747.31	1.923
747.62	0.459
747.94	4.367
748.25	4.128
748.56	4.889
748.88	4.695
749.19	4.762
749.50	2.427
749.82	-1.408
750.13	1.250
750.44	0.769
750.75	-1.845
751.07	1.779
751.38	2.482
751.69	1.544
752.01	5.078
752.32	-0.385
752.63	4.104
752.94	3.600
753.26	2.510
753.57	5.417
753.88	2.834
754.19	5.179
754.51	5.639
754.82	2.930
755.13	0.000
755.44	0.000
755.75	0.800
756.07	-2.583
756.38	1.799
756.69	3.072
757.00	2.181
757.31	4.854
757.63	0.617
757.94	5.085
758.25	7.407
758.56	2.717
758.87	3.274
759.18	6.625
759.50	1.347
759.81	4.682
760.12	4.923
760.43	2.381
760.74	4.520
761.05	2.762
761.36	1.719
761.67	2.719
761.99	-0.344
762.30	2.920
762.61	3.704
762.92	5.128
763.23	6.557
763.54	2.165
763.85	-0.408
764.16	-3.252
764.47	2.400
764.78	4.286
765.10	2.295
765.41	1.520
765.72	2.174
766.03	4.290
766.34	1.923
766.65	1.674
766.96	-4.225
767.27	3.960
767.58	-2.247
767.89	3.086
768.20	0.552
768.51	4.523
768.82	5.769
769.13	3.540
769.44	6.695
769.75	-0.427
770.06	1.345
770.37	-1.961
770.68	2.913
770.99	-0.971
771.30	2.521
771.61	2.449
771.92	8.299
772.23	3.604
772.54	-2.210
772.85	-4.070
773.16	0.000
773.47	-3.550
773.78	1.149
774.09	1.250
774.39	1.242
774.70	-1.361
775.01	5.517
775.32	3.571
775.63	-2.256
775.94	-3.759
776.25	-2.400
776.56	-4.959
776.87	-3.175
777.18	-14.414
777.48	0.000
777.79	-3.150
778.10	-0.917
778.41	-2.632
778.72	-5.882
779.03	-10.563
779.34	6.081
779.65	-6.338
779.95	0.000
780.26	-4.317
780.57	-3.597
780.88	2.817
781.19	-9.244
781.50	0.000
781.80	2.924
782.11	-1.163
782.42	0.629
782.73	2.614
783.04	-2.069
783.34	-12.214
783.65	-8.725
783.96	-10.769
784.27	-3.571
784.57	-1.418
784.88	-12.500
785.19	2.727
785.50	-4.545
785.81	-2.857
786.11	-5.042
786.42	-5.310
786.73	-7.547
787.04	-11.009
787.34	-11.881
787.65	0.000
787.96	-7.438
788.26	2.174
788.57	-2.381
788.88	-5.691
789.19	-4.800
789.49	-6.870
789.80	0.758
790.11	-8.491
790.41	3.960
790.72	1.064
791.03	-16.304
791.33	-11.765
791.64	-12.346
791.95	-3.261
792.25	-10.227
792.56	-7.692
792.87	-11.538
793.17	-20.513
793.48	-10.714
793.79	-1.250
794.09	7.692
794.40	-3.125
794.70	-4.505
795.01	-7.813
795.32	1.739
795.62	-26.087
795.93	-0.943
796.23	-10.101
796.54	-6.098
796.85	-14.286
797.15	-6.061
797.46	-23.188
797.76	-15.789
798.07	-4.545
798.37	-1.220
798.68	-6.452
798.99	-24.324
799.29	-4.819
799.60	-6.410
799.90	-9.231
800.21	-6.061
800.51	-13.333
800.82	-2.667
801.12	-37.500
801.43	-25.000
801.73	5.405
802.04	5.714
802.34	-24.590
802.65	-1.493
802.95	-20.000
803.26	-5.172
803.56	10.769
803.87	-3.774
804.17	-17.742
804.48	-5.882
804.78	-24.390
805.09	-14.493
805.39	-2.941
805.70	-31.915
806.00	-7.018
806.30	-8.974
806.61	0.000
806.91	-6.757
807.22	-15.789
807.52	2.273
807.83	-25.424
808.13	-19.697
808.43	-11.667
808.74	-29.310
809.04	-19.048
809.35	-40.816
809.65	-21.667
809.95	-38.776
810.26	4.225
810.56	-14.583
810.86	-2.041
811.17	-3.846
811.47	-25.532
811.77	-12.500
812.08	-9.434
812.38	-9.375
812.69	1.818
812.99	-17.073
813.29	-27.027
813.59	-48.649
813.90	-1.818
814.20	-5.455
814.50	-10.000
814.81	-21.818
815.11	-14.035
815.41	-6.977
815.72	-27.500
816.02	-14.286
816.32	-48.649
816.62	-4.167
816.93	-2.222
817.23	-40.000
817.53	-61.111
817.84	-32.432
818.14	-29.268
818.44	4.000
818.74	-12.245
819.04	-9.756
819.35	-27.778
819.65	-2.273
819.95	-88.889
820.25	-33.333
820.56	-40.476
820.86	-19.444
821.16	-27.273
821.46	-13.043
821.76	-12.069
822.07	-8.696
822.37	-12.121
822.67	9.756
822.97	-2.703
823.27	-42.857
823.57	0.000
823.88	-11.765
824.18	-13.889
824.48	-5.714
824.78	33.333
825.08	-10.714
825.38	-7.407
825.69	-16.129
825.99	-12.195
826.29	-3.704
826.59	-40.625
826.89	-45.161
827.19	-56.522
827.49	-44.444
827.79	0.000
828.09	-29.032
828.39	-10.417
828.70	-65.625
829.00	-44.828
829.30	-13.514
829.60	-62.500
829.90	-44.444
830.20	-18.750
830.50	-50.000
830.80	-64.706
831.10	-54.545
831.40	-29.412
831.70	-26.923
832.00	6.061
832.30	-8.824
832.60	-10.811
832.90	1500.000
833.20	-32.143
833.50	-95.000
833.80	-42.105
834.10	-62.500
834.40	-18.182
834.70	-86.667
835.00	-150.000
835.30	-66.667
835.60	-90.476
835.90	-28.571
836.20	-76.000
836.50	-8.333
836.80	-26.316
837.10	-10.811
837.40	6.667
837.70	-60.870
838.00	-8.333
838.30	-47.368
838.60	-170.000
838.90	-270.000
839.19	-133.333
839.49	-38.462
839.79	-78.947
840.09	-333.333
840.39	-140.000
840.69	-50.000
840.99	-19.048
841.29	-41.667
841.59	-115.385
841.88	-120.000
842.18	-92.857
842.48	-6.667
842.78	-242.857
843.08	-121.429
843.38	-250.000
843.68	-125.000
843.97	-50.000
844.27	-200.000
844.57	-209.091
844.87	-113.333
845.17	-4.545
845.47	733.333
845.76	-80.000
846.06	-58.333
846.36	-1400.000
846.66	-42.105
846.96	-68.182
847.25	-122.222
847.55	-144.444
847.85	-47.619
848.15	-100.000
848.44	-350.000
848.74	-108.333
849.04	-76.923
849.34	-350.000
849.63	-127.273
849.93	-142.857
850.23	5.000
850.53	-225.000
850.82	-72.222
851.12	-46.667
851.42	-35.294
851.71	-62.500
852.01	-35.294
852.31	-146.154
852.61	800.000
852.90	-52.941
853.20	-80.000
853.50	-12.500
853.79	-128.571
854.09	-450.000
854.39	-70.000
854.68	-27.500
854.98	-76.190
855.28	-4.000
855.57	-33.333
855.87	-41.667
856.17	-44.000
856.46	-6.250
856.76	-30.000
857.05	-28.000
857.35	-158.333
857.65	-5.882
857.94	-125.000
858.24	-141.667
858.53	-25.000
858.83	-118.182
859.13	-16.000
859.42	-121.429
859.72	-162.500
860.01	-20.833
860.31	-200.000
860.60	-12.500
860.90	-283.333
861.20	-83.333
861.49	-20.000
861.79	-87.500
862.08	200.000
862.38	-191.667
862.67	314.286
862.97	225.000
863.26	-72.727
863.56	-72.727
863.85	10.526
864.15	-29.412
864.44	-420.000
864.74	-140.000
865.03	-77.778
865.33	-78.571
865.62	207.143
865.92	0.000
866.21	-127.778
866.51	-100.000
866.80	-166.667
867.10	-212.500
867.39	-6.250
867.69	-126.667
867.98	-120.000
868.27	-5.882
868.57	0.000
868.86	350.000
869.16	-425.000
869.45	-200.000
869.75	750.000
870.04	-60.000
870.33	-1600.000
870.63	-52.632
870.92	-108.333
871.22	-900.000
871.51	-200.000
871.80	-255.556
872.10	-425.000
>>>>>End Processed Spectral Data<<<<<
