SpectraSuite Data File
++++++++++++++++++++++++++++++++++++
Date: Wed May 13 21:35:42 PDT 2015
User: schluterlab
Dark Spectrum Present: Yes
Reference Spectrum Present: Yes
Number of Sampled Component Spectra: 1
Spectrometers: USB2E3373
Integration Time (usec): 3000 (USB2E3373)
Spectra Averaged: 3 (USB2E3373)
Boxcar Smoothing: 0 (USB2E3373)
Correct for Electrical Dark: No (USB2E3373)
Strobe/Lamp Enabled: No (USB2E3373)
Correct for Detector Non-linearity: No (USB2E3373)
Correct for Stray Light: No (USB2E3373)
Number of Pixels in Processed Spectrum: 2048
>>>>>Begin Processed Spectral Data<<<<<
178.53	0.000
178.91	800.000
179.29	183.333
179.67	-1100.000
180.04	-766.667
180.42	160.000
180.80	3300.000
181.18	316.667
181.56	-300.000
181.94	-225.000
182.31	-63.636
182.69	161.538
183.07	-180.000
183.45	350.000
183.83	177.778
184.20	185.714
184.58	0.000
184.96	566.667
185.34	285.714
185.72	0.000
186.09	-1900.000
186.47	-260.000
186.85	320.000
187.23	-450.000
187.61	750.000
187.98	1800.000
188.36	12.500
188.74	0.000
189.12	-72.727
189.49	20.000
189.87	133.333
190.25	380.000
190.63	1200.000
191.00	-160.000
191.38	360.000
191.76	325.000
192.14	133.333
192.51	-52.632
192.89	633.333
193.27	275.000
193.65	-440.000
194.02	181.818
194.40	250.000
194.78	-1800.000
195.15	360.000
195.53	-280.000
195.91	-75.000
196.29	-200.000
196.66	0.000
197.04	550.000
197.42	-140.000
197.79	-30.000
198.17	-162.500
198.55	-33.333
198.92	425.000
199.30	-666.667
199.68	-50.000
200.05	850.000
200.43	250.000
200.81	-1400.000
201.18	-220.000
201.56	-66.667
201.94	800.000
202.31	-39.130
202.69	0.000
203.07	-400.000
203.44	-180.000
203.82	-600.000
204.19	-160.000
204.57	0.000
204.95	-216.667
205.32	0.000
205.70	-700.000
206.08	-250.000
206.45	-233.333
206.83	525.000
207.20	-633.333
207.58	-10.000
207.96	-900.000
208.33	-300.000
208.71	-2400.000
209.08	237.500
209.46	700.000
209.84	0.000
210.21	210.000
210.59	1800.000
210.96	340.000
211.34	1100.000
211.71	-1200.000
212.09	-316.667
212.46	-230.000
212.84	-200.000
213.22	-175.000
213.59	-1300.000
213.97	-800.000
214.34	-900.000
214.72	-84.615
215.09	275.000
215.47	177.778
215.84	1100.000
216.22	-100.000
216.59	-300.000
216.97	366.667
217.34	211.111
217.72	0.000
218.09	366.667
218.47	-800.000
218.84	-300.000
219.22	-212.500
219.59	-400.000
219.97	-475.000
220.34	-37.500
220.72	-380.000
221.09	0.000
221.47	-116.667
221.84	-800.000
222.22	0.000
222.59	1400.000
222.97	-633.333
223.34	-116.667
223.72	-1300.000
224.09	-600.000
224.46	-18.182
224.84	-125.000
225.21	-85.714
225.59	-550.000
225.96	-183.333
226.34	-10.000
226.71	-328.571
227.08	900.000
227.46	-100.000
227.83	-1400.000
228.21	-68.750
228.58	-500.000
228.95	-117.647
229.33	-12.500
229.70	-75.000
230.08	-61.538
230.45	-300.000
230.82	-133.333
231.20	242.857
231.57	-775.000
231.95	1700.000
232.32	-75.000
232.69	-58.824
233.07	-1500.000
233.44	-60.870
233.81	-1050.000
234.19	-20.833
234.56	-53.333
234.93	-60.000
235.31	-15.789
235.68	-84.615
236.05	-23.077
236.43	-27.778
236.80	-27.273
237.17	-153.333
237.55	-147.059
237.92	-65.517
238.29	-14.815
238.67	-44.444
239.04	-38.710
239.41	-17.021
239.79	-10.638
240.16	-23.256
240.53	-12.500
240.91	0.000
241.28	-16.071
241.65	-11.290
242.02	-6.579
242.40	2.899
242.77	-21.739
243.14	-16.667
243.51	-8.511
243.89	-0.962
244.26	3.774
244.63	-3.846
245.00	-11.458
245.38	-7.563
245.75	-3.279
246.12	-1.504
246.49	-8.943
246.87	-13.445
247.24	4.054
247.61	-5.960
247.98	-3.205
248.36	-2.367
248.73	-0.562
249.10	5.051
249.47	-1.075
249.84	3.684
250.22	-2.488
250.59	-0.467
250.96	0.909
251.33	-7.177
251.70	7.950
252.08	3.766
252.45	2.058
252.82	-1.141
253.19	1.556
253.56	3.237
253.94	6.050
254.31	4.577
254.68	6.040
255.05	1.980
255.42	5.245
255.79	2.454
256.16	5.047
256.54	4.444
256.91	-1.582
257.28	5.031
257.65	-1.274
258.02	2.346
258.39	4.094
258.76	3.488
259.14	0.568
259.51	2.528
259.88	2.439
260.25	3.056
260.62	1.404
260.99	1.592
261.36	3.627
261.73	2.716
262.10	2.036
262.47	2.716
262.85	1.244
263.22	2.051
263.59	2.078
263.96	4.380
264.33	1.442
264.70	3.256
265.07	5.787
265.44	3.448
265.81	2.059
266.18	1.139
266.55	3.930
266.92	5.297
267.29	5.144
267.66	3.397
268.03	5.761
268.40	0.424
268.77	4.959
269.14	4.694
269.51	6.776
269.88	3.259
270.25	3.390
270.62	3.893
270.99	4.921
271.36	5.159
271.73	2.410
272.10	2.857
272.47	4.607
272.84	7.480
273.21	3.327
273.58	2.869
273.95	3.585
274.32	5.037
274.69	3.643
275.06	6.714
275.43	4.708
275.80	2.837
276.17	3.131
276.54	3.730
276.91	5.401
277.28	1.444
277.65	3.671
278.02	5.714
278.39	3.197
278.76	5.351
279.13	5.146
279.50	4.828
279.87	2.717
280.23	3.243
280.60	2.941
280.97	4.058
281.34	5.678
281.71	3.089
282.08	3.932
282.45	4.918
282.82	4.313
283.19	4.268
283.56	5.000
283.92	4.281
284.29	3.276
284.66	3.130
285.03	1.792
285.40	6.495
285.77	4.054
286.14	5.623
286.51	5.547
286.87	4.154
287.24	3.097
287.61	4.970
287.98	3.824
288.35	3.130
288.72	3.730
289.08	5.698
289.45	3.671
289.82	4.539
290.19	4.488
290.56	4.545
290.93	3.591
291.29	4.651
291.66	3.552
292.03	4.905
292.40	4.845
292.77	5.355
293.13	4.881
293.50	6.013
293.87	4.000
294.24	5.159
294.60	4.421
294.97	5.952
295.34	3.562
295.71	2.891
296.08	3.403
296.44	3.189
296.81	4.872
297.18	3.750
297.55	4.363
297.91	5.466
298.28	4.964
298.65	4.433
299.02	5.739
299.38	2.577
299.75	3.486
300.12	3.256
300.48	4.561
300.85	5.196
301.22	3.368
301.59	4.108
301.95	4.181
302.32	3.151
302.69	3.842
303.05	4.208
303.42	4.773
303.79	4.942
304.15	4.381
304.52	5.484
304.89	3.876
305.25	3.952
305.62	5.423
305.99	4.461
306.35	5.016
306.72	4.883
307.09	4.171
307.45	5.112
307.82	4.737
308.19	3.448
308.55	4.401
308.92	5.992
309.29	5.005
309.65	6.194
310.02	5.567
310.38	5.183
310.75	3.846
311.12	5.831
311.48	5.539
311.85	6.201
312.22	6.576
312.58	6.473
312.95	6.169
313.31	7.346
313.68	6.966
314.05	6.711
314.41	7.109
314.78	8.065
315.14	7.407
315.51	7.992
315.87	7.692
316.24	8.356
316.61	10.320
316.97	7.963
317.34	9.804
317.70	9.545
318.07	11.180
318.43	10.117
318.80	10.209
319.16	10.433
319.53	9.857
319.89	11.201
320.26	11.738
320.62	11.677
320.99	11.822
321.35	11.319
321.72	12.705
322.08	12.362
322.45	13.506
322.81	14.233
323.18	14.937
323.54	14.621
323.91	14.544
324.27	15.752
324.64	14.808
325.00	15.311
325.37	17.150
325.73	16.077
326.10	16.064
326.46	17.391
326.83	17.718
327.19	17.724
327.56	19.178
327.92	18.745
328.29	20.284
328.65	20.421
329.01	19.349
329.38	20.522
329.74	20.000
330.11	20.649
330.47	20.573
330.84	19.946
331.20	20.666
331.56	21.739
331.93	21.189
332.29	22.589
332.66	21.356
333.02	22.068
333.38	22.544
333.75	21.843
334.11	23.698
334.48	23.627
334.84	21.555
335.20	23.242
335.57	22.367
335.93	22.251
336.29	21.979
336.66	23.419
337.02	22.696
337.38	21.758
337.75	22.567
338.11	21.435
338.47	22.260
338.84	23.711
339.20	23.545
339.56	22.782
339.93	24.201
340.29	22.716
340.65	23.781
341.02	23.710
341.38	24.240
341.74	22.269
342.11	22.626
342.47	22.510
342.83	22.876
343.20	22.843
343.56	21.913
343.92	22.421
344.28	23.945
344.65	22.939
345.01	23.487
345.37	23.355
345.73	23.938
346.10	22.953
346.46	22.439
346.82	22.311
347.19	22.152
347.55	23.748
347.91	22.136
348.27	21.767
348.63	22.837
349.00	22.248
349.36	23.155
349.72	23.279
350.08	23.089
350.45	21.691
350.81	22.613
351.17	23.711
351.53	21.995
351.89	21.287
352.26	20.927
352.62	22.403
352.98	21.805
353.34	21.498
353.70	22.897
354.07	21.569
354.43	22.084
354.79	22.756
355.15	22.904
355.51	22.399
355.87	22.283
356.24	22.231
356.60	22.987
356.96	21.873
357.32	22.136
357.68	21.925
358.04	21.800
358.40	21.395
358.77	21.713
359.13	21.401
359.49	21.650
359.85	22.365
360.21	21.588
360.57	21.369
360.93	21.624
361.29	22.798
361.66	21.944
362.02	21.497
362.38	21.196
362.74	21.537
363.10	21.330
363.46	20.605
363.82	22.025
364.18	20.595
364.54	21.298
364.90	21.533
365.26	20.665
365.62	22.017
365.98	21.423
366.35	20.922
366.71	20.827
367.07	21.616
367.43	21.254
367.79	21.821
368.15	20.956
368.51	20.183
368.87	20.656
369.23	21.922
369.59	21.494
369.95	20.319
370.31	20.642
370.67	19.696
371.03	22.272
371.39	21.505
371.75	21.214
372.11	20.370
372.47	21.341
372.83	21.151
373.19	20.719
373.55	21.171
373.91	20.934
374.27	20.401
374.63	20.982
374.99	20.891
375.35	20.274
375.71	20.177
376.07	20.905
376.42	21.791
376.78	21.070
377.14	20.475
377.50	21.578
377.86	21.182
378.22	20.796
378.58	20.870
378.94	20.437
379.30	20.987
379.66	20.592
380.02	20.650
380.38	20.542
380.74	20.980
381.09	21.291
381.45	20.314
381.81	21.010
382.17	19.912
382.53	20.738
382.89	20.446
383.25	20.185
383.61	20.400
383.97	20.750
384.32	20.227
384.68	20.790
385.04	19.670
385.40	21.046
385.76	21.229
386.12	20.336
386.48	19.812
386.83	20.338
387.19	21.221
387.55	20.785
387.91	20.603
388.27	19.605
388.62	20.474
388.98	20.776
389.34	20.990
389.70	20.330
390.06	19.563
390.42	20.941
390.77	20.756
391.13	20.139
391.49	19.734
391.85	20.383
392.20	19.862
392.56	20.444
392.92	19.251
393.28	20.628
393.64	19.633
393.99	19.584
394.35	19.444
394.71	20.192
395.07	17.925
395.42	20.902
395.78	18.726
396.14	20.355
396.50	20.482
396.85	20.523
397.21	19.101
397.57	19.068
397.92	19.521
398.28	20.417
398.64	19.976
399.00	19.196
399.35	19.750
399.71	19.161
400.07	19.578
400.42	19.060
400.78	19.517
401.14	18.332
401.49	17.975
401.85	18.366
402.21	19.876
402.57	19.681
402.92	19.900
403.28	19.137
403.63	19.033
403.99	18.874
404.35	18.953
404.70	18.308
405.06	19.084
405.42	18.467
405.77	18.606
406.13	18.457
406.49	18.095
406.84	17.949
407.20	18.650
407.55	18.701
407.91	18.465
408.27	17.904
408.62	18.969
408.98	18.866
409.34	18.193
409.69	18.648
410.05	18.532
410.40	16.981
410.76	18.712
411.11	19.154
411.47	18.912
411.83	17.592
412.18	18.514
412.54	18.296
412.89	17.492
413.25	17.699
413.60	16.803
413.96	17.728
414.31	18.064
414.67	17.333
415.03	17.862
415.38	17.107
415.74	17.479
416.09	17.911
416.45	17.635
416.80	16.913
417.16	17.544
417.51	17.013
417.87	17.989
418.22	17.453
418.58	17.806
418.93	17.514
419.29	17.360
419.64	17.748
420.00	17.587
420.35	17.872
420.71	16.575
421.06	17.159
421.42	17.579
421.77	18.613
422.12	17.364
422.48	17.176
422.83	17.307
423.19	17.654
423.54	17.550
423.90	17.280
424.25	17.793
424.61	17.622
424.96	17.800
425.31	17.443
425.67	18.342
426.02	18.905
426.38	17.475
426.73	17.410
427.09	18.074
427.44	18.790
427.79	18.171
428.15	18.410
428.50	17.341
428.85	18.389
429.21	17.501
429.56	18.704
429.92	17.803
430.27	17.945
430.62	17.524
430.98	18.086
431.33	17.894
431.68	18.530
432.04	18.423
432.39	17.783
432.74	17.781
433.10	18.361
433.45	17.633
433.80	17.701
434.16	17.586
434.51	18.098
434.86	18.846
435.22	18.053
435.57	17.936
435.92	18.637
436.28	17.477
436.63	18.360
436.98	19.154
437.34	19.292
437.69	18.359
438.04	17.770
438.39	18.555
438.75	18.534
439.10	19.260
439.45	18.039
439.81	19.397
440.16	18.783
440.51	18.490
440.86	19.087
441.22	19.564
441.57	19.740
441.92	19.440
442.27	19.697
442.63	19.160
442.98	19.734
443.33	20.203
443.68	19.294
444.03	19.970
444.39	20.476
444.74	19.547
445.09	20.650
445.44	21.070
445.79	20.289
446.15	20.300
446.50	21.586
446.85	21.486
447.20	21.537
447.55	22.272
447.91	21.685
448.26	21.269
448.61	21.634
448.96	21.754
449.31	22.673
449.66	21.862
450.02	21.944
450.37	21.680
450.72	21.929
451.07	21.442
451.42	22.583
451.77	22.155
452.12	22.579
452.47	22.531
452.83	22.406
453.18	22.788
453.53	21.816
453.88	23.675
454.23	22.868
454.58	23.591
454.93	23.284
455.28	23.443
455.63	23.206
455.98	23.676
456.34	23.204
456.69	23.770
457.04	22.786
457.39	23.572
457.74	23.579
458.09	23.934
458.44	23.443
458.79	22.295
459.14	23.708
459.49	24.756
459.84	23.450
460.19	23.649
460.54	23.601
460.89	23.986
461.24	24.538
461.59	24.698
461.94	24.589
462.29	24.203
462.64	24.274
462.99	25.084
463.34	25.207
463.69	25.644
464.04	24.370
464.39	24.771
464.74	23.894
465.09	24.675
465.44	25.028
465.79	24.957
466.14	24.401
466.49	24.927
466.84	25.105
467.19	25.096
467.54	24.563
467.89	25.079
468.24	24.892
468.59	25.048
468.94	24.713
469.29	25.512
469.64	25.244
469.99	26.138
470.34	24.815
470.68	25.874
471.03	25.317
471.38	26.495
471.73	25.720
472.08	25.636
472.43	27.111
472.78	25.625
473.13	24.011
473.48	26.027
473.83	26.303
474.17	25.716
474.52	26.019
474.87	25.151
475.22	25.242
475.57	25.823
475.92	26.609
476.27	25.991
476.61	25.311
476.96	26.099
477.31	26.268
477.66	26.045
478.01	25.604
478.36	26.158
478.70	25.456
479.05	26.415
479.40	26.053
479.75	25.717
480.10	25.701
480.45	26.042
480.79	27.078
481.14	26.190
481.49	26.838
481.84	25.118
482.19	26.586
482.53	26.667
482.88	26.654
483.23	26.179
483.58	26.890
483.92	25.632
484.27	25.984
484.62	26.010
484.97	26.421
485.31	25.794
485.66	24.705
486.01	25.207
486.36	25.337
486.70	25.696
487.05	26.344
487.40	26.222
487.75	26.931
488.09	26.525
488.44	26.744
488.79	27.441
489.13	26.759
489.48	26.507
489.83	26.664
490.17	26.237
490.52	27.910
490.87	27.306
491.22	27.791
491.56	27.743
491.91	26.980
492.26	27.466
492.60	26.936
492.95	28.183
493.30	26.550
493.64	26.187
493.99	27.585
494.34	27.794
494.68	27.064
495.03	27.569
495.37	27.445
495.72	27.769
496.07	28.057
496.41	26.766
496.76	27.879
497.11	27.606
497.45	27.286
497.80	28.016
498.14	28.010
498.49	27.433
498.84	28.340
499.18	27.775
499.53	27.917
499.87	26.783
500.22	28.472
500.56	28.185
500.91	28.421
501.26	27.586
501.60	28.039
501.95	26.977
502.29	27.621
502.64	27.146
502.98	27.794
503.33	28.127
503.67	28.286
504.02	28.382
504.36	27.935
504.71	27.591
505.06	28.324
505.40	27.474
505.75	28.739
506.09	27.695
506.44	28.327
506.78	28.035
507.13	28.690
507.47	27.996
507.82	28.414
508.16	28.285
508.51	27.944
508.85	27.216
509.19	27.884
509.54	29.062
509.88	29.194
510.23	29.316
510.57	27.913
510.92	28.664
511.26	29.098
511.61	28.156
511.95	29.107
512.30	27.929
512.64	29.569
512.98	28.199
513.33	28.056
513.67	28.734
514.02	29.133
514.36	29.326
514.70	28.406
515.05	29.725
515.39	29.009
515.74	28.893
516.08	27.906
516.42	28.514
516.77	28.764
517.11	29.042
517.46	29.652
517.80	29.237
518.14	28.536
518.49	27.848
518.83	28.640
519.17	29.096
519.52	28.468
519.86	29.387
520.20	29.290
520.55	28.918
520.89	30.297
521.23	30.256
521.58	29.583
521.92	28.410
522.26	29.473
522.61	29.282
522.95	28.627
523.29	29.587
523.64	30.006
523.98	29.670
524.32	29.175
524.66	28.312
525.01	30.275
525.35	29.822
525.69	30.351
526.04	28.730
526.38	29.318
526.72	29.783
527.06	28.562
527.41	28.392
527.75	28.705
528.09	30.429
528.43	29.715
528.78	29.522
529.12	29.884
529.46	29.367
529.80	28.803
530.15	29.022
530.49	29.582
530.83	29.316
531.17	29.932
531.51	29.265
531.86	29.472
532.20	29.497
532.54	29.103
532.88	28.999
533.22	29.832
533.57	29.536
533.91	30.581
534.25	30.078
534.59	28.893
534.93	28.763
535.27	29.363
535.62	29.605
535.96	29.928
536.30	29.920
536.64	29.323
536.98	29.292
537.32	29.253
537.66	29.831
538.01	30.097
538.35	28.729
538.69	28.896
539.03	29.128
539.37	29.108
539.71	29.263
540.05	28.543
540.39	28.217
540.73	28.701
541.07	29.932
541.42	29.899
541.76	29.364
542.10	28.978
542.44	28.898
542.78	29.424
543.12	28.976
543.46	29.648
543.80	30.075
544.14	30.145
544.48	28.534
544.82	28.917
545.16	28.871
545.50	29.237
545.84	28.612
546.18	28.261
546.52	29.570
546.86	28.693
547.20	28.163
547.54	29.307
547.88	28.543
548.22	27.948
548.56	28.753
548.90	29.229
549.24	29.514
549.58	29.181
549.92	30.227
550.26	29.963
550.60	29.429
550.94	29.030
551.28	29.674
551.62	29.023
551.96	28.477
552.30	29.185
552.64	28.814
552.98	29.972
553.32	29.704
553.66	29.714
554.00	28.294
554.34	28.791
554.68	29.978
555.02	28.967
555.36	30.106
555.69	28.478
556.03	28.806
556.37	28.094
556.71	29.012
557.05	29.520
557.39	29.465
557.73	28.517
558.07	29.465
558.41	29.599
558.75	29.330
559.08	28.468
559.42	30.842
559.76	29.664
560.10	30.131
560.44	29.845
560.78	29.281
561.12	28.732
561.45	28.367
561.79	29.574
562.13	30.098
562.47	29.143
562.81	29.582
563.15	28.895
563.48	28.493
563.82	29.549
564.16	29.181
564.50	29.172
564.84	29.257
565.17	30.000
565.51	28.610
565.85	29.047
566.19	29.934
566.52	29.030
566.86	28.445
567.20	29.016
567.54	28.037
567.88	28.723
568.21	28.300
568.55	29.004
568.89	28.764
569.23	28.506
569.56	28.744
569.90	28.298
570.24	27.906
570.57	27.772
570.91	27.730
571.25	27.898
571.59	27.721
571.92	28.366
572.26	28.423
572.60	28.026
572.93	28.397
573.27	28.029
573.61	29.139
573.95	28.133
574.28	28.100
574.62	28.092
574.96	28.617
575.29	28.059
575.63	28.372
575.97	28.723
576.30	28.359
576.64	28.766
576.98	28.809
577.31	28.686
577.65	28.518
577.98	28.802
578.32	28.382
578.66	28.972
578.99	29.108
579.33	29.585
579.67	29.022
580.00	29.193
580.34	28.454
580.67	29.544
581.01	29.314
581.35	29.013
581.68	28.582
582.02	29.027
582.35	29.456
582.69	29.874
583.02	29.930
583.36	29.823
583.70	30.177
584.03	29.604
584.37	29.372
584.70	29.348
585.04	30.152
585.37	29.623
585.71	29.932
586.04	30.025
586.38	29.597
586.72	29.784
587.05	30.034
587.39	29.487
587.72	30.638
588.06	30.397
588.39	30.479
588.73	30.084
589.06	30.650
589.40	30.581
589.73	30.435
590.07	30.623
590.40	31.655
590.73	31.767
591.07	31.300
591.40	30.870
591.74	31.036
592.07	31.949
592.41	31.403
592.74	31.366
593.08	30.769
593.41	31.214
593.75	31.169
594.08	31.364
594.41	31.115
594.75	31.372
595.08	31.927
595.42	31.317
595.75	31.779
596.09	32.448
596.42	31.413
596.75	32.514
597.09	32.939
597.42	33.333
597.75	31.689
598.09	32.514
598.42	33.199
598.76	32.914
599.09	32.573
599.42	32.175
599.76	32.783
600.09	32.643
600.42	32.279
600.76	32.262
601.09	32.467
601.42	32.967
601.76	31.699
602.09	32.996
602.42	33.347
602.76	33.473
603.09	33.018
603.42	32.707
603.76	32.970
604.09	32.806
604.42	31.980
604.76	33.392
605.09	32.805
605.42	34.953
605.75	32.762
606.09	32.947
606.42	33.167
606.75	33.550
607.09	33.688
607.42	33.231
607.75	32.823
608.08	33.589
608.42	34.021
608.75	33.731
609.08	33.611
609.41	33.731
609.75	34.241
610.08	34.172
610.41	33.479
610.74	34.119
611.07	34.619
611.41	34.442
611.74	34.317
612.07	35.279
612.40	34.432
612.73	33.864
613.07	34.812
613.40	35.463
613.73	35.157
614.06	33.831
614.39	34.519
614.72	34.314
615.06	35.389
615.39	34.713
615.72	32.883
616.05	33.615
616.38	34.651
616.71	33.713
617.05	35.381
617.38	34.750
617.71	34.436
618.04	35.040
618.37	35.962
618.70	34.282
619.03	34.914
619.36	35.231
619.69	35.599
620.03	34.417
620.36	33.751
620.69	33.976
621.02	35.385
621.35	36.059
621.68	34.719
622.01	35.518
622.34	34.893
622.67	34.534
623.00	35.410
623.33	35.826
623.66	34.201
623.99	35.784
624.32	34.923
624.65	36.573
624.99	35.342
625.32	36.072
625.65	36.202
625.98	35.308
626.31	35.673
626.64	35.856
626.97	36.678
627.30	35.928
627.63	36.419
627.96	33.853
628.29	37.395
628.62	36.267
628.95	36.874
629.28	37.044
629.61	35.981
629.94	35.687
630.26	37.241
630.59	36.963
630.92	35.040
631.25	36.663
631.58	37.259
631.91	34.571
632.24	35.895
632.57	35.333
632.90	36.756
633.23	37.410
633.56	36.930
633.89	37.799
634.22	39.458
634.55	38.124
634.88	35.172
635.20	38.000
635.53	37.597
635.86	38.462
636.19	36.600
636.52	36.098
636.85	37.515
637.18	35.323
637.51	38.327
637.83	38.642
638.16	36.800
638.49	36.983
638.82	36.601
639.15	38.431
639.48	38.369
639.81	36.389
640.13	36.479
640.46	37.712
640.79	37.266
641.12	37.278
641.45	36.827
641.77	34.610
642.10	38.275
642.43	36.321
642.76	36.278
643.09	37.540
643.41	37.480
643.74	38.449
644.07	37.379
644.40	36.318
644.73	37.119
645.05	39.965
645.38	37.209
645.71	38.776
646.04	35.354
646.36	38.194
646.69	37.587
647.02	40.255
647.35	40.768
647.67	40.481
648.00	39.674
648.33	36.102
648.66	37.396
648.98	36.957
649.31	37.270
649.64	35.055
649.96	36.967
650.29	38.072
650.62	37.397
650.94	36.034
651.27	39.576
651.60	40.909
651.92	37.993
652.25	37.856
652.58	37.459
652.90	37.542
653.23	35.993
653.56	35.372
653.88	36.348
654.21	34.812
654.54	35.548
654.86	36.423
655.19	35.014
655.52	37.589
655.84	33.934
656.17	40.221
656.49	52.795
656.82	52.434
657.15	39.881
657.47	29.792
657.80	22.142
658.13	23.814
658.45	34.801
658.78	34.841
659.10	34.714
659.43	34.576
659.75	35.208
660.08	35.379
660.41	35.193
660.73	35.950
661.06	38.435
661.38	35.465
661.71	39.344
662.03	36.998
662.36	36.062
662.68	38.280
663.01	39.195
663.33	37.581
663.66	36.364
663.98	37.753
664.31	38.681
664.63	36.261
664.96	38.512
665.28	39.270
665.61	37.365
665.93	37.259
666.26	38.397
666.58	38.116
666.91	38.117
667.23	38.249
667.56	39.080
667.88	38.785
668.21	34.821
668.53	35.632
668.86	37.650
669.18	38.771
669.50	38.018
669.83	37.947
670.15	38.571
670.48	37.241
670.80	37.856
671.13	37.986
671.45	36.758
671.77	40.517
672.10	35.088
672.42	36.450
672.75	35.357
673.07	35.818
673.39	37.500
673.72	38.323
674.04	39.344
674.37	39.431
674.69	36.008
675.01	35.897
675.34	37.199
675.66	35.294
675.98	37.168
676.31	35.747
676.63	40.590
676.95	36.471
677.28	35.550
677.60	38.235
677.92	38.359
678.25	38.395
678.57	38.697
678.89	38.166
679.22	36.439
679.54	38.163
679.86	37.109
680.18	36.154
680.51	36.923
680.83	33.723
681.15	37.328
681.48	36.473
681.80	35.787
682.12	36.042
682.44	35.211
682.77	35.368
683.09	34.598
683.41	34.884
683.73	34.598
684.06	37.832
684.38	33.974
684.70	35.642
685.02	36.570
685.34	37.573
685.67	33.583
685.99	33.808
686.31	33.966
686.63	34.007
686.96	37.848
687.28	34.531
687.60	36.295
687.92	33.852
688.24	34.200
688.56	37.719
688.89	37.194
689.21	35.202
689.53	32.207
689.85	37.079
690.17	34.505
690.49	35.507
690.82	34.845
691.14	38.164
691.46	35.499
691.78	34.945
692.10	36.093
692.42	34.945
692.74	35.870
693.06	32.584
693.39	37.002
693.71	36.222
694.03	35.000
694.35	37.162
694.67	34.000
694.99	37.113
695.31	38.243
695.63	36.829
695.95	35.115
696.27	31.781
696.59	36.022
696.91	34.916
697.23	34.518
697.56	36.451
697.88	34.304
698.20	37.365
698.52	35.514
698.84	31.579
699.16	35.697
699.48	36.543
699.80	39.018
700.12	35.389
700.44	34.930
700.76	33.146
701.08	36.556
701.40	34.132
701.72	32.615
702.04	33.333
702.36	34.451
702.68	35.061
703.00	38.012
703.32	33.148
703.64	33.133
703.96	38.416
704.28	33.434
704.60	35.671
704.91	37.304
705.23	35.759
705.55	31.724
705.87	37.324
706.19	38.462
706.51	32.042
706.83	32.166
707.15	33.841
707.47	35.262
707.79	31.218
708.11	32.648
708.43	30.964
708.74	35.904
709.06	35.027
709.38	34.006
709.70	35.135
710.02	30.841
710.34	32.333
710.66	35.505
710.98	34.056
711.29	36.364
711.61	34.516
711.93	32.581
712.25	35.315
712.57	30.175
712.89	34.432
713.20	35.461
713.52	35.401
713.84	33.548
714.16	36.893
714.48	33.544
714.80	28.435
715.11	36.337
715.43	32.298
715.75	32.609
716.07	32.530
716.39	35.354
716.70	32.734
717.02	30.588
717.34	32.955
717.66	35.345
717.97	29.762
718.29	32.283
718.61	31.760
718.93	29.070
719.24	37.638
719.56	24.719
719.88	31.716
720.20	37.154
720.51	35.156
720.83	36.187
721.15	35.366
721.46	35.115
721.78	33.068
722.10	33.068
722.42	30.242
722.73	31.660
723.05	35.102
723.37	36.555
723.68	30.800
724.00	30.213
724.32	30.962
724.63	32.922
724.95	31.624
725.27	36.709
725.58	33.333
725.90	32.218
726.22	28.623
726.53	29.804
726.85	35.766
727.16	35.556
727.48	34.483
727.80	28.906
728.11	29.918
728.43	33.203
728.74	28.968
729.06	29.200
729.38	32.411
729.69	31.317
730.01	34.572
730.32	33.210
730.64	31.818
730.96	33.566
731.27	28.763
731.59	27.619
731.90	33.981
732.22	31.731
732.53	29.730
732.85	32.215
733.16	32.343
733.48	29.392
733.80	29.054
734.11	34.797
734.43	32.817
734.74	33.033
735.06	29.395
735.37	31.003
735.69	29.773
736.00	28.383
736.32	30.142
736.63	33.448
736.95	30.479
737.26	31.724
737.58	30.208
737.89	32.646
738.21	32.028
738.52	27.757
738.83	35.510
739.15	27.426
739.46	29.961
739.78	27.113
740.09	29.452
740.41	33.571
740.72	25.532
741.04	28.400
741.35	26.316
741.66	33.778
741.98	31.250
742.29	31.683
742.61	30.244
742.92	33.333
743.23	30.189
743.55	31.081
743.86	29.148
744.18	38.235
744.49	32.995
744.80	28.061
745.12	28.037
745.43	32.227
745.74	33.784
746.06	26.168
746.37	28.899
746.68	33.654
747.00	31.100
747.31	34.615
747.62	34.404
747.94	27.074
748.25	27.982
748.56	33.778
748.88	33.803
749.19	40.000
749.50	27.670
749.82	27.700
750.13	25.833
750.44	28.077
750.75	34.317
751.07	30.961
751.38	30.496
751.69	30.116
752.01	30.469
752.32	28.077
752.63	30.970
752.94	32.000
753.26	25.941
753.57	32.500
753.88	34.008
754.19	29.880
754.51	28.947
754.82	23.810
755.13	26.087
755.44	29.675
755.75	28.400
756.07	23.616
756.38	32.014
756.69	31.741
757.00	29.283
757.31	26.214
757.63	26.543
757.94	31.073
758.25	32.804
758.56	26.630
758.87	28.571
759.18	29.968
759.50	29.966
759.81	30.435
760.12	29.538
760.43	26.786
760.74	26.554
761.05	31.768
761.36	27.507
761.67	29.305
761.99	26.117
762.30	27.007
762.61	27.984
762.92	27.350
763.23	35.656
763.54	29.870
763.85	26.531
764.16	26.423
764.47	27.600
764.78	28.929
765.10	28.197
765.41	28.875
765.72	27.640
766.03	27.063
766.34	32.692
766.65	25.105
766.96	25.822
767.27	29.703
767.58	24.157
767.89	27.160
768.20	25.967
768.51	28.141
768.82	22.596
769.13	24.779
769.44	25.941
769.75	20.940
770.06	31.839
770.37	24.510
770.68	28.155
770.99	25.728
771.30	27.311
771.61	27.755
771.92	28.631
772.23	24.324
772.54	24.862
772.85	22.674
773.16	31.217
773.47	26.036
773.78	25.287
774.09	27.500
774.39	26.708
774.70	35.374
775.01	20.000
775.32	18.571
775.63	25.564
775.94	17.293
776.25	20.800
776.56	26.446
776.87	27.778
777.18	15.315
777.48	22.523
777.79	11.024
778.10	21.101
778.41	17.544
778.72	24.370
779.03	27.465
779.34	30.405
779.65	26.761
779.95	27.152
780.26	25.180
780.57	16.547
780.88	15.493
781.19	18.487
781.50	28.188
781.80	26.901
782.11	18.023
782.42	24.528
782.73	20.261
783.04	30.345
783.34	16.794
783.65	22.819
783.96	23.846
784.27	27.857
784.57	25.532
784.88	19.231
785.19	39.091
785.50	23.636
785.81	15.238
786.11	15.126
786.42	21.239
786.73	20.755
787.04	14.679
787.34	19.802
787.65	26.667
787.96	19.835
788.26	28.986
788.57	17.460
788.88	26.829
789.19	14.400
789.49	16.031
789.80	30.303
790.11	12.264
790.41	25.743
790.72	15.957
791.03	13.043
791.33	12.941
791.64	18.519
791.95	15.217
792.25	15.909
792.56	21.795
792.87	12.821
793.17	15.385
793.48	11.905
793.79	17.500
794.09	21.154
794.40	14.583
794.70	27.928
795.01	15.625
795.32	26.957
795.62	5.435
795.93	15.094
796.23	15.152
796.54	9.756
796.85	20.238
797.15	13.636
797.46	11.594
797.76	23.684
798.07	22.727
798.37	19.512
798.68	8.065
798.99	4.054
799.29	24.096
799.60	20.513
799.90	18.462
800.21	12.121
800.51	22.667
800.82	25.333
801.12	-12.500
801.43	-3.333
801.73	18.919
802.04	22.857
802.34	-9.836
802.65	11.940
802.95	5.455
803.26	13.793
803.56	18.462
803.87	26.415
804.17	8.065
804.48	-2.941
804.78	7.317
805.09	11.594
805.39	5.882
805.70	-6.383
806.00	7.018
806.30	16.667
806.61	6.579
806.91	17.568
807.22	14.474
807.52	11.364
807.83	-6.780
808.13	3.030
808.43	11.667
808.74	3.448
809.04	7.937
809.35	-4.082
809.65	-3.333
809.95	-2.041
810.26	18.310
810.56	2.083
810.86	-10.204
811.17	26.923
811.47	14.894
811.77	-8.333
812.08	15.094
812.38	0.000
812.69	18.182
812.99	0.000
813.29	-18.919
813.59	-8.108
813.90	-5.455
814.20	0.000
814.50	20.000
814.81	5.455
815.11	19.298
815.41	13.953
815.72	-15.000
816.02	5.714
816.32	-18.919
816.62	6.250
816.93	-15.556
817.23	-13.333
817.53	-5.556
817.84	-13.514
818.14	2.439
818.44	-4.000
818.74	-4.082
819.04	-9.756
819.35	-2.778
819.65	2.273
819.95	-11.111
820.25	-12.121
820.56	-23.810
820.86	-19.444
821.16	-9.091
821.46	-13.043
821.76	8.621
822.07	26.087
822.37	15.152
822.67	31.707
822.97	-5.405
823.27	-48.571
823.57	17.241
823.88	-38.235
824.18	0.000
824.48	2.857
824.78	-42.857
825.08	-35.714
825.38	-14.815
825.69	6.452
825.99	7.317
826.29	-7.407
826.59	-6.250
826.89	-3.226
827.19	-21.739
827.49	-27.778
827.79	8.696
828.09	-41.935
828.39	8.333
828.70	-34.375
829.00	-6.897
829.30	27.027
829.60	-66.667
829.90	0.000
830.20	-21.875
830.50	-31.818
830.80	-117.647
831.10	-59.091
831.40	-5.882
831.70	-23.077
832.00	-18.182
832.30	-8.824
832.60	8.108
832.90	700.000
833.20	3.571
833.50	-60.000
833.80	7.895
834.10	-58.333
834.40	-59.091
834.70	-73.333
835.00	-120.000
835.30	-37.500
835.60	-47.619
835.90	-33.333
836.20	-52.000
836.50	-25.000
836.80	-78.947
837.10	2.703
837.40	43.333
837.70	-39.130
838.00	62.500
838.30	-21.053
838.60	-150.000
838.90	-130.000
839.19	-150.000
839.49	-84.615
839.79	-31.579
840.09	-233.333
840.39	-170.000
840.69	-59.091
840.99	-23.810
841.29	-20.833
841.59	-69.231
841.88	-33.333
842.18	-114.286
842.48	-23.333
842.78	-314.286
843.08	-114.286
843.38	-87.500
843.68	-87.500
843.97	-7.143
844.27	-177.778
844.57	-181.818
844.87	-100.000
845.17	0.000
845.47	600.000
845.76	-40.000
846.06	-83.333
846.36	-850.000
846.66	-84.211
846.96	-40.909
847.25	-127.778
847.55	-266.667
847.85	-42.857
848.15	-23.077
848.44	-233.333
848.74	-41.667
849.04	-107.692
849.34	-375.000
849.63	-136.364
849.93	-192.857
850.23	20.000
850.53	-212.500
850.82	-33.333
851.12	-73.333
851.42	-35.294
851.71	-50.000
852.01	-23.529
852.31	-53.846
852.61	700.000
852.90	17.647
853.20	-20.000
853.50	-68.750
853.79	-92.857
854.09	-475.000
854.39	-55.000
854.68	-7.500
854.98	-47.619
855.28	-20.000
855.57	0.000
855.87	-33.333
856.17	-36.000
856.46	12.500
856.76	-15.000
857.05	-28.000
857.35	-141.667
857.65	-76.471
857.94	-133.333
858.24	-58.333
858.53	-10.000
858.83	-100.000
859.13	4.000
859.42	-42.857
859.72	-275.000
860.01	-29.167
860.31	-187.500
860.60	50.000
860.90	-183.333
861.20	-283.333
861.49	-33.333
861.79	-87.500
862.08	425.000
862.38	-116.667
862.67	328.571
862.97	250.000
863.26	-90.909
863.56	-109.091
863.85	-26.316
864.15	-11.765
864.44	-280.000
864.74	-30.000
865.03	-155.556
865.33	-50.000
865.62	157.143
865.92	-15.789
866.21	-72.222
866.51	-54.545
866.80	-55.556
867.10	-287.500
867.39	-18.750
867.69	-100.000
867.98	-120.000
868.27	-29.412
868.57	0.000
868.86	800.000
869.16	-425.000
869.45	-114.286
869.75	600.000
870.04	-50.000
870.33	-900.000
870.63	-42.105
870.92	-116.667
871.22	-1300.000
871.51	-142.857
871.80	-155.556
872.10	-300.000
>>>>>End Processed Spectral Data<<<<<
