SpectraSuite Data File
++++++++++++++++++++++++++++++++++++
Date: Wed May 13 21:33:36 PDT 2015
User: schluterlab
Dark Spectrum Present: Yes
Reference Spectrum Present: Yes
Number of Sampled Component Spectra: 1
Spectrometers: USB2E3373
Integration Time (usec): 3000 (USB2E3373)
Spectra Averaged: 3 (USB2E3373)
Boxcar Smoothing: 0 (USB2E3373)
Correct for Electrical Dark: No (USB2E3373)
Strobe/Lamp Enabled: No (USB2E3373)
Correct for Detector Non-linearity: No (USB2E3373)
Correct for Stray Light: No (USB2E3373)
Number of Pixels in Processed Spectrum: 2048
>>>>>Begin Processed Spectral Data<<<<<
178.53	0.000
178.91	700.000
179.29	191.667
179.67	-650.000
180.04	-166.667
180.42	420.000
180.80	1800.000
181.18	316.667
181.56	-500.000
181.94	-375.000
182.31	-72.727
182.69	176.923
183.07	-100.000
183.45	316.667
183.83	166.667
184.20	157.143
184.58	-100.000
184.96	400.000
185.34	157.143
185.72	0.000
186.09	-1300.000
186.47	-340.000
186.85	200.000
187.23	-550.000
187.61	650.000
187.98	1000.000
188.36	-37.500
188.74	0.000
189.12	-9.091
189.49	10.000
189.87	108.333
190.25	400.000
190.63	800.000
191.00	-240.000
191.38	220.000
191.76	425.000
192.14	158.333
192.51	15.789
192.89	566.667
193.27	375.000
193.65	-240.000
194.02	163.636
194.40	170.000
194.78	-900.000
195.15	320.000
195.53	-120.000
195.91	-112.500
196.29	-266.667
196.66	0.000
197.04	700.000
197.42	-100.000
197.79	20.000
198.17	-112.500
198.55	-366.667
198.92	425.000
199.30	-533.333
199.68	-30.000
200.05	850.000
200.43	100.000
200.81	-2000.000
201.18	-260.000
201.56	-183.333
201.94	800.000
202.31	-43.478
202.69	-85.714
203.07	-533.333
203.44	-100.000
203.82	-600.000
204.19	-80.000
204.57	0.000
204.95	-283.333
205.32	0.000
205.70	-500.000
206.08	-225.000
206.45	-266.667
206.83	200.000
207.20	-100.000
207.58	-20.000
207.96	-1800.000
208.33	-114.286
208.71	-2400.000
209.08	275.000
209.46	400.000
209.84	0.000
210.21	140.000
210.59	3400.000
210.96	440.000
211.34	1000.000
211.71	-1050.000
212.09	-250.000
212.46	-190.000
212.84	-66.667
213.22	-100.000
213.59	-1000.000
213.97	-750.000
214.34	-1150.000
214.72	-84.615
215.09	225.000
215.47	266.667
215.84	950.000
216.22	-75.000
216.59	-250.000
216.97	500.000
217.34	166.667
217.72	0.000
218.09	366.667
218.47	-600.000
218.84	-257.143
219.22	-200.000
219.59	-433.333
219.97	-300.000
220.34	-125.000
220.72	-100.000
221.09	0.000
221.47	-133.333
221.84	-200.000
222.22	0.000
222.59	2500.000
222.97	-533.333
223.34	-133.333
223.72	-1300.000
224.09	-850.000
224.46	-163.636
224.84	-62.500
225.21	-271.429
225.59	-550.000
225.96	-150.000
226.34	-60.000
226.71	-257.143
227.08	450.000
227.46	-175.000
227.83	-1400.000
228.21	-37.500
228.58	-375.000
228.95	-11.765
229.33	-37.500
229.70	-62.500
230.08	-23.077
230.45	-75.000
230.82	-58.333
231.20	271.429
231.57	-575.000
231.95	1100.000
232.32	25.000
232.69	-70.588
233.07	-1800.000
233.44	-56.522
233.81	-550.000
234.19	-33.333
234.56	-113.333
234.93	-93.333
235.31	-15.789
235.68	-153.846
236.05	-38.462
236.43	-44.444
236.80	6.061
237.17	-93.333
237.55	-82.353
237.92	-62.069
238.29	-77.778
238.67	-25.000
239.04	-29.032
239.41	-29.787
239.79	-19.149
240.16	-2.326
240.53	-19.643
240.91	7.143
241.28	-5.357
241.65	-17.742
242.02	-5.263
242.40	10.145
242.77	-15.942
243.14	-3.846
243.51	6.383
243.89	0.000
244.26	9.434
244.63	-4.808
245.00	0.000
245.38	5.882
245.75	4.098
246.12	-1.504
246.49	-6.504
246.87	-10.924
247.24	8.784
247.61	1.325
247.98	5.128
248.36	-3.550
248.73	-2.809
249.10	1.515
249.47	-3.226
249.84	-0.526
250.22	2.488
250.59	3.271
250.96	7.273
251.33	-5.742
251.70	10.460
252.08	4.184
252.45	6.996
252.82	7.985
253.19	2.335
253.56	2.518
253.94	6.406
254.31	3.873
254.68	3.691
255.05	3.960
255.42	2.448
255.79	5.215
256.16	4.101
256.54	3.175
256.91	1.582
257.28	6.918
257.65	1.592
258.02	6.158
258.39	2.924
258.76	2.616
259.14	6.818
259.51	5.337
259.88	6.233
260.25	4.167
260.62	3.652
260.99	7.958
261.36	8.031
261.73	5.185
262.10	6.870
262.47	5.679
262.85	3.731
263.22	6.667
263.59	5.455
263.96	4.866
264.33	4.327
264.70	5.581
265.07	4.630
265.44	8.966
265.81	5.721
266.18	7.745
266.55	3.275
266.92	6.144
267.29	4.527
267.66	6.794
268.03	5.556
268.40	2.542
268.77	6.198
269.14	6.531
269.51	8.008
269.88	3.870
270.25	6.780
270.62	4.508
270.99	7.087
271.36	7.540
271.73	6.627
272.10	7.429
272.47	6.142
272.84	7.087
273.21	6.067
273.58	6.557
273.95	6.038
274.32	6.530
274.69	4.372
275.06	6.360
275.43	5.273
275.80	5.674
276.17	6.998
276.54	5.684
276.91	5.052
277.28	4.874
277.65	5.769
278.02	7.857
278.39	4.973
278.76	6.856
279.13	4.803
279.50	3.448
279.87	4.710
280.23	5.946
280.60	6.228
280.97	6.331
281.34	6.151
281.71	4.715
282.08	5.470
282.45	5.738
282.82	5.272
283.19	6.250
283.56	5.625
283.92	5.046
284.29	6.708
284.66	5.107
285.03	4.235
285.40	3.776
285.77	6.456
286.14	5.775
286.51	6.747
286.87	4.769
287.24	6.047
287.61	5.572
287.98	6.471
288.35	4.173
288.72	6.887
289.08	7.550
289.45	4.993
289.82	5.144
290.19	5.610
290.56	4.545
290.93	5.663
291.29	5.882
291.66	5.191
292.03	5.177
292.40	5.653
292.77	6.158
293.13	6.695
293.50	5.229
293.87	7.200
294.24	5.159
294.60	6.242
294.97	7.011
295.34	3.958
295.71	3.942
296.08	4.843
296.44	4.464
296.81	3.776
297.18	5.750
297.55	5.425
297.91	4.845
298.28	6.901
298.65	4.433
299.02	7.570
299.38	3.926
299.75	5.889
300.12	3.721
300.48	3.743
300.85	4.619
301.22	5.343
301.59	4.577
301.95	4.181
302.32	6.184
302.69	3.164
303.05	5.094
303.42	5.909
303.79	6.204
304.15	4.272
304.52	7.097
304.89	4.983
305.25	3.183
305.62	5.206
305.99	5.114
306.35	6.897
306.72	5.799
307.09	4.067
307.45	5.112
307.82	4.632
308.19	3.866
308.55	4.913
308.92	5.894
309.29	3.904
309.65	4.196
310.02	5.169
310.38	6.098
310.75	4.241
311.12	5.539
311.48	4.649
311.85	4.626
312.22	5.899
312.58	4.831
312.95	5.373
313.31	5.693
313.68	5.534
314.05	5.766
314.41	5.476
314.78	5.977
315.14	5.648
315.51	6.185
315.87	5.283
316.24	5.142
316.61	6.667
316.97	5.833
317.34	5.793
317.70	7.226
318.07	6.744
318.43	6.143
318.80	5.148
319.16	5.924
319.53	6.093
319.89	7.227
320.26	7.024
320.62	6.858
320.99	6.589
321.35	5.987
321.72	6.449
322.08	7.934
322.45	8.418
322.81	8.410
323.18	8.050
323.54	8.032
323.91	8.672
324.27	8.101
324.64	7.666
325.00	8.574
325.37	8.532
325.73	7.997
326.10	8.999
326.46	10.201
326.83	9.223
327.19	10.325
327.56	10.798
327.92	9.332
328.29	11.269
328.65	10.868
329.01	9.763
329.38	11.652
329.74	10.987
330.11	9.919
330.47	10.764
330.84	11.643
331.20	11.699
331.56	11.232
331.93	11.714
332.29	12.337
332.66	11.271
333.02	12.772
333.38	11.754
333.75	11.775
334.11	11.285
334.48	12.380
334.84	11.484
335.20	11.921
335.57	11.140
335.93	12.113
336.29	12.609
336.66	11.880
337.02	11.739
337.38	12.359
337.75	12.575
338.11	11.016
338.47	12.671
338.84	12.371
339.20	11.728
339.56	13.140
339.93	12.100
340.29	12.212
340.65	13.345
341.02	11.897
341.38	12.669
341.74	12.269
342.11	12.386
342.47	13.222
342.83	11.846
343.20	11.929
343.56	13.328
343.92	12.266
344.28	12.581
344.65	13.469
345.01	12.672
345.37	13.076
345.73	14.624
346.10	12.279
346.46	13.415
346.82	12.520
347.19	12.342
347.55	13.086
347.91	13.172
348.27	13.565
348.63	13.381
349.00	12.186
349.36	13.030
349.72	13.070
350.08	11.856
350.45	12.373
350.81	12.754
351.17	14.165
351.53	11.705
351.89	12.153
352.26	12.124
352.62	12.636
352.98	12.780
353.34	11.916
353.70	13.240
354.07	13.333
354.43	12.753
354.79	12.901
355.15	13.043
355.51	13.136
355.87	12.744
356.24	11.396
356.60	13.135
356.96	14.045
357.32	12.616
357.68	12.223
358.04	13.111
358.40	12.558
358.77	13.685
359.13	11.907
359.49	13.323
359.85	13.950
360.21	13.030
360.57	12.319
360.93	12.747
361.29	13.768
361.66	12.832
362.02	13.047
362.38	13.442
362.74	13.125
363.10	13.232
363.46	12.104
363.82	14.486
364.18	12.545
364.54	13.931
364.90	12.334
365.26	13.234
365.62	12.997
365.98	12.598
366.35	14.255
366.71	12.767
367.07	12.473
367.43	13.519
367.79	13.899
368.15	13.361
368.51	13.572
368.87	13.608
369.23	13.808
369.59	13.672
369.95	12.700
370.31	14.296
370.67	12.672
371.03	13.734
371.39	14.123
371.75	14.429
372.11	14.815
372.47	14.131
372.83	13.939
373.19	13.885
373.55	13.367
373.91	13.366
374.27	12.932
374.63	15.292
374.99	14.136
375.35	14.041
375.71	13.791
376.07	14.325
376.42	14.505
376.78	13.937
377.14	15.390
377.50	14.146
377.86	14.077
378.22	14.033
378.58	14.502
378.94	14.687
379.30	14.304
379.66	14.735
380.02	14.522
380.38	14.639
380.74	15.601
381.09	14.113
381.45	14.752
381.81	14.233
382.17	14.430
382.53	15.077
382.89	14.053
383.25	14.691
383.61	15.375
383.97	15.812
384.32	14.178
384.68	14.374
385.04	14.050
385.40	15.068
385.76	15.450
386.12	14.913
386.48	14.734
386.83	15.645
387.19	15.669
387.55	16.002
387.91	16.236
388.27	14.982
388.62	15.293
388.98	15.332
389.34	15.602
389.70	15.446
390.06	15.125
390.42	16.302
390.77	14.990
391.13	15.783
391.49	15.180
391.85	15.527
392.20	15.727
392.56	15.302
392.92	15.155
393.28	15.224
393.64	15.229
393.99	14.994
394.35	15.926
394.71	15.128
395.07	14.465
395.42	16.332
395.78	16.345
396.14	16.297
396.50	15.599
396.85	17.017
397.21	15.605
397.57	16.398
397.92	15.329
398.28	16.356
398.64	16.576
399.00	16.071
399.35	16.345
399.71	15.084
400.07	16.386
400.42	15.987
400.78	15.770
401.14	15.941
401.49	16.058
401.85	16.646
402.21	16.347
402.57	16.800
402.92	16.708
403.28	16.448
403.63	16.367
403.99	15.931
404.35	16.085
404.70	15.408
405.06	17.322
405.42	15.704
405.77	16.187
406.13	16.514
406.49	16.717
406.84	17.216
407.20	15.986
407.55	17.403
407.91	16.744
408.27	16.220
408.62	17.618
408.98	16.400
409.34	16.337
409.69	18.064
410.05	16.791
410.40	16.372
410.76	16.606
411.11	16.729
411.47	17.386
411.83	16.656
412.18	16.814
412.54	16.604
412.89	15.925
413.25	16.342
413.60	16.614
413.96	16.292
414.31	17.941
414.67	16.571
415.03	16.035
415.38	16.446
415.74	16.244
416.09	16.788
416.45	16.815
416.80	17.047
417.16	17.814
417.51	17.080
417.87	17.791
418.22	16.871
418.58	16.623
418.93	16.573
419.29	17.558
419.64	17.239
420.00	16.762
420.35	16.497
420.71	16.819
421.06	17.036
421.42	17.275
421.77	17.110
422.12	17.765
422.48	17.230
422.83	17.188
423.19	17.711
423.54	17.432
423.90	17.518
424.25	17.273
424.61	17.807
424.96	17.741
425.31	17.667
425.67	17.931
426.02	18.669
426.38	18.284
426.73	17.838
427.09	18.199
427.44	17.968
427.79	17.162
428.15	17.798
428.50	17.281
428.85	17.897
429.21	17.952
429.56	18.438
429.92	17.595
430.27	17.536
430.62	17.261
430.98	18.244
431.33	18.968
431.68	18.424
432.04	18.423
432.39	17.610
432.74	17.229
433.10	19.233
433.45	18.225
433.80	17.586
434.16	18.624
434.51	17.772
434.86	17.845
435.22	18.506
435.57	17.629
435.92	18.275
436.28	18.318
436.63	18.187
436.98	18.331
437.34	18.315
437.69	17.769
438.04	17.770
438.39	18.804
438.75	17.521
439.10	17.872
439.45	18.826
439.81	19.212
440.16	19.130
440.51	18.133
440.86	18.554
441.22	18.876
441.57	18.167
441.92	19.440
442.27	18.182
442.63	18.138
442.98	18.229
443.33	19.244
443.68	18.345
444.03	19.175
444.39	19.187
444.74	18.940
445.09	18.007
445.44	19.493
445.79	18.895
446.15	19.412
446.50	19.053
446.85	19.669
447.20	19.237
447.55	19.250
447.91	19.494
448.26	18.868
448.61	18.987
448.96	19.077
449.31	19.475
449.66	19.838
450.02	18.874
450.37	18.801
450.72	19.116
451.07	18.495
451.42	17.966
451.77	19.111
452.12	18.776
452.47	19.819
452.83	18.750
453.18	19.351
453.53	20.050
453.88	20.060
454.23	19.036
454.58	20.282
454.93	20.141
455.28	19.011
455.63	18.902
455.98	19.659
456.34	19.326
456.69	19.744
457.04	19.567
457.39	19.302
457.74	19.330
458.09	19.017
458.44	18.684
458.79	19.055
459.14	18.258
459.49	19.878
459.84	19.955
460.19	20.228
460.54	19.708
460.89	19.538
461.24	19.729
461.59	19.626
461.94	20.164
462.29	19.118
462.64	19.525
462.99	20.523
463.34	20.097
463.69	19.072
464.04	19.328
464.39	19.219
464.74	19.656
465.09	19.529
465.44	19.921
465.79	20.587
466.14	20.468
466.49	20.352
466.84	19.307
467.19	18.790
467.54	20.026
467.89	19.422
468.24	20.221
468.59	20.268
468.94	20.434
469.29	21.481
469.64	19.805
469.99	21.034
470.34	19.353
470.68	20.595
471.03	20.592
471.38	20.445
471.73	21.193
472.08	20.619
472.43	20.646
472.78	20.419
473.13	20.580
473.48	20.091
473.83	20.402
474.17	20.443
474.52	20.647
474.87	20.748
475.22	20.713
475.57	20.692
475.92	20.229
476.27	20.746
476.61	20.498
476.96	21.359
477.31	20.388
477.66	21.186
478.01	20.385
478.36	20.327
478.70	20.516
479.05	21.199
479.40	21.269
479.75	20.404
480.10	21.469
480.45	20.255
480.79	21.254
481.14	21.429
481.49	21.510
481.84	21.206
482.19	21.028
482.53	20.857
482.88	20.853
483.23	20.500
483.58	20.463
483.92	20.720
484.27	20.952
484.62	20.994
484.97	20.946
485.31	20.763
485.66	19.955
486.01	19.962
486.36	20.188
486.70	20.255
487.05	20.946
487.40	20.809
487.75	21.275
488.09	20.738
488.44	20.610
488.79	21.196
489.13	21.312
489.48	20.393
489.83	21.304
490.17	21.198
490.52	21.973
490.87	20.955
491.22	21.479
491.56	21.179
491.91	21.267
492.26	21.083
492.60	21.116
492.95	20.797
493.30	20.979
493.64	21.007
493.99	21.643
494.34	20.761
494.68	21.432
495.03	21.097
495.37	21.460
495.72	21.504
496.07	22.017
496.41	21.432
496.76	21.709
497.11	21.737
497.45	21.109
497.80	22.312
498.14	21.965
498.49	21.281
498.84	22.318
499.18	21.702
499.53	21.123
499.87	21.980
500.22	22.250
500.56	22.217
500.91	22.082
501.26	21.823
501.60	20.931
501.95	21.418
502.29	22.524
502.64	22.179
502.98	22.254
503.33	21.411
503.67	22.298
504.02	22.794
504.36	22.041
504.71	21.850
505.06	22.924
505.40	22.320
505.75	22.380
506.09	21.870
506.44	23.236
506.78	23.007
507.13	23.389
507.47	21.792
507.82	22.449
508.16	22.744
508.51	23.037
508.85	22.447
509.19	22.487
509.54	22.949
509.88	22.957
510.23	22.684
510.57	23.093
510.92	23.545
511.26	23.212
511.61	23.052
511.95	23.429
512.30	23.931
512.64	24.064
512.98	23.767
513.33	23.775
513.67	23.964
514.02	23.660
514.36	23.202
514.70	23.672
515.05	23.581
515.39	23.349
515.74	24.097
516.08	23.363
516.42	23.445
516.77	23.726
517.11	23.751
517.46	24.430
517.80	24.334
518.14	23.576
518.49	24.412
518.83	24.045
519.17	25.060
519.52	25.030
519.86	24.954
520.20	24.136
520.55	24.938
520.89	25.427
521.23	25.000
521.58	25.158
521.92	23.884
522.26	24.854
522.61	23.982
522.95	25.194
523.29	24.444
523.64	25.493
523.98	25.222
524.32	24.890
524.66	24.610
525.01	25.033
525.35	25.280
525.69	25.514
526.04	25.863
526.38	25.558
526.72	26.036
527.06	26.048
527.41	24.884
527.75	25.167
528.09	26.140
528.43	25.509
528.78	25.323
529.12	26.132
529.46	24.696
529.80	25.825
530.15	24.839
530.49	25.067
530.83	25.389
531.17	25.342
531.51	25.219
531.86	25.407
532.20	24.190
532.54	24.207
532.88	25.868
533.22	26.195
533.57	25.762
533.91	25.484
534.25	25.716
534.59	25.547
534.93	25.638
535.27	25.478
535.62	26.645
535.96	25.764
536.30	26.064
536.64	24.197
536.98	24.317
537.32	24.484
537.66	26.305
538.01	25.520
538.35	24.724
538.69	25.217
539.03	25.638
539.37	24.950
539.71	25.512
540.05	24.224
540.39	25.327
540.73	25.000
541.07	26.327
541.42	25.657
541.76	25.575
542.10	24.509
542.44	26.334
542.78	24.913
543.12	25.337
543.46	25.294
543.80	24.915
544.14	26.153
544.48	24.021
544.82	25.353
545.16	24.882
545.50	25.591
545.84	25.666
546.18	24.614
546.52	25.688
546.86	23.887
547.20	24.518
547.54	24.946
547.88	24.764
548.22	24.495
548.56	24.817
548.90	24.763
549.24	25.069
549.58	25.765
549.92	26.559
550.26	25.978
550.60	25.300
550.94	24.925
551.28	24.527
551.62	24.962
551.96	25.037
552.30	24.745
552.64	25.141
552.98	26.136
553.32	24.802
553.66	25.018
554.00	24.550
554.34	24.542
554.68	25.578
555.02	24.626
555.36	24.433
555.69	25.492
556.03	25.161
556.37	24.253
556.71	24.387
557.05	25.461
557.39	24.717
557.73	26.097
558.07	25.697
558.41	26.344
558.75	24.711
559.08	23.577
559.42	25.098
559.76	25.459
560.10	25.749
560.44	25.792
560.78	25.468
561.12	24.947
561.45	24.558
561.79	24.691
562.13	24.754
562.47	24.571
562.81	25.180
563.15	24.504
563.48	23.813
563.82	25.239
564.16	24.509
564.50	24.491
564.84	24.054
565.17	25.033
565.51	24.332
565.85	23.185
566.19	25.166
566.52	25.033
566.86	24.273
567.20	24.313
567.54	24.410
567.88	23.012
568.21	23.954
568.55	23.735
568.89	23.579
569.23	23.052
569.56	23.488
569.90	22.853
570.24	22.635
570.57	22.347
570.91	22.803
571.25	22.325
571.59	22.369
571.92	21.942
572.26	22.631
572.60	22.513
572.93	23.024
573.27	22.168
573.61	23.121
573.95	22.105
574.28	22.171
574.62	21.970
574.96	22.096
575.29	22.367
575.63	22.550
575.97	22.853
576.30	21.944
576.64	21.954
576.98	22.376
577.31	22.199
577.65	21.979
577.98	21.850
578.32	21.741
578.66	21.793
578.99	21.831
579.33	22.264
579.67	22.378
580.00	21.963
580.34	21.571
580.67	22.048
581.01	21.898
581.35	21.311
581.68	21.408
582.02	21.712
582.35	21.812
582.69	21.449
583.02	21.409
583.36	22.238
583.70	22.068
584.03	22.216
584.37	22.104
584.70	21.838
585.04	21.971
585.37	21.531
585.71	21.780
586.04	21.779
586.38	21.810
586.72	21.832
587.05	22.250
587.39	22.319
587.72	21.755
588.06	22.052
588.39	22.138
588.73	21.661
589.06	21.920
589.40	21.878
589.73	21.955
590.07	21.728
590.40	21.658
590.73	22.731
591.07	22.064
591.40	22.348
591.74	21.965
592.07	22.592
592.41	22.523
592.74	22.377
593.08	21.538
593.41	22.190
593.75	21.641
594.08	21.969
594.41	22.084
594.75	22.414
595.08	22.367
595.42	22.298
595.75	22.126
596.09	22.363
596.42	21.977
596.75	22.466
597.09	22.202
597.42	22.790
597.75	22.133
598.09	22.177
598.42	23.221
598.76	21.872
599.09	21.969
599.42	21.866
599.76	22.306
600.09	21.423
600.42	21.808
600.76	21.766
601.09	21.544
601.42	21.717
601.76	21.390
602.09	22.173
602.42	22.328
602.76	21.477
603.09	21.602
603.42	21.591
603.76	21.434
604.09	22.016
604.42	22.562
604.76	21.519
605.09	21.976
605.42	22.717
605.75	21.413
606.09	21.109
606.42	21.862
606.75	21.342
607.09	21.277
607.42	22.110
607.75	20.656
608.08	21.506
608.42	21.603
608.75	22.265
609.08	21.754
609.41	22.255
609.75	21.029
610.08	21.795
610.41	22.546
610.74	21.607
611.07	21.593
611.41	22.262
611.74	21.687
612.07	20.948
612.40	22.595
612.73	22.613
613.07	21.120
613.40	22.467
613.73	22.481
614.06	22.278
614.39	22.123
614.72	22.599
615.06	21.722
615.39	21.799
615.72	21.436
616.05	21.340
616.38	22.509
616.71	20.756
617.05	22.543
617.38	21.935
617.71	20.466
618.04	20.963
618.37	21.703
618.70	22.380
619.03	21.581
619.36	22.135
619.69	21.930
620.03	21.555
620.36	22.199
620.69	21.770
621.02	22.308
621.35	22.404
621.68	21.679
622.01	21.764
622.34	21.174
622.67	21.613
623.00	23.328
623.33	22.364
623.66	21.115
623.99	21.755
624.32	21.423
624.65	21.810
624.99	21.381
625.32	21.135
625.65	21.395
625.98	21.406
626.31	22.776
626.64	22.614
626.97	21.194
627.30	23.097
627.63	21.799
627.96	21.212
628.29	22.698
628.62	22.050
628.95	20.341
629.28	22.463
629.61	23.062
629.94	23.017
630.26	23.744
630.59	22.078
630.92	22.088
631.25	22.348
631.58	23.126
631.91	22.163
632.24	22.283
632.57	20.889
632.90	23.104
633.23	22.062
633.56	23.501
633.89	22.368
634.22	23.910
634.55	23.143
634.88	22.549
635.20	23.500
635.53	22.997
635.86	21.026
636.19	23.449
636.52	21.585
636.85	21.834
637.18	21.924
637.51	21.348
637.83	23.890
638.16	22.667
638.49	21.495
638.82	21.307
639.15	21.543
639.48	23.128
639.81	23.194
640.13	23.380
640.46	23.446
640.79	21.151
641.12	21.746
641.45	21.980
641.77	23.270
642.10	23.903
642.43	24.686
642.76	21.767
643.09	24.121
643.41	21.531
643.74	22.617
644.07	22.492
644.40	23.217
644.73	21.356
645.05	23.560
645.38	21.761
645.71	22.959
646.04	22.054
646.36	21.701
646.69	22.727
647.02	23.315
647.35	23.766
647.67	21.996
648.00	23.732
648.33	21.864
648.66	22.705
648.98	21.273
649.31	21.012
649.64	21.440
649.96	21.327
650.29	21.895
650.62	21.417
650.94	21.207
651.27	21.378
651.60	22.378
651.92	22.760
652.25	20.436
652.58	20.627
652.90	21.212
653.23	18.506
653.56	20.496
653.88	20.990
654.21	19.283
654.54	18.937
654.86	19.675
655.19	22.269
655.52	20.567
655.84	18.376
656.17	21.623
656.49	28.886
656.82	28.528
657.15	21.446
657.47	16.116
657.80	11.951
658.13	12.911
658.45	18.805
658.78	18.867
659.10	18.434
659.43	19.225
659.75	18.386
660.08	19.448
660.41	18.560
660.73	20.110
661.06	19.558
661.38	23.643
661.71	21.926
662.03	20.719
662.36	21.460
662.68	20.860
663.01	22.458
663.33	19.438
663.66	19.512
663.98	20.899
664.31	20.659
664.63	19.820
664.96	21.882
665.28	22.961
665.61	19.870
665.93	18.415
666.26	22.152
666.58	19.058
666.91	24.888
667.23	20.968
667.56	22.989
667.88	19.393
668.21	18.750
668.53	19.540
668.86	23.261
669.18	22.695
669.50	22.350
669.83	20.048
670.15	17.619
670.48	17.011
670.80	24.070
671.13	19.222
671.45	21.461
671.77	19.612
672.10	20.468
672.42	20.229
672.75	19.821
673.07	20.364
673.39	19.030
673.72	21.158
674.04	21.721
674.37	19.715
674.69	18.930
675.01	20.299
675.34	22.976
675.66	22.658
675.98	22.345
676.31	18.326
676.63	21.995
676.95	20.471
677.28	20.413
677.60	22.304
677.92	22.395
678.25	19.957
678.57	20.367
678.89	21.322
679.22	20.704
679.54	20.816
679.86	21.484
680.18	18.269
680.51	18.269
680.83	19.688
681.15	19.057
681.48	20.040
681.80	18.814
682.12	16.667
682.44	17.907
682.77	17.684
683.09	19.866
683.41	18.605
683.73	18.750
684.06	19.912
684.38	18.376
684.70	17.923
685.02	20.661
685.34	18.787
685.67	16.698
685.99	19.751
686.31	17.759
686.63	18.382
686.96	20.779
687.28	15.768
687.60	18.336
687.92	19.066
688.24	18.800
688.56	23.026
688.89	18.263
689.21	17.265
689.53	16.216
689.85	19.326
690.17	17.582
690.49	19.082
690.82	18.616
691.14	18.841
691.46	19.258
691.78	19.341
692.10	18.471
692.42	17.363
692.74	19.783
693.06	17.079
693.39	17.564
693.71	18.667
694.03	20.000
694.35	20.270
694.67	17.500
694.99	20.361
695.31	17.054
695.63	20.732
695.95	18.575
696.27	15.890
696.59	18.280
696.91	17.039
697.23	19.036
697.56	17.506
697.88	19.543
698.20	18.575
698.52	16.589
698.84	18.182
699.16	18.440
699.48	19.259
699.80	18.863
700.12	19.571
700.44	12.113
700.76	19.944
701.08	19.940
701.40	18.862
701.72	19.385
702.04	17.925
702.36	17.073
702.68	14.939
703.00	19.006
703.32	17.270
703.64	16.867
703.96	19.648
704.28	14.157
704.60	17.073
704.91	13.793
705.23	17.089
705.55	16.897
705.87	19.366
706.19	14.652
706.51	14.437
706.83	16.242
707.15	19.207
707.47	16.529
707.79	14.721
708.11	17.995
708.43	18.528
708.74	17.819
709.06	15.775
709.38	19.020
709.70	14.114
710.02	17.134
710.34	18.667
710.66	14.007
710.98	15.480
711.29	18.182
711.61	15.161
711.93	16.452
712.25	12.587
712.57	10.877
712.89	17.949
713.20	19.149
713.52	14.234
713.84	16.774
714.16	15.534
714.48	13.608
714.80	13.738
715.11	18.895
715.43	14.907
715.75	17.081
716.07	17.169
716.39	14.815
716.70	16.187
717.02	14.510
717.34	16.667
717.66	12.931
717.97	16.667
718.29	17.323
718.61	14.163
718.93	16.667
719.24	17.712
719.56	14.607
719.88	18.657
720.20	8.300
720.51	17.578
720.83	17.510
721.15	13.415
721.46	14.504
721.78	14.343
722.10	13.147
722.42	10.887
722.73	13.900
723.05	18.776
723.37	18.908
723.68	11.600
724.00	8.936
724.32	12.971
724.63	16.872
724.95	13.248
725.27	21.097
725.58	11.523
725.90	11.715
726.22	14.855
726.53	12.157
726.85	16.788
727.16	18.889
727.48	17.625
727.80	15.234
728.11	13.934
728.43	17.188
728.74	13.889
729.06	14.000
729.38	18.577
729.69	13.879
730.01	12.268
730.32	11.808
730.64	13.636
730.96	16.783
731.27	10.033
731.59	13.333
731.90	12.298
732.22	13.141
732.53	12.838
732.85	11.409
733.16	17.162
733.48	11.824
733.80	14.527
734.11	19.257
734.43	13.003
734.74	17.417
735.06	11.239
735.37	17.325
735.69	16.828
736.00	13.531
736.32	16.312
736.63	13.103
736.95	15.411
737.26	11.034
737.58	14.583
737.89	11.684
738.21	14.947
738.52	14.449
738.83	15.510
739.15	12.658
739.46	15.564
739.78	8.803
740.09	9.932
740.41	11.071
740.72	13.830
741.04	11.200
741.35	9.649
741.66	20.444
741.98	12.981
742.29	19.802
742.61	13.659
742.92	19.298
743.23	9.434
743.55	13.964
743.86	9.417
744.18	16.667
744.49	9.137
744.80	16.327
745.12	12.150
745.43	9.479
745.74	13.964
746.06	14.486
746.37	16.972
746.68	17.788
747.00	11.483
747.31	18.750
747.62	12.385
747.94	13.537
748.25	15.596
748.56	20.444
748.88	16.901
749.19	11.905
749.50	10.194
749.82	13.146
750.13	8.333
750.44	12.692
750.75	11.808
751.07	15.658
751.38	13.475
751.69	14.672
752.01	11.719
752.32	10.769
752.63	10.075
752.94	12.000
753.26	10.879
753.57	13.750
753.88	15.385
754.19	12.351
754.51	13.158
754.82	8.791
755.13	7.391
755.44	15.041
755.75	13.200
756.07	11.808
756.38	17.626
756.69	14.334
757.00	12.773
757.31	12.621
757.63	10.185
757.94	14.972
758.25	15.873
758.56	14.674
758.87	13.988
759.18	15.142
759.50	12.458
759.81	14.047
760.12	13.231
760.43	11.607
760.74	12.994
761.05	14.365
761.36	12.034
761.67	11.782
761.99	7.904
762.30	12.044
762.61	11.934
762.92	14.530
763.23	17.213
763.54	15.584
763.85	12.653
764.16	10.976
764.47	10.400
764.78	13.571
765.10	10.492
765.41	13.070
765.72	10.248
766.03	8.251
766.34	15.000
766.65	7.113
766.96	7.981
767.27	15.347
767.58	8.989
767.89	9.259
768.20	7.735
768.51	16.583
768.82	13.462
769.13	15.044
769.44	12.552
769.75	6.838
770.06	11.211
770.37	9.804
770.68	13.592
770.99	10.680
771.30	12.185
771.61	12.245
771.92	14.938
772.23	9.910
772.54	1.105
772.85	6.977
773.16	14.286
773.47	3.550
773.78	13.218
774.09	7.500
774.39	14.907
774.70	10.884
775.01	4.828
775.32	5.714
775.63	12.782
775.94	-1.504
776.25	4.800
776.56	4.959
776.87	12.698
777.18	-2.703
777.48	3.604
777.79	8.661
778.10	17.431
778.41	9.649
778.72	14.286
779.03	0.704
779.34	15.541
779.65	4.930
779.95	12.583
780.26	-0.719
780.57	13.669
780.88	4.225
781.19	-5.042
781.50	10.738
781.80	14.620
782.11	6.395
782.42	11.321
782.73	19.608
783.04	4.138
783.34	4.580
783.65	6.711
783.96	6.923
784.27	8.571
784.57	12.766
784.88	-2.885
785.19	17.273
785.50	9.091
785.81	-3.810
786.11	0.840
786.42	16.814
786.73	-7.547
787.04	-0.917
787.34	-10.891
787.65	10.833
787.96	11.570
788.26	11.594
788.57	4.762
788.88	3.252
789.19	15.200
789.49	-0.763
789.80	15.152
790.11	0.943
790.41	1.980
790.72	9.574
791.03	4.348
791.33	8.235
791.64	4.938
791.95	2.174
792.25	15.909
792.56	23.077
792.87	-3.846
793.17	-14.103
793.48	-2.381
793.79	-2.500
794.09	9.615
794.40	11.458
794.70	9.910
795.01	1.562
795.32	10.435
795.62	-18.478
795.93	5.660
796.23	7.071
796.54	2.439
796.85	1.190
797.15	-4.545
797.46	-10.145
797.76	-9.211
798.07	7.955
798.37	-7.317
798.68	3.226
798.99	-8.108
799.29	-4.819
799.60	0.000
799.90	3.077
800.21	13.636
800.51	5.333
800.82	-4.000
801.12	-20.833
801.43	-30.000
801.73	6.757
802.04	5.714
802.34	-16.393
802.65	11.940
802.95	0.000
803.26	3.448
803.56	-1.538
803.87	13.208
804.17	3.226
804.48	-4.412
804.78	-24.390
805.09	10.145
805.39	4.412
805.70	-27.660
806.00	-5.263
806.30	17.949
806.61	3.947
806.91	6.757
807.22	-6.579
807.52	18.182
807.83	-13.559
808.13	-21.212
808.43	-10.000
808.74	-39.655
809.04	11.111
809.35	-28.571
809.65	-8.333
809.95	-4.082
810.26	11.268
810.56	-12.500
810.86	-18.367
811.17	19.231
811.47	-2.128
811.77	-18.750
812.08	-3.774
812.38	-34.375
812.69	7.273
812.99	-2.439
813.29	-29.730
813.59	-32.432
813.90	-23.636
814.20	-9.091
814.50	-15.000
814.81	0.000
815.11	-10.526
815.41	16.279
815.72	-17.500
816.02	-8.571
816.32	2.703
816.62	-8.333
816.93	-11.111
817.23	-13.333
817.53	-47.222
817.84	-18.919
818.14	0.000
818.44	2.000
818.74	-12.245
819.04	4.878
819.35	-30.556
819.65	-18.182
819.95	-33.333
820.25	-24.242
820.56	-11.905
820.86	-38.889
821.16	-34.091
821.46	-30.435
821.76	6.897
822.07	2.174
822.37	-21.212
822.67	14.634
822.97	13.514
823.27	-45.714
823.57	0.000
823.88	-17.647
824.18	-13.889
824.48	-14.286
824.78	-42.857
825.08	-25.000
825.38	-25.926
825.69	-9.677
825.99	-17.073
826.29	-33.333
826.59	-15.625
826.89	-51.613
827.19	-43.478
827.49	-30.556
827.79	-8.696
828.09	-6.452
828.39	-8.333
828.70	-40.625
829.00	-37.931
829.30	-2.703
829.60	-54.167
829.90	-44.444
830.20	-40.625
830.50	-31.818
830.80	-70.588
831.10	-27.273
831.40	-11.765
831.70	-19.231
832.00	3.030
832.30	0.000
832.60	-18.919
832.90	1400.000
833.20	-42.857
833.50	-65.000
833.80	-26.316
834.10	-62.500
834.40	-63.636
834.70	-120.000
835.00	-120.000
835.30	-41.667
835.60	-76.190
835.90	-52.381
836.20	-48.000
836.50	-66.667
836.80	-89.474
837.10	5.405
837.40	3.333
837.70	-47.826
838.00	-12.500
838.30	-52.632
838.60	-200.000
838.90	-260.000
839.19	-83.333
839.49	-76.923
839.79	-84.211
840.09	-100.000
840.39	-120.000
840.69	-50.000
840.99	-66.667
841.29	-66.667
841.59	-123.077
841.88	-93.333
842.18	-71.429
842.48	6.667
842.78	-300.000
843.08	-121.429
843.38	-125.000
843.68	-87.500
843.97	21.429
844.27	-266.667
844.57	-54.545
844.87	-60.000
845.17	-31.818
845.47	600.000
845.76	-33.333
846.06	-108.333
846.36	-1000.000
846.66	-47.368
846.96	-72.727
847.25	-77.778
847.55	-111.111
847.85	-66.667
848.15	-76.923
848.44	-283.333
848.74	-66.667
849.04	-46.154
849.34	-425.000
849.63	-136.364
849.93	-85.714
850.23	-45.000
850.53	-237.500
850.82	-22.222
851.12	-40.000
851.42	-64.706
851.71	-112.500
852.01	-29.412
852.31	-100.000
852.61	900.000
852.90	23.529
853.20	-80.000
853.50	-87.500
853.79	-178.571
854.09	-625.000
854.39	-50.000
854.68	-2.500
854.98	-19.048
855.28	-16.000
855.57	-12.500
855.87	-33.333
856.17	-76.000
856.46	-25.000
856.76	-10.000
857.05	-28.000
857.35	-133.333
857.65	-100.000
857.94	-216.667
858.24	-166.667
858.53	-45.000
858.83	-81.818
859.13	-8.000
859.42	-128.571
859.72	-225.000
860.01	-41.667
860.31	-225.000
860.60	-43.750
860.90	-233.333
861.20	-116.667
861.49	-33.333
861.79	31.250
862.08	450.000
862.38	-100.000
862.67	214.286
862.97	375.000
863.26	-127.273
863.56	-54.545
863.85	26.316
864.15	-52.941
864.44	-220.000
864.74	-110.000
865.03	-155.556
865.33	-121.429
865.62	100.000
865.92	-10.526
866.21	-44.444
866.51	-81.818
866.80	-88.889
867.10	-162.500
867.39	-62.500
867.69	-80.000
867.98	-110.000
868.27	23.529
868.57	0.000
868.86	650.000
869.16	-400.000
869.45	-314.286
869.75	400.000
870.04	-140.000
870.33	-2000.000
870.63	-21.053
870.92	-33.333
871.22	-1800.000
871.51	-185.714
871.80	-222.222
872.10	-250.000
>>>>>End Processed Spectral Data<<<<<
