SpectraSuite Data File
++++++++++++++++++++++++++++++++++++
Date: Wed May 13 21:27:33 PDT 2015
User: schluterlab
Dark Spectrum Present: Yes
Reference Spectrum Present: Yes
Number of Sampled Component Spectra: 1
Spectrometers: USB2E3373
Integration Time (usec): 3000 (USB2E3373)
Spectra Averaged: 3 (USB2E3373)
Boxcar Smoothing: 0 (USB2E3373)
Correct for Electrical Dark: No (USB2E3373)
Strobe/Lamp Enabled: No (USB2E3373)
Correct for Detector Non-linearity: No (USB2E3373)
Correct for Stray Light: No (USB2E3373)
Number of Pixels in Processed Spectrum: 2048
>>>>>Begin Processed Spectral Data<<<<<
178.53	0.000
178.91	450.000
179.29	166.667
179.67	-300.000
180.04	-633.333
180.42	60.000
180.80	1400.000
181.18	366.667
181.56	-450.000
181.94	-500.000
182.31	-27.273
182.69	130.769
183.07	-60.000
183.45	200.000
183.83	122.222
184.20	185.714
184.58	-100.000
184.96	333.333
185.34	42.857
185.72	0.000
186.09	-800.000
186.47	-180.000
186.85	100.000
187.23	-450.000
187.61	500.000
187.98	1400.000
188.36	-75.000
188.74	0.000
189.12	-54.545
189.49	-10.000
189.87	158.333
190.25	480.000
190.63	700.000
191.00	-60.000
191.38	140.000
191.76	-25.000
192.14	141.667
192.51	-31.579
192.89	166.667
193.27	375.000
193.65	-420.000
194.02	209.091
194.40	160.000
194.78	-800.000
195.15	320.000
195.53	-140.000
195.91	-137.500
196.29	-233.333
196.66	0.000
197.04	250.000
197.42	-20.000
197.79	-70.000
198.17	-75.000
198.55	-133.333
198.92	200.000
199.30	-500.000
199.68	-10.000
200.05	650.000
200.43	50.000
200.81	-1700.000
201.18	-200.000
201.56	-83.333
201.94	500.000
202.31	73.913
202.69	-114.286
203.07	-266.667
203.44	0.000
203.82	-366.667
204.19	-40.000
204.57	0.000
204.95	-16.667
205.32	0.000
205.70	-450.000
206.08	-325.000
206.45	-250.000
206.83	250.000
207.20	-166.667
207.58	0.000
207.96	-1300.000
208.33	-228.571
208.71	-1000.000
209.08	187.500
209.46	325.000
209.84	0.000
210.21	80.000
210.59	1300.000
210.96	260.000
211.34	1100.000
211.71	-1200.000
212.09	-250.000
212.46	-140.000
212.84	-66.667
213.22	-50.000
213.59	-600.000
213.97	-650.000
214.34	-650.000
214.72	-46.154
215.09	87.500
215.47	100.000
215.84	650.000
216.22	-87.500
216.59	-150.000
216.97	533.333
217.34	233.333
217.72	0.000
218.09	133.333
218.47	-1600.000
218.84	-14.286
219.22	-212.500
219.59	-166.667
219.97	-200.000
220.34	-112.500
220.72	-100.000
221.09	0.000
221.47	-133.333
221.84	-600.000
222.22	0.000
222.59	800.000
222.97	-433.333
223.34	-33.333
223.72	-200.000
224.09	-250.000
224.46	-63.636
224.84	87.500
225.21	-100.000
225.59	-500.000
225.96	-200.000
226.34	-120.000
226.71	-28.571
227.08	600.000
227.46	-187.500
227.83	-800.000
228.21	-31.250
228.58	-225.000
228.95	-70.588
229.33	-31.250
229.70	-100.000
230.08	-76.923
230.45	-87.500
230.82	-83.333
231.20	185.714
231.57	-400.000
231.95	2100.000
232.32	116.667
232.69	-5.882
233.07	-1000.000
233.44	-8.696
233.81	-650.000
234.19	33.333
234.56	-60.000
234.93	-93.333
235.31	31.579
235.68	-69.231
236.05	-92.308
236.43	-5.556
236.80	24.242
237.17	-20.000
237.55	11.765
237.92	-24.138
238.29	-22.222
238.67	11.111
239.04	9.677
239.41	4.255
239.79	31.915
240.16	0.000
240.53	28.571
240.91	25.000
241.28	14.286
241.65	20.968
242.02	15.789
242.40	21.739
242.77	10.145
243.14	12.821
243.51	25.532
243.89	22.115
244.26	23.585
244.63	21.154
245.00	22.917
245.38	18.487
245.75	30.328
246.12	27.820
246.49	13.821
246.87	6.723
247.24	20.270
247.61	24.503
247.98	26.923
248.36	22.485
248.73	24.719
249.10	22.727
249.47	27.419
249.84	29.474
250.22	20.896
250.59	23.832
250.96	25.455
251.33	15.311
251.70	24.686
252.08	23.431
252.45	25.514
252.82	28.897
253.19	28.794
253.56	21.942
253.94	24.911
254.31	25.704
254.68	26.510
255.05	28.053
255.42	26.923
255.79	26.380
256.16	30.599
256.54	27.302
256.91	24.367
257.28	25.786
257.65	22.930
258.02	24.633
258.39	27.778
258.76	23.837
259.14	23.295
259.51	26.966
259.88	23.848
260.25	26.944
260.62	30.337
260.99	24.934
261.36	29.016
261.73	26.420
262.10	28.753
262.47	27.160
262.85	26.119
263.22	25.641
263.59	23.636
263.96	26.764
264.33	29.087
264.70	26.744
265.07	25.926
265.44	27.126
265.81	27.002
266.18	26.424
266.55	25.764
266.92	27.542
267.29	24.280
267.66	28.238
268.03	26.749
268.40	23.305
268.77	27.686
269.14	27.143
269.51	32.033
269.88	23.625
270.25	26.059
270.62	28.893
270.99	27.559
271.36	23.413
271.73	25.502
272.10	27.238
272.47	27.255
272.84	26.575
273.21	28.571
273.58	27.869
273.95	24.528
274.32	28.172
274.69	27.505
275.06	28.622
275.43	26.177
275.80	26.064
276.17	27.256
276.54	24.689
276.91	25.261
277.28	23.105
277.65	23.601
278.02	26.964
278.39	23.446
278.76	26.589
279.13	24.528
279.50	23.793
279.87	25.181
280.23	28.288
280.60	25.433
280.97	23.864
281.34	25.394
281.71	24.065
282.08	24.274
282.45	26.557
282.82	25.080
283.19	26.067
283.56	26.406
283.92	25.688
284.29	26.209
284.66	24.053
285.03	23.453
285.40	23.565
285.77	25.826
286.14	25.380
286.51	25.487
286.87	24.615
287.24	24.926
287.61	24.699
287.98	24.265
288.35	24.590
288.72	24.821
289.08	25.641
289.45	23.348
289.82	24.811
290.19	25.947
290.56	21.165
290.93	21.409
291.29	22.845
291.66	23.497
292.03	23.161
292.40	24.361
292.77	22.088
293.13	23.431
293.50	20.915
293.87	22.133
294.24	21.825
294.60	22.627
294.97	21.032
295.34	21.504
295.71	20.105
296.08	21.335
296.44	21.556
296.81	20.341
297.18	23.375
297.55	21.698
297.91	22.360
298.28	22.639
298.65	22.167
299.02	21.123
299.38	19.877
299.75	21.154
300.12	19.767
300.48	19.064
300.85	21.247
301.22	20.093
301.59	20.070
301.95	20.441
302.32	19.720
302.69	19.209
303.05	19.269
303.42	20.795
303.79	21.241
304.15	20.153
304.52	20.538
304.89	18.826
305.25	20.307
305.62	17.679
305.99	21.436
306.35	21.212
306.72	19.227
307.09	19.395
307.45	20.767
307.82	21.053
308.19	18.913
308.55	19.243
308.92	20.825
309.29	19.720
309.65	21.778
310.02	20.875
310.38	20.122
310.75	19.921
311.12	19.145
311.48	20.673
311.85	20.768
312.22	20.019
312.58	19.420
312.95	21.692
313.31	21.763
313.68	22.805
314.05	21.739
314.41	22.478
314.78	22.865
315.14	22.685
315.51	23.026
315.87	23.911
316.24	23.324
316.61	25.297
316.97	22.778
317.34	25.134
317.70	25.602
318.07	25.466
318.43	26.558
318.80	25.916
319.16	25.906
319.53	26.613
319.89	27.010
320.26	29.020
320.62	28.638
320.99	28.391
321.35	29.373
321.72	29.355
322.08	29.613
322.45	31.915
322.81	31.238
323.18	31.485
323.54	32.942
323.91	33.966
324.27	33.123
324.64	33.972
325.00	33.246
325.37	35.836
325.73	35.859
326.10	37.006
326.46	36.789
326.83	38.511
327.19	38.943
327.56	41.660
327.92	40.064
328.29	41.486
328.65	43.208
329.01	42.832
329.38	43.304
329.74	43.004
330.11	42.922
330.47	42.795
330.84	44.946
331.20	43.382
331.56	45.924
331.93	45.047
332.29	45.786
332.66	44.492
333.02	46.481
333.38	46.579
333.75	46.843
334.11	47.049
334.48	48.213
334.84	46.731
335.20	46.827
335.57	46.910
335.93	46.993
336.29	45.534
336.66	47.265
337.02	47.304
337.38	47.868
337.75	46.167
338.11	46.968
338.47	46.404
338.84	48.540
339.20	47.619
339.56	47.355
339.93	47.623
340.29	46.968
340.65	47.391
341.02	49.584
341.38	47.128
341.74	47.479
342.11	47.316
342.47	47.782
342.83	46.487
343.20	48.562
343.56	47.833
343.92	48.091
344.28	48.539
344.65	48.408
345.01	47.538
345.37	48.766
345.73	50.000
346.10	48.154
346.46	48.374
346.82	48.234
347.19	48.259
347.55	49.192
347.91	47.467
348.27	48.659
348.63	48.958
349.00	47.484
349.36	48.352
349.72	47.486
350.08	48.128
350.45	48.786
350.81	48.044
351.17	47.421
351.53	49.254
351.89	47.021
352.26	47.799
352.62	48.915
352.98	48.642
353.34	48.470
353.70	48.910
354.07	48.863
354.43	47.512
354.79	50.000
355.15	49.068
355.51	47.532
355.87	48.554
356.24	48.716
356.60	47.381
356.96	49.885
357.32	49.303
357.68	49.198
358.04	49.961
358.40	48.372
358.77	48.318
359.13	48.405
359.49	48.902
359.85	49.431
360.21	49.113
360.57	49.734
360.93	49.469
361.29	49.593
361.66	49.506
362.02	49.592
362.38	50.074
362.74	49.311
363.10	49.241
363.46	49.135
363.82	49.815
364.18	48.586
364.54	50.620
364.90	49.129
365.26	48.691
365.62	50.213
365.98	49.324
366.35	49.645
366.71	49.501
367.07	48.476
367.43	49.895
367.79	49.757
368.15	49.789
368.51	49.015
368.87	49.686
369.23	49.680
369.59	48.978
369.95	50.073
370.31	48.884
370.67	47.719
371.03	49.146
371.39	50.390
371.75	49.714
372.11	49.858
372.47	50.613
372.83	49.653
373.19	49.784
373.55	49.494
373.91	49.222
374.27	49.585
374.63	50.284
374.99	47.911
375.35	50.068
375.71	47.215
376.07	50.308
376.42	49.666
376.78	49.934
377.14	51.051
377.50	49.935
377.86	49.801
378.22	50.063
378.58	49.559
378.94	51.563
379.30	50.031
379.66	50.308
380.02	50.306
380.38	50.000
380.74	50.807
381.09	49.940
381.45	49.456
381.81	48.552
382.17	50.284
382.53	49.169
382.89	48.914
383.25	49.383
383.61	49.516
383.97	49.187
384.32	49.149
384.68	50.833
385.04	48.320
385.40	50.623
385.76	49.513
386.12	49.451
386.48	48.903
386.83	50.626
387.19	49.537
387.55	48.988
387.91	50.984
388.27	50.000
388.62	49.189
388.98	50.876
389.34	50.188
389.70	48.779
390.06	48.938
390.42	51.289
390.77	49.904
391.13	49.558
391.49	48.514
391.85	47.987
392.20	48.935
392.56	49.143
392.92	48.215
393.28	48.693
393.64	49.297
393.99	47.797
394.35	48.457
394.71	49.487
395.07	47.736
395.42	49.421
395.78	48.520
396.14	48.637
396.50	48.573
396.85	49.331
397.21	48.564
397.57	47.329
397.92	48.024
398.28	48.787
398.64	48.998
399.00	48.996
399.35	48.241
399.71	47.991
400.07	47.590
400.42	48.150
400.78	49.486
401.14	47.701
401.49	48.053
401.85	47.912
402.21	49.102
402.57	47.885
402.92	48.686
403.28	48.655
403.63	47.303
403.99	49.456
404.35	48.691
404.70	47.311
405.06	47.915
405.42	46.420
405.77	47.235
406.13	47.657
406.49	47.933
406.84	47.741
407.20	46.300
407.55	48.052
407.91	47.452
408.27	47.162
408.62	47.391
408.98	45.191
409.34	47.092
409.69	47.368
410.05	47.512
410.40	45.892
410.76	46.751
411.11	47.139
411.47	47.578
411.83	45.477
412.18	46.285
412.54	46.930
412.89	46.583
413.25	45.074
413.60	46.270
413.96	46.380
414.31	45.438
414.67	44.381
415.03	46.346
415.38	48.151
415.74	45.874
416.09	46.794
416.45	45.386
416.80	47.047
417.16	46.491
417.51	45.144
417.87	46.627
418.22	45.895
418.58	45.532
418.93	46.830
419.29	46.799
419.64	46.056
420.00	45.016
420.35	45.188
420.71	45.338
421.06	45.572
421.42	45.377
421.77	45.780
422.12	46.361
422.48	45.420
422.83	45.422
423.19	45.658
423.54	45.289
423.90	44.774
424.25	46.447
424.61	46.457
424.96	45.180
425.31	44.476
425.67	46.032
426.02	46.172
426.38	44.838
426.73	45.938
427.09	45.153
427.44	44.686
427.79	45.071
428.15	44.526
428.50	43.927
428.85	45.572
429.21	44.063
429.56	45.855
429.92	45.601
430.27	44.990
430.62	44.229
430.98	44.685
431.33	45.782
431.68	45.314
432.04	45.070
432.39	44.688
432.74	44.267
433.10	45.148
433.45	44.970
433.80	45.000
434.16	43.419
434.51	44.620
434.86	45.583
435.22	44.369
435.57	43.428
435.92	43.667
436.28	43.784
436.63	44.342
436.98	44.007
437.34	44.750
437.69	42.975
438.04	42.954
438.39	45.081
438.75	45.352
439.10	45.865
439.45	45.218
439.81	44.335
440.16	44.986
440.51	43.639
440.86	43.806
441.22	43.890
441.57	43.601
441.92	44.790
442.27	43.452
442.63	44.456
442.98	43.171
443.33	43.962
443.68	44.808
444.03	43.020
444.39	43.530
444.74	43.125
445.09	43.667
445.44	43.380
445.79	44.244
446.15	45.258
446.50	43.612
446.85	43.987
447.20	44.171
447.55	43.537
447.91	43.483
448.26	43.168
448.61	43.613
448.96	43.622
449.31	43.975
449.66	44.766
450.02	44.400
450.37	43.537
450.72	42.308
451.07	43.699
451.42	43.044
451.77	44.370
452.12	41.771
452.47	44.803
452.83	43.337
453.18	43.730
453.53	43.127
453.88	43.373
454.23	43.572
454.58	43.260
454.93	42.335
455.28	43.802
455.63	42.420
455.98	42.422
456.34	42.022
456.69	42.428
457.04	42.105
457.39	42.574
457.74	43.567
458.09	42.891
458.44	42.479
458.79	41.571
459.14	41.573
459.49	42.256
459.84	42.503
460.19	41.417
460.54	42.032
460.89	42.286
461.24	42.540
461.59	43.478
461.94	42.984
462.29	41.544
462.64	42.480
462.99	42.186
463.34	42.472
463.69	42.719
464.04	41.176
464.39	42.526
464.74	41.585
465.09	42.405
465.44	41.134
465.79	41.576
466.14	41.904
466.49	41.935
466.84	42.439
467.19	41.975
467.54	42.579
467.89	41.798
468.24	41.979
468.59	42.129
468.94	41.699
469.29	41.110
469.64	41.911
469.99	41.034
470.34	40.526
470.68	42.156
471.03	41.185
471.38	40.473
471.73	41.427
472.08	42.131
472.43	42.018
472.78	41.312
473.13	39.908
473.48	41.357
473.83	40.929
474.17	40.560
474.52	41.230
474.87	40.832
475.22	41.123
475.57	40.993
475.92	40.622
476.27	40.268
476.61	41.336
476.96	40.777
477.31	38.997
477.66	41.356
478.01	41.099
478.36	40.490
478.70	41.031
479.05	40.954
479.40	39.938
479.75	40.648
480.10	40.286
480.45	39.431
480.79	39.871
481.14	40.932
481.49	41.046
481.84	39.774
482.19	39.648
482.53	40.857
482.88	40.077
483.23	39.413
483.58	38.705
483.92	39.397
484.27	39.250
484.62	39.547
484.97	40.066
485.31	40.064
485.66	37.673
486.01	38.966
486.36	38.302
486.70	38.609
487.05	38.792
487.40	38.439
487.75	39.707
488.09	39.224
488.44	38.661
488.79	39.402
489.13	39.125
489.48	38.991
489.83	39.705
490.17	39.582
490.52	40.065
490.87	38.943
491.22	39.001
491.56	39.674
491.91	39.078
492.26	40.232
492.60	39.009
492.95	39.504
493.30	38.081
493.64	38.417
493.99	38.986
494.34	38.150
494.68	39.523
495.03	38.834
495.37	39.027
495.72	38.596
496.07	39.357
496.41	38.091
496.76	39.762
497.11	39.249
497.45	38.619
497.80	39.828
498.14	39.496
498.49	38.174
498.84	38.259
499.18	38.875
499.53	38.060
499.87	38.865
500.22	38.328
500.56	39.318
500.91	38.984
501.26	38.276
501.60	38.333
501.95	38.333
502.29	38.010
502.64	37.898
502.98	37.572
503.33	38.102
503.67	38.656
504.02	37.794
504.36	37.741
504.71	37.957
505.06	37.748
505.40	38.505
505.75	38.250
506.09	37.711
506.44	37.147
506.78	38.903
507.13	38.514
507.47	38.229
507.82	37.572
508.16	38.100
508.51	38.017
508.85	37.584
509.19	38.677
509.54	38.338
509.88	37.742
510.23	37.421
510.57	38.189
510.92	38.470
511.26	37.954
511.61	37.651
511.95	38.203
512.30	37.368
512.64	38.365
512.98	37.230
513.33	37.634
513.67	37.933
514.02	38.198
514.36	37.584
514.70	37.644
515.05	37.624
515.39	37.677
515.74	38.366
516.08	38.230
516.42	36.924
516.77	37.551
517.11	37.390
517.46	39.316
517.80	38.741
518.14	37.844
518.49	37.191
518.83	36.516
519.17	36.807
519.52	37.033
519.86	37.158
520.20	37.720
520.55	35.945
520.89	37.255
521.23	37.628
521.58	36.662
521.92	36.266
522.26	36.630
522.61	36.393
522.95	37.241
523.29	37.905
523.64	38.716
523.98	36.785
524.32	36.925
524.66	36.883
525.01	38.008
525.35	36.998
525.69	36.912
526.04	35.896
526.38	37.859
526.72	36.358
527.06	35.977
527.41	36.797
527.75	36.515
528.09	38.189
528.43	37.788
528.78	36.951
529.12	36.675
529.46	37.236
529.80	36.375
530.15	36.036
530.49	37.668
530.83	36.967
531.17	37.192
531.51	36.210
531.86	35.840
532.20	36.320
532.54	35.724
532.88	35.943
533.22	36.566
533.57	35.960
533.91	36.839
534.25	36.849
534.59	36.100
534.93	36.288
535.27	35.796
535.62	37.237
535.96	36.304
536.30	36.503
536.64	34.928
536.98	35.599
537.32	35.801
537.66	36.953
538.01	35.368
538.35	35.704
538.69	35.050
539.03	35.772
539.37	35.211
539.71	35.539
540.05	34.683
540.39	34.756
540.73	35.196
541.07	35.034
541.42	35.825
541.76	35.183
542.10	34.868
542.44	36.175
542.78	35.808
543.12	35.243
543.46	33.587
543.80	34.352
544.14	36.201
544.48	35.036
544.82	34.835
545.16	35.565
545.50	36.057
545.84	34.853
546.18	34.502
546.52	34.227
546.86	34.276
547.20	34.453
547.54	36.169
547.88	35.830
548.22	34.463
548.56	33.889
548.90	34.980
549.24	35.208
549.58	33.665
549.92	34.923
550.26	36.605
550.60	35.060
550.94	34.254
551.28	34.822
551.62	34.286
551.96	35.432
552.30	33.333
552.64	33.686
552.98	35.085
553.32	33.670
553.66	35.216
554.00	34.053
554.34	33.333
554.68	33.855
555.02	33.832
555.36	34.644
555.69	33.722
556.03	33.095
556.37	32.504
556.71	33.777
557.05	34.170
557.39	32.931
557.73	34.871
558.07	33.836
558.41	33.687
558.75	34.488
559.08	32.959
559.42	34.382
559.76	33.563
560.10	35.050
560.44	34.709
560.78	34.101
561.12	33.987
561.45	32.721
561.79	32.462
562.13	33.826
562.47	33.786
562.81	33.117
563.15	33.215
563.48	32.278
563.82	33.105
564.16	33.243
564.50	34.464
564.84	33.514
565.17	33.907
565.51	33.289
565.85	31.779
566.19	32.980
566.52	32.700
566.86	32.743
567.20	32.987
567.54	32.758
567.88	31.691
568.21	31.722
568.55	32.603
568.89	31.755
569.23	32.172
569.56	32.249
569.90	31.633
570.24	31.191
570.57	31.082
570.91	31.292
571.25	31.178
571.59	30.968
571.92	31.300
572.26	31.809
572.60	31.321
572.93	30.990
573.27	30.823
573.61	31.183
573.95	30.830
574.28	30.833
574.62	30.511
574.96	30.832
575.29	30.993
575.63	30.980
575.97	31.277
576.30	30.644
576.64	31.255
576.98	30.298
577.31	30.998
577.65	29.932
577.98	30.643
578.32	30.016
578.66	30.804
578.99	30.962
579.33	30.735
579.67	30.779
580.00	30.410
580.34	30.102
580.67	30.622
581.01	30.224
581.35	30.411
581.68	30.248
582.02	30.306
582.35	30.540
582.69	30.029
583.02	29.762
583.36	30.436
583.70	29.972
584.03	30.601
584.37	30.273
584.70	29.960
585.04	30.718
585.37	30.401
585.71	30.270
586.04	30.501
586.38	29.545
586.72	29.699
587.05	30.598
587.39	30.220
587.72	30.186
588.06	30.287
588.39	30.143
588.73	29.964
589.06	29.745
589.40	30.100
589.73	29.752
590.07	29.785
590.40	30.973
590.73	30.875
591.07	30.506
591.40	30.957
591.74	29.435
592.07	30.899
592.41	30.974
592.74	30.208
593.08	30.222
593.41	29.961
593.75	30.039
594.08	30.259
594.41	29.909
594.75	30.210
595.08	30.732
595.42	29.241
595.75	30.369
596.09	29.985
596.42	29.943
596.75	30.057
597.09	30.118
597.42	30.372
597.75	29.333
598.09	29.463
598.42	30.336
598.76	29.639
599.09	30.412
599.42	29.192
599.76	29.516
600.09	29.330
600.42	29.944
600.76	29.564
601.09	29.680
601.42	29.871
601.76	29.266
602.09	29.631
602.42	29.839
602.76	29.362
603.09	30.144
603.42	29.348
603.76	29.228
604.09	29.723
604.42	28.631
604.76	30.249
605.09	29.633
605.42	30.364
605.75	29.936
606.09	29.346
606.42	29.385
606.75	28.485
607.09	29.920
607.42	29.159
607.75	28.315
608.08	30.117
608.42	29.756
608.75	30.053
609.08	29.691
609.41	29.309
609.75	29.148
610.08	28.698
610.41	30.126
610.74	29.981
611.07	28.607
611.41	30.348
611.74	29.503
612.07	28.661
612.40	29.730
612.73	30.735
613.07	29.435
613.40	30.892
613.73	29.686
614.06	28.911
614.39	29.516
614.72	30.094
615.06	28.944
615.39	28.808
615.72	28.618
616.05	29.336
616.38	29.439
616.71	28.494
617.05	29.361
617.38	28.897
617.71	28.738
618.04	29.129
618.37	30.221
618.70	29.560
619.03	28.660
619.36	29.324
619.69	29.313
620.03	28.905
620.36	29.088
620.69	28.837
621.02	28.154
621.35	28.128
621.68	29.503
622.01	30.097
622.34	28.787
622.67	29.992
623.00	30.167
623.33	30.441
623.66	28.253
623.99	28.507
624.32	28.613
624.65	30.415
624.99	28.729
625.32	29.873
625.65	28.450
625.98	29.068
626.31	29.796
626.64	29.407
626.97	29.239
627.30	28.914
627.63	29.152
627.96	27.706
628.29	29.395
628.62	29.981
628.95	28.858
629.28	30.246
629.61	31.388
629.94	29.594
630.26	30.246
630.59	30.470
630.92	27.811
631.25	30.278
631.58	29.657
631.91	28.314
632.24	28.211
632.57	29.111
632.90	29.172
633.23	28.297
633.56	28.777
633.89	29.665
634.22	31.684
634.55	30.329
634.88	30.392
635.20	30.375
635.53	28.941
635.86	29.359
636.19	30.397
636.52	27.927
636.85	28.468
637.18	27.649
637.51	30.087
637.83	30.418
638.16	29.733
638.49	28.705
638.82	28.497
639.15	30.053
639.48	30.080
639.81	30.694
640.13	29.296
640.46	29.237
640.79	29.496
641.12	28.994
641.45	28.821
641.77	29.161
642.10	31.014
642.43	30.346
642.76	28.549
643.09	29.872
643.41	29.027
643.74	29.725
644.07	28.641
644.40	29.022
644.73	30.678
645.05	29.319
645.38	27.243
645.71	27.721
646.04	26.263
646.36	31.250
646.69	26.049
647.02	30.601
647.35	31.261
647.67	29.020
648.00	29.167
648.33	28.983
648.66	27.379
648.98	28.106
649.31	27.914
649.64	28.013
649.96	28.594
650.29	27.941
650.62	26.030
650.94	26.897
651.27	30.035
651.60	28.322
651.92	26.882
652.25	30.318
652.58	29.043
652.90	29.125
653.23	29.542
653.56	27.934
653.88	26.621
654.21	28.840
654.54	29.070
654.86	25.691
655.19	27.451
655.52	29.078
655.84	27.524
656.17	33.396
656.49	44.125
656.82	42.868
657.15	31.833
657.47	23.604
657.80	17.446
658.13	18.306
658.45	26.056
658.78	25.956
659.10	24.929
659.43	24.982
659.75	25.868
660.08	25.931
660.41	25.051
660.73	26.722
661.06	27.041
661.38	25.194
661.71	26.025
662.03	30.021
662.36	26.327
662.68	25.806
663.01	30.508
663.33	27.430
663.66	24.169
663.98	27.640
664.31	26.813
664.63	24.099
664.96	27.571
665.28	28.755
665.61	26.566
665.93	29.336
666.26	28.692
666.58	29.122
666.91	30.717
667.23	25.115
667.56	28.966
667.88	27.336
668.21	28.348
668.53	25.977
668.86	29.017
669.18	26.005
669.50	28.341
669.83	29.356
670.15	27.857
670.48	27.586
670.80	30.853
671.13	29.519
671.45	26.484
671.77	26.509
672.10	25.731
672.42	26.145
672.75	26.786
673.07	25.273
673.39	26.119
673.72	27.345
674.04	26.230
674.37	28.455
674.69	27.366
675.01	26.068
675.34	25.821
675.66	26.580
675.98	27.655
676.31	24.661
676.63	26.984
676.95	23.765
677.28	24.083
677.60	26.961
677.92	27.273
678.25	27.983
678.57	29.532
678.89	23.667
679.22	25.052
679.54	25.306
679.86	28.711
680.18	27.115
680.51	24.038
680.83	26.121
681.15	27.701
681.48	24.850
681.80	26.789
682.12	25.625
682.44	27.364
682.77	22.737
683.09	22.991
683.41	21.628
683.73	21.429
684.06	26.770
684.38	25.000
684.70	24.033
685.02	27.066
685.34	26.419
685.67	27.205
685.99	28.114
686.31	26.552
686.63	25.184
686.96	27.087
687.28	25.549
687.60	28.355
687.92	25.486
688.24	23.400
688.56	28.728
688.89	22.717
689.21	28.924
689.53	22.748
689.85	25.618
690.17	26.593
690.49	26.570
690.82	26.014
691.14	26.812
691.46	26.218
691.78	25.714
692.10	29.299
692.42	25.055
692.74	24.565
693.06	24.270
693.39	24.824
693.71	24.889
694.03	27.500
694.35	28.829
694.67	28.250
694.99	28.351
695.31	26.098
695.63	25.366
695.95	23.155
696.27	24.384
696.59	25.269
696.91	27.374
697.23	27.919
697.56	24.940
697.88	27.859
698.20	23.974
698.52	26.168
698.84	24.641
699.16	26.714
699.48	28.395
699.80	27.390
700.12	26.810
700.44	24.507
700.76	23.876
701.08	26.284
701.40	24.850
701.72	23.692
702.04	22.013
702.36	28.049
702.68	23.780
703.00	23.684
703.32	23.955
703.64	29.217
703.96	26.100
704.28	22.892
704.60	22.866
704.91	23.511
705.23	25.316
705.55	24.828
705.87	26.056
706.19	24.542
706.51	23.592
706.83	23.248
707.15	28.049
707.47	25.895
707.79	25.888
708.11	26.478
708.43	25.635
708.74	25.798
709.06	23.797
709.38	25.072
709.70	25.225
710.02	22.118
710.34	23.333
710.66	27.362
710.98	26.625
711.29	25.325
711.61	26.129
711.93	21.290
712.25	26.224
712.57	18.246
712.89	27.473
713.20	25.177
713.52	27.007
713.84	25.806
714.16	26.861
714.48	25.949
714.80	23.323
715.11	28.198
715.43	23.292
715.75	25.155
716.07	25.904
716.39	26.263
716.70	25.540
717.02	21.961
717.34	28.409
717.66	21.121
717.97	19.841
718.29	23.622
718.61	24.464
718.93	19.767
719.24	21.402
719.56	22.846
719.88	23.134
720.20	23.715
720.51	23.047
720.83	27.237
721.15	19.512
721.46	22.901
721.78	23.108
722.10	23.904
722.42	17.339
722.73	25.869
723.05	24.898
723.37	26.471
723.68	25.200
724.00	20.000
724.32	23.431
724.63	27.572
724.95	21.368
725.27	23.629
725.58	27.572
725.90	20.502
726.22	21.014
726.53	22.353
726.85	24.453
727.16	21.481
727.48	26.820
727.80	25.000
728.11	21.311
728.43	22.266
728.74	23.016
729.06	22.800
729.38	24.506
729.69	28.114
730.01	21.190
730.32	22.509
730.64	24.621
730.96	27.622
731.27	20.401
731.59	26.667
731.90	25.243
732.22	22.115
732.53	20.270
732.85	24.161
733.16	24.092
733.48	21.959
733.80	23.986
734.11	27.703
734.43	23.220
734.74	28.228
735.06	26.801
735.37	22.492
735.69	22.654
736.00	22.112
736.32	25.532
736.63	26.897
736.95	21.233
737.26	23.448
737.58	25.000
737.89	25.773
738.21	22.776
738.52	22.814
738.83	26.939
739.15	21.941
739.46	17.899
739.78	20.775
740.09	23.288
740.41	19.643
740.72	20.922
741.04	19.600
741.35	21.491
741.66	26.222
741.98	26.442
742.29	29.703
742.61	22.439
742.92	26.316
743.23	18.396
743.55	19.369
743.86	21.076
744.18	24.510
744.49	22.843
744.80	20.918
745.12	21.028
745.43	23.697
745.74	25.225
746.06	19.159
746.37	24.312
746.68	23.077
747.00	24.402
747.31	25.000
747.62	20.183
747.94	27.948
748.25	18.807
748.56	26.667
748.88	27.230
749.19	28.095
749.50	22.330
749.82	16.901
750.13	17.500
750.44	22.308
750.75	26.568
751.07	26.335
751.38	20.567
751.69	23.552
752.01	20.313
752.32	23.846
752.63	22.761
752.94	26.800
753.26	23.013
753.57	22.500
753.88	23.077
754.19	26.693
754.51	21.805
754.82	19.780
755.13	19.565
755.44	23.984
755.75	18.800
756.07	23.247
756.38	23.741
756.69	21.160
757.00	24.611
757.31	22.330
757.63	22.531
757.94	23.729
758.25	23.810
758.56	25.000
758.87	22.917
759.18	25.868
759.50	19.192
759.81	25.418
760.12	23.385
760.43	21.726
760.74	21.751
761.05	22.376
761.36	22.350
761.67	20.846
761.99	21.649
762.30	20.803
762.61	22.222
762.92	21.368
763.23	22.131
763.54	19.481
763.85	19.592
764.16	19.106
764.47	18.800
764.78	22.143
765.10	22.295
765.41	23.404
765.72	21.429
766.03	22.112
766.34	23.462
766.65	20.084
766.96	21.596
767.27	27.228
767.58	14.607
767.89	18.519
768.20	24.309
768.51	23.618
768.82	23.077
769.13	22.566
769.44	19.665
769.75	15.812
770.06	25.112
770.37	17.157
770.68	24.272
770.99	16.505
771.30	19.748
771.61	17.143
771.92	26.141
772.23	25.676
772.54	10.497
772.85	20.930
773.16	28.042
773.47	15.976
773.78	23.563
774.09	21.875
774.39	23.602
774.70	25.170
775.01	15.862
775.32	20.714
775.63	14.286
775.94	11.278
776.25	9.600
776.56	19.008
776.87	22.222
777.18	23.423
777.48	20.721
777.79	18.110
778.10	18.349
778.41	21.930
778.72	20.168
779.03	7.746
779.34	21.622
779.65	13.380
779.95	23.841
780.26	8.633
780.57	19.424
780.88	25.352
781.19	15.966
781.50	23.490
781.80	21.637
782.11	21.512
782.42	28.931
782.73	16.340
783.04	22.759
783.34	12.214
783.65	20.805
783.96	9.231
784.27	29.286
784.57	17.730
784.88	7.692
785.19	25.455
785.50	19.091
785.81	25.714
786.11	10.084
786.42	15.044
786.73	-4.717
787.04	13.761
787.34	10.891
787.65	24.167
787.96	14.050
788.26	15.942
788.57	13.492
788.88	19.512
789.19	12.000
789.49	22.901
789.80	21.212
790.11	18.868
790.41	23.762
790.72	24.468
791.03	5.435
791.33	21.176
791.64	20.988
791.95	10.870
792.25	15.909
792.56	16.667
792.87	3.846
793.17	-2.564
793.48	4.762
793.79	5.000
794.09	26.923
794.40	25.000
794.70	18.919
795.01	12.500
795.32	13.043
795.62	7.609
795.93	12.264
796.23	21.212
796.54	23.171
796.85	17.857
797.15	3.030
797.46	15.942
797.76	23.684
798.07	22.727
798.37	20.732
798.68	-1.613
798.99	4.054
799.29	18.072
799.60	7.692
799.90	12.308
800.21	25.758
800.51	9.333
800.82	21.333
801.12	-12.500
801.43	-21.667
801.73	6.757
802.04	24.286
802.34	4.918
802.65	11.940
802.95	9.091
803.26	15.517
803.56	10.769
803.87	26.415
804.17	12.903
804.48	10.294
804.78	-9.756
805.09	18.841
805.39	0.000
805.70	-34.043
806.00	-10.526
806.30	14.103
806.61	14.474
806.91	17.568
807.22	9.211
807.52	12.500
807.83	-1.695
808.13	-4.545
808.43	15.000
808.74	-37.931
809.04	-1.587
809.35	-10.204
809.65	-10.000
809.95	-6.122
810.26	21.127
810.56	-8.333
810.86	-8.163
811.17	9.615
811.47	-8.511
811.77	-2.083
812.08	13.208
812.38	-34.375
812.69	1.818
812.99	-2.439
813.29	-21.622
813.59	-13.514
813.90	-7.273
814.20	14.545
814.50	5.000
814.81	25.455
815.11	-3.509
815.41	48.837
815.72	-2.500
816.02	-22.857
816.32	-37.838
816.62	-4.167
816.93	-4.444
817.23	0.000
817.53	-30.556
817.84	-24.324
818.14	9.756
818.44	2.000
818.74	20.408
819.04	9.756
819.35	-2.778
819.65	6.818
819.95	-94.444
820.25	15.152
820.56	-14.286
820.86	-19.444
821.16	-11.364
821.46	-13.043
821.76	8.621
822.07	6.522
822.37	3.030
822.67	17.073
822.97	16.216
823.27	-28.571
823.57	6.897
823.88	5.882
824.18	22.222
824.48	14.286
824.78	9.524
825.08	-39.286
825.38	0.000
825.69	-45.161
825.99	-7.317
826.29	-18.519
826.59	3.125
826.89	-6.452
827.19	-21.739
827.49	-13.889
827.79	-60.870
828.09	-54.839
828.39	2.083
828.70	-15.625
829.00	-20.690
829.30	-8.108
829.60	-58.333
829.90	-3.704
830.20	-21.875
830.50	-50.000
830.80	-88.235
831.10	-31.818
831.40	8.824
831.70	-3.846
832.00	30.303
832.30	-8.824
832.60	-8.108
832.90	1200.000
833.20	-32.143
833.50	-85.000
833.80	10.526
834.10	-62.500
834.40	-54.545
834.70	-40.000
835.00	-40.000
835.30	4.167
835.60	-52.381
835.90	19.048
836.20	-32.000
836.50	-12.500
836.80	-52.632
837.10	5.405
837.40	20.000
837.70	-39.130
838.00	29.167
838.30	0.000
838.60	-150.000
838.90	-180.000
839.19	-50.000
839.49	0.000
839.79	-31.579
840.09	-150.000
840.39	-110.000
840.69	-27.273
840.99	4.762
841.29	4.167
841.59	-100.000
841.88	-80.000
842.18	-50.000
842.48	6.667
842.78	-214.286
843.08	-35.714
843.38	-112.500
843.68	-50.000
843.97	-50.000
844.27	-122.222
844.57	-72.727
844.87	-40.000
845.17	-18.182
845.47	800.000
845.76	-80.000
846.06	-100.000
846.36	-1100.000
846.66	-31.579
846.96	-36.364
847.25	-94.444
847.55	-133.333
847.85	-42.857
848.15	-69.231
848.44	-200.000
848.74	-158.333
849.04	-92.308
849.34	-325.000
849.63	-136.364
849.93	-157.143
850.23	15.000
850.53	-125.000
850.82	-50.000
851.12	-46.667
851.42	-58.824
851.71	-162.500
852.01	41.176
852.31	0.000
852.61	600.000
852.90	-29.412
853.20	0.000
853.50	6.250
853.79	-100.000
854.09	-175.000
854.39	-15.000
854.68	-12.500
854.98	-19.048
855.28	-36.000
855.57	37.500
855.87	-8.333
856.17	-72.000
856.46	-9.375
856.76	0.000
857.05	8.000
857.35	-100.000
857.65	-5.882
857.94	-108.333
858.24	-75.000
858.53	5.000
858.83	-109.091
859.13	12.000
859.42	-64.286
859.72	-150.000
860.01	-20.833
860.31	-200.000
860.60	-31.250
860.90	-16.667
861.20	0.000
861.49	-53.333
861.79	-87.500
862.08	250.000
862.38	-66.667
862.67	171.429
862.97	175.000
863.26	-54.545
863.56	-90.909
863.85	21.053
864.15	0.000
864.44	-200.000
864.74	-80.000
865.03	-144.444
865.33	-71.429
865.62	164.286
865.92	10.526
866.21	-50.000
866.51	-45.455
866.80	-33.333
867.10	-150.000
867.39	-6.250
867.69	-40.000
867.98	30.000
868.27	-52.941
868.57	0.000
868.86	900.000
869.16	-200.000
869.45	-157.143
869.75	800.000
870.04	-20.000
870.33	-1800.000
870.63	-42.105
870.92	-100.000
871.22	-1600.000
871.51	-157.143
871.80	-211.111
872.10	-75.000
>>>>>End Processed Spectral Data<<<<<
