SpectraSuite Data File
++++++++++++++++++++++++++++++++++++
Date: Wed May 13 21:29:23 PDT 2015
User: schluterlab
Dark Spectrum Present: Yes
Reference Spectrum Present: Yes
Number of Sampled Component Spectra: 1
Spectrometers: USB2E3373
Integration Time (usec): 3000 (USB2E3373)
Spectra Averaged: 3 (USB2E3373)
Boxcar Smoothing: 0 (USB2E3373)
Correct for Electrical Dark: No (USB2E3373)
Strobe/Lamp Enabled: No (USB2E3373)
Correct for Detector Non-linearity: No (USB2E3373)
Correct for Stray Light: No (USB2E3373)
Number of Pixels in Processed Spectrum: 2048
>>>>>Begin Processed Spectral Data<<<<<
178.53	0.000
178.91	450.000
179.29	175.000
179.67	-450.000
180.04	-533.333
180.42	280.000
180.80	1900.000
181.18	366.667
181.56	-500.000
181.94	-175.000
182.31	-109.091
182.69	123.077
183.07	-260.000
183.45	283.333
183.83	122.222
184.20	228.571
184.58	-366.667
184.96	400.000
185.34	228.571
185.72	0.000
186.09	-700.000
186.47	-60.000
186.85	40.000
187.23	-150.000
187.61	500.000
187.98	1200.000
188.36	-75.000
188.74	0.000
189.12	-63.636
189.49	0.000
189.87	141.667
190.25	280.000
190.63	700.000
191.00	-160.000
191.38	260.000
191.76	350.000
192.14	166.667
192.51	-10.526
192.89	100.000
193.27	325.000
193.65	-220.000
194.02	227.273
194.40	170.000
194.78	-600.000
195.15	300.000
195.53	-260.000
195.91	-62.500
196.29	-266.667
196.66	0.000
197.04	800.000
197.42	-20.000
197.79	-20.000
198.17	-137.500
198.55	-166.667
198.92	175.000
199.30	-433.333
199.68	0.000
200.05	450.000
200.43	50.000
200.81	-1400.000
201.18	-200.000
201.56	-100.000
201.94	650.000
202.31	17.391
202.69	-142.857
203.07	-600.000
203.44	-60.000
203.82	-66.667
204.19	-20.000
204.57	0.000
204.95	-66.667
205.32	0.000
205.70	-150.000
206.08	-475.000
206.45	-166.667
206.83	450.000
207.20	-300.000
207.58	-80.000
207.96	-1700.000
208.33	-57.143
208.71	-400.000
209.08	250.000
209.46	375.000
209.84	0.000
210.21	100.000
210.59	2200.000
210.96	340.000
211.34	1500.000
211.71	-400.000
212.09	-216.667
212.46	-150.000
212.84	-200.000
213.22	-100.000
213.59	-800.000
213.97	-650.000
214.34	-900.000
214.72	-38.462
215.09	162.500
215.47	233.333
215.84	950.000
216.22	-237.500
216.59	-300.000
216.97	633.333
217.34	44.444
217.72	0.000
218.09	366.667
218.47	-1400.000
218.84	-257.143
219.22	-162.500
219.59	-200.000
219.97	-300.000
220.34	-50.000
220.72	-40.000
221.09	0.000
221.47	-200.000
221.84	-400.000
222.22	0.000
222.59	1200.000
222.97	-333.333
223.34	-83.333
223.72	-1900.000
224.09	-650.000
224.46	-36.364
224.84	-175.000
225.21	-171.429
225.59	-425.000
225.96	-116.667
226.34	-60.000
226.71	-171.429
227.08	350.000
227.46	-112.500
227.83	-100.000
228.21	-118.750
228.58	-125.000
228.95	-11.765
229.33	-50.000
229.70	-25.000
230.08	-15.385
230.45	-225.000
230.82	-16.667
231.20	242.857
231.57	-175.000
231.95	400.000
232.32	8.333
232.69	11.765
233.07	-1300.000
233.44	-60.870
233.81	-800.000
234.19	25.000
234.56	-46.667
234.93	33.333
235.31	10.526
235.68	-115.385
236.05	-15.385
236.43	-66.667
236.80	-18.182
237.17	-126.667
237.55	-64.706
237.92	-27.586
238.29	-40.741
238.67	-11.111
239.04	-19.355
239.41	4.255
239.79	4.255
240.16	18.605
240.53	7.143
240.91	23.214
241.28	12.500
241.65	17.742
242.02	1.316
242.40	21.739
242.77	8.696
243.14	17.949
243.51	9.574
243.89	21.154
244.26	26.415
244.63	15.385
245.00	17.708
245.38	13.445
245.75	11.475
246.12	19.549
246.49	13.821
246.87	11.765
247.24	20.270
247.61	17.219
247.98	25.641
248.36	18.343
248.73	19.101
249.10	22.222
249.47	14.516
249.84	21.053
250.22	19.900
250.59	22.430
250.96	16.364
251.33	15.311
251.70	20.921
252.08	20.502
252.45	20.576
252.82	21.673
253.19	20.233
253.56	20.863
253.94	26.335
254.31	23.239
254.68	25.168
255.05	23.432
255.42	21.329
255.79	22.393
256.16	23.344
256.54	21.905
256.91	18.671
257.28	20.440
257.65	22.611
258.02	20.821
258.39	19.298
258.76	20.058
259.14	23.864
259.51	20.787
259.88	22.764
260.25	26.389
260.62	19.663
260.99	25.464
261.36	20.466
261.73	21.728
262.10	22.137
262.47	20.988
262.85	21.393
263.22	24.103
263.59	21.299
263.96	20.925
264.33	19.952
264.70	24.186
265.07	20.602
265.44	22.759
265.81	21.739
266.18	20.729
266.55	22.489
266.92	22.246
267.29	20.988
267.66	22.718
268.03	24.074
268.40	21.186
268.77	23.140
269.14	23.061
269.51	24.641
269.88	20.978
270.25	24.576
270.62	21.107
270.99	22.244
271.36	22.619
271.73	25.904
272.10	22.095
272.47	23.033
272.84	20.866
273.21	22.505
273.58	22.746
273.95	20.755
274.32	24.627
274.69	22.587
275.06	22.968
275.43	21.846
275.80	21.277
276.17	21.363
276.54	23.268
276.91	21.254
277.28	20.217
277.65	20.804
278.02	21.964
278.39	21.314
278.76	24.582
279.13	22.470
279.50	23.103
279.87	23.007
280.23	22.883
280.60	21.799
280.97	22.727
281.34	23.186
281.71	20.813
282.08	22.051
282.45	20.164
282.82	23.003
283.19	23.476
283.56	21.094
283.92	22.018
284.29	22.153
284.66	21.746
285.03	21.336
285.40	21.601
285.77	21.171
286.14	20.973
286.51	23.988
286.87	20.923
287.24	20.501
287.61	21.687
287.98	21.912
288.35	21.908
288.72	21.090
289.08	21.510
289.45	22.320
289.82	21.331
290.19	21.178
290.56	19.318
290.93	18.923
291.29	20.520
291.66	19.945
292.03	20.708
292.40	20.054
292.77	20.616
293.13	19.944
293.50	19.477
293.87	20.400
294.24	21.032
294.60	20.676
294.97	21.164
295.34	18.602
295.71	18.397
296.08	18.325
296.44	17.347
296.81	18.270
297.18	19.125
297.55	17.807
297.91	18.634
298.28	17.797
298.65	16.872
299.02	18.559
299.38	16.564
299.75	17.668
300.12	16.512
300.48	15.322
300.85	16.166
301.22	17.770
301.59	16.784
301.95	16.376
302.32	16.336
302.69	18.192
303.05	17.054
303.42	18.295
303.79	17.245
304.15	16.867
304.52	18.172
304.89	15.282
305.25	16.356
305.62	17.245
305.99	17.845
306.35	16.823
306.72	18.616
307.09	17.831
307.45	16.294
307.82	16.632
308.19	15.674
308.55	17.093
308.92	18.861
309.29	16.016
309.65	15.784
310.02	16.402
310.38	16.972
310.75	17.061
311.12	16.618
311.48	16.914
311.85	17.520
312.22	18.375
312.58	17.488
312.95	19.303
313.31	17.355
313.68	19.084
314.05	18.998
314.41	18.732
314.78	19.355
315.14	18.611
315.51	19.410
315.87	19.926
316.24	19.100
316.61	19.817
316.97	20.926
317.34	20.677
317.70	20.696
318.07	21.384
318.43	21.500
318.80	22.513
319.16	21.485
319.53	22.401
319.89	22.855
320.26	24.214
320.62	23.540
320.99	24.322
321.35	23.667
321.72	25.890
322.08	26.661
322.45	26.735
322.81	26.248
323.18	27.102
323.54	28.249
323.91	28.365
324.27	27.903
324.64	27.178
325.00	29.571
325.37	29.608
325.73	29.882
326.10	31.287
326.46	31.856
326.83	32.201
327.19	32.276
327.56	34.005
327.92	31.456
328.29	34.140
328.65	34.356
329.01	34.213
329.38	34.870
329.74	34.421
330.11	33.995
330.47	32.986
330.84	34.386
331.20	35.611
331.56	35.870
331.93	36.090
332.29	35.795
332.66	34.322
333.02	35.969
333.38	36.316
333.75	34.983
334.11	36.719
334.48	36.530
334.84	35.954
335.20	36.278
335.57	35.596
335.93	35.911
336.29	36.865
336.66	37.094
337.02	36.087
337.38	36.379
337.75	36.520
338.11	35.184
338.47	36.644
338.84	34.966
339.20	36.508
339.56	36.092
339.93	37.165
340.29	35.525
340.65	36.270
341.02	35.940
341.38	36.909
341.74	35.966
342.11	36.003
342.47	35.983
342.83	36.029
343.20	36.717
343.56	34.996
343.92	35.743
344.28	36.932
344.65	36.980
345.01	34.786
345.37	37.336
345.73	37.418
346.10	36.677
346.46	36.504
346.82	36.276
347.19	35.522
347.55	36.914
347.91	36.399
348.27	37.539
348.63	36.859
349.00	36.557
349.36	36.107
349.72	36.504
350.08	37.051
350.45	37.353
350.81	37.089
351.17	36.413
351.53	35.350
351.89	34.948
352.26	34.981
352.62	36.512
352.98	36.901
353.34	36.634
353.70	37.850
354.07	36.706
354.43	35.925
354.79	36.378
355.15	37.345
355.51	37.054
355.87	36.747
356.24	38.202
356.60	36.669
356.96	36.838
357.32	37.229
357.68	36.898
358.04	36.773
358.40	37.209
358.77	37.003
359.13	36.654
359.49	37.547
359.85	36.922
360.21	38.242
360.57	37.414
360.93	38.088
361.29	37.972
361.66	37.585
362.02	38.102
362.38	37.888
362.74	37.201
363.10	38.612
363.46	38.977
363.82	38.137
364.18	38.579
364.54	38.658
364.90	38.815
365.26	39.207
365.62	38.920
365.98	37.295
366.35	39.078
366.71	37.803
367.07	37.916
367.43	38.188
367.79	39.750
368.15	39.803
368.51	37.975
368.87	39.986
369.23	38.719
369.59	38.901
369.95	38.679
370.31	38.982
370.67	39.609
371.03	39.866
371.39	40.028
371.75	39.857
372.11	39.672
372.47	40.159
372.83	39.320
373.19	40.791
373.55	41.113
373.91	40.099
374.27	39.212
374.63	41.181
374.99	40.251
375.35	40.685
375.71	40.965
376.07	41.467
376.42	41.176
376.78	41.413
377.14	41.763
377.50	41.330
377.86	40.969
378.22	41.719
378.58	42.371
378.94	43.125
379.30	42.661
379.66	42.663
380.02	42.157
380.38	42.831
380.74	41.841
381.09	42.883
381.45	43.289
381.81	43.253
382.17	42.659
382.53	42.646
382.89	43.245
383.25	43.642
383.61	45.157
383.97	43.875
384.32	43.163
384.68	43.307
385.04	43.677
385.40	44.707
385.76	44.465
386.12	45.901
386.48	43.197
386.83	43.742
387.19	45.034
387.55	44.635
387.91	46.064
388.27	43.527
388.62	45.443
388.98	46.433
389.34	45.301
389.70	44.139
390.06	44.812
390.42	46.392
390.77	44.971
391.13	46.023
391.49	45.414
391.85	46.006
392.20	45.802
392.56	46.921
392.92	45.699
393.28	45.148
393.64	46.728
393.99	45.226
394.35	45.062
394.71	45.705
395.07	45.346
395.42	46.374
395.78	45.624
396.14	46.607
396.50	46.100
396.85	47.355
397.21	46.192
397.57	46.584
397.92	45.988
398.28	47.659
398.64	46.873
399.00	46.875
399.35	46.992
399.71	46.069
400.07	45.904
400.42	46.646
400.78	45.921
401.14	46.904
401.49	46.914
401.85	46.744
402.21	48.111
402.57	46.352
402.92	47.184
403.28	47.842
403.63	47.241
403.99	48.049
404.35	46.633
404.70	44.653
405.06	47.211
405.42	46.985
405.77	47.696
406.13	47.143
406.49	46.974
406.84	46.520
407.20	46.181
407.55	47.792
407.91	45.731
408.27	46.351
408.62	47.698
408.98	47.041
409.34	47.401
409.69	48.408
410.05	47.264
410.40	46.744
410.76	47.172
411.11	46.642
411.47	48.374
411.83	47.411
412.18	46.725
412.54	48.308
412.89	47.461
413.25	46.608
413.60	47.774
413.96	46.754
414.31	46.794
414.67	46.540
415.03	46.888
415.38	46.565
415.74	46.849
416.09	47.852
416.45	47.505
416.80	47.450
417.16	47.099
417.51	47.153
417.87	47.751
418.22	46.671
418.58	45.861
418.93	46.642
419.29	48.053
419.64	47.074
420.00	47.937
420.35	47.161
420.71	47.654
421.06	47.540
421.42	46.168
421.77	47.572
422.12	46.304
422.48	45.911
422.83	47.017
423.19	46.636
423.54	47.939
423.90	46.200
424.25	47.140
424.61	47.320
424.96	47.073
425.31	45.709
425.67	47.443
426.02	47.232
426.38	46.704
426.73	46.426
427.09	46.529
427.44	46.506
427.79	45.903
428.15	47.217
428.50	45.801
428.85	47.171
429.21	46.370
429.56	46.387
429.92	46.538
430.27	46.472
430.62	47.692
430.98	46.483
431.33	46.427
431.68	46.539
432.04	46.197
432.39	45.612
432.74	45.310
433.10	46.659
433.45	45.680
433.80	46.897
434.16	46.368
434.51	46.522
434.86	45.642
435.22	46.406
435.57	45.516
435.92	46.321
436.28	47.087
436.63	46.478
436.98	46.651
437.34	46.032
437.69	45.750
438.04	46.746
438.39	47.073
438.75	46.067
439.10	48.294
439.45	45.581
439.81	46.983
440.16	46.145
440.51	46.195
440.86	46.592
441.22	45.668
441.57	46.312
441.92	47.123
442.27	46.212
442.63	45.802
442.98	47.685
443.33	47.235
443.68	46.442
444.03	46.349
444.39	47.100
444.74	46.770
445.09	45.760
445.44	47.042
445.79	46.257
446.15	46.478
446.50	46.090
446.85	47.568
447.20	47.517
447.55	46.838
447.91	46.685
448.26	46.598
448.61	46.318
448.96	47.153
449.31	46.431
449.66	48.294
450.02	46.958
450.37	46.122
450.72	47.245
451.07	47.085
451.42	45.540
451.77	47.292
452.12	46.108
452.47	46.804
452.83	46.226
453.18	45.958
453.53	45.902
453.88	47.349
454.23	46.044
454.58	46.752
454.93	45.542
455.28	45.601
455.63	45.103
455.98	46.622
456.34	45.772
456.69	46.454
457.04	45.449
457.39	46.482
457.74	45.721
458.09	46.327
458.44	46.827
458.79	45.524
459.14	45.674
459.49	46.707
459.84	45.941
460.19	46.098
460.54	45.073
460.89	45.777
461.24	45.068
461.59	47.464
461.94	46.587
462.29	45.772
462.64	46.768
462.99	46.747
463.34	46.202
463.69	45.747
464.04	44.958
464.39	44.600
464.74	45.393
465.09	45.319
465.44	44.837
465.79	46.521
466.14	46.066
466.49	44.457
466.84	44.531
467.19	44.968
467.54	45.301
467.89	44.375
468.24	45.114
468.59	44.997
468.94	45.977
469.29	46.067
469.64	45.328
469.99	44.966
470.34	44.437
470.68	46.543
471.03	44.993
471.38	45.202
471.73	44.444
472.08	44.261
472.43	45.251
472.78	44.287
473.13	42.876
473.48	44.162
473.83	44.005
474.17	44.076
474.52	44.337
474.87	44.270
475.22	44.988
475.57	44.228
475.92	44.875
476.27	44.056
476.61	43.148
476.96	44.375
477.31	43.689
477.66	43.559
478.01	42.802
478.36	43.215
478.70	44.415
479.05	44.062
479.40	43.318
479.75	44.633
480.10	43.549
480.45	43.109
480.79	42.708
481.14	44.478
481.49	43.710
481.84	42.224
482.19	42.798
482.53	42.476
482.88	42.522
483.23	43.215
483.58	43.242
483.92	42.607
484.27	42.132
484.62	41.633
484.97	42.762
485.31	42.026
485.66	41.015
486.01	42.425
486.36	42.251
486.70	42.188
487.05	42.582
487.40	42.065
487.75	42.550
488.09	41.007
488.44	41.185
488.79	41.787
489.13	41.551
489.48	41.342
489.83	41.224
490.17	41.897
490.52	42.403
490.87	40.566
491.22	40.886
491.56	42.166
491.91	41.239
492.26	41.151
492.60	40.981
492.95	41.545
493.30	40.455
493.64	39.952
493.99	41.256
494.34	42.004
494.68	41.909
495.03	40.810
495.37	40.730
495.72	41.003
496.07	41.549
496.41	40.337
496.76	40.631
497.11	40.329
497.45	41.683
497.80	40.636
498.14	40.655
498.49	40.393
498.84	41.194
499.18	39.622
499.53	40.079
499.87	39.495
500.22	38.825
500.56	39.819
500.91	40.493
501.26	39.606
501.60	39.902
501.95	40.010
502.29	39.903
502.64	40.743
502.98	39.644
503.33	39.854
503.67	40.166
504.02	39.902
504.36	39.475
504.71	38.872
505.06	39.939
505.40	39.742
505.75	41.455
506.09	39.244
506.44	38.659
506.78	38.649
507.13	39.657
507.47	38.494
507.82	38.985
508.16	37.995
508.51	38.275
508.85	38.310
509.19	38.942
509.54	38.713
509.88	38.763
510.23	38.526
510.57	38.506
510.92	39.763
511.26	40.154
511.61	38.145
511.95	38.809
512.30	38.201
512.64	39.784
512.98	38.947
513.33	39.155
513.67	38.842
514.02	38.769
514.36	38.202
514.70	38.106
515.05	38.151
515.39	37.205
515.74	37.419
516.08	37.758
516.42	38.479
516.77	37.551
517.11	38.448
517.46	38.896
517.80	38.741
518.14	38.028
518.49	37.372
518.83	37.172
519.17	37.711
519.52	37.636
519.86	37.523
520.20	37.053
520.55	36.754
520.89	37.698
521.23	37.692
521.58	36.852
521.92	36.329
522.26	37.606
522.61	38.203
522.95	37.111
523.29	37.206
523.64	37.699
523.98	36.785
524.32	36.295
524.66	37.532
525.01	37.353
525.35	35.352
525.69	36.183
526.04	35.635
526.38	37.667
526.72	36.095
527.06	35.848
527.41	36.201
527.75	35.848
528.09	37.236
528.43	36.296
528.78	35.401
529.12	36.740
529.46	35.893
529.80	35.599
530.15	35.650
530.49	36.725
530.83	36.087
531.17	36.644
531.51	35.401
531.86	35.501
532.20	35.837
532.54	36.621
532.88	36.079
533.22	36.027
533.57	36.424
533.91	36.839
534.25	36.263
534.59	35.135
534.93	34.821
535.27	35.796
535.62	35.592
535.96	35.589
536.30	35.040
536.64	35.407
536.98	34.268
537.32	34.306
537.66	35.543
538.01	34.327
538.35	33.564
538.69	34.515
539.03	33.020
539.37	33.333
539.71	33.834
540.05	34.278
540.39	34.549
540.73	34.637
541.07	34.898
541.42	34.343
541.76	34.844
542.10	32.634
542.44	34.581
542.78	33.727
543.12	34.434
543.46	33.310
543.80	33.673
544.14	34.067
544.48	33.444
544.82	34.028
545.16	31.913
545.50	33.626
545.84	33.170
546.18	32.679
546.52	33.028
546.86	31.731
547.20	32.738
547.54	32.523
547.88	34.211
548.22	32.704
548.56	33.089
548.90	32.409
549.24	32.500
549.58	31.530
549.92	33.089
550.26	33.358
550.60	32.207
550.94	32.015
551.28	31.870
551.62	32.782
551.96	31.552
552.30	31.368
552.64	31.780
552.98	32.599
553.32	32.372
553.66	32.502
554.00	31.893
554.34	30.842
554.68	31.320
555.02	31.662
555.36	32.753
555.69	31.828
556.03	30.450
556.37	30.725
556.71	30.554
557.05	31.070
557.39	32.102
557.73	32.753
558.07	31.650
558.41	31.113
558.75	31.563
559.08	30.634
559.42	31.786
559.76	31.040
560.10	31.514
560.44	32.498
560.78	30.288
561.12	30.764
561.45	31.701
561.79	31.431
562.13	30.872
562.47	31.714
562.81	30.664
563.15	31.161
563.48	30.626
563.82	29.822
564.16	29.722
564.50	30.868
564.84	30.541
565.17	31.060
565.51	30.281
565.85	29.647
566.19	30.132
566.52	29.096
566.86	29.393
567.20	30.910
567.54	30.167
567.88	29.619
568.21	29.712
568.55	30.934
568.89	29.462
569.23	29.698
569.56	30.371
569.90	30.291
570.24	28.845
570.57	29.853
570.91	29.860
571.25	29.236
571.59	29.886
571.92	29.745
572.26	29.611
572.60	29.751
572.93	28.835
573.27	29.639
573.61	29.369
573.95	29.561
574.28	29.415
574.62	29.129
574.96	29.429
575.29	29.865
575.63	29.795
575.97	29.375
576.30	28.992
576.64	29.395
576.98	29.364
577.31	29.370
577.65	28.960
577.98	29.733
578.32	29.117
578.66	29.468
578.99	29.178
579.33	29.535
579.67	29.099
580.00	28.820
580.34	28.260
580.67	29.446
581.01	28.918
581.35	29.096
581.68	29.169
582.02	28.955
582.35	29.438
582.69	29.353
583.02	28.559
583.36	28.975
583.70	29.202
584.03	29.091
584.37	28.661
584.70	28.256
585.04	28.377
585.37	28.505
585.71	28.726
586.04	28.672
586.38	28.703
586.72	28.660
587.05	29.131
587.39	28.754
587.72	28.298
588.06	28.509
588.39	28.911
588.73	27.587
589.06	28.096
589.40	27.829
589.73	27.524
590.07	28.400
590.40	27.868
590.73	28.201
591.07	28.291
591.40	27.783
591.74	27.612
592.07	27.841
592.41	27.713
592.74	28.241
593.08	27.385
593.41	27.553
593.75	27.842
594.08	27.703
594.41	27.861
594.75	28.073
595.08	27.819
595.42	27.523
595.75	27.585
596.09	28.099
596.42	27.941
596.75	27.468
597.09	27.843
597.42	28.354
597.75	27.200
598.09	27.413
598.42	27.740
598.76	26.868
599.09	28.171
599.42	27.681
599.76	27.563
600.09	27.221
600.42	27.420
600.76	27.716
601.09	27.382
601.42	27.048
601.76	27.452
602.09	27.442
602.42	27.445
602.76	26.762
603.09	27.105
603.42	27.229
603.76	26.968
604.09	27.115
604.42	27.752
604.76	27.019
605.09	26.733
605.42	26.901
605.75	26.681
606.09	26.738
606.42	26.018
606.75	25.758
607.09	26.995
607.42	26.445
607.75	26.302
608.08	26.105
608.42	26.242
608.75	26.039
609.08	26.703
609.41	25.981
609.75	26.979
610.08	26.183
610.41	27.600
610.74	26.660
611.07	25.351
611.41	25.742
611.74	26.190
612.07	25.899
612.40	27.243
612.73	26.619
613.07	26.663
613.40	27.037
613.73	25.948
614.06	26.589
614.39	25.292
614.72	26.374
615.06	25.778
615.39	26.600
615.72	26.188
616.05	25.845
616.38	26.002
616.71	25.135
617.05	26.290
617.38	25.015
617.71	25.735
618.04	25.350
618.37	25.678
618.70	25.614
619.03	26.117
619.36	25.480
619.69	25.658
620.03	25.371
620.36	25.261
620.69	24.911
621.02	24.077
621.35	23.957
621.68	24.613
622.01	25.485
622.34	24.346
622.67	24.824
623.00	25.228
623.33	24.907
623.66	24.758
623.99	25.881
624.32	24.211
624.65	24.703
624.99	23.880
625.32	26.139
625.65	25.194
625.98	24.408
626.31	24.816
626.64	24.334
626.97	24.308
627.30	25.064
627.63	24.740
627.96	22.944
628.29	24.558
628.62	26.209
628.95	24.449
629.28	24.335
629.61	25.646
629.94	24.662
630.26	24.335
630.59	23.576
630.92	22.590
631.25	23.687
631.58	23.983
631.91	23.542
632.24	23.491
632.57	23.778
632.90	25.204
633.23	21.343
633.56	23.861
633.89	23.086
634.22	26.031
634.55	24.361
634.88	23.652
635.20	24.000
635.53	22.351
635.86	23.590
636.19	24.566
636.52	22.805
636.85	24.125
637.18	22.046
637.51	23.471
637.83	24.282
638.16	22.400
638.49	22.697
638.82	23.007
639.15	23.271
639.48	24.733
639.81	22.917
640.13	23.521
640.46	23.588
640.79	22.014
641.12	23.521
641.45	22.416
641.77	22.239
642.10	23.147
642.43	23.270
642.76	22.240
643.09	21.885
643.41	22.329
643.74	23.748
644.07	21.521
644.40	20.232
644.73	21.864
645.05	21.466
645.38	21.927
645.71	24.320
646.04	20.034
646.36	22.049
646.69	21.678
647.02	22.587
647.35	20.658
647.67	22.551
648.00	21.920
648.33	23.898
648.66	20.868
648.98	21.429
649.31	21.319
649.64	19.562
649.96	21.801
650.29	19.935
650.62	20.099
650.94	19.828
651.27	19.965
651.60	20.280
651.92	22.222
652.25	22.111
652.58	21.122
652.90	19.192
653.23	21.053
653.56	21.322
653.88	19.113
654.21	19.283
654.54	20.598
654.86	21.626
655.19	22.409
655.52	25.532
655.84	24.466
656.17	29.928
656.49	39.411
656.82	38.238
657.15	28.252
657.47	20.858
657.80	15.396
658.13	15.973
658.45	23.506
658.78	22.948
659.10	22.689
659.43	23.026
659.75	22.347
660.08	21.862
660.41	19.675
660.73	21.488
661.06	20.238
661.38	20.930
661.71	20.287
662.03	21.353
662.36	17.257
662.68	21.720
663.01	22.458
663.33	19.438
663.66	16.186
663.98	21.348
664.31	21.319
664.63	15.766
664.96	17.724
665.28	20.386
665.61	19.870
665.93	19.914
666.26	21.730
666.58	18.630
666.91	19.955
667.23	20.046
667.56	21.609
667.88	17.757
668.21	16.741
668.53	20.690
668.86	21.103
669.18	20.804
669.50	20.737
669.83	21.718
670.15	17.857
670.48	18.161
670.80	23.632
671.13	20.595
671.45	19.178
671.77	20.905
672.10	18.519
672.42	19.847
672.75	18.929
673.07	19.091
673.39	20.709
673.72	20.559
674.04	19.262
674.37	19.919
674.69	20.165
675.01	19.231
675.34	19.475
675.66	21.351
675.98	17.257
676.31	20.588
676.63	21.088
676.95	18.118
677.28	20.413
677.60	19.118
677.92	21.064
678.25	22.343
678.57	21.385
678.89	17.697
679.22	20.911
679.54	18.980
679.86	20.703
680.18	20.577
680.51	20.385
680.83	17.154
681.15	20.629
681.48	17.234
681.80	20.450
682.12	19.583
682.44	20.322
682.77	16.421
683.09	17.857
683.41	19.302
683.73	18.750
684.06	17.699
684.38	21.581
684.70	19.145
685.02	20.455
685.34	19.569
685.67	21.013
685.99	19.395
686.31	21.379
686.63	20.404
686.96	19.666
687.28	21.158
687.60	21.172
687.92	21.595
688.24	19.200
688.56	20.175
688.89	17.372
689.21	18.161
689.53	17.568
689.85	18.202
690.17	19.121
690.49	18.599
690.82	17.900
691.14	20.773
691.46	18.794
691.78	19.560
692.10	18.047
692.42	17.143
692.74	20.217
693.06	17.079
693.39	18.033
693.71	20.000
694.03	20.682
694.35	20.946
694.67	19.250
694.99	18.299
695.31	17.571
695.63	21.463
695.95	16.031
696.27	16.438
696.59	17.204
696.91	18.715
697.23	18.020
697.56	18.945
697.88	23.701
698.20	19.006
698.52	19.860
698.84	18.421
699.16	18.203
699.48	19.753
699.80	21.964
700.12	19.303
700.44	18.310
700.76	16.292
701.08	18.127
701.40	17.066
701.72	15.692
702.04	16.667
702.36	13.720
702.68	17.683
703.00	20.175
703.32	13.370
703.64	18.373
703.96	19.062
704.28	23.494
704.60	18.598
704.91	17.241
705.23	16.456
705.55	13.793
705.87	20.423
706.19	12.821
706.51	12.676
706.83	17.197
707.15	18.902
707.47	19.284
707.79	18.020
708.11	17.995
708.43	20.812
708.74	17.819
709.06	16.310
709.38	21.037
709.70	16.216
710.02	21.807
710.34	13.667
710.66	16.612
710.98	18.576
711.29	16.883
711.61	13.871
711.93	16.452
712.25	16.084
712.57	12.982
712.89	13.553
713.20	15.957
713.52	14.964
713.84	16.452
714.16	15.858
714.48	17.722
714.80	15.335
715.11	23.547
715.43	13.665
715.75	20.186
716.07	15.964
716.39	14.815
716.70	18.705
717.02	12.549
717.34	15.909
717.66	11.638
717.97	14.286
718.29	20.079
718.61	13.305
718.93	18.605
719.24	20.664
719.56	17.603
719.88	12.687
720.20	15.020
720.51	18.359
720.83	18.677
721.15	13.008
721.46	14.504
721.78	18.327
722.10	11.554
722.42	11.694
722.73	16.216
723.05	17.959
723.37	15.966
723.68	14.400
724.00	17.021
724.32	11.297
724.63	15.226
724.95	14.530
725.27	20.675
725.58	16.461
725.90	14.226
726.22	14.493
726.53	12.941
726.85	20.438
727.16	17.407
727.48	16.092
727.80	20.703
728.11	13.525
728.43	19.531
728.74	16.667
729.06	14.000
729.38	15.020
729.69	21.352
730.01	14.498
730.32	18.081
730.64	14.773
730.96	19.930
731.27	16.388
731.59	19.683
731.90	17.476
732.22	15.705
732.53	15.203
732.85	13.423
733.16	18.482
733.48	13.514
733.80	15.541
734.11	19.257
734.43	18.885
734.74	19.520
735.06	17.003
735.37	15.502
735.69	15.210
736.00	18.152
736.32	20.567
736.63	15.517
736.95	18.493
737.26	18.276
737.58	14.931
737.89	15.120
738.21	17.794
738.52	9.125
738.83	17.959
739.15	13.080
739.46	13.230
739.78	16.197
740.09	17.808
740.41	8.571
740.72	13.121
741.04	11.600
741.35	11.842
741.66	21.778
741.98	14.904
742.29	20.297
742.61	20.000
742.92	15.789
743.23	15.094
743.55	15.766
743.86	13.901
744.18	18.137
744.49	14.213
744.80	11.735
745.12	16.822
745.43	18.483
745.74	19.820
746.06	14.019
746.37	16.514
746.68	13.942
747.00	19.617
747.31	12.981
747.62	14.220
747.94	17.904
748.25	17.431
748.56	20.444
748.88	15.962
749.19	17.619
749.50	13.107
749.82	15.493
750.13	13.750
750.44	11.538
750.75	15.867
751.07	21.708
751.38	18.440
751.69	16.988
752.01	17.969
752.32	18.462
752.63	17.164
752.94	17.600
753.26	17.155
753.57	11.667
753.88	14.170
754.19	16.733
754.51	19.925
754.82	16.484
755.13	13.913
755.44	17.073
755.75	14.400
756.07	14.391
756.38	16.906
756.69	17.406
757.00	15.265
757.31	15.858
757.63	16.358
757.94	18.927
758.25	15.079
758.56	14.674
758.87	17.560
759.18	14.511
759.50	16.498
759.81	16.722
760.12	18.154
760.43	17.857
760.74	14.124
761.05	16.575
761.36	15.473
761.67	16.012
761.99	13.402
762.30	16.423
762.61	16.872
762.92	17.094
763.23	19.672
763.54	15.152
763.85	14.286
764.16	13.008
764.47	14.800
764.78	16.429
765.10	15.738
765.41	17.629
765.72	14.286
766.03	18.482
766.34	16.923
766.65	13.389
766.96	17.840
767.27	15.842
767.58	11.236
767.89	16.667
768.20	8.287
768.51	17.085
768.82	14.423
769.13	17.257
769.44	15.481
769.75	14.530
770.06	14.798
770.37	15.196
770.68	16.019
770.99	15.534
771.30	14.706
771.61	16.327
771.92	20.332
772.23	14.414
772.54	11.602
772.85	12.209
773.16	19.048
773.47	4.734
773.78	20.115
774.09	15.000
774.39	13.665
774.70	12.925
775.01	11.034
775.32	7.857
775.63	12.030
775.94	0.752
776.25	2.400
776.56	14.050
776.87	12.698
777.18	10.811
777.48	3.604
777.79	9.449
778.10	13.761
778.41	14.912
778.72	10.924
779.03	6.338
779.34	17.568
779.65	7.746
779.95	17.219
780.26	8.633
780.57	12.950
780.88	14.789
781.19	5.042
781.50	19.463
781.80	14.620
782.11	11.047
782.42	16.352
782.73	17.647
783.04	12.414
783.34	12.977
783.65	10.738
783.96	13.077
784.27	15.714
784.57	13.475
784.88	-3.846
785.19	17.273
785.50	16.364
785.81	3.810
786.11	11.765
786.42	13.274
786.73	0.000
787.04	4.587
787.34	4.950
787.65	17.500
787.96	17.355
788.26	7.246
788.57	7.143
788.88	10.569
789.19	12.800
789.49	3.053
789.80	11.364
790.11	5.660
790.41	19.802
790.72	22.340
791.03	4.348
791.33	-1.176
791.64	4.938
791.95	17.391
792.25	14.773
792.56	12.821
792.87	-2.564
793.17	-15.385
793.48	2.381
793.79	12.500
794.09	8.654
794.40	9.375
794.70	10.811
795.01	11.719
795.32	7.826
795.62	3.261
795.93	13.208
796.23	9.091
796.54	3.659
796.85	5.952
797.15	9.091
797.46	5.797
797.76	15.789
798.07	6.818
798.37	12.195
798.68	-11.290
798.99	12.162
799.29	8.434
799.60	12.821
799.90	9.231
800.21	12.121
800.51	5.333
800.82	8.000
801.12	-4.167
801.43	-16.667
801.73	5.405
802.04	7.143
802.34	0.000
802.65	13.433
802.95	-16.364
803.26	-1.724
803.56	6.154
803.87	5.660
804.17	0.000
804.48	-1.471
804.78	-24.390
805.09	7.246
805.39	4.412
805.70	-12.766
806.00	-21.053
806.30	7.692
806.61	18.421
806.91	10.811
807.22	1.316
807.52	15.909
807.83	-8.475
808.13	-9.091
808.43	-1.667
808.74	-17.241
809.04	-3.175
809.35	-6.122
809.65	-3.333
809.95	-8.163
810.26	4.225
810.56	-8.333
810.86	-10.204
811.17	-1.923
811.47	-10.638
811.77	4.167
812.08	-1.887
812.38	-18.750
812.69	7.273
812.99	-17.073
813.29	-18.919
813.59	-13.514
813.90	-3.636
814.20	3.636
814.50	11.667
814.81	5.455
815.11	14.035
815.41	16.279
815.72	-20.000
816.02	-17.143
816.32	-24.324
816.62	-2.083
816.93	-11.111
817.23	-22.222
817.53	-25.000
817.84	-21.622
818.14	-4.878
818.44	14.000
818.74	0.000
819.04	7.317
819.35	-16.667
819.65	-11.364
819.95	-55.556
820.25	-33.333
820.56	-19.048
820.86	-16.667
821.16	-18.182
821.46	-15.217
821.76	-3.448
822.07	-15.217
822.37	-33.333
822.67	7.317
822.97	-5.405
823.27	-34.286
823.57	-6.897
823.88	-26.471
824.18	-22.222
824.48	-5.714
824.78	-38.095
825.08	-46.429
825.38	-18.519
825.69	-12.903
825.99	-7.317
826.29	-33.333
826.59	-12.500
826.89	-12.903
827.19	-47.826
827.49	-27.778
827.79	-30.435
828.09	3.226
828.39	0.000
828.70	-37.500
829.00	-34.483
829.30	8.108
829.60	-70.833
829.90	-37.037
830.20	-6.250
830.50	-22.727
830.80	-141.176
831.10	-63.636
831.40	-29.412
831.70	-26.923
832.00	-18.182
832.30	-8.824
832.60	2.703
832.90	1700.000
833.20	-25.000
833.50	-65.000
833.80	0.000
834.10	-45.833
834.40	-31.818
834.70	-40.000
835.00	-90.000
835.30	-41.667
835.60	-33.333
835.90	-71.429
836.20	-20.000
836.50	8.333
836.80	-52.632
837.10	5.405
837.40	20.000
837.70	-13.043
838.00	12.500
838.30	-5.263
838.60	-90.000
838.90	-130.000
839.19	-75.000
839.49	-76.923
839.79	-42.105
840.09	-183.333
840.39	-80.000
840.69	-95.455
840.99	-71.429
841.29	-50.000
841.59	-30.769
841.88	-40.000
842.18	-57.143
842.48	26.667
842.78	-185.714
843.08	-57.143
843.38	-275.000
843.68	-68.750
843.97	-14.286
844.27	-177.778
844.57	-18.182
844.87	-33.333
845.17	4.545
845.47	600.000
845.76	0.000
846.06	-116.667
846.36	-500.000
846.66	-63.158
846.96	-54.545
847.25	-100.000
847.55	-166.667
847.85	-47.619
848.15	-30.769
848.44	-266.667
848.74	-100.000
849.04	-61.538
849.34	-200.000
849.63	-190.909
849.93	-142.857
850.23	-40.000
850.53	-62.500
850.82	-61.111
851.12	-33.333
851.42	-88.235
851.71	-125.000
852.01	11.765
852.31	-92.308
852.61	900.000
852.90	11.765
853.20	-26.667
853.50	-75.000
853.79	-142.857
854.09	-325.000
854.39	-20.000
854.68	-20.000
854.98	-19.048
855.28	-12.000
855.57	-54.167
855.87	-8.333
856.17	-40.000
856.46	-21.875
856.76	-10.000
857.05	4.000
857.35	-108.333
857.65	-35.294
857.94	-25.000
858.24	-91.667
858.53	-60.000
858.83	-90.909
859.13	-32.000
859.42	-142.857
859.72	-250.000
860.01	29.167
860.31	-175.000
860.60	-37.500
860.90	-316.667
861.20	66.667
861.49	20.000
861.79	12.500
862.08	350.000
862.38	-141.667
862.67	385.714
862.97	275.000
863.26	-18.182
863.56	-54.545
863.85	-5.263
864.15	-70.588
864.44	-300.000
864.74	-140.000
865.03	-44.444
865.33	-21.429
865.62	78.571
865.92	5.263
866.21	-50.000
866.51	0.000
866.80	-55.556
867.10	-150.000
867.39	6.250
867.69	-40.000
867.98	-50.000
868.27	-35.294
868.57	0.000
868.86	600.000
869.16	-450.000
869.45	-228.571
869.75	350.000
870.04	-10.000
870.33	-1100.000
870.63	-21.053
870.92	-91.667
871.22	-1400.000
871.51	-214.286
871.80	-133.333
872.10	-250.000
>>>>>End Processed Spectral Data<<<<<
