SpectraSuite Data File
++++++++++++++++++++++++++++++++++++
Date: Wed May 13 21:24:38 PDT 2015
User: schluterlab
Dark Spectrum Present: Yes
Reference Spectrum Present: Yes
Number of Sampled Component Spectra: 1
Spectrometers: USB2E3373
Integration Time (usec): 3000 (USB2E3373)
Spectra Averaged: 3 (USB2E3373)
Boxcar Smoothing: 0 (USB2E3373)
Correct for Electrical Dark: No (USB2E3373)
Strobe/Lamp Enabled: No (USB2E3373)
Correct for Detector Non-linearity: No (USB2E3373)
Correct for Stray Light: No (USB2E3373)
Number of Pixels in Processed Spectrum: 2048
>>>>>Begin Processed Spectral Data<<<<<
178.53	0.000
178.91	250.000
179.29	208.333
179.67	-650.000
180.04	-566.667
180.42	200.000
180.80	2000.000
181.18	300.000
181.56	-350.000
181.94	-325.000
182.31	-45.455
182.69	123.077
183.07	-240.000
183.45	366.667
183.83	188.889
184.20	228.571
184.58	-500.000
184.96	600.000
185.34	171.429
185.72	0.000
186.09	-800.000
186.47	-280.000
186.85	60.000
187.23	300.000
187.61	600.000
187.98	1900.000
188.36	-37.500
188.74	0.000
189.12	-127.273
189.49	-50.000
189.87	150.000
190.25	340.000
190.63	600.000
191.00	-200.000
191.38	420.000
191.76	325.000
192.14	75.000
192.51	-15.789
192.89	300.000
193.27	450.000
193.65	-320.000
194.02	172.727
194.40	220.000
194.78	-700.000
195.15	240.000
195.53	-180.000
195.91	-50.000
196.29	-366.667
196.66	0.000
197.04	750.000
197.42	-40.000
197.79	-80.000
198.17	-125.000
198.55	-433.333
198.92	100.000
199.30	-233.333
199.68	-20.000
200.05	500.000
200.43	233.333
200.81	-1700.000
201.18	-240.000
201.56	-216.667
201.94	575.000
202.31	-17.391
202.69	-157.143
203.07	-233.333
203.44	-180.000
203.82	-166.667
204.19	-150.000
204.57	0.000
204.95	-166.667
205.32	0.000
205.70	-350.000
206.08	-175.000
206.45	-200.000
206.83	525.000
207.20	-533.333
207.58	-10.000
207.96	-1500.000
208.33	-157.143
208.71	-2200.000
209.08	237.500
209.46	525.000
209.84	0.000
210.21	150.000
210.59	2300.000
210.96	420.000
211.34	1000.000
211.71	-700.000
212.09	-366.667
212.46	-80.000
212.84	66.667
213.22	-50.000
213.59	-1500.000
213.97	-900.000
214.34	-500.000
214.72	-38.462
215.09	250.000
215.47	188.889
215.84	650.000
216.22	25.000
216.59	-300.000
216.97	866.667
217.34	177.778
217.72	0.000
218.09	466.667
218.47	-900.000
218.84	-100.000
219.22	-137.500
219.59	-400.000
219.97	-425.000
220.34	-50.000
220.72	-140.000
221.09	0.000
221.47	-133.333
221.84	-500.000
222.22	0.000
222.59	1600.000
222.97	-500.000
223.34	-100.000
223.72	-1600.000
224.09	-800.000
224.46	-54.545
224.84	-75.000
225.21	-14.286
225.59	-175.000
225.96	-100.000
226.34	10.000
226.71	-114.286
227.08	500.000
227.46	-62.500
227.83	-800.000
228.21	-31.250
228.58	-150.000
228.95	0.000
229.33	6.250
229.70	-75.000
230.08	-84.615
230.45	-275.000
230.82	-25.000
231.20	200.000
231.57	-275.000
231.95	1600.000
232.32	0.000
232.69	29.412
233.07	-1000.000
233.44	-26.087
233.81	-900.000
234.19	16.667
234.56	-100.000
234.93	-46.667
235.31	-36.842
235.68	-100.000
236.05	23.077
236.43	-61.111
236.80	-27.273
237.17	-113.333
237.55	11.765
237.92	-62.069
238.29	-40.741
238.67	-19.444
239.04	-51.613
239.41	-19.149
239.79	0.000
240.16	2.326
240.53	1.786
240.91	3.571
241.28	-14.286
241.65	-8.065
242.02	-5.263
242.40	-7.246
242.77	-1.449
243.14	-3.846
243.51	-5.319
243.89	3.846
244.26	11.321
244.63	1.923
245.00	15.625
245.38	9.244
245.75	8.197
246.12	4.511
246.49	-0.813
246.87	2.521
247.24	11.486
247.61	6.623
247.98	6.410
248.36	5.325
248.73	3.933
249.10	6.061
249.47	4.839
249.84	12.105
250.22	6.965
250.59	10.748
250.96	14.545
251.33	5.742
251.70	13.389
252.08	8.787
252.45	10.700
252.82	9.886
253.19	12.062
253.56	9.712
253.94	11.032
254.31	9.859
254.68	12.416
255.05	9.241
255.42	9.441
255.79	11.963
256.16	7.571
256.54	7.619
256.91	11.392
257.28	9.434
257.65	6.688
258.02	7.625
258.39	11.696
258.76	11.628
259.14	13.068
259.51	9.270
259.88	10.840
260.25	11.111
260.62	9.831
260.99	9.284
261.36	12.435
261.73	10.617
262.10	9.669
262.47	9.630
262.85	12.438
263.22	8.974
263.59	11.429
263.96	7.299
264.33	11.779
264.70	9.070
265.07	10.648
265.44	13.793
265.81	12.357
266.18	10.251
266.55	8.297
266.92	11.017
267.29	12.346
267.66	9.979
268.03	15.021
268.40	8.898
268.77	11.364
269.14	11.429
269.51	15.606
269.88	9.572
270.25	12.288
270.62	7.992
270.99	10.827
271.36	11.905
271.73	8.835
272.10	10.667
272.47	12.860
272.84	9.843
273.21	11.546
273.58	10.246
273.95	8.302
274.32	10.821
274.69	13.843
275.06	11.661
275.43	11.299
275.80	9.752
276.17	10.497
276.54	11.012
276.91	10.279
277.28	9.747
277.65	13.636
278.02	11.786
278.39	10.302
278.76	11.204
279.13	11.149
279.50	10.690
279.87	11.594
280.23	11.351
280.60	9.170
280.97	10.227
281.34	12.776
281.71	9.919
282.08	10.940
282.45	13.115
282.82	11.981
283.19	12.652
283.56	10.625
283.92	10.703
284.29	10.764
284.66	10.873
285.03	9.446
285.40	8.610
285.77	11.411
286.14	10.942
286.51	13.493
286.87	10.154
287.24	10.472
287.61	10.392
287.98	10.588
288.35	7.750
288.72	10.043
289.08	11.681
289.45	10.720
289.82	9.077
290.19	11.220
290.56	9.801
290.93	8.287
291.29	9.439
291.66	10.109
292.03	11.172
292.40	9.690
292.77	10.308
293.13	10.600
293.50	10.065
293.87	9.067
294.24	9.259
294.60	9.493
294.97	10.582
295.34	8.311
295.71	8.147
296.08	9.424
296.44	9.821
296.81	9.013
297.18	10.375
297.55	9.080
297.91	9.068
298.28	8.959
298.65	8.990
299.02	9.768
299.38	8.466
299.75	9.615
300.12	7.093
300.48	7.953
300.85	7.737
301.22	8.711
301.59	7.981
301.95	9.756
302.32	7.818
302.69	8.136
303.05	7.530
303.42	9.091
303.79	9.148
304.15	7.996
304.52	10.430
304.89	7.863
305.25	8.013
305.62	8.243
305.99	10.229
306.35	9.300
306.72	8.952
307.09	7.925
307.45	7.135
307.82	7.579
308.19	6.688
308.55	8.495
308.92	9.234
309.29	7.407
309.65	8.991
310.02	9.046
310.38	8.130
310.75	6.903
311.12	7.969
311.48	8.210
311.85	8.169
312.22	10.348
312.58	7.729
312.95	7.960
313.31	8.081
313.68	7.824
314.05	9.168
314.41	8.261
314.78	8.159
315.14	8.704
315.51	9.420
315.87	8.248
316.24	8.815
316.61	9.498
316.97	8.704
317.34	8.824
317.70	8.475
318.07	9.406
318.43	8.943
318.80	8.639
319.16	8.930
319.53	8.781
319.89	8.040
320.26	9.704
320.62	9.082
320.99	9.593
321.35	8.793
321.72	9.528
322.08	10.148
322.45	9.528
322.81	9.704
323.18	9.213
323.54	10.560
323.91	10.479
324.27	10.801
324.64	9.495
325.00	9.186
325.37	10.154
325.73	9.680
326.10	10.513
326.46	10.619
326.83	10.113
327.19	10.650
327.56	11.201
327.92	10.941
328.29	11.937
328.65	11.481
329.01	10.378
329.38	11.826
329.74	11.073
330.11	11.271
330.47	10.590
330.84	10.199
331.20	11.699
331.56	10.779
331.93	11.800
332.29	11.468
332.66	9.831
333.02	11.468
333.38	10.088
333.75	11.860
334.11	11.198
334.48	10.724
334.84	9.982
335.20	12.093
335.57	10.444
335.93	11.512
336.29	9.807
336.66	11.282
337.02	9.739
337.38	10.879
337.75	10.508
338.11	11.614
338.47	10.188
338.84	10.825
339.20	10.935
339.56	10.666
339.93	11.322
340.29	11.358
340.65	11.891
341.02	10.566
341.38	10.389
341.74	9.832
342.11	11.478
342.47	10.126
342.83	11.111
343.20	11.168
343.56	10.711
343.92	11.373
344.28	11.364
344.65	10.857
345.01	10.734
345.37	12.089
345.73	12.173
346.10	11.477
346.46	11.301
346.82	10.514
347.19	10.364
347.55	11.551
347.91	10.990
348.27	11.672
348.63	10.096
349.00	10.299
349.36	11.068
349.72	11.060
350.08	11.388
350.45	10.415
350.81	11.502
351.17	12.240
351.53	10.526
351.89	10.008
352.26	10.502
352.62	11.938
352.98	10.064
353.34	10.628
353.70	11.293
354.07	11.216
354.43	10.964
354.79	11.619
355.15	10.481
355.51	10.858
355.87	11.102
356.24	10.193
356.60	10.164
356.96	11.051
357.32	9.520
357.68	10.313
358.04	10.085
358.40	10.078
358.77	11.850
359.13	9.961
359.49	10.674
359.85	11.524
360.21	10.486
360.57	10.494
360.93	10.622
361.29	11.325
361.66	10.858
362.02	9.785
362.38	11.300
362.74	10.080
363.10	11.208
363.46	9.798
363.82	10.421
364.18	10.515
364.54	10.357
364.90	9.338
365.26	11.394
365.62	11.364
365.98	11.744
366.35	11.064
366.71	10.628
367.07	10.206
367.43	11.080
367.79	11.675
368.15	11.252
368.51	10.408
368.87	10.886
369.23	10.961
369.59	10.430
369.95	9.507
370.31	10.809
370.67	10.138
371.03	10.839
371.39	11.143
371.75	11.929
372.11	10.613
372.47	11.536
372.83	10.541
373.19	11.151
373.55	11.055
373.91	9.547
374.27	10.304
374.63	10.669
374.99	11.212
375.35	11.096
375.71	10.122
376.07	10.898
376.42	10.829
376.78	11.096
377.14	11.119
377.50	10.430
377.86	11.089
378.22	11.504
378.58	11.034
378.94	11.063
379.30	10.993
379.66	11.282
380.02	10.294
380.38	11.084
380.74	11.895
381.09	11.158
381.45	11.306
381.81	11.275
382.17	11.783
382.53	12.123
382.89	11.460
383.25	11.235
383.61	12.167
383.97	11.812
384.32	11.657
384.68	11.351
385.04	11.484
385.40	11.457
385.76	12.287
386.12	12.201
386.48	11.473
386.83	11.327
387.19	11.351
387.55	12.017
387.91	12.485
388.27	11.837
388.62	12.110
388.98	11.327
389.34	12.218
389.70	12.088
390.06	12.625
390.42	12.951
390.77	12.940
391.13	12.500
391.49	11.954
391.85	11.949
392.20	12.093
392.56	12.444
392.92	12.463
393.28	12.609
393.64	12.416
393.99	11.750
394.35	12.469
394.71	12.628
395.07	11.572
395.42	12.492
395.78	12.355
396.14	12.492
396.50	12.682
396.85	12.492
397.21	12.984
397.57	12.547
397.92	12.515
398.28	12.183
398.64	12.204
399.00	12.667
399.35	13.053
399.71	13.221
400.07	12.169
400.42	12.665
400.78	13.172
401.14	13.305
401.49	12.702
401.85	12.408
402.21	12.817
402.57	13.366
402.92	13.642
403.28	12.758
403.63	13.701
403.99	13.052
404.35	13.840
404.70	13.414
405.06	13.447
405.42	13.003
405.77	12.961
406.13	13.657
406.49	13.421
406.84	13.492
407.20	13.144
407.55	13.701
407.91	14.295
408.27	13.724
408.62	14.426
408.98	14.057
409.34	13.738
409.69	14.815
410.05	14.490
410.40	13.694
410.76	14.260
411.11	14.303
411.47	14.200
411.83	14.410
412.18	14.106
412.54	14.536
412.89	15.298
413.25	14.513
413.60	14.859
413.96	14.232
414.31	15.290
414.67	15.937
415.03	14.344
415.38	14.465
415.74	14.815
416.09	14.541
416.45	14.764
416.80	15.302
417.16	15.317
417.51	15.070
417.87	14.749
418.22	14.544
418.58	15.440
418.93	15.380
419.29	15.446
419.64	14.695
420.00	15.873
420.35	15.660
420.71	15.600
421.06	15.806
421.42	14.720
421.77	15.896
422.12	15.931
422.48	14.776
422.83	16.184
423.19	15.124
423.54	16.019
423.90	15.261
424.25	16.002
424.61	14.787
424.96	15.553
425.31	15.367
425.67	16.402
426.02	16.784
426.38	15.983
426.73	15.333
427.09	15.260
427.44	16.676
427.79	16.686
428.15	15.657
428.50	15.287
428.85	16.544
429.21	15.701
429.56	15.994
429.92	15.877
430.27	15.491
430.62	16.002
430.98	16.023
431.33	15.314
431.68	16.134
432.04	15.887
432.39	15.589
432.74	15.941
433.10	16.037
433.45	15.680
433.80	15.345
434.16	15.565
434.51	15.978
434.86	16.431
435.22	16.016
435.57	16.585
435.92	15.802
436.28	15.856
436.63	17.206
436.98	16.157
437.34	16.911
437.69	16.175
438.04	15.959
438.39	16.376
438.75	16.329
439.10	18.045
439.45	16.162
439.81	16.195
440.16	17.159
440.51	16.290
440.86	17.190
441.22	16.064
441.57	16.215
441.92	16.744
442.27	16.126
442.63	16.254
442.98	16.030
443.33	16.309
443.68	16.500
444.03	17.039
444.39	16.460
444.74	16.510
445.09	16.134
445.44	16.901
445.79	16.727
446.15	17.027
446.50	16.410
446.85	16.408
447.20	16.519
447.55	16.228
447.91	16.685
448.26	16.467
448.61	16.398
448.96	16.856
449.31	16.733
449.66	16.657
450.02	17.112
450.37	17.098
450.72	16.705
451.07	16.991
451.42	16.095
451.77	16.859
452.12	16.280
452.47	16.591
452.83	16.627
453.18	16.614
453.53	17.402
453.88	17.048
454.23	16.934
454.58	16.912
454.93	16.806
455.28	17.469
455.63	16.532
455.98	16.312
456.34	15.639
456.69	16.869
457.04	16.718
457.39	16.897
457.74	16.098
458.09	16.291
458.44	17.274
458.79	17.683
459.14	15.843
459.49	17.012
459.84	16.911
460.19	17.647
460.54	16.363
460.89	16.441
461.24	16.523
461.59	17.029
461.94	16.877
462.29	16.667
462.64	17.084
462.99	16.365
463.34	17.818
463.69	17.268
464.04	16.267
464.39	16.840
464.74	17.199
465.09	17.111
465.44	16.723
465.79	16.964
466.14	16.819
466.49	16.950
466.84	17.274
467.19	16.943
467.54	17.369
467.89	16.970
468.24	16.902
468.59	16.507
468.94	16.411
469.29	17.713
469.64	18.340
469.99	18.414
470.34	17.262
470.68	17.026
471.03	17.772
471.38	16.690
471.73	17.421
472.08	17.182
472.43	18.470
472.78	18.323
473.13	17.216
473.48	16.504
473.83	17.765
474.17	17.578
474.52	17.476
474.87	16.888
475.22	16.546
475.57	16.564
475.92	17.557
476.27	16.375
476.61	17.044
476.96	17.304
477.31	17.044
477.66	18.192
478.01	16.813
478.36	17.112
478.70	17.025
479.05	17.481
479.40	16.849
479.75	17.375
480.10	17.440
480.45	17.263
480.79	17.123
481.14	17.579
481.49	17.908
481.84	17.672
482.19	17.277
482.53	17.524
482.88	17.498
483.23	17.276
483.58	17.486
483.92	16.148
484.27	17.109
484.62	17.221
484.97	17.793
485.31	16.839
485.66	16.235
486.01	16.015
486.36	16.206
486.70	16.159
487.05	16.146
487.40	16.474
487.75	16.279
488.09	16.359
488.44	17.000
488.79	17.562
489.13	17.296
489.48	16.930
489.83	17.329
490.17	17.794
490.52	17.952
490.87	17.617
491.22	17.240
491.56	18.112
491.91	17.331
492.26	17.553
492.60	17.364
492.95	17.979
493.30	17.636
493.64	17.074
493.99	17.585
494.34	17.245
494.68	18.091
495.03	17.984
495.37	17.908
495.72	17.845
496.07	18.217
496.41	17.548
496.76	17.550
497.11	17.700
497.45	17.510
497.80	18.476
498.14	18.438
498.49	18.154
498.84	17.864
499.18	18.168
499.53	18.021
499.87	17.516
500.22	17.969
500.56	18.305
500.91	18.461
501.26	18.030
501.60	17.843
501.95	18.400
502.29	18.155
502.64	18.997
502.98	17.726
503.33	17.908
503.67	18.403
504.02	17.696
504.36	18.326
504.71	18.191
505.06	18.594
505.40	17.835
505.75	18.667
506.09	18.753
506.44	18.296
506.78	18.994
507.13	18.295
507.47	18.717
507.82	18.210
508.16	18.892
508.51	18.698
508.85	18.248
509.19	18.995
509.54	18.660
509.88	18.226
510.23	19.368
510.57	19.756
510.92	19.289
511.26	19.307
511.61	18.825
511.95	18.302
512.30	18.490
512.64	19.977
512.98	19.446
513.33	19.155
513.67	19.989
514.02	19.783
514.36	19.944
514.70	20.150
515.05	19.895
515.39	20.224
515.74	20.249
516.08	19.764
516.42	19.585
516.77	19.449
517.11	19.518
517.46	21.008
517.80	20.642
518.14	19.963
518.49	20.133
518.83	20.048
519.17	20.783
519.52	20.808
519.86	21.008
520.20	20.073
520.55	20.398
520.89	20.746
521.23	21.731
521.58	20.860
521.92	20.427
522.26	21.015
522.61	21.073
522.95	21.567
523.29	21.714
523.64	22.123
523.98	21.792
524.32	21.235
524.66	21.623
525.01	21.691
525.35	22.054
525.69	21.471
526.04	20.717
526.38	22.180
526.72	21.762
527.06	21.277
527.41	21.310
527.75	21.696
528.09	21.647
528.43	21.574
528.78	21.964
529.12	22.510
529.46	22.137
529.80	22.524
530.15	21.429
530.49	23.113
530.83	21.801
531.17	21.918
531.51	21.510
531.86	21.883
532.20	21.502
532.54	21.655
532.88	21.784
533.22	21.953
533.57	21.722
533.91	23.290
534.25	22.917
534.59	22.394
534.93	21.939
535.27	21.783
535.62	22.500
535.96	22.511
536.30	23.471
536.64	22.010
536.98	22.214
537.32	22.776
537.66	22.567
538.01	22.538
538.35	22.307
538.69	21.806
539.03	22.752
539.37	22.468
539.71	22.783
540.05	21.053
540.39	21.886
540.73	22.696
541.07	21.769
541.42	23.098
541.76	23.207
542.10	22.072
542.44	22.315
542.78	22.415
543.12	22.574
543.46	22.806
543.80	21.996
544.14	23.193
544.48	21.168
544.82	21.318
545.16	21.704
545.50	23.093
545.84	23.352
546.18	21.879
546.52	22.795
546.86	21.837
547.20	21.873
547.54	22.445
547.88	22.402
548.22	22.410
548.56	21.948
548.90	22.530
549.24	23.194
549.58	22.491
549.92	22.450
550.26	23.395
550.60	23.348
550.94	22.612
551.28	21.953
551.62	22.782
551.96	24.451
552.30	21.325
552.64	22.669
552.98	23.224
553.32	22.999
553.66	23.478
554.00	23.398
554.34	22.564
554.68	23.043
555.02	22.305
555.36	23.374
555.69	21.850
556.03	22.087
556.37	23.400
556.71	22.635
557.05	22.288
557.39	22.758
557.73	21.936
558.07	22.306
558.41	23.316
558.75	22.325
559.08	21.732
559.42	22.659
559.76	22.248
560.10	22.060
560.44	23.287
560.78	22.230
561.12	21.093
561.45	22.177
561.79	22.490
562.13	22.293
562.47	22.714
562.81	21.501
563.15	21.955
563.48	21.335
563.82	21.135
564.16	21.259
564.50	21.642
564.84	21.757
565.17	22.252
565.51	21.925
565.85	20.586
566.19	21.656
566.52	21.625
566.86	21.808
567.20	21.686
567.54	21.531
567.88	20.717
568.21	21.456
568.55	20.709
568.89	20.638
569.23	20.715
569.56	20.275
569.90	20.015
570.24	19.386
570.57	19.345
570.91	19.707
571.25	19.013
571.59	18.972
571.92	19.273
572.26	19.869
572.60	19.587
572.93	19.182
573.27	18.919
573.61	19.752
573.95	19.090
574.28	19.309
574.62	18.662
574.96	19.636
575.29	19.132
575.63	19.099
575.97	19.565
576.30	19.218
576.64	19.177
576.98	19.299
577.31	18.684
577.65	18.622
577.98	18.560
578.32	18.594
578.66	18.797
578.99	19.343
579.33	18.941
579.67	18.712
580.00	18.634
580.34	18.759
580.67	18.716
581.01	18.727
581.35	18.430
581.68	18.512
582.02	18.865
582.35	18.927
582.69	18.589
583.02	18.498
583.36	18.822
583.70	18.707
584.03	18.819
584.37	18.197
584.70	18.668
585.04	19.269
585.37	18.785
585.71	18.596
586.04	18.872
586.38	18.364
586.72	19.078
587.05	18.951
587.39	19.088
587.72	18.803
588.06	18.413
588.39	19.284
588.73	18.532
589.06	18.946
589.40	19.161
589.73	18.469
590.07	18.994
590.40	19.046
590.73	19.692
591.07	19.348
591.40	19.391
591.74	19.431
592.07	19.306
592.41	19.477
592.74	19.174
593.08	18.632
593.41	19.171
593.75	18.798
594.08	18.687
594.41	18.684
594.75	19.265
595.08	18.857
595.42	18.361
595.75	18.800
596.09	18.822
596.42	19.077
596.75	18.692
597.09	19.791
597.42	18.843
597.75	19.200
598.09	18.944
598.42	20.045
598.76	19.228
599.09	19.408
599.42	19.486
599.76	19.452
600.09	19.164
600.42	19.058
600.76	19.364
601.09	19.171
601.42	18.816
601.76	18.571
602.09	18.889
602.42	19.109
602.76	19.379
603.09	19.302
603.42	18.713
603.76	19.330
604.09	18.972
604.42	19.087
604.76	18.987
605.09	19.438
605.42	19.928
605.75	18.715
606.09	18.750
606.42	18.953
606.75	18.701
607.09	19.060
607.42	19.571
607.75	18.337
608.08	19.748
608.42	19.072
608.75	18.538
609.08	19.206
609.41	18.877
609.75	18.759
610.08	19.379
610.41	19.193
610.74	19.249
611.07	19.088
611.41	20.164
611.74	18.789
612.07	18.395
612.40	19.135
612.73	19.319
613.07	18.625
613.40	19.053
613.73	20.043
614.06	19.679
614.39	19.011
614.72	20.155
615.06	19.000
615.39	19.426
615.72	19.006
616.05	18.694
616.38	19.015
616.71	19.496
617.05	19.472
617.38	19.409
617.71	18.873
618.04	19.196
618.37	19.685
618.70	19.276
619.03	19.450
619.36	20.427
619.69	19.956
620.03	18.657
620.36	18.441
620.69	18.558
621.02	18.846
621.35	18.724
621.68	18.500
622.01	19.822
622.34	18.557
622.67	20.439
623.00	19.377
623.33	19.671
623.66	18.959
623.99	20.630
624.32	19.296
624.65	19.139
624.99	19.691
625.32	19.642
625.65	19.767
625.98	20.300
626.31	20.163
626.64	18.917
626.97	20.329
627.30	21.044
627.63	19.031
627.96	19.394
628.29	20.930
628.62	21.760
628.95	21.643
629.28	20.197
629.61	21.627
629.94	20.309
630.26	20.788
630.59	20.480
630.92	18.474
631.25	19.979
631.58	21.092
631.91	19.618
632.24	20.417
632.57	19.444
632.90	21.587
633.23	21.103
633.56	21.463
633.89	20.933
634.22	23.439
634.55	20.097
634.88	19.730
635.20	23.125
635.53	20.155
635.86	22.308
636.19	20.844
636.52	20.244
636.85	20.386
637.18	18.758
637.51	20.350
637.83	21.802
638.16	21.067
638.49	21.896
638.82	22.876
639.15	21.809
639.48	20.053
639.81	20.556
640.13	21.549
640.46	24.718
640.79	20.000
641.12	18.787
641.45	20.815
641.77	20.913
642.10	21.936
642.43	20.126
642.76	21.609
643.09	20.927
643.41	20.096
643.74	22.779
644.07	21.197
644.40	19.403
644.73	21.695
645.05	22.164
645.38	19.934
645.71	21.088
646.04	19.192
646.36	19.271
646.69	22.552
647.02	23.497
647.35	21.755
647.67	19.409
648.00	20.109
648.33	21.695
648.66	19.032
648.98	19.720
649.31	19.479
649.64	19.249
649.96	21.485
650.29	18.791
650.62	21.087
650.94	22.069
651.27	22.085
651.60	20.280
651.92	22.581
652.25	21.943
652.58	20.957
652.90	19.192
653.23	18.676
653.56	18.347
653.88	17.918
654.21	19.966
654.54	19.269
654.86	18.699
655.19	18.347
655.52	18.311
655.84	16.693
656.17	19.983
656.49	26.402
656.82	25.838
657.15	19.056
657.47	13.855
657.80	10.437
658.13	10.566
658.45	15.518
658.78	15.718
659.10	15.939
659.43	15.461
659.75	15.403
660.08	16.276
660.41	17.039
660.73	17.631
661.06	16.837
661.38	19.767
661.71	21.311
662.03	24.101
662.36	20.354
662.68	20.860
663.01	21.610
663.33	22.678
663.66	21.729
663.98	21.798
664.31	20.440
664.63	18.694
664.96	20.350
665.28	22.103
665.61	19.870
665.93	20.985
666.26	21.097
666.58	22.056
666.91	21.525
667.23	19.585
667.56	20.460
667.88	21.262
668.21	20.759
668.53	20.000
668.86	22.542
669.18	20.567
669.50	19.816
669.83	23.150
670.15	19.286
670.48	18.851
670.80	24.070
671.13	19.451
671.45	20.776
671.77	20.043
672.10	19.883
672.42	19.847
672.75	16.607
673.07	18.182
673.39	19.030
673.72	20.160
674.04	17.828
674.37	21.545
674.69	18.107
675.01	19.658
675.34	21.882
675.66	21.133
675.98	19.248
676.31	18.100
676.63	23.129
676.95	18.118
677.28	20.183
677.60	22.304
677.92	20.399
678.25	21.258
678.57	19.959
678.89	16.844
679.22	18.427
679.54	19.796
679.86	21.680
680.18	20.577
680.51	19.423
680.83	17.739
681.15	19.450
681.48	18.036
681.80	17.382
682.12	17.917
682.44	18.511
682.77	18.526
683.09	18.750
683.41	19.535
683.73	17.411
684.06	19.248
684.38	19.017
684.70	17.923
685.02	17.975
685.34	18.004
685.67	20.826
685.99	17.260
686.31	18.793
686.63	18.934
686.96	20.408
687.28	17.365
687.60	20.416
687.92	19.455
688.24	17.800
688.56	18.860
688.89	17.817
689.21	16.143
689.53	15.315
689.85	19.101
690.17	21.099
690.49	16.184
690.82	21.241
691.14	16.184
691.46	18.097
691.78	18.901
692.10	19.108
692.42	16.923
692.74	20.870
693.06	18.202
693.39	17.799
693.71	18.667
694.03	20.909
694.35	17.342
694.67	19.250
694.99	20.103
695.31	19.638
695.63	19.024
695.95	21.628
696.27	15.068
696.59	18.548
696.91	16.201
697.23	15.990
697.56	18.465
697.88	17.879
698.20	18.790
698.52	20.093
698.84	16.268
699.16	19.385
699.48	21.235
699.80	23.773
700.12	18.231
700.44	17.183
700.76	16.573
701.08	22.356
701.40	19.461
701.72	18.462
702.04	18.868
702.36	17.073
702.68	17.988
703.00	17.544
703.32	17.827
703.64	17.470
703.96	20.821
704.28	19.277
704.60	18.902
704.91	16.301
705.23	21.835
705.55	16.552
705.87	17.254
706.19	16.117
706.51	19.718
706.83	15.287
707.15	16.159
707.47	21.212
707.79	16.751
708.11	20.566
708.43	18.528
708.74	19.947
709.06	16.845
709.38	18.444
709.70	18.919
710.02	19.938
710.34	20.667
710.66	14.984
710.98	17.028
711.29	20.455
711.61	14.839
711.93	13.871
712.25	13.986
712.57	14.737
712.89	18.681
713.20	15.957
713.52	21.533
713.84	17.097
714.16	12.298
714.48	21.203
714.80	14.058
715.11	16.279
715.43	13.354
715.75	18.634
716.07	19.578
716.39	15.488
716.70	17.626
717.02	17.255
717.34	20.455
717.66	13.793
717.97	13.492
718.29	18.110
718.61	16.738
718.93	14.729
719.24	19.188
719.56	15.730
719.88	17.164
720.20	17.391
720.51	16.016
720.83	18.288
721.15	12.195
721.46	14.122
721.78	14.343
722.10	12.749
722.42	15.726
722.73	16.602
723.05	20.816
723.37	18.908
723.68	13.600
724.00	9.362
724.32	15.900
724.63	16.461
724.95	16.667
725.27	16.456
725.58	17.695
725.90	15.900
726.22	17.029
726.53	14.510
726.85	21.168
727.16	15.556
727.48	17.625
727.80	20.703
728.11	19.262
728.43	18.359
728.74	14.683
729.06	14.800
729.38	12.648
729.69	18.149
730.01	14.498
730.32	17.712
730.64	14.773
730.96	20.629
731.27	19.398
731.59	15.873
731.90	16.181
732.22	12.179
732.53	8.446
732.85	12.081
733.16	13.861
733.48	12.500
733.80	15.203
734.11	14.865
734.43	13.932
734.74	17.417
735.06	15.274
735.37	18.237
735.69	17.152
736.00	14.851
736.32	19.504
736.63	13.793
736.95	17.123
737.26	14.138
737.58	18.403
737.89	21.306
738.21	14.235
738.52	16.350
738.83	16.735
739.15	19.831
739.46	10.895
739.78	13.732
740.09	13.356
740.41	12.500
740.72	13.830
741.04	13.200
741.35	9.649
741.66	15.556
741.98	17.788
742.29	19.307
742.61	15.610
742.92	22.368
743.23	13.208
743.55	17.568
743.86	14.350
744.18	21.078
744.49	15.228
744.80	14.796
745.12	16.822
745.43	15.166
745.74	16.667
746.06	15.888
746.37	14.679
746.68	14.423
747.00	12.919
747.31	15.385
747.62	14.220
747.94	17.904
748.25	15.596
748.56	22.667
748.88	20.188
749.19	20.000
749.50	13.107
749.82	12.676
750.13	11.667
750.44	11.923
750.75	8.856
751.07	12.811
751.38	16.667
751.69	16.602
752.01	16.406
752.32	9.615
752.63	17.537
752.94	17.600
753.26	10.879
753.57	11.667
753.88	16.194
754.19	16.335
754.51	18.421
754.82	12.821
755.13	11.304
755.44	12.195
755.75	12.000
756.07	12.915
756.38	17.266
756.69	18.771
757.00	13.396
757.31	15.534
757.63	13.272
757.94	16.949
758.25	16.667
758.56	14.674
758.87	17.560
759.18	14.511
759.50	13.805
759.81	13.378
760.12	16.615
760.43	11.905
760.74	13.842
761.05	13.260
761.36	12.321
761.67	14.502
761.99	13.746
762.30	11.679
762.61	10.700
762.92	17.094
763.23	16.803
763.54	17.749
763.85	13.878
764.16	15.854
764.47	12.400
764.78	11.071
765.10	9.836
765.41	16.717
765.72	15.839
766.03	13.861
766.34	14.615
766.65	10.460
766.96	13.615
767.27	15.842
767.58	6.742
767.89	16.049
768.20	10.497
768.51	13.568
768.82	15.385
769.13	12.389
769.44	14.644
769.75	6.838
770.06	11.659
770.37	13.725
770.68	14.078
770.99	13.592
771.30	13.445
771.61	17.143
771.92	15.768
772.23	8.559
772.54	7.735
772.85	12.791
773.16	15.873
773.47	7.692
773.78	16.667
774.09	13.125
774.39	13.665
774.70	18.367
775.01	8.966
775.32	10.000
775.63	11.278
775.94	8.271
776.25	2.400
776.56	11.570
776.87	13.492
777.18	12.613
777.48	14.414
777.79	7.874
778.10	9.174
778.41	11.404
778.72	5.882
779.03	2.817
779.34	18.243
779.65	3.521
779.95	14.570
780.26	7.914
780.57	10.791
780.88	13.380
781.19	4.202
781.50	10.067
781.80	10.526
782.11	4.651
782.42	16.981
782.73	9.804
783.04	14.483
783.34	6.107
783.65	11.409
783.96	6.154
784.27	17.143
784.57	13.475
784.88	-3.846
785.19	16.364
785.50	12.727
785.81	10.476
786.11	5.042
786.42	10.619
786.73	1.887
787.04	-0.917
787.34	-2.970
787.65	15.000
787.96	2.479
788.26	9.420
788.57	3.968
788.88	-0.813
789.19	13.600
789.49	-3.053
789.80	14.394
790.11	4.717
790.41	11.881
790.72	8.511
791.03	7.609
791.33	-8.235
791.64	-3.704
791.95	11.957
792.25	15.909
792.56	23.077
792.87	-6.410
793.17	-15.385
793.48	9.524
793.79	-7.500
794.09	21.154
794.40	16.667
794.70	10.811
795.01	6.250
795.32	6.957
795.62	-3.261
795.93	0.943
796.23	1.010
796.54	2.439
796.85	10.714
797.15	13.636
797.46	7.246
797.76	2.632
798.07	11.364
798.37	-2.439
798.68	3.226
798.99	-2.703
799.29	10.843
799.60	5.128
799.90	10.769
800.21	6.061
800.51	-9.333
800.82	1.333
801.12	-27.083
801.43	-5.000
801.73	1.351
802.04	7.143
802.34	4.918
802.65	1.493
802.95	-3.636
803.26	-12.069
803.56	7.692
803.87	11.321
804.17	-4.839
804.48	2.941
804.78	-31.707
805.09	18.841
805.39	-5.882
805.70	-14.894
806.00	-7.018
806.30	16.667
806.61	3.947
806.91	1.351
807.22	1.316
807.52	15.909
807.83	-27.119
808.13	-18.182
808.43	-6.667
808.74	-25.862
809.04	1.587
809.35	-16.327
809.65	25.000
809.95	0.000
810.26	26.761
810.56	0.000
810.86	-4.082
811.17	3.846
811.47	-12.766
811.77	-10.417
812.08	0.000
812.38	-25.000
812.69	1.818
812.99	-2.439
813.29	0.000
813.59	-13.514
813.90	-3.636
814.20	1.818
814.50	6.667
814.81	-18.182
815.11	-1.754
815.41	23.256
815.72	-5.000
816.02	-5.714
816.32	-13.514
816.62	6.250
816.93	11.111
817.23	-6.667
817.53	-27.778
817.84	-5.405
818.14	-2.439
818.44	-20.000
818.74	2.041
819.04	-2.439
819.35	-36.111
819.65	-9.091
819.95	-94.444
820.25	-9.091
820.56	-38.095
820.86	-27.778
821.16	-15.909
821.46	-19.565
821.76	1.724
822.07	26.087
822.37	6.061
822.67	4.878
822.97	-10.811
823.27	-37.143
823.57	3.448
823.88	-38.235
824.18	0.000
824.48	-8.571
824.78	-33.333
825.08	-17.857
825.38	-37.037
825.69	-3.226
825.99	0.000
826.29	-25.926
826.59	-9.375
826.89	-32.258
827.19	-60.870
827.49	-27.778
827.79	-17.391
828.09	0.000
828.39	-2.083
828.70	-53.125
829.00	-31.034
829.30	0.000
829.60	-58.333
829.90	7.407
830.20	0.000
830.50	-36.364
830.80	-70.588
831.10	-27.273
831.40	-8.824
831.70	-7.692
832.00	-15.152
832.30	-8.824
832.60	5.405
832.90	1200.000
833.20	3.571
833.50	-100.000
833.80	2.632
834.10	-75.000
834.40	-59.091
834.70	-66.667
835.00	-70.000
835.30	0.000
835.60	-100.000
835.90	-14.286
836.20	4.000
836.50	-62.500
836.80	-21.053
837.10	-10.811
837.40	20.000
837.70	-30.435
838.00	-16.667
838.30	10.526
838.60	-120.000
838.90	-100.000
839.19	-33.333
839.49	-107.692
839.79	-57.895
840.09	-283.333
840.39	-170.000
840.69	-36.364
840.99	-9.524
841.29	-37.500
841.59	-138.462
841.88	-113.333
842.18	-57.143
842.48	-16.667
842.78	-214.286
843.08	-107.143
843.38	-175.000
843.68	-56.250
843.97	-42.857
844.27	-111.111
844.57	0.000
844.87	-73.333
845.17	-4.545
845.47	833.333
845.76	-40.000
846.06	-58.333
846.36	-550.000
846.66	-78.947
846.96	-45.455
847.25	-94.444
847.55	-277.778
847.85	-38.095
848.15	-84.615
848.44	-233.333
848.74	-83.333
849.04	-23.077
849.34	-175.000
849.63	-163.636
849.93	-107.143
850.23	-25.000
850.53	-312.500
850.82	-16.667
851.12	-66.667
851.42	-35.294
851.71	0.000
852.01	5.882
852.31	-53.846
852.61	850.000
852.90	-5.882
853.20	20.000
853.50	-68.750
853.79	-164.286
854.09	-375.000
854.39	-65.000
854.68	5.000
854.98	-47.619
855.28	-60.000
855.57	-33.333
855.87	-33.333
856.17	-40.000
856.46	3.125
856.76	5.000
857.05	-12.000
857.35	-75.000
857.65	-17.647
857.94	-150.000
858.24	-66.667
858.53	-35.000
858.83	-145.455
859.13	-8.000
859.42	-85.714
859.72	-100.000
860.01	-25.000
860.31	-175.000
860.60	-68.750
860.90	-183.333
861.20	-66.667
861.49	-20.000
861.79	-31.250
862.08	175.000
862.38	-133.333
862.67	342.857
862.97	175.000
863.26	-9.091
863.56	-36.364
863.85	5.263
864.15	-47.059
864.44	-320.000
864.74	-90.000
865.03	-77.778
865.33	-21.429
865.62	178.571
865.92	10.526
866.21	-33.333
866.51	-63.636
866.80	-122.222
867.10	-162.500
867.39	-25.000
867.69	-60.000
867.98	-50.000
868.27	-52.941
868.57	0.000
868.86	700.000
869.16	-250.000
869.45	-228.571
869.75	650.000
870.04	-180.000
870.33	-1400.000
870.63	-52.632
870.92	-141.667
871.22	-400.000
871.51	-142.857
871.80	-100.000
872.10	-375.000
>>>>>End Processed Spectral Data<<<<<
