SpectraSuite Data File
++++++++++++++++++++++++++++++++++++
Date: Wed May 13 21:28:45 PDT 2015
User: schluterlab
Dark Spectrum Present: Yes
Reference Spectrum Present: Yes
Number of Sampled Component Spectra: 1
Spectrometers: USB2E3373
Integration Time (usec): 3000 (USB2E3373)
Spectra Averaged: 3 (USB2E3373)
Boxcar Smoothing: 0 (USB2E3373)
Correct for Electrical Dark: No (USB2E3373)
Strobe/Lamp Enabled: No (USB2E3373)
Correct for Detector Non-linearity: No (USB2E3373)
Correct for Stray Light: No (USB2E3373)
Number of Pixels in Processed Spectrum: 2048
>>>>>Begin Processed Spectral Data<<<<<
178.53	0.000
178.91	100.000
179.29	175.000
179.67	-800.000
180.04	-466.667
180.42	180.000
180.80	900.000
181.18	316.667
181.56	-500.000
181.94	-250.000
182.31	-118.182
182.69	130.769
183.07	-160.000
183.45	316.667
183.83	111.111
184.20	100.000
184.58	-133.333
184.96	333.333
185.34	200.000
185.72	0.000
186.09	-900.000
186.47	-480.000
186.85	460.000
187.23	100.000
187.61	750.000
187.98	900.000
188.36	-25.000
188.74	0.000
189.12	-72.727
189.49	60.000
189.87	16.667
190.25	320.000
190.63	800.000
191.00	0.000
191.38	80.000
191.76	250.000
192.14	100.000
192.51	-36.842
192.89	333.333
193.27	375.000
193.65	-320.000
194.02	209.091
194.40	170.000
194.78	-800.000
195.15	140.000
195.53	-160.000
195.91	-162.500
196.29	-400.000
196.66	0.000
197.04	450.000
197.42	0.000
197.79	30.000
198.17	-200.000
198.55	-200.000
198.92	150.000
199.30	-466.667
199.68	-10.000
200.05	100.000
200.43	33.333
200.81	-1000.000
201.18	-180.000
201.56	-166.667
201.94	375.000
202.31	-17.391
202.69	-114.286
203.07	-200.000
203.44	-120.000
203.82	-500.000
204.19	-160.000
204.57	0.000
204.95	-233.333
205.32	0.000
205.70	-400.000
206.08	-75.000
206.45	-316.667
206.83	350.000
207.20	-533.333
207.58	-80.000
207.96	-2500.000
208.33	-228.571
208.71	-2200.000
209.08	137.500
209.46	575.000
209.84	0.000
210.21	200.000
210.59	2700.000
210.96	240.000
211.34	1000.000
211.71	-600.000
212.09	-183.333
212.46	-140.000
212.84	-266.667
213.22	-50.000
213.59	-600.000
213.97	-450.000
214.34	-600.000
214.72	30.769
215.09	137.500
215.47	277.778
215.84	1200.000
216.22	-100.000
216.59	-500.000
216.97	400.000
217.34	100.000
217.72	0.000
218.09	566.667
218.47	-1300.000
218.84	-171.429
219.22	-50.000
219.59	-466.667
219.97	-100.000
220.34	-12.500
220.72	-200.000
221.09	0.000
221.47	-16.667
221.84	-600.000
222.22	0.000
222.59	1300.000
222.97	33.333
223.34	-75.000
223.72	-900.000
224.09	-800.000
224.46	18.182
224.84	-12.500
225.21	-42.857
225.59	-525.000
225.96	-50.000
226.34	-30.000
226.71	-214.286
227.08	300.000
227.46	-137.500
227.83	-600.000
228.21	-68.750
228.58	-400.000
228.95	-47.059
229.33	18.750
229.70	-37.500
230.08	-30.769
230.45	-87.500
230.82	0.000
231.20	142.857
231.57	-275.000
231.95	1300.000
232.32	25.000
232.69	-5.882
233.07	-200.000
233.44	-52.174
233.81	-350.000
234.19	20.833
234.56	-33.333
234.93	13.333
235.31	52.632
235.68	-38.462
236.05	-61.538
236.43	-16.667
236.80	21.212
237.17	-113.333
237.55	-29.412
237.92	-31.034
238.29	-3.704
238.67	8.333
239.04	3.226
239.41	-4.255
239.79	25.532
240.16	18.605
240.53	30.357
240.91	19.643
241.28	19.643
241.65	17.742
242.02	25.000
242.40	26.087
242.77	5.797
243.14	14.103
243.51	19.149
243.89	18.269
244.26	39.623
244.63	22.115
245.00	33.333
245.38	27.731
245.75	22.131
246.12	27.820
246.49	26.829
246.87	14.286
247.24	29.054
247.61	34.437
247.98	28.846
248.36	21.893
248.73	28.652
249.10	24.242
249.47	29.570
249.84	29.474
250.22	28.856
250.59	29.907
250.96	28.636
251.33	25.837
251.70	34.310
252.08	29.289
252.45	27.984
252.82	28.897
253.19	29.572
253.56	28.058
253.94	29.181
254.31	32.394
254.68	29.866
255.05	31.683
255.42	29.720
255.79	30.061
256.16	30.284
256.54	31.746
256.91	26.266
257.28	34.591
257.65	30.573
258.02	27.273
258.39	29.240
258.76	29.070
259.14	32.955
259.51	29.213
259.88	28.184
260.25	28.611
260.62	29.775
260.99	33.687
261.36	31.347
261.73	32.099
262.10	28.244
262.47	30.864
262.85	33.085
263.22	31.795
263.59	30.390
263.96	30.170
264.33	28.365
264.70	30.465
265.07	33.333
265.44	31.954
265.81	31.579
266.18	32.346
266.55	29.258
266.92	32.203
267.29	29.835
267.66	30.149
268.03	32.716
268.40	29.661
268.77	33.678
269.14	33.061
269.51	32.444
269.88	30.957
270.25	33.686
270.62	29.918
270.99	31.102
271.36	31.151
271.73	31.727
272.10	31.048
272.47	32.246
272.84	29.724
273.21	30.920
273.58	30.328
273.95	30.189
274.32	30.037
274.69	29.144
275.06	32.332
275.43	31.450
275.80	30.142
276.17	32.044
276.54	27.709
276.91	29.443
277.28	28.520
277.65	29.720
278.02	30.893
278.39	29.485
278.76	33.110
279.13	31.046
279.50	28.621
279.87	27.536
280.23	29.189
280.60	29.412
280.97	29.383
281.34	30.599
281.71	27.480
282.08	27.863
282.45	31.148
282.82	30.351
283.19	30.183
283.56	29.531
283.92	28.593
284.29	29.329
284.66	28.830
285.03	29.642
285.40	29.607
285.77	29.279
286.14	27.356
286.51	31.334
286.87	27.231
287.24	27.876
287.61	30.723
287.98	28.971
288.35	26.975
288.72	28.264
289.08	30.199
289.45	26.725
289.82	28.290
290.19	27.770
290.56	26.278
290.93	27.348
291.29	26.539
291.66	27.596
292.03	27.248
292.40	27.052
292.77	26.104
293.13	26.360
293.50	26.667
293.87	26.000
294.24	24.735
294.60	25.358
294.97	25.794
295.34	24.142
295.71	22.996
296.08	24.607
296.44	25.128
296.81	24.604
297.18	25.375
297.55	23.585
297.91	24.224
298.28	24.213
298.65	23.276
299.02	24.298
299.38	23.926
299.75	23.077
300.12	21.628
300.48	22.573
300.85	23.095
301.22	23.693
301.59	23.709
301.95	22.648
302.32	22.054
302.69	22.712
303.05	22.370
303.42	22.386
303.79	22.818
304.15	22.782
304.52	23.763
304.89	22.259
305.25	21.844
305.62	22.668
305.99	23.069
306.35	23.929
306.72	21.363
307.09	22.419
307.45	22.045
307.82	22.105
308.19	20.063
308.55	22.416
308.92	22.397
309.29	21.622
309.65	22.178
310.02	21.869
310.38	22.053
310.75	21.006
311.12	21.574
311.48	21.365
311.85	22.736
312.22	21.857
312.58	21.353
312.95	21.891
313.31	21.488
313.68	21.756
314.05	21.645
314.41	23.055
314.78	21.063
315.14	20.648
315.51	20.932
315.87	22.614
316.24	21.304
316.61	21.461
316.97	21.296
317.34	21.480
317.70	21.945
318.07	21.828
318.43	21.500
318.80	20.681
319.16	20.778
319.53	21.237
319.89	21.048
320.26	20.610
320.62	20.760
320.99	20.736
321.35	20.299
321.72	21.848
322.08	21.310
322.45	21.184
322.81	21.165
323.18	19.767
323.54	21.570
323.91	21.500
324.27	20.792
324.64	20.819
325.00	20.822
325.37	21.331
325.73	20.960
326.10	21.194
326.46	22.157
326.83	20.469
327.19	20.976
327.56	21.757
327.92	21.963
328.29	21.452
328.65	21.122
329.01	20.756
329.38	21.304
329.74	20.944
330.11	21.371
330.47	19.965
330.84	20.578
331.20	20.751
331.56	22.192
331.93	21.964
332.29	22.328
332.66	20.763
333.02	22.850
333.38	21.754
333.75	21.672
334.11	20.399
334.48	21.186
334.84	20.936
335.20	21.527
335.57	20.975
335.93	21.478
336.29	20.403
336.66	20.940
337.02	20.522
337.38	20.801
337.75	22.222
338.11	21.862
338.47	19.777
338.84	19.330
339.20	20.635
339.56	20.222
339.93	18.755
340.29	20.325
340.65	19.504
341.02	20.965
341.38	20.861
341.74	19.412
342.11	20.479
342.47	19.833
342.83	20.343
343.20	20.389
343.56	21.177
343.92	19.903
344.28	20.617
344.65	20.816
345.01	19.693
345.37	21.711
345.73	20.997
346.10	21.348
346.46	20.732
346.82	19.422
347.19	19.937
347.55	20.355
347.91	19.486
348.27	20.662
348.63	19.151
349.00	20.597
349.36	19.859
349.72	20.108
350.08	19.735
350.45	19.734
350.81	19.953
351.17	20.477
351.53	19.953
351.89	19.222
352.26	17.992
352.62	19.457
352.98	20.288
353.34	20.129
353.70	20.872
354.07	19.216
354.43	20.295
354.79	19.631
355.15	19.876
355.51	18.755
355.87	19.468
356.24	19.342
356.60	19.312
356.96	20.184
357.32	19.272
357.68	19.633
358.04	20.093
358.40	20.310
358.77	20.872
359.13	19.611
359.49	19.985
359.85	19.484
360.21	20.509
360.57	19.696
360.93	19.954
361.29	20.059
361.66	19.818
362.02	19.496
362.38	18.833
362.74	19.144
363.10	19.740
363.46	18.012
363.82	19.956
364.18	19.289
364.54	18.454
364.90	19.024
365.26	18.967
365.62	19.460
365.98	19.431
366.35	20.638
366.71	18.759
367.07	19.277
367.43	19.233
367.79	19.944
368.15	19.972
368.51	18.776
368.87	19.819
369.23	19.217
369.59	20.014
369.95	18.070
370.31	18.550
370.67	18.899
371.03	19.525
371.39	17.885
371.75	19.286
372.11	18.732
372.47	19.466
372.83	19.764
373.19	18.633
373.55	18.064
373.91	19.448
374.27	18.672
374.63	20.270
374.99	17.967
375.35	19.315
375.71	18.818
376.07	19.397
376.42	18.783
376.78	19.683
377.14	18.780
377.50	18.840
377.86	19.389
378.22	19.469
378.58	18.979
378.94	19.625
379.30	19.238
379.66	19.667
380.02	18.750
380.38	18.795
380.74	19.546
381.09	18.818
381.45	19.468
381.81	19.532
382.17	18.336
382.53	19.323
382.89	19.662
383.25	19.012
383.61	19.976
383.97	19.312
384.32	18.526
384.68	18.877
385.04	17.838
385.40	19.303
385.76	19.708
386.12	18.722
386.48	18.809
386.83	19.650
387.19	19.247
387.55	19.313
387.91	19.803
388.27	18.866
388.62	18.539
388.98	18.836
389.34	18.797
389.70	19.353
390.06	19.000
390.42	18.363
390.77	19.026
391.13	18.371
391.49	19.039
391.85	18.658
392.20	19.048
392.56	19.937
392.92	18.549
393.28	18.710
393.64	18.287
393.99	18.482
394.35	18.827
394.71	18.718
395.07	18.616
395.42	19.257
395.78	18.533
396.14	19.467
396.50	19.277
396.85	19.758
397.21	19.288
397.57	18.882
397.92	19.641
398.28	18.951
398.64	18.761
399.00	19.475
399.35	19.637
399.71	18.987
400.07	18.373
400.42	17.868
400.78	19.577
401.14	19.191
401.49	19.353
401.85	19.042
402.21	19.381
402.57	19.068
402.92	19.212
403.28	18.824
403.63	19.529
403.99	19.066
404.35	18.828
404.70	19.033
405.06	18.379
405.42	18.593
405.77	18.836
406.13	18.629
406.49	18.514
406.84	18.803
407.20	18.828
407.55	19.545
407.91	18.729
408.27	19.276
408.62	19.337
408.98	18.927
409.34	19.245
409.69	20.208
410.05	19.465
410.40	18.685
410.76	19.194
411.11	19.527
411.47	19.642
411.83	19.152
412.18	18.829
412.54	19.925
412.89	18.997
413.25	18.525
413.60	19.373
413.96	18.727
414.31	19.112
414.67	19.238
415.03	18.809
415.38	18.692
415.74	18.454
416.09	18.771
416.45	20.027
416.80	19.933
417.16	19.366
417.51	18.821
417.87	19.180
418.22	18.487
418.58	18.265
418.93	19.083
419.29	20.132
419.64	19.656
420.00	20.127
420.35	19.068
420.71	19.013
421.06	19.311
421.42	19.161
421.77	19.017
422.12	19.943
422.48	19.248
422.83	19.492
423.19	18.976
423.54	19.258
423.90	19.952
424.25	20.046
424.61	19.655
424.96	19.574
425.31	18.957
425.67	19.106
426.02	20.848
426.38	20.585
426.73	18.632
427.09	19.262
427.44	19.378
427.79	18.349
428.15	18.838
428.50	19.456
428.85	20.295
429.21	19.133
429.56	20.563
429.92	19.833
430.27	19.325
430.62	19.045
430.98	19.937
431.33	19.398
431.68	20.554
432.04	19.268
432.39	18.880
432.74	18.761
433.10	19.930
433.45	20.178
433.80	19.713
434.16	19.224
434.51	19.348
434.86	19.788
435.22	19.411
435.57	20.209
435.92	19.300
436.28	19.399
436.63	19.573
436.98	19.800
437.34	19.414
437.69	18.595
438.04	18.959
438.39	20.299
438.75	18.951
439.10	20.359
439.45	19.613
439.81	20.751
440.16	20.058
440.51	20.392
440.86	19.621
441.22	19.277
441.57	20.445
441.92	20.166
442.27	20.022
442.63	19.699
442.98	19.444
443.33	19.413
443.68	19.241
444.03	19.672
444.39	20.129
444.74	18.940
445.09	19.218
445.44	20.789
445.79	19.773
446.15	19.911
446.50	19.714
446.85	20.257
447.20	20.857
447.55	20.425
447.91	19.494
448.26	19.954
448.61	19.448
448.96	19.875
449.31	20.503
449.66	20.706
450.02	19.841
450.37	20.270
450.72	19.805
451.07	20.502
451.42	19.963
451.77	20.390
452.12	19.846
452.47	20.658
452.83	20.519
453.18	20.178
453.53	19.861
453.88	20.361
454.23	20.210
454.58	20.588
454.93	20.783
455.28	21.452
455.63	20.274
455.98	20.876
456.34	20.025
456.69	20.128
457.04	21.424
457.39	20.084
457.74	21.125
458.09	20.083
458.44	20.094
458.79	19.824
459.14	20.506
459.49	20.000
459.84	20.293
460.19	19.868
460.54	21.046
460.89	20.383
461.24	19.790
461.59	20.350
461.94	21.492
462.29	19.853
462.64	20.515
462.99	21.462
463.34	21.823
463.69	19.588
464.04	19.628
464.39	20.988
464.74	20.332
465.09	21.017
465.44	20.539
465.79	20.874
466.14	20.296
466.49	20.059
466.84	20.502
467.19	20.510
467.54	21.192
467.89	21.182
468.24	21.020
468.59	20.459
468.94	21.392
469.29	20.820
469.64	21.199
469.99	20.966
470.34	21.443
470.68	21.115
471.03	21.368
471.38	21.349
471.73	21.399
472.08	22.268
472.43	21.306
472.78	22.312
473.13	21.042
473.48	21.135
473.83	20.716
474.17	21.159
474.52	22.395
474.87	20.808
475.22	20.833
475.57	21.138
475.92	21.756
476.27	21.387
476.61	20.781
476.96	21.416
477.31	20.712
477.66	21.977
478.01	20.934
478.36	20.763
478.70	21.106
479.05	21.754
479.40	21.165
479.75	21.998
480.10	21.673
480.45	21.285
480.79	21.155
481.14	22.036
481.49	21.460
481.84	20.829
482.19	21.862
482.53	21.524
482.88	21.764
483.23	20.982
483.58	21.692
483.92	21.158
484.27	21.272
484.62	21.349
484.97	20.946
485.31	20.906
485.66	20.558
486.01	20.320
486.36	20.237
486.70	19.904
487.05	20.280
487.40	20.363
487.75	21.102
488.09	20.801
488.44	20.785
488.79	21.158
489.13	21.074
489.48	21.291
489.83	21.706
490.17	21.562
490.52	22.721
490.87	21.326
491.22	21.856
491.56	22.616
491.91	22.084
492.26	22.099
492.60	22.030
492.95	22.012
493.30	22.335
493.64	21.343
493.99	21.691
494.34	21.724
494.68	21.909
495.03	22.085
495.37	21.995
495.72	21.604
496.07	22.552
496.41	21.385
496.76	22.761
497.11	22.441
497.45	22.568
497.80	23.120
498.14	22.620
498.49	22.088
498.84	22.267
499.18	22.250
499.53	21.566
499.87	21.397
500.22	22.748
500.56	22.367
500.91	22.988
501.26	22.217
501.60	21.814
501.95	21.993
502.29	22.961
502.64	22.999
502.98	21.676
503.33	22.044
503.67	22.639
504.02	21.912
504.36	21.892
504.71	22.307
505.06	23.026
505.40	22.268
505.75	22.380
506.09	22.177
506.44	22.177
506.78	22.854
507.13	22.713
507.47	23.489
507.82	22.868
508.16	22.797
508.51	22.211
508.85	22.395
509.19	22.646
509.54	23.378
509.88	23.495
510.23	22.737
510.57	22.775
510.92	23.168
511.26	22.827
511.61	23.216
511.95	23.870
512.30	23.265
512.64	23.610
512.98	23.269
513.33	23.099
513.67	22.658
514.02	22.805
514.36	22.584
514.70	23.903
515.05	23.757
515.39	23.821
515.74	23.742
516.08	23.245
516.42	23.733
516.77	23.726
517.11	23.339
517.46	25.090
517.80	24.818
518.14	22.964
518.49	23.810
518.83	23.866
519.17	24.157
519.52	23.764
519.86	25.015
520.20	23.772
520.55	23.943
520.89	24.352
521.23	26.090
521.58	23.894
521.92	24.827
522.26	23.813
522.61	23.788
522.95	24.741
523.29	24.381
523.64	24.539
523.98	24.269
524.32	24.701
524.66	23.442
525.01	25.426
525.35	24.556
525.69	23.989
526.04	24.560
526.38	24.857
526.72	25.115
527.06	24.823
527.41	24.619
527.75	23.364
528.09	25.664
528.43	24.695
528.78	24.935
529.12	24.774
529.46	24.184
529.80	24.854
530.15	24.839
530.49	25.202
530.83	24.848
531.17	26.164
531.51	24.275
531.86	24.797
532.20	24.121
532.54	24.483
532.88	25.119
533.22	25.455
533.57	24.702
533.91	24.645
534.25	25.846
534.59	24.389
534.93	24.107
535.27	24.586
535.62	25.197
535.96	24.593
536.30	24.801
536.64	24.539
536.98	25.158
537.32	24.199
537.66	24.965
538.01	23.856
538.35	24.931
538.69	24.348
539.03	24.362
539.37	24.614
539.71	25.307
540.05	23.819
540.39	23.606
540.73	24.162
541.07	24.830
541.42	24.512
541.76	24.763
542.10	24.915
542.44	25.017
542.78	24.150
543.12	25.067
543.46	24.395
543.80	24.440
544.14	24.501
544.48	23.623
544.82	24.075
545.16	23.732
545.50	25.591
545.84	24.895
546.18	23.282
546.52	24.559
546.86	24.240
547.20	24.303
547.54	24.160
547.88	24.291
548.22	23.713
548.56	24.483
548.90	24.560
549.24	24.861
549.58	25.694
549.92	24.578
550.26	24.797
550.60	24.925
550.94	24.179
551.28	23.618
551.62	24.286
551.96	24.451
552.30	23.581
552.64	24.435
552.98	25.923
553.32	24.946
553.66	25.312
554.00	24.406
554.34	24.103
554.68	24.832
555.02	24.401
555.36	25.416
555.69	24.618
556.03	23.660
556.37	24.680
556.71	23.826
557.05	24.576
557.39	24.793
557.73	24.357
558.07	24.567
558.41	25.738
558.75	25.250
559.08	24.699
559.42	25.964
559.76	25.153
560.10	24.520
560.44	25.424
560.78	23.741
561.12	24.877
561.45	24.082
561.79	24.209
562.13	24.895
562.47	25.286
562.81	24.026
563.15	24.150
563.48	24.501
563.82	24.966
564.16	23.629
564.50	25.509
564.84	23.378
565.17	24.636
565.51	24.064
565.85	24.051
566.19	24.172
566.52	24.181
566.86	24.147
567.20	23.274
567.54	22.971
567.88	22.396
568.21	23.248
568.55	23.213
568.89	21.635
569.23	22.640
569.56	22.737
569.90	22.508
570.24	20.975
570.57	21.801
570.91	21.039
571.25	20.860
571.59	21.347
571.92	20.739
572.26	21.206
572.60	21.990
572.93	21.118
573.27	21.136
573.61	21.624
573.95	20.598
574.28	20.804
574.62	20.489
574.96	21.235
575.29	20.838
575.63	20.390
575.97	21.359
576.30	20.980
576.64	20.802
576.98	20.838
577.31	20.359
577.65	20.256
577.98	20.422
578.32	20.188
578.66	20.220
578.99	20.563
579.33	20.665
579.67	20.519
580.00	19.727
580.34	20.165
580.67	20.897
581.01	20.592
581.35	20.372
581.68	20.310
582.02	20.595
582.35	20.195
582.69	20.135
583.02	19.996
583.36	19.976
583.70	20.144
584.03	20.437
584.37	20.164
584.70	20.373
585.04	20.736
585.37	20.705
585.71	20.502
586.04	20.752
586.38	20.784
586.72	20.399
587.05	21.122
587.39	21.124
587.72	20.798
588.06	20.711
588.39	20.991
588.73	20.487
589.06	20.951
589.40	21.053
589.73	20.877
590.07	21.145
590.40	20.712
590.73	21.840
591.07	21.730
591.40	21.304
591.74	21.787
592.07	22.410
592.41	22.094
592.74	21.914
593.08	21.026
593.41	21.291
593.75	20.220
594.08	20.794
594.41	21.060
594.75	21.027
595.08	20.986
595.42	19.971
595.75	20.969
596.09	20.785
596.42	21.324
596.75	21.983
597.09	22.111
597.42	22.207
597.75	21.689
598.09	22.268
598.42	21.790
598.76	21.453
599.09	21.609
599.42	21.186
599.76	20.879
600.09	21.762
600.42	21.356
600.76	21.212
601.09	21.808
601.42	21.639
601.76	20.849
602.09	21.686
602.42	22.080
602.76	20.847
603.09	21.643
603.42	20.672
603.76	20.616
604.09	21.186
604.42	20.929
604.76	20.253
605.09	21.251
605.42	22.132
605.75	20.300
606.09	20.778
606.42	21.280
606.75	20.996
607.09	21.321
607.42	21.497
607.75	20.263
608.08	21.235
608.42	21.696
608.75	21.787
609.08	21.313
609.41	22.156
609.75	21.533
610.08	21.499
610.41	22.643
610.74	21.415
611.07	21.192
611.41	22.108
611.74	22.360
612.07	21.365
612.40	21.730
612.73	21.295
613.07	21.452
613.40	22.412
613.73	21.181
614.06	22.830
614.39	21.234
614.72	21.766
615.06	21.111
615.39	20.861
615.72	21.328
616.05	22.072
616.38	21.936
616.71	21.296
617.05	22.236
617.38	21.873
617.71	22.181
618.04	22.608
618.37	22.524
618.70	22.445
619.03	22.543
619.36	22.206
619.69	23.099
620.03	21.767
620.36	22.825
620.69	21.128
621.02	23.538
621.35	23.467
621.68	23.716
622.01	21.845
622.34	22.284
622.67	23.962
623.00	23.556
623.33	23.859
623.66	21.710
623.99	23.481
624.32	23.258
624.65	22.626
624.99	22.190
625.32	23.152
625.65	23.256
625.98	21.880
626.31	24.082
626.64	22.958
626.97	23.356
627.30	23.781
627.63	23.183
627.96	22.078
628.29	25.116
628.62	25.338
628.95	23.347
629.28	24.335
629.61	24.402
629.94	24.662
630.26	25.517
630.59	24.376
630.92	23.394
631.25	25.747
631.58	24.946
631.91	24.390
632.24	23.381
632.57	23.778
632.90	26.838
633.23	24.101
633.56	26.619
633.89	24.880
634.22	29.446
634.55	26.066
634.88	25.613
635.20	26.625
635.53	24.419
635.86	24.872
636.19	26.303
636.52	24.146
636.85	25.332
637.18	23.630
637.51	24.345
637.83	25.849
638.16	24.400
638.49	24.566
638.82	23.922
639.15	25.798
639.48	25.668
639.81	26.667
640.13	27.042
640.46	26.271
640.79	25.036
641.12	25.444
641.45	25.764
641.77	25.184
642.10	26.778
642.43	27.987
642.76	26.656
643.09	25.080
643.41	27.432
643.74	24.717
644.07	25.566
644.40	26.700
644.73	24.746
645.05	25.654
645.38	25.083
645.71	26.361
646.04	25.758
646.36	27.951
646.69	27.448
647.02	27.505
647.35	29.433
647.67	26.617
648.00	25.906
648.33	27.119
648.66	26.377
648.98	25.000
649.31	23.773
649.64	25.509
649.96	25.750
650.29	24.346
650.62	24.053
650.94	26.552
651.27	25.972
651.60	26.573
651.92	27.778
652.25	23.953
652.58	25.908
652.90	24.411
653.23	23.430
653.56	26.116
653.88	26.109
654.21	25.768
654.54	25.083
654.86	22.927
655.19	22.689
655.52	21.986
655.84	19.965
656.17	23.731
656.49	30.707
656.82	29.753
657.15	21.803
657.47	16.167
657.80	11.909
658.13	12.731
658.45	18.805
658.78	18.354
659.10	18.406
659.43	19.004
659.75	19.951
660.08	19.724
660.41	20.791
660.73	21.625
661.06	23.639
661.38	23.256
661.71	25.205
662.03	29.598
662.36	27.434
662.68	23.226
663.01	28.814
663.33	25.486
663.66	24.169
663.98	25.618
664.31	24.396
664.63	22.297
664.96	30.853
665.28	27.682
665.61	25.054
665.93	26.552
666.26	28.059
666.58	24.197
666.91	27.354
667.23	26.498
667.56	29.195
667.88	27.570
668.21	28.125
668.53	27.586
668.86	28.297
669.18	25.296
669.50	25.806
669.83	27.446
670.15	25.238
670.48	27.586
670.80	28.446
671.13	25.858
671.45	24.201
671.77	26.293
672.10	24.756
672.42	22.710
672.75	23.393
673.07	23.091
673.39	27.799
673.72	25.349
674.04	26.230
674.37	26.016
674.69	24.897
675.01	25.641
675.34	28.009
675.66	26.797
675.98	27.434
676.31	25.792
676.63	26.077
676.95	26.353
677.28	23.165
677.60	25.980
677.92	25.055
678.25	26.898
678.57	28.921
678.89	23.881
679.22	25.880
679.54	25.306
679.86	24.219
680.18	25.192
680.51	21.731
680.83	22.807
681.15	26.523
681.48	25.050
681.80	21.881
682.12	25.417
682.44	23.742
682.77	21.263
683.09	22.768
683.41	24.186
683.73	20.536
684.06	25.442
684.38	20.940
684.70	21.792
685.02	22.521
685.34	23.875
685.67	24.578
685.99	22.064
686.31	25.345
686.63	22.794
686.96	23.377
687.28	22.355
687.60	24.953
687.92	22.763
688.24	24.600
688.56	23.246
688.89	24.722
689.21	23.767
689.53	21.622
689.85	25.393
690.17	24.615
690.49	23.671
690.82	26.014
691.14	23.671
691.46	27.378
691.78	24.176
692.10	25.265
692.42	22.418
692.74	26.087
693.06	22.022
693.39	24.122
693.71	24.444
694.03	25.455
694.35	26.351
694.67	25.000
694.99	23.711
695.31	27.390
695.63	24.634
695.95	23.155
696.27	21.918
696.59	25.000
696.91	23.464
697.23	25.381
697.56	26.379
697.88	23.285
698.20	23.110
698.52	23.131
698.84	24.163
699.16	20.567
699.48	23.951
699.80	27.390
700.12	29.491
700.44	21.690
700.76	19.382
701.08	25.076
701.40	26.048
701.72	21.846
702.04	26.415
702.36	23.780
702.68	27.134
703.00	23.977
703.32	23.677
703.64	25.301
703.96	24.047
704.28	27.108
704.60	24.390
704.91	25.392
705.23	27.532
705.55	26.897
705.87	25.000
706.19	26.374
706.51	23.592
706.83	26.115
707.15	24.695
707.47	25.620
707.79	25.635
708.11	19.794
708.43	26.650
708.74	23.936
709.06	22.460
709.38	22.767
709.70	25.225
710.02	24.299
710.34	21.000
710.66	26.384
710.98	24.768
711.29	25.325
711.61	25.484
711.93	22.903
712.25	21.678
712.57	24.211
712.89	25.275
713.20	22.695
713.52	25.182
713.84	26.452
714.16	25.890
714.48	23.734
714.80	23.962
715.11	22.384
715.43	21.739
715.75	26.398
716.07	21.386
716.39	24.916
716.70	31.655
717.02	26.275
717.34	27.652
717.66	21.983
717.97	19.841
718.29	24.803
718.61	18.026
718.93	18.217
719.24	21.771
719.56	22.472
719.88	25.746
720.20	23.320
720.51	28.906
720.83	28.405
721.15	19.919
721.46	23.664
721.78	23.108
722.10	20.717
722.42	21.774
722.73	25.483
723.05	25.714
723.37	23.529
723.68	21.200
724.00	22.128
724.32	20.502
724.63	25.103
724.95	18.803
725.27	22.363
725.58	25.103
725.90	27.615
726.22	21.377
726.53	19.608
726.85	21.898
727.16	20.741
727.48	24.138
727.80	27.344
728.11	18.443
728.43	21.094
728.74	25.397
729.06	23.200
729.38	22.530
729.69	22.064
730.01	20.818
730.32	29.889
730.64	23.864
730.96	25.175
731.27	24.415
731.59	25.079
731.90	23.301
732.22	21.795
732.53	19.595
732.85	23.826
733.16	24.422
733.48	20.946
733.80	21.959
734.11	26.351
734.43	22.910
734.74	22.823
735.06	23.631
735.37	20.365
735.69	25.243
736.00	19.142
736.32	24.113
736.63	22.759
736.95	23.288
737.26	21.379
737.58	21.181
737.89	25.086
738.21	16.726
738.52	25.095
738.83	25.714
739.15	18.987
739.46	19.455
739.78	17.958
740.09	21.575
740.41	21.429
740.72	22.695
741.04	19.200
741.35	19.737
741.66	28.444
741.98	21.154
742.29	27.228
742.61	25.366
742.92	27.632
743.23	19.811
743.55	23.874
743.86	22.870
744.18	25.000
744.49	25.381
744.80	24.490
745.12	25.234
745.43	22.749
745.74	21.622
746.06	22.430
746.37	18.349
746.68	17.308
747.00	27.751
747.31	25.481
747.62	25.688
747.94	21.834
748.25	24.312
748.56	26.667
748.88	30.986
749.19	27.143
749.50	25.243
749.82	23.474
750.13	17.500
750.44	21.923
750.75	24.354
751.07	19.573
751.38	20.213
751.69	20.077
752.01	23.438
752.32	21.923
752.63	29.478
752.94	25.200
753.26	23.849
753.57	22.500
753.88	23.077
754.19	21.514
754.51	19.925
754.82	19.048
755.13	16.957
755.44	23.577
755.75	21.200
756.07	21.033
756.38	23.381
756.69	23.208
757.00	21.495
757.31	20.065
757.63	19.444
757.94	25.424
758.25	20.899
758.56	22.011
758.87	24.107
759.18	22.397
759.50	19.192
759.81	26.421
760.12	20.923
760.43	18.452
760.74	19.492
761.05	20.166
761.36	18.625
761.67	21.148
761.99	16.838
762.30	23.358
762.61	21.399
762.92	25.641
763.23	24.590
763.54	22.078
763.85	24.898
764.16	15.447
764.47	22.800
764.78	20.357
765.10	17.377
765.41	20.061
765.72	21.739
766.03	19.802
766.34	20.000
766.65	21.339
766.96	16.901
767.27	23.267
767.58	16.292
767.89	26.543
768.20	19.890
768.51	18.090
768.82	24.519
769.13	26.991
769.44	24.268
769.75	16.667
770.06	21.076
770.37	18.627
770.68	27.184
770.99	20.388
771.30	21.429
771.61	20.408
771.92	19.087
772.23	20.721
772.54	19.890
772.85	20.349
773.16	25.926
773.47	15.976
773.78	28.161
774.09	23.125
774.39	22.981
774.70	25.850
775.01	10.345
775.32	25.000
775.63	13.534
775.94	15.038
776.25	20.000
776.56	15.702
776.87	28.571
777.18	16.216
777.48	23.423
777.79	11.024
778.10	16.514
778.41	18.421
778.72	11.765
779.03	12.676
779.34	17.568
779.65	26.761
779.95	19.868
780.26	15.827
780.57	18.705
780.88	21.831
781.19	21.849
781.50	27.517
781.80	21.053
782.11	14.535
782.42	22.013
782.73	22.876
783.04	18.621
783.34	19.847
783.65	12.081
783.96	23.077
784.27	21.429
784.57	24.113
784.88	9.615
785.19	29.091
785.50	25.455
785.81	10.476
786.11	16.807
786.42	22.124
786.73	10.377
787.04	11.927
787.34	3.960
787.65	24.167
787.96	19.008
788.26	23.188
788.57	19.841
788.88	13.008
789.19	14.400
789.49	16.031
789.80	17.424
790.11	21.698
790.41	21.782
790.72	12.766
791.03	22.826
791.33	12.941
791.64	19.753
791.95	25.000
792.25	25.000
792.56	29.487
792.87	26.923
793.17	5.128
793.48	17.857
793.79	13.750
794.09	35.577
794.40	18.750
794.70	21.622
795.01	17.969
795.32	20.000
795.62	5.435
795.93	16.038
796.23	14.141
796.54	2.439
796.85	21.429
797.15	0.000
797.46	13.043
797.76	11.842
798.07	19.318
798.37	13.415
798.68	9.677
798.99	21.622
799.29	31.325
799.60	17.949
799.90	9.231
800.21	16.667
800.51	8.000
800.82	20.000
801.12	-10.417
801.43	10.000
801.73	17.568
802.04	28.571
802.34	18.033
802.65	8.955
802.95	10.909
803.26	27.586
803.56	20.000
803.87	11.321
804.17	3.226
804.48	16.176
804.78	-17.073
805.09	28.986
805.39	25.000
805.70	-10.638
806.00	8.772
806.30	16.667
806.61	30.263
806.91	24.324
807.22	11.842
807.52	27.273
807.83	-8.475
808.13	-16.667
808.43	15.000
808.74	-8.621
809.04	15.873
809.35	10.204
809.65	0.000
809.95	-18.367
810.26	21.127
810.56	4.167
810.86	-2.041
811.17	17.308
811.47	-2.128
811.77	10.417
812.08	3.774
812.38	-6.250
812.69	20.000
812.99	-21.951
813.29	0.000
813.59	-10.811
813.90	-7.273
814.20	3.636
814.50	13.333
814.81	-5.455
815.11	22.807
815.41	30.233
815.72	-10.000
816.02	5.714
816.32	-24.324
816.62	22.917
816.93	-2.222
817.23	6.667
817.53	-27.778
817.84	-13.514
818.14	4.878
818.44	18.000
818.74	14.286
819.04	2.439
819.35	-8.333
819.65	11.364
819.95	-61.111
820.25	-18.182
820.56	-4.762
820.86	-16.667
821.16	-9.091
821.46	19.565
821.76	3.448
822.07	30.435
822.37	0.000
822.67	26.829
822.97	27.027
823.27	-22.857
823.57	51.724
823.88	5.882
824.18	16.667
824.48	14.286
824.78	14.286
825.08	-35.714
825.38	22.222
825.69	-9.677
825.99	24.390
826.29	-7.407
826.59	6.250
826.89	-9.677
827.19	-30.435
827.49	-25.000
827.79	-39.130
828.09	-3.226
828.39	16.667
828.70	-18.750
829.00	-3.448
829.30	-8.108
829.60	-87.500
829.90	25.926
830.20	-21.875
830.50	9.091
830.80	-82.353
831.10	13.636
831.40	-26.471
831.70	23.077
832.00	6.061
832.30	17.647
832.60	21.622
832.90	1300.000
833.20	17.857
833.50	-55.000
833.80	-13.158
834.10	-25.000
834.40	13.636
834.70	-73.333
835.00	-80.000
835.30	-12.500
835.60	-28.571
835.90	23.810
836.20	-36.000
836.50	-25.000
836.80	-10.526
837.10	2.703
837.40	-3.333
837.70	-13.043
838.00	66.667
838.30	-31.579
838.60	-60.000
838.90	-140.000
839.19	-75.000
839.49	0.000
839.79	-10.526
840.09	-383.333
840.39	-70.000
840.69	9.091
840.99	9.524
841.29	-50.000
841.59	-100.000
841.88	-100.000
842.18	-35.714
842.48	10.000
842.78	-214.286
843.08	0.000
843.38	-162.500
843.68	-137.500
843.97	-50.000
844.27	-155.556
844.57	-118.182
844.87	-80.000
845.17	9.091
845.47	666.667
845.76	0.000
846.06	-91.667
846.36	-1000.000
846.66	-26.316
846.96	-9.091
847.25	-83.333
847.55	-166.667
847.85	-57.143
848.15	-30.769
848.44	-300.000
848.74	-100.000
849.04	-100.000
849.34	-550.000
849.63	-72.727
849.93	-135.714
850.23	20.000
850.53	-162.500
850.82	-44.444
851.12	-20.000
851.42	-47.059
851.71	12.500
852.01	5.882
852.31	-92.308
852.61	450.000
852.90	29.412
853.20	0.000
853.50	0.000
853.79	-128.571
854.09	-300.000
854.39	-105.000
854.68	-27.500
854.98	-28.571
855.28	-40.000
855.57	4.167
855.87	-8.333
856.17	-32.000
856.46	-12.500
856.76	0.000
857.05	8.000
857.35	-25.000
857.65	-35.294
857.94	-100.000
858.24	-75.000
858.53	15.000
858.83	-118.182
859.13	16.000
859.42	-28.571
859.72	-162.500
860.01	-37.500
860.31	-150.000
860.60	-43.750
860.90	-200.000
861.20	-50.000
861.49	33.333
861.79	-43.750
862.08	275.000
862.38	-83.333
862.67	357.143
862.97	150.000
863.26	-109.091
863.56	-63.636
863.85	0.000
864.15	-41.176
864.44	-480.000
864.74	-160.000
865.03	-188.889
865.33	-21.429
865.62	157.143
865.92	21.053
866.21	-22.222
866.51	-63.636
866.80	-122.222
867.10	-137.500
867.39	-25.000
867.69	-113.333
867.98	-50.000
868.27	17.647
868.57	0.000
868.86	900.000
869.16	-350.000
869.45	-300.000
869.75	900.000
870.04	-50.000
870.33	-700.000
870.63	-42.105
870.92	-150.000
871.22	-1400.000
871.51	-114.286
871.80	-144.444
872.10	-175.000
>>>>>End Processed Spectral Data<<<<<
