SpectraSuite Data File
++++++++++++++++++++++++++++++++++++
Date: Wed May 13 21:27:31 PDT 2015
User: schluterlab
Dark Spectrum Present: Yes
Reference Spectrum Present: Yes
Number of Sampled Component Spectra: 1
Spectrometers: USB2E3373
Integration Time (usec): 3000 (USB2E3373)
Spectra Averaged: 3 (USB2E3373)
Boxcar Smoothing: 0 (USB2E3373)
Correct for Electrical Dark: No (USB2E3373)
Strobe/Lamp Enabled: No (USB2E3373)
Correct for Detector Non-linearity: No (USB2E3373)
Correct for Stray Light: No (USB2E3373)
Number of Pixels in Processed Spectrum: 2048
>>>>>Begin Processed Spectral Data<<<<<
178.53	0.000
178.91	400.000
179.29	241.667
179.67	-900.000
180.04	-266.667
180.42	260.000
180.80	900.000
181.18	233.333
181.56	-225.000
181.94	-375.000
182.31	-36.364
182.69	161.538
183.07	-360.000
183.45	333.333
183.83	200.000
184.20	114.286
184.58	-400.000
184.96	333.333
185.34	385.714
185.72	0.000
186.09	-900.000
186.47	-260.000
186.85	160.000
187.23	-400.000
187.61	700.000
187.98	1000.000
188.36	-37.500
188.74	0.000
189.12	-27.273
189.49	-60.000
189.87	133.333
190.25	380.000
190.63	700.000
191.00	-280.000
191.38	220.000
191.76	525.000
192.14	200.000
192.51	-21.053
192.89	666.667
193.27	325.000
193.65	-160.000
194.02	154.545
194.40	60.000
194.78	-300.000
195.15	160.000
195.53	-100.000
195.91	-12.500
196.29	-333.333
196.66	0.000
197.04	800.000
197.42	60.000
197.79	-40.000
198.17	-87.500
198.55	-466.667
198.92	150.000
199.30	-400.000
199.68	-40.000
200.05	750.000
200.43	100.000
200.81	-1600.000
201.18	-320.000
201.56	-183.333
201.94	650.000
202.31	21.739
202.69	-100.000
203.07	-166.667
203.44	-40.000
203.82	-600.000
204.19	-80.000
204.57	0.000
204.95	-183.333
205.32	0.000
205.70	-500.000
206.08	-275.000
206.45	-300.000
206.83	600.000
207.20	-566.667
207.58	-30.000
207.96	-1400.000
208.33	-28.571
208.71	-1300.000
209.08	112.500
209.46	400.000
209.84	0.000
210.21	200.000
210.59	1400.000
210.96	260.000
211.34	1500.000
211.71	-900.000
212.09	-183.333
212.46	-110.000
212.84	-66.667
213.22	25.000
213.59	-1300.000
213.97	-950.000
214.34	-750.000
214.72	23.077
215.09	237.500
215.47	188.889
215.84	200.000
216.22	-125.000
216.59	-350.000
216.97	700.000
217.34	222.222
217.72	0.000
218.09	433.333
218.47	-1000.000
218.84	-142.857
219.22	-37.500
219.59	-400.000
219.97	-375.000
220.34	-87.500
220.72	-100.000
221.09	0.000
221.47	-233.333
221.84	-600.000
222.22	0.000
222.59	700.000
222.97	-266.667
223.34	-100.000
223.72	-700.000
224.09	-850.000
224.46	-100.000
224.84	-75.000
225.21	-200.000
225.59	-475.000
225.96	-183.333
226.34	-20.000
226.71	-171.429
227.08	750.000
227.46	-87.500
227.83	-1400.000
228.21	-25.000
228.58	-275.000
228.95	-52.941
229.33	-43.750
229.70	25.000
230.08	30.769
230.45	-175.000
230.82	-50.000
231.20	114.286
231.57	-350.000
231.95	1200.000
232.32	-83.333
232.69	-17.647
233.07	-2000.000
233.44	26.087
233.81	-650.000
234.19	33.333
234.56	-126.667
234.93	-73.333
235.31	15.789
235.68	-84.615
236.05	-61.538
236.43	-33.333
236.80	-18.182
237.17	-180.000
237.55	-100.000
237.92	-37.931
238.29	-33.333
238.67	-27.778
239.04	-51.613
239.41	-25.532
239.79	-10.638
240.16	-25.581
240.53	-8.929
240.91	-10.714
241.28	-32.143
241.65	-12.903
242.02	0.000
242.40	-14.493
242.77	-17.391
243.14	-12.821
243.51	-9.574
243.89	-1.923
244.26	10.377
244.63	-5.769
245.00	-11.458
245.38	-5.042
245.75	-3.279
246.12	-9.774
246.49	-17.073
246.87	-16.807
247.24	2.703
247.61	0.000
247.98	5.128
248.36	-5.917
248.73	-5.618
249.10	-1.010
249.47	-1.613
249.84	-1.053
250.22	-1.990
250.59	-3.738
250.96	-5.909
251.33	-8.134
251.70	5.021
252.08	-1.255
252.45	3.292
252.82	1.141
253.19	0.778
253.56	-3.237
253.94	2.135
254.31	-2.465
254.68	0.671
255.05	1.320
255.42	1.049
255.79	1.840
256.16	0.631
256.54	-0.952
256.91	-4.747
257.28	0.629
257.65	-4.459
258.02	-0.293
258.39	0.877
258.76	-1.163
259.14	2.273
259.51	-0.562
259.88	0.813
260.25	2.778
260.62	-3.371
260.99	0.000
261.36	2.850
261.73	-1.728
262.10	-1.272
262.47	-0.741
262.85	-0.249
263.22	-0.769
263.59	-1.818
263.96	0.730
264.33	-1.202
264.70	0.698
265.07	1.852
265.44	1.379
265.81	-2.288
266.18	-0.683
266.55	0.655
266.92	-0.847
267.29	1.235
267.66	2.548
268.03	1.852
268.40	-1.059
268.77	0.413
269.14	1.429
269.51	3.491
269.88	-0.204
270.25	2.119
270.62	-0.820
270.99	0.394
271.36	0.595
271.73	-0.402
272.10	1.524
272.47	1.152
272.84	0.197
273.21	0.587
273.58	0.410
273.95	-0.566
274.32	1.119
274.69	2.550
275.06	2.650
275.43	0.377
275.80	0.709
276.17	0.184
276.54	0.178
276.91	1.045
277.28	-0.722
277.65	1.573
278.02	2.321
278.39	-1.066
278.76	1.003
279.13	0.686
279.50	0.172
279.87	0.000
280.23	1.081
280.60	-0.519
280.97	0.487
281.34	1.577
281.71	-0.325
282.08	1.538
282.45	0.984
282.82	0.000
283.19	2.744
283.56	0.938
283.92	1.070
284.29	0.780
284.66	0.824
285.03	-0.651
285.40	-0.151
285.77	2.102
286.14	1.216
286.51	1.949
286.87	1.231
287.24	0.295
287.61	0.151
287.98	1.912
288.35	0.894
288.72	0.717
289.08	1.282
289.45	0.294
289.82	-0.756
290.19	0.982
290.56	0.142
290.93	1.105
291.29	-0.821
291.66	1.503
292.03	2.180
292.40	1.750
292.77	0.937
293.13	0.976
293.50	1.569
293.87	2.400
294.24	1.455
294.60	0.520
294.97	1.852
295.34	-0.923
295.71	-0.920
296.08	0.393
296.44	1.020
296.81	0.244
297.18	2.000
297.55	1.297
297.91	2.609
298.28	0.969
298.65	0.616
299.02	1.221
299.38	0.736
299.75	1.082
300.12	-0.465
300.48	1.170
300.85	0.693
301.22	1.161
301.59	0.235
301.95	0.929
302.32	0.700
302.69	0.565
303.05	0.221
303.42	-0.227
303.79	2.208
304.15	1.424
304.52	1.613
304.89	-0.554
305.25	-1.207
305.62	0.325
305.99	1.415
306.35	2.612
306.72	1.526
307.09	1.668
307.45	0.106
307.82	1.579
308.19	0.731
308.55	0.921
308.92	2.947
309.29	1.802
309.65	0.899
310.02	1.292
310.38	2.033
310.75	1.677
311.12	2.527
311.48	0.989
311.85	2.461
312.22	2.515
312.58	2.126
312.95	2.090
313.31	2.938
313.68	3.149
314.05	1.796
314.41	3.746
314.78	3.890
315.14	4.167
315.51	2.379
315.87	3.058
316.24	5.326
316.61	5.297
316.97	4.167
317.34	5.169
317.70	5.352
318.07	6.300
318.43	4.968
318.80	6.021
319.16	4.598
319.53	5.287
319.89	6.504
320.26	7.209
320.62	6.673
320.99	7.946
321.35	6.548
321.72	8.662
322.08	8.672
322.45	9.528
322.81	9.335
323.18	9.750
323.54	10.289
323.91	10.750
324.27	10.981
324.64	11.324
325.00	11.374
325.37	12.372
325.73	12.290
326.10	13.036
326.46	13.294
326.83	13.188
327.19	13.415
327.56	14.827
327.92	14.883
328.29	14.942
328.65	15.776
329.01	14.600
329.38	16.261
329.74	15.966
330.11	14.968
330.47	14.844
330.84	17.058
331.20	18.360
331.56	16.214
331.93	17.829
332.29	17.637
332.66	17.458
333.02	18.071
333.38	16.754
333.75	18.515
334.11	18.056
334.48	16.652
334.84	18.021
335.20	18.096
335.57	17.668
335.93	17.182
336.29	18.914
336.66	17.436
337.02	18.522
337.38	18.190
337.75	18.002
338.11	17.079
338.47	18.065
338.84	17.869
339.20	18.166
339.56	18.686
339.93	18.842
340.29	17.592
340.65	17.793
341.02	18.386
341.38	19.595
341.74	17.143
342.11	18.332
342.47	18.243
342.83	17.647
343.20	19.628
343.56	18.234
343.92	18.603
344.28	18.425
344.65	18.367
345.01	18.321
345.37	19.079
345.73	18.056
346.10	18.218
346.46	17.561
346.82	18.218
347.19	18.275
347.55	19.063
347.91	18.784
348.27	17.350
348.63	17.067
349.00	17.767
349.36	18.446
349.72	18.639
350.08	18.175
350.45	18.794
350.81	17.684
351.17	19.477
351.53	18.460
351.89	17.315
352.26	16.062
352.62	17.597
352.98	17.492
353.34	18.277
353.70	17.991
354.07	17.882
354.43	17.341
354.79	19.071
355.15	17.702
355.51	17.540
355.87	16.732
356.24	17.978
356.60	16.575
356.96	17.421
357.32	17.183
357.68	18.258
358.04	17.843
358.40	17.829
358.77	18.502
359.13	18.755
359.49	17.790
359.85	17.892
360.21	17.656
360.57	16.274
360.93	18.437
361.29	17.691
361.66	17.616
362.02	17.643
362.38	18.021
362.74	17.331
363.10	16.775
363.46	17.219
363.82	17.443
364.18	16.969
364.54	18.818
364.90	17.909
365.26	16.419
365.62	17.543
365.98	17.936
366.35	16.950
366.71	17.689
367.07	17.151
367.43	17.561
367.79	17.651
368.15	18.284
368.51	17.370
368.87	17.865
369.23	17.580
369.59	16.984
369.95	16.981
370.31	17.434
370.67	17.524
371.03	17.298
371.39	16.324
371.75	17.143
372.11	17.236
372.47	17.448
372.83	16.990
373.19	16.763
373.55	16.980
373.91	17.468
374.27	17.012
374.63	17.141
374.99	16.435
375.35	16.986
375.71	16.168
376.07	17.341
376.42	16.845
376.78	17.371
377.14	17.627
377.50	16.754
377.86	17.663
378.22	17.067
378.58	17.339
378.94	16.625
379.30	16.802
379.66	16.708
380.02	17.034
380.38	16.687
380.74	16.557
381.09	17.370
381.45	17.231
381.81	16.697
382.17	16.194
382.53	17.108
382.89	16.828
383.25	17.407
383.61	16.828
383.97	17.812
384.32	16.257
384.68	16.101
385.04	16.249
385.40	16.874
385.76	16.606
386.12	16.979
386.48	16.614
386.83	16.708
387.19	16.533
387.55	17.229
387.91	16.482
388.27	15.783
388.62	16.542
388.98	17.084
389.34	16.479
389.70	16.422
390.06	16.312
390.42	17.397
390.77	17.297
391.13	16.414
391.49	14.927
391.85	16.230
392.20	16.040
392.56	16.254
392.92	15.916
393.28	16.153
393.64	16.514
393.99	15.667
394.35	16.235
394.71	15.897
395.07	15.409
395.42	15.905
395.78	15.637
396.14	17.121
396.50	16.043
396.85	16.125
397.21	16.105
397.57	14.658
397.92	15.509
398.28	14.946
398.64	16.090
399.00	16.350
399.35	15.551
399.71	15.958
400.07	15.602
400.42	15.047
400.78	14.260
401.14	14.838
401.49	14.739
401.85	16.155
402.21	15.108
402.57	15.144
402.92	15.895
403.28	16.260
403.63	14.941
403.99	15.483
404.35	16.022
404.70	13.837
405.06	14.856
405.42	14.510
405.77	15.092
406.13	15.429
406.49	15.518
406.84	14.286
407.20	15.038
407.55	14.610
407.91	13.700
408.27	14.161
408.62	15.224
408.98	14.673
409.34	14.295
409.69	15.140
410.05	14.179
410.40	13.999
410.76	14.380
411.11	14.739
411.47	15.129
411.83	14.847
412.18	14.798
412.54	14.599
412.89	13.668
413.25	14.159
413.60	13.542
413.96	14.794
414.31	14.612
414.67	14.540
415.03	14.411
415.38	14.201
415.74	14.295
416.09	14.739
416.45	14.149
416.80	13.826
417.16	13.968
417.51	14.133
417.87	14.153
418.22	14.027
418.58	13.601
418.93	14.375
419.29	14.455
419.64	13.868
420.00	13.905
420.35	13.568
420.71	12.614
421.06	14.330
421.42	13.260
421.77	14.335
422.12	14.097
422.48	14.013
422.83	13.703
423.19	13.571
423.54	13.192
423.90	13.124
424.25	13.923
424.61	13.678
424.96	13.128
425.31	13.629
425.67	13.992
426.02	13.958
426.38	13.993
426.73	12.523
427.09	13.634
427.44	14.445
427.79	12.648
428.15	13.700
428.50	12.689
428.85	13.284
429.21	12.887
429.56	13.177
429.92	13.326
430.27	13.344
430.62	13.589
430.98	13.802
431.33	13.487
431.68	14.271
432.04	13.803
432.39	13.568
432.74	12.078
433.10	14.236
433.45	13.195
433.80	13.161
434.16	13.271
434.51	12.772
434.86	13.840
435.22	13.016
435.57	12.838
435.92	13.450
436.28	12.973
436.63	13.799
436.98	12.045
437.34	12.576
437.69	12.279
438.04	13.073
438.39	13.076
438.75	13.290
439.10	13.592
439.45	12.591
439.81	12.623
440.16	13.507
440.51	12.782
440.86	12.685
441.22	11.933
441.57	12.419
441.92	13.530
442.27	13.041
442.63	11.948
442.98	11.863
443.33	12.867
443.68	12.283
444.03	12.419
444.39	12.742
444.74	12.590
445.09	12.445
445.44	13.690
445.79	12.442
446.15	12.923
446.50	12.775
446.85	12.400
447.20	12.703
447.55	12.815
447.91	12.978
448.26	12.121
448.61	12.888
448.96	12.870
449.31	12.736
449.66	13.245
450.02	12.678
450.37	12.808
450.72	12.514
451.07	12.665
451.42	12.539
451.77	11.625
452.12	11.824
452.47	13.363
452.83	12.677
453.18	12.476
453.53	11.791
453.88	12.410
454.23	12.299
454.58	12.684
454.93	12.765
455.28	13.038
455.63	11.728
455.98	11.199
456.34	11.697
456.69	12.077
457.04	12.198
457.39	11.726
457.74	11.909
458.09	11.848
458.44	11.692
458.79	11.971
459.14	11.517
459.49	11.585
459.84	11.612
460.19	11.465
460.54	12.226
460.89	11.824
461.24	11.467
461.59	12.138
461.94	12.453
462.29	11.642
462.64	11.873
462.99	11.737
463.34	11.809
463.69	12.500
464.04	10.744
464.39	11.348
464.74	11.179
465.09	11.345
465.44	12.177
465.79	11.501
466.14	11.345
466.49	11.261
466.84	11.357
467.19	11.338
467.54	12.054
467.89	12.256
468.24	11.248
468.59	11.154
468.94	11.814
469.29	10.641
469.64	10.809
469.99	12.483
470.34	10.789
470.68	11.301
471.03	10.649
471.38	11.405
471.73	11.523
472.08	11.134
472.43	11.082
472.78	11.089
473.13	10.026
473.48	10.698
473.83	10.797
474.17	10.807
474.52	10.615
474.87	10.133
475.22	10.507
475.57	10.708
475.92	10.742
476.27	10.781
476.61	10.023
476.96	10.337
477.31	10.787
477.66	10.904
478.01	10.659
478.36	10.300
478.70	10.097
479.05	10.544
479.40	11.232
479.75	10.521
480.10	11.423
480.45	11.378
480.79	11.299
481.14	11.094
481.49	11.100
481.84	10.509
482.19	10.746
482.53	10.810
482.88	10.786
483.23	9.913
483.58	10.491
483.92	10.019
484.27	10.842
484.62	10.919
484.97	10.079
485.31	10.738
485.66	10.379
486.01	10.583
486.36	10.431
486.70	10.441
487.05	10.726
487.40	10.378
487.75	10.537
488.09	10.416
488.44	10.585
488.79	10.447
489.13	10.616
489.48	9.748
489.83	10.049
490.17	9.896
490.52	10.379
490.87	9.411
491.22	10.740
491.56	10.589
491.91	10.370
492.26	10.155
492.60	9.620
492.95	11.079
493.30	10.126
493.64	9.113
493.99	10.435
494.34	9.875
494.68	10.167
495.03	9.140
495.37	9.976
495.72	10.075
496.07	10.375
496.41	9.920
496.76	10.238
497.11	10.329
497.45	9.484
497.80	10.146
498.14	10.277
498.49	9.783
498.84	10.172
499.18	10.105
499.53	9.601
499.87	9.219
500.22	9.955
500.56	9.729
500.91	9.557
501.26	10.345
501.60	9.461
501.95	9.679
502.29	10.388
502.64	9.450
502.98	9.586
503.33	9.538
503.67	9.494
504.02	9.412
504.36	9.361
504.71	9.604
505.06	9.679
505.40	9.691
505.75	9.969
506.09	8.891
506.44	9.476
506.78	8.989
507.13	9.252
507.47	8.908
507.82	9.419
508.16	9.235
508.51	9.039
508.85	9.642
509.19	9.153
509.54	9.866
509.88	8.978
510.23	9.316
510.57	10.222
510.92	9.213
511.26	9.571
511.61	9.166
511.95	8.655
512.30	9.772
512.64	9.648
512.98	9.418
513.33	9.296
513.67	9.143
514.02	9.749
514.36	9.607
514.70	9.642
515.05	9.187
515.39	9.198
515.74	9.355
516.08	9.027
516.42	8.986
516.77	8.729
517.11	9.230
517.46	9.184
517.80	9.383
518.14	8.022
518.49	8.680
518.83	8.592
519.17	8.675
519.52	8.866
519.86	8.986
520.20	7.641
520.55	9.701
520.89	8.349
521.23	9.167
521.58	8.786
521.92	8.485
522.26	8.913
522.61	8.727
522.95	8.225
523.29	8.127
523.64	8.837
523.98	8.259
524.32	8.822
524.66	7.597
525.01	9.043
525.35	9.282
525.69	9.278
526.04	8.664
526.38	8.859
526.72	8.810
527.06	9.026
527.41	8.934
527.75	8.278
528.09	8.850
528.43	9.023
528.78	8.915
529.12	9.314
529.46	9.341
529.80	8.803
530.15	8.623
530.49	8.625
530.83	8.260
531.17	8.082
531.51	8.429
531.86	7.995
532.20	8.615
532.54	7.724
532.88	8.033
533.22	8.889
533.57	7.947
533.91	8.194
534.25	8.724
534.59	8.430
534.93	8.227
535.27	8.726
535.62	7.961
535.96	9.109
536.30	8.843
536.64	7.587
536.98	7.568
537.32	8.043
537.66	8.251
538.01	7.698
538.35	7.528
538.69	7.559
539.03	8.389
539.37	8.249
539.71	7.844
540.05	7.557
540.39	7.983
540.73	8.240
541.07	8.707
541.42	9.226
541.76	8.187
542.10	8.260
542.44	8.108
542.78	7.842
543.12	7.884
543.46	7.602
543.80	7.604
544.14	8.121
544.48	7.034
544.82	8.473
545.16	7.505
545.50	8.373
545.84	7.924
546.18	8.065
546.52	8.327
546.86	7.633
547.20	6.934
547.54	7.720
547.88	7.490
548.22	7.883
548.56	7.071
548.90	7.104
549.24	8.542
549.58	7.544
549.92	8.364
550.26	9.004
550.60	7.282
550.94	7.687
551.28	7.646
551.62	7.970
551.96	7.101
552.30	6.841
552.64	7.062
552.98	7.813
553.32	7.931
553.66	8.144
554.00	7.919
554.34	6.813
554.68	8.352
555.02	7.410
555.36	7.640
555.69	7.720
556.03	7.934
556.37	6.401
556.71	7.849
557.05	6.642
557.39	7.611
557.73	7.035
558.07	7.687
558.41	7.494
558.75	7.467
559.08	6.656
559.42	7.946
559.76	7.951
560.10	7.994
560.44	8.254
560.78	6.115
561.12	6.587
561.45	7.959
561.79	7.909
562.13	7.806
562.47	7.571
562.81	7.143
563.15	7.295
563.48	6.813
563.82	7.798
564.16	6.770
564.50	7.463
564.84	8.446
565.17	6.887
565.51	7.353
565.85	6.662
566.19	6.887
566.52	7.208
566.86	6.890
567.20	7.269
567.54	7.657
567.88	6.719
568.21	7.224
568.55	6.834
568.89	6.331
569.23	7.058
569.56	7.384
569.90	6.902
570.24	6.787
570.57	7.574
570.91	7.190
571.25	7.038
571.59	7.035
571.92	7.099
572.26	6.920
572.60	6.929
572.93	6.935
573.27	6.742
573.61	6.910
573.95	6.954
574.28	7.167
574.62	7.109
574.96	7.603
575.29	7.096
575.63	6.744
575.97	6.957
576.30	7.159
576.64	6.785
576.98	6.988
577.31	7.242
577.65	6.848
577.98	6.849
578.32	7.049
578.66	6.941
578.99	7.136
579.33	7.021
579.67	6.874
580.00	6.957
580.34	6.980
580.67	6.957
581.01	6.716
581.35	6.992
581.68	7.117
582.02	6.847
582.35	7.093
582.69	7.111
583.02	7.256
583.36	6.784
583.70	7.057
584.03	7.226
584.37	7.049
584.70	7.057
585.04	6.509
585.37	6.950
585.71	6.898
586.04	6.967
586.38	6.761
586.72	6.884
587.05	7.022
587.39	7.114
587.72	6.516
588.06	6.785
588.39	6.913
588.73	6.769
589.06	6.369
589.40	6.536
589.73	6.791
590.07	7.218
590.40	6.853
590.73	6.929
591.07	6.812
591.40	6.739
591.74	6.936
592.07	6.664
592.41	6.950
592.74	6.829
593.08	6.530
593.41	6.776
593.75	6.815
594.08	6.563
594.41	6.581
594.75	7.421
595.08	6.871
595.42	6.586
595.75	6.978
596.09	6.351
596.42	6.127
596.75	6.670
597.09	7.279
597.42	6.685
597.75	6.578
598.09	6.056
598.42	7.025
598.76	7.179
599.09	6.883
599.42	6.458
599.76	6.572
600.09	6.288
600.42	6.591
600.76	6.135
601.09	7.081
601.42	6.782
601.76	6.834
602.09	6.810
602.42	7.057
602.76	6.250
603.09	6.694
603.42	6.957
603.76	6.430
604.09	6.443
604.42	5.651
604.76	6.373
605.09	6.298
605.42	7.242
605.75	6.081
606.09	6.416
606.42	6.484
606.75	6.234
607.09	5.718
607.42	6.480
607.75	5.777
608.08	6.222
608.42	5.951
608.75	6.450
609.08	6.418
609.41	6.607
609.75	5.497
610.08	5.966
610.41	6.025
610.74	6.833
611.07	6.964
611.41	6.397
611.74	6.108
612.07	6.931
612.40	7.514
612.73	6.092
613.07	6.375
613.40	6.828
613.73	6.880
614.06	5.915
614.39	5.614
614.72	6.885
615.06	5.389
615.39	6.898
615.72	5.454
616.05	6.588
616.38	6.529
616.71	6.479
617.05	6.818
617.38	6.100
617.71	5.147
618.04	6.459
618.37	6.120
618.70	6.080
619.03	6.392
619.36	6.121
619.69	5.702
620.03	6.784
620.36	6.472
620.69	5.425
621.02	5.462
621.35	4.906
621.68	6.194
622.01	6.311
622.34	5.789
622.67	5.638
623.00	6.459
623.33	5.684
623.66	5.576
623.99	5.476
624.32	5.869
624.65	5.935
624.99	5.805
625.32	6.423
625.65	6.047
625.98	5.766
626.31	6.776
626.64	5.503
626.97	4.844
627.30	5.988
627.63	5.450
627.96	4.935
628.29	5.116
628.62	6.093
628.95	5.711
629.28	5.419
629.61	6.603
629.94	6.480
630.26	5.222
630.59	5.794
630.92	6.225
631.25	5.046
631.58	7.066
631.91	4.242
632.24	4.610
632.57	5.000
632.90	5.834
633.23	3.717
633.56	6.954
633.89	5.742
634.22	6.714
634.55	5.238
634.88	6.127
635.20	6.750
635.53	4.651
635.86	5.128
636.19	7.320
636.52	4.390
636.85	5.308
637.18	4.507
637.51	5.743
637.83	5.614
638.16	3.333
638.49	4.539
638.82	4.967
639.15	7.447
639.48	5.481
639.81	5.278
640.13	6.197
640.46	5.791
640.79	4.317
641.12	5.325
641.45	4.076
641.77	5.891
642.10	6.051
642.43	5.189
642.76	4.416
643.09	3.674
643.41	4.785
643.74	5.816
644.07	4.693
644.40	5.970
644.73	3.729
645.05	2.443
645.38	2.990
645.71	6.463
646.04	0.505
646.36	6.597
646.69	7.168
647.02	6.557
647.35	4.753
647.67	6.285
648.00	2.899
648.33	4.915
648.66	2.337
648.98	4.814
649.31	4.755
649.64	3.130
649.96	6.319
650.29	4.739
650.62	4.778
650.94	3.448
651.27	3.534
651.60	5.594
651.92	4.480
652.25	6.030
652.58	4.125
652.90	4.209
653.23	3.056
653.56	5.289
653.88	1.365
654.21	3.413
654.54	4.651
654.86	2.927
655.19	2.801
655.52	6.770
655.84	5.769
656.17	6.885
656.49	9.036
656.82	9.132
657.15	6.806
657.47	5.202
657.80	3.751
658.13	4.038
658.45	6.135
658.78	5.714
659.10	5.871
659.43	5.572
659.75	5.623
660.08	5.172
660.41	5.172
660.73	3.719
661.06	5.102
661.38	3.101
661.71	6.148
662.03	3.594
662.36	2.876
662.68	7.097
663.01	1.907
663.33	4.104
663.66	3.326
663.98	4.944
664.31	7.692
664.63	0.676
664.96	5.470
665.28	6.223
665.61	1.944
665.93	2.998
666.26	5.485
666.58	2.570
666.91	6.951
667.23	2.304
667.56	4.828
667.88	4.206
668.21	4.018
668.53	2.989
668.86	4.077
669.18	3.310
669.50	2.995
669.83	2.864
670.15	2.619
670.48	2.989
670.80	6.127
671.13	3.204
671.45	5.936
671.77	4.741
672.10	3.509
672.42	4.198
672.75	2.321
673.07	3.091
673.39	3.731
673.72	4.391
674.04	4.303
674.37	6.301
674.69	3.086
675.01	3.419
675.34	4.158
675.66	5.882
675.98	3.097
676.31	3.620
676.63	6.576
676.95	2.353
677.28	5.963
677.60	1.471
677.92	2.661
678.25	4.338
678.57	7.128
678.89	2.985
679.22	3.520
679.54	3.878
679.86	3.125
680.18	3.269
680.51	1.538
680.83	1.170
681.15	4.519
681.48	3.808
681.80	2.249
682.12	2.292
682.44	2.012
682.77	1.684
683.09	2.679
683.41	2.791
683.73	0.670
684.06	4.425
684.38	2.991
684.70	2.240
685.02	3.926
685.34	3.718
685.67	2.627
685.99	4.804
686.31	4.310
686.63	3.676
686.96	4.824
687.28	2.196
687.60	7.940
687.92	3.891
688.24	3.600
688.56	4.167
688.89	2.673
689.21	5.830
689.53	1.577
689.85	0.674
690.17	5.055
690.49	1.449
690.82	2.625
691.14	4.589
691.46	2.320
691.78	4.835
692.10	3.609
692.42	1.099
692.74	2.609
693.06	3.596
693.39	1.639
693.71	4.667
694.03	4.318
694.35	4.505
694.67	4.250
694.99	4.897
695.31	6.202
695.63	0.976
695.95	0.509
696.27	-0.274
696.59	0.806
696.91	0.838
697.23	-0.254
697.56	5.036
697.88	5.405
698.20	4.968
698.52	2.103
698.84	3.828
699.16	4.492
699.48	4.444
699.80	3.876
700.12	2.949
700.44	0.845
700.76	2.528
701.08	1.813
701.40	5.689
701.72	3.692
702.04	1.258
702.36	0.915
702.68	0.610
703.00	2.339
703.32	0.836
703.64	1.807
703.96	2.053
704.28	2.410
704.60	2.134
704.91	0.000
705.23	3.797
705.55	2.414
705.87	4.225
706.19	-1.099
706.51	-1.761
706.83	0.318
707.15	0.305
707.47	0.275
707.79	3.046
708.11	0.514
708.43	4.822
708.74	2.660
709.06	0.802
709.38	5.187
709.70	0.901
710.02	3.115
710.34	-0.667
710.66	2.606
710.98	2.167
711.29	5.195
711.61	0.645
711.93	2.581
712.25	-2.797
712.57	0.000
712.89	2.198
713.20	5.319
713.52	-0.730
713.84	4.516
714.16	5.502
714.48	0.633
714.80	-4.153
715.11	6.395
715.43	1.242
715.75	6.211
716.07	4.819
716.39	2.694
716.70	1.799
717.02	-0.784
717.34	3.409
717.66	-1.724
717.97	1.190
718.29	4.724
718.61	-3.433
718.93	1.938
719.24	0.738
719.56	2.247
719.88	2.239
720.20	0.791
720.51	1.563
720.83	2.335
721.15	-3.252
721.46	-0.382
721.78	1.594
722.10	2.390
722.42	0.000
722.73	0.386
723.05	-0.408
723.37	0.420
723.68	2.800
724.00	-2.128
724.32	0.000
724.63	-0.823
724.95	-0.855
725.27	5.485
725.58	4.527
725.90	-3.347
726.22	3.261
726.53	-5.490
726.85	4.015
727.16	0.741
727.48	2.299
727.80	0.391
728.11	-0.410
728.43	3.516
728.74	2.778
729.06	-1.200
729.38	4.743
729.69	7.473
730.01	-0.372
730.32	3.690
730.64	1.515
730.96	5.594
731.27	-1.672
731.59	2.857
731.90	-1.294
732.22	2.885
732.53	-0.676
732.85	5.369
733.16	5.281
733.48	-0.338
733.80	1.014
734.11	5.068
734.43	4.025
734.74	2.402
735.06	0.288
735.37	4.863
735.69	0.000
736.00	3.630
736.32	1.064
736.63	2.414
736.95	2.397
737.26	-0.690
737.58	4.167
737.89	4.124
738.21	-1.068
738.52	-1.901
738.83	1.224
739.15	1.266
739.46	0.389
739.78	4.225
740.09	-3.425
740.41	0.000
740.72	1.064
741.04	1.200
741.35	-7.018
741.66	1.778
741.98	4.808
742.29	2.970
742.61	-7.805
742.92	3.947
743.23	0.472
743.55	3.153
743.86	-2.242
744.18	5.882
744.49	-4.061
744.80	6.122
745.12	0.467
745.43	2.844
745.74	2.703
746.06	1.402
746.37	-2.752
746.68	2.885
747.00	3.828
747.31	2.404
747.62	5.046
747.94	9.170
748.25	0.000
748.56	3.556
748.88	3.756
749.19	4.762
749.50	-6.311
749.82	0.469
750.13	-2.917
750.44	-2.308
750.75	0.000
751.07	8.897
751.38	4.610
751.69	-0.772
752.01	2.734
752.32	0.000
752.63	2.612
752.94	2.800
753.26	2.092
753.57	5.000
753.88	4.453
754.19	-3.586
754.51	-1.128
754.82	-1.832
755.13	-6.522
755.44	0.813
755.75	-3.200
756.07	-2.214
756.38	0.000
756.69	4.096
757.00	2.804
757.31	2.265
757.63	-3.086
757.94	5.650
758.25	3.704
758.56	1.630
758.87	4.167
759.18	4.101
759.50	1.684
759.81	2.007
760.12	3.692
760.43	-1.488
760.74	0.565
761.05	3.039
761.36	1.719
761.67	-0.302
761.99	-2.062
762.30	-0.365
762.61	-4.527
762.92	3.419
763.23	4.918
763.54	5.195
763.85	0.408
764.16	-3.252
764.47	2.400
764.78	1.786
765.10	-2.295
765.41	4.863
765.72	4.037
766.03	0.990
766.34	-0.769
766.65	-3.347
766.96	-2.347
767.27	0.990
767.58	-10.112
767.89	0.617
768.20	-4.420
768.51	4.523
768.82	-0.481
769.13	-2.212
769.44	4.184
769.75	-2.564
770.06	-0.897
770.37	-3.431
770.68	-1.456
770.99	-1.456
771.30	2.521
771.61	3.265
771.92	11.203
772.23	-0.901
772.54	-4.972
772.85	-0.581
773.16	5.820
773.47	-1.775
773.78	6.897
774.09	-2.500
774.39	4.348
774.70	4.762
775.01	-3.448
775.32	-1.429
775.63	-5.263
775.94	-5.263
776.25	-10.400
776.56	-4.959
776.87	-3.968
777.18	0.000
777.48	-2.703
777.79	-1.575
778.10	0.917
778.41	-9.649
778.72	-2.521
779.03	-4.225
779.34	2.703
779.65	-9.859
779.95	1.325
780.26	-5.755
780.57	1.439
780.88	-0.704
781.19	-12.605
781.50	0.671
781.80	-2.924
782.11	-6.977
782.42	8.176
782.73	0.000
783.04	-2.759
783.34	-8.397
783.65	-2.013
783.96	-4.615
784.27	2.143
784.57	-2.128
784.88	-8.654
785.19	8.182
785.50	-5.455
785.81	-14.286
786.11	-1.681
786.42	-1.770
786.73	-7.547
787.04	-21.101
787.34	-24.752
787.65	5.000
787.96	-7.438
788.26	2.174
788.57	-7.143
788.88	-0.813
789.19	-4.000
789.49	-11.450
789.80	1.515
790.11	-13.208
790.41	-4.950
790.72	-2.128
791.03	-9.783
791.33	-8.235
791.64	-7.407
791.95	-7.609
792.25	2.273
792.56	-12.821
792.87	-17.949
793.17	-23.077
793.48	-11.905
793.79	1.250
794.09	4.808
794.40	3.125
794.70	-4.505
795.01	-0.781
795.32	-4.348
795.62	-31.522
795.93	-5.660
796.23	0.000
796.54	-9.756
796.85	11.905
797.15	-18.182
797.46	-26.087
797.76	-5.263
798.07	-2.273
798.37	-13.415
798.68	-19.355
798.99	-12.162
799.29	4.819
799.60	-2.564
799.90	-9.231
800.21	-3.030
800.51	-2.667
800.82	-1.333
801.12	-52.083
801.43	-25.000
801.73	-21.622
802.04	1.429
802.34	-1.639
802.65	16.418
802.95	1.818
803.26	-12.069
803.56	-7.692
803.87	-18.868
804.17	1.613
804.48	-11.765
804.78	-46.341
805.09	-1.449
805.39	-1.471
805.70	-31.915
806.00	-15.789
806.30	6.410
806.61	-9.211
806.91	-18.919
807.22	-9.211
807.52	-3.409
807.83	-22.034
808.13	-42.424
808.43	-15.000
808.74	-37.931
809.04	-9.524
809.35	-26.531
809.65	-16.667
809.95	-8.163
810.26	5.634
810.56	-14.583
810.86	-26.531
811.17	-1.923
811.47	-36.170
811.77	-29.167
812.08	-22.642
812.38	-56.250
812.69	-10.909
812.99	-19.512
813.29	-27.027
813.59	-18.919
813.90	-5.455
814.20	-9.091
814.50	-16.667
814.81	-9.091
815.11	5.263
815.41	-4.651
815.72	-15.000
816.02	-20.000
816.32	-32.432
816.62	2.083
816.93	-2.222
817.23	-11.111
817.53	-36.111
817.84	-13.514
818.14	-21.951
818.44	4.000
818.74	-20.408
819.04	12.195
819.35	-41.667
819.65	-11.364
819.95	-77.778
820.25	-18.182
820.56	-35.714
820.86	-33.333
821.16	-43.182
821.46	-28.261
821.76	-10.345
822.07	6.522
822.37	-12.121
822.67	21.951
822.97	-5.405
823.27	-42.857
823.57	-13.793
823.88	-35.294
824.18	-5.556
824.48	-20.000
824.78	-66.667
825.08	-60.714
825.38	-37.037
825.69	6.452
825.99	-34.146
826.29	-44.444
826.59	-43.750
826.89	-41.935
827.19	-30.435
827.49	-5.556
827.79	-30.435
828.09	-38.710
828.39	-10.417
828.70	-50.000
829.00	-6.897
829.30	-35.135
829.60	-54.167
829.90	-14.815
830.20	15.625
830.50	-45.455
830.80	-82.353
831.10	-36.364
831.40	-44.118
831.70	0.000
832.00	-15.152
832.30	5.882
832.60	-10.811
832.90	1800.000
833.20	-32.143
833.50	-80.000
833.80	-15.789
834.10	-91.667
834.40	-72.727
834.70	-100.000
835.00	-20.000
835.30	-4.167
835.60	-52.381
835.90	4.762
836.20	-36.000
836.50	-29.167
836.80	-47.368
837.10	5.405
837.40	-16.667
837.70	-47.826
838.00	33.333
838.30	-15.789
838.60	-160.000
838.90	-280.000
839.19	-175.000
839.49	-61.538
839.79	-36.842
840.09	-216.667
840.39	-120.000
840.69	-54.545
840.99	-19.048
841.29	-58.333
841.59	-92.308
841.88	-80.000
842.18	-57.143
842.48	6.667
842.78	-342.857
843.08	-150.000
843.38	-125.000
843.68	-68.750
843.97	-14.286
844.27	-166.667
844.57	-118.182
844.87	-133.333
845.17	0.000
845.47	1033.333
845.76	-73.333
846.06	-116.667
846.36	-1100.000
846.66	-57.895
846.96	-86.364
847.25	-105.556
847.55	-144.444
847.85	-52.381
848.15	-38.462
848.44	-300.000
848.74	-75.000
849.04	-146.154
849.34	-275.000
849.63	-209.091
849.93	-135.714
850.23	5.000
850.53	-175.000
850.82	-55.556
851.12	-53.333
851.42	-64.706
851.71	-75.000
852.01	-23.529
852.31	-100.000
852.61	750.000
852.90	-47.059
853.20	-26.667
853.50	-43.750
853.79	-100.000
854.09	-475.000
854.39	-105.000
854.68	-22.500
854.98	-90.476
855.28	-28.000
855.57	-33.333
855.87	-37.500
856.17	-32.000
856.46	-18.750
856.76	-40.000
857.05	-16.000
857.35	-108.333
857.65	-64.706
857.94	-191.667
858.24	-150.000
858.53	-50.000
858.83	-181.818
859.13	-8.000
859.42	-135.714
859.72	-275.000
860.01	-12.500
860.31	-225.000
860.60	-43.750
860.90	-266.667
861.20	83.333
861.49	-20.000
861.79	-68.750
862.08	125.000
862.38	-133.333
862.67	357.143
862.97	400.000
863.26	-172.727
863.56	-100.000
863.85	10.526
864.15	-17.647
864.44	-520.000
864.74	-170.000
865.03	-166.667
865.33	-64.286
865.62	178.571
865.92	-26.316
866.21	-55.556
866.51	-109.091
866.80	-122.222
867.10	-175.000
867.39	-43.750
867.69	-93.333
867.98	-100.000
868.27	-29.412
868.57	0.000
868.86	1300.000
869.16	-250.000
869.45	-85.714
869.75	650.000
870.04	-70.000
870.33	-1500.000
870.63	-42.105
870.92	-175.000
871.22	-1400.000
871.51	-142.857
871.80	-222.222
872.10	-375.000
>>>>>End Processed Spectral Data<<<<<
