SpectraSuite Data File
++++++++++++++++++++++++++++++++++++
Date: Wed May 13 21:24:41 PDT 2015
User: schluterlab
Dark Spectrum Present: Yes
Reference Spectrum Present: Yes
Number of Sampled Component Spectra: 1
Spectrometers: USB2E3373
Integration Time (usec): 3000 (USB2E3373)
Spectra Averaged: 3 (USB2E3373)
Boxcar Smoothing: 0 (USB2E3373)
Correct for Electrical Dark: No (USB2E3373)
Strobe/Lamp Enabled: No (USB2E3373)
Correct for Detector Non-linearity: No (USB2E3373)
Correct for Stray Light: No (USB2E3373)
Number of Pixels in Processed Spectrum: 2048
>>>>>Begin Processed Spectral Data<<<<<
178.53	0.000
178.91	100.000
179.29	225.000
179.67	-750.000
180.04	-466.667
180.42	340.000
180.80	1500.000
181.18	416.667
181.56	-425.000
181.94	-300.000
182.31	-63.636
182.69	138.462
183.07	-220.000
183.45	366.667
183.83	144.444
184.20	142.857
184.58	133.333
184.96	166.667
185.34	200.000
185.72	0.000
186.09	-400.000
186.47	-240.000
186.85	260.000
187.23	-400.000
187.61	950.000
187.98	900.000
188.36	-75.000
188.74	0.000
189.12	-45.455
189.49	20.000
189.87	50.000
190.25	260.000
190.63	1400.000
191.00	-180.000
191.38	300.000
191.76	500.000
192.14	208.333
192.51	-47.368
192.89	466.667
193.27	325.000
193.65	-120.000
194.02	172.727
194.40	220.000
194.78	-800.000
195.15	300.000
195.53	-140.000
195.91	-37.500
196.29	-266.667
196.66	0.000
197.04	800.000
197.42	-40.000
197.79	-80.000
198.17	-187.500
198.55	-433.333
198.92	325.000
199.30	-433.333
199.68	-10.000
200.05	250.000
200.43	233.333
200.81	-1000.000
201.18	-240.000
201.56	-233.333
201.94	625.000
202.31	-8.696
202.69	-185.714
203.07	-466.667
203.44	-180.000
203.82	-266.667
204.19	-90.000
204.57	0.000
204.95	-116.667
205.32	0.000
205.70	-100.000
206.08	-125.000
206.45	-150.000
206.83	375.000
207.20	-366.667
207.58	-50.000
207.96	-1300.000
208.33	-171.429
208.71	-2500.000
209.08	225.000
209.46	450.000
209.84	0.000
210.21	100.000
210.59	2400.000
210.96	380.000
211.34	-100.000
211.71	-500.000
212.09	-83.333
212.46	-150.000
212.84	0.000
213.22	-75.000
213.59	-400.000
213.97	-350.000
214.34	-600.000
214.72	-46.154
215.09	162.500
215.47	144.444
215.84	850.000
216.22	-87.500
216.59	-550.000
216.97	433.333
217.34	200.000
217.72	0.000
218.09	566.667
218.47	-400.000
218.84	-42.857
219.22	-112.500
219.59	-166.667
219.97	-275.000
220.34	-62.500
220.72	-200.000
221.09	0.000
221.47	-133.333
221.84	-500.000
222.22	0.000
222.59	1100.000
222.97	-166.667
223.34	-100.000
223.72	-1100.000
224.09	-600.000
224.46	-9.091
224.84	-50.000
225.21	-85.714
225.59	-350.000
225.96	-166.667
226.34	-80.000
226.71	-185.714
227.08	500.000
227.46	-162.500
227.83	-100.000
228.21	0.000
228.58	-375.000
228.95	-47.059
229.33	-62.500
229.70	-175.000
230.08	-107.692
230.45	-125.000
230.82	-100.000
231.20	342.857
231.57	-350.000
231.95	800.000
232.32	-33.333
232.69	-29.412
233.07	-1400.000
233.44	30.435
233.81	-600.000
234.19	45.833
234.56	-26.667
234.93	-40.000
235.31	5.263
235.68	-61.538
236.05	-76.923
236.43	22.222
236.80	-18.182
237.17	-26.667
237.55	-5.882
237.92	6.897
238.29	-25.926
238.67	8.333
239.04	35.484
239.41	10.638
239.79	38.298
240.16	11.628
240.53	37.500
240.91	30.357
241.28	35.714
241.65	19.355
242.02	18.421
242.40	39.130
242.77	26.087
243.14	14.103
243.51	14.894
243.89	22.115
244.26	34.906
244.63	19.231
245.00	39.583
245.38	24.370
245.75	28.689
246.12	33.083
246.49	30.081
246.87	21.849
247.24	31.757
247.61	31.788
247.98	32.692
248.36	35.503
248.73	27.528
249.10	32.828
249.47	32.796
249.84	33.684
250.22	31.343
250.59	32.243
250.96	37.273
251.33	28.230
251.70	36.402
252.08	29.289
252.45	33.745
252.82	36.122
253.19	32.685
253.56	32.374
253.94	33.808
254.31	32.042
254.68	37.584
255.05	31.023
255.42	34.965
255.79	35.276
256.16	34.069
256.54	31.429
256.91	31.013
257.28	35.849
257.65	35.032
258.02	31.378
258.39	36.550
258.76	30.814
259.14	33.807
259.51	32.865
259.88	34.959
260.25	36.667
260.62	31.461
260.99	37.401
261.36	36.788
261.73	34.568
262.10	34.606
262.47	36.543
262.85	33.333
263.22	35.385
263.59	36.623
263.96	32.117
264.33	35.817
264.70	34.884
265.07	35.880
265.44	36.552
265.81	35.011
266.18	36.902
266.55	36.681
266.92	35.381
267.29	33.128
267.66	37.792
268.03	36.214
268.40	32.203
268.77	35.744
269.14	34.694
269.51	37.988
269.88	33.198
270.25	34.958
270.62	34.426
270.99	35.236
271.36	38.889
271.73	34.137
272.10	32.190
272.47	34.549
272.84	37.008
273.21	34.834
273.58	36.475
273.95	35.283
274.32	34.142
274.69	34.244
275.06	37.279
275.43	34.652
275.80	32.979
276.17	34.254
276.54	33.570
276.91	33.275
277.28	33.394
277.65	34.965
278.02	35.000
278.39	33.037
278.76	34.114
279.13	34.477
279.50	35.690
279.87	31.884
280.23	35.495
280.60	34.429
280.97	33.929
281.34	34.858
281.71	31.707
282.08	31.624
282.45	33.607
282.82	33.866
283.19	33.689
283.56	32.188
283.92	35.780
284.29	33.697
284.66	33.443
285.03	32.899
285.40	32.779
285.77	34.084
286.14	32.219
286.51	35.682
286.87	32.615
287.24	31.858
287.61	34.036
287.98	33.088
288.35	30.551
288.72	34.003
289.08	31.909
289.45	31.718
289.82	32.224
290.19	29.593
290.56	31.108
290.93	31.077
291.29	32.011
291.66	29.918
292.03	30.654
292.40	29.744
292.77	29.987
293.13	30.126
293.50	29.281
293.87	30.267
294.24	30.026
294.60	29.259
294.97	30.159
295.34	28.892
295.71	26.938
296.08	24.738
296.44	27.679
296.81	26.553
297.18	28.500
297.55	27.594
297.91	28.199
298.28	27.724
298.65	26.724
299.02	27.473
299.38	27.362
299.75	27.163
300.12	24.884
300.48	25.848
300.85	26.674
301.22	25.319
301.59	27.582
301.95	27.062
302.32	26.138
302.69	24.859
303.05	25.914
303.42	25.795
303.79	24.921
304.15	25.739
304.52	25.914
304.89	26.024
305.25	22.832
305.62	26.356
305.99	26.007
306.35	26.750
306.72	26.144
307.09	25.756
307.45	24.920
307.82	24.211
308.19	23.406
308.55	25.179
308.92	25.246
309.29	24.224
309.65	25.874
310.02	25.646
310.38	25.508
310.75	23.471
311.12	26.142
311.48	23.244
311.85	24.606
312.22	24.468
312.58	22.802
312.95	23.682
313.31	23.600
313.68	23.473
314.05	23.440
314.41	24.304
314.78	26.091
315.14	23.704
315.51	25.500
315.87	26.599
316.24	24.334
316.61	24.658
316.97	24.815
317.34	24.064
317.70	25.691
318.07	24.756
318.43	25.474
318.80	24.433
319.16	24.138
319.53	24.642
319.89	25.384
320.26	26.433
320.62	26.135
320.99	25.000
321.35	24.602
321.72	25.505
322.08	26.753
322.45	26.827
322.81	26.802
323.18	27.370
323.54	27.347
323.91	28.094
324.27	27.993
324.64	27.091
325.00	27.122
325.37	28.498
325.73	28.704
326.10	28.511
326.46	29.097
326.83	29.045
327.19	28.780
327.56	30.620
327.92	29.606
328.29	31.302
328.65	31.902
329.01	30.255
329.38	30.696
329.74	31.674
330.11	31.830
330.47	29.861
330.84	31.498
331.20	30.743
331.56	31.431
331.93	31.094
332.29	32.059
332.66	30.678
333.02	31.625
333.38	31.491
333.75	32.167
334.11	32.552
334.48	32.781
334.84	32.686
335.20	32.419
335.57	31.593
335.93	32.302
336.29	32.049
336.66	33.162
337.02	32.261
337.38	32.637
337.75	32.386
338.11	31.597
338.47	32.192
338.84	31.443
339.20	33.157
339.56	32.850
339.93	33.362
340.29	33.732
340.65	32.592
341.02	34.110
341.38	33.108
341.74	30.504
342.11	32.783
342.47	32.971
342.83	33.333
343.20	34.095
343.56	33.197
343.92	32.088
344.28	32.630
344.65	34.041
345.01	32.526
345.37	33.964
345.73	33.497
346.10	33.547
346.46	32.764
346.82	33.868
347.19	33.465
347.55	34.410
347.91	32.736
348.27	33.912
348.63	33.093
349.00	32.862
349.36	33.516
349.72	34.416
350.08	33.307
350.45	32.576
350.81	34.351
351.17	34.488
351.53	34.171
351.89	33.598
352.26	32.819
352.62	34.341
352.98	35.064
353.34	34.702
353.70	34.969
354.07	32.941
354.43	34.681
354.79	35.657
355.15	35.870
355.51	34.700
355.87	35.106
356.24	34.751
356.60	33.855
356.96	33.308
357.32	35.681
357.68	36.134
358.04	33.980
358.40	35.504
358.77	35.321
359.13	35.409
359.49	35.428
359.85	35.557
360.21	34.541
360.57	34.981
360.93	35.281
361.29	35.603
361.66	34.700
362.02	34.841
362.38	36.780
362.74	36.548
363.10	36.443
363.46	36.239
363.82	36.068
364.18	34.880
364.54	35.886
364.90	36.794
365.26	35.244
365.62	35.866
365.98	36.299
366.35	37.234
366.71	35.877
367.07	36.428
367.43	37.073
367.79	38.221
368.15	36.779
368.51	35.935
368.87	37.544
369.23	36.299
369.59	36.927
369.95	35.849
370.31	36.611
370.67	36.568
371.03	37.862
371.39	36.480
371.75	37.571
372.11	37.393
372.47	36.914
372.83	37.240
373.19	37.482
373.55	38.367
373.91	38.402
374.27	36.376
374.63	37.696
374.99	37.256
375.35	38.493
375.71	37.976
376.07	38.177
376.42	39.238
376.78	39.696
377.14	38.373
377.50	38.918
377.86	38.712
378.22	38.559
378.58	39.092
378.94	40.688
379.30	37.976
379.66	39.396
380.02	39.583
380.38	39.398
380.74	40.347
381.09	40.290
381.45	39.964
381.81	41.097
382.17	40.139
382.53	38.954
382.89	40.229
383.25	40.185
383.61	41.344
383.97	40.438
384.32	40.139
384.68	41.394
385.04	41.295
385.40	41.843
385.76	40.937
386.12	41.511
386.48	40.690
386.83	41.176
387.19	41.209
387.55	41.202
387.91	42.312
388.27	42.170
388.62	41.885
388.98	41.552
389.34	41.291
389.70	41.453
390.06	41.438
390.42	42.397
390.77	43.049
391.13	42.551
391.49	42.441
391.85	41.725
392.20	42.293
392.56	42.032
392.92	42.422
393.28	42.359
393.64	43.058
393.99	43.023
394.35	42.963
394.71	42.885
395.07	43.019
395.42	44.363
395.78	43.565
396.14	44.325
396.50	43.817
396.85	44.232
397.21	43.508
397.57	43.975
397.92	43.413
398.28	43.711
398.64	44.991
399.00	43.973
399.35	45.233
399.71	44.613
400.07	44.578
400.42	44.577
400.78	44.290
401.14	44.697
401.49	44.578
401.85	45.700
402.21	45.139
402.57	44.451
402.92	46.308
403.28	46.467
403.63	46.311
403.99	45.809
404.35	45.012
404.70	45.257
405.06	45.625
405.42	46.859
405.77	45.392
406.13	46.743
406.49	45.416
406.84	45.910
407.20	46.122
407.55	46.818
407.91	45.797
408.27	45.976
408.62	46.654
408.98	45.808
409.34	46.101
409.69	47.368
410.05	46.517
410.40	46.196
410.76	46.570
411.11	48.818
411.47	48.042
411.83	46.787
412.18	47.166
412.54	47.682
412.89	46.520
413.25	47.139
413.60	47.712
413.96	46.692
414.31	47.164
414.67	47.810
415.03	47.970
415.38	47.886
415.74	47.238
416.09	48.447
416.45	48.667
416.80	48.591
417.16	48.853
417.51	48.359
417.87	48.810
418.22	48.546
418.58	48.357
418.93	47.207
419.29	49.241
419.64	48.855
420.00	48.889
420.35	48.177
420.71	48.446
421.06	48.585
421.42	50.243
421.77	48.439
422.12	48.883
422.48	48.964
422.83	49.852
423.19	48.476
423.54	49.588
423.90	48.515
424.25	50.029
424.61	50.154
424.96	48.137
425.31	47.729
425.67	48.912
426.02	49.588
426.38	49.378
426.73	49.297
427.09	47.780
427.44	49.971
427.79	48.812
428.15	50.153
428.50	48.278
428.85	49.754
429.21	49.522
429.56	49.362
429.92	48.985
430.27	48.415
430.62	48.636
430.98	49.392
431.33	48.898
431.68	49.894
432.04	49.296
432.39	48.383
432.74	49.601
433.10	50.959
433.45	49.704
433.80	49.425
434.16	48.662
434.51	50.435
434.86	50.589
435.22	50.990
435.57	49.140
435.92	49.940
436.28	49.009
436.63	49.942
436.98	50.764
437.34	50.122
437.69	49.764
438.04	49.972
438.39	50.623
438.75	50.119
439.10	51.301
439.45	50.182
439.81	50.616
440.16	50.551
440.51	49.822
440.86	50.860
441.22	50.316
441.57	50.108
441.92	50.233
442.27	49.567
442.63	50.431
442.98	49.942
443.33	50.734
443.68	50.079
444.03	50.621
444.39	50.917
444.74	52.181
445.09	49.449
445.44	50.479
445.79	50.697
446.15	50.471
446.50	49.945
446.85	51.042
447.20	50.392
447.55	50.923
447.91	50.225
448.26	50.829
448.61	50.806
448.96	51.765
449.31	50.885
449.66	51.070
450.02	50.938
450.37	50.881
450.72	50.631
451.07	50.721
451.42	48.659
451.77	50.700
452.12	50.089
452.47	51.259
452.83	50.825
453.18	50.732
453.53	50.441
453.88	51.325
454.23	50.000
454.58	49.939
454.93	49.455
455.28	50.225
455.63	49.782
455.98	50.456
456.34	48.633
456.69	50.863
457.04	49.288
457.39	50.150
457.74	50.389
458.09	49.822
458.44	50.470
458.79	50.137
459.14	48.371
459.49	49.878
459.84	48.985
460.19	48.139
460.54	49.574
460.89	50.056
461.24	48.829
461.59	50.362
461.94	50.000
462.29	48.468
462.64	49.406
462.99	50.771
463.34	50.276
463.69	49.485
464.04	49.040
464.39	49.786
464.74	49.754
465.09	49.287
465.44	49.383
465.79	50.086
466.14	48.746
466.49	50.205
466.84	49.731
467.19	49.809
467.54	50.680
467.89	48.837
468.24	50.953
468.59	51.243
468.94	48.914
469.29	48.711
469.64	48.675
469.99	50.138
470.34	49.697
470.68	48.104
471.03	48.942
471.38	47.636
471.73	48.080
472.08	49.622
472.43	49.934
472.78	49.493
473.13	47.955
473.48	47.815
473.83	49.341
474.17	48.633
474.52	50.097
474.87	48.914
475.22	48.128
475.57	48.299
475.92	48.909
476.27	47.028
476.61	48.131
476.96	48.886
477.31	48.166
477.66	48.701
478.01	47.912
478.36	48.992
478.70	47.530
479.05	48.280
479.40	47.842
479.75	48.087
480.10	48.241
480.45	46.641
480.79	47.835
481.14	47.720
481.49	48.446
481.84	47.031
482.19	47.383
482.53	48.762
482.88	47.124
483.23	46.391
483.58	46.881
483.92	46.595
484.27	47.027
484.62	46.294
484.97	47.366
485.31	47.021
485.66	45.338
486.01	46.466
486.36	46.808
486.70	47.869
487.05	47.864
487.40	47.767
487.75	48.521
488.09	48.139
488.44	48.125
488.79	48.070
489.13	47.515
489.48	46.516
489.83	46.851
490.17	46.664
490.52	47.826
490.87	46.592
491.22	46.491
491.56	46.334
491.91	45.943
492.26	46.422
492.60	46.561
492.95	45.773
493.30	45.882
493.64	44.748
493.99	46.570
494.34	46.291
494.68	45.680
495.03	46.591
495.37	45.693
495.72	45.764
496.07	47.443
496.41	44.970
496.76	46.024
497.11	46.385
497.45	46.206
497.80	47.198
498.14	46.196
498.49	45.537
498.84	46.306
499.18	46.889
499.53	45.347
499.87	45.415
500.22	45.545
500.56	46.389
500.91	45.775
501.26	45.025
501.60	45.833
501.95	46.574
502.29	46.359
502.64	46.095
502.98	46.195
503.33	45.937
503.67	46.349
504.02	46.275
504.36	45.914
504.71	46.900
505.06	46.510
505.40	46.546
505.75	45.778
506.09	46.704
506.44	45.716
506.78	46.216
507.13	46.206
507.47	46.394
507.82	44.689
508.16	46.649
508.51	45.351
508.85	45.982
509.19	45.820
509.54	46.381
509.88	46.237
510.23	46.263
510.57	44.862
510.92	45.851
511.26	46.425
511.61	45.609
511.95	45.590
512.30	45.419
512.64	46.027
512.98	45.263
513.33	45.859
513.67	46.281
514.02	46.408
514.36	46.067
514.70	45.901
515.05	46.752
515.39	46.698
515.74	46.773
516.08	45.664
516.42	44.412
516.77	44.874
517.11	45.914
517.46	47.899
517.80	46.308
518.14	46.601
518.49	45.931
518.83	46.181
519.17	45.663
519.52	46.622
519.86	46.387
520.20	46.149
520.55	46.580
520.89	46.490
521.23	47.692
521.58	46.144
521.92	45.757
522.26	45.023
522.61	45.184
522.95	45.466
523.29	46.095
523.64	46.345
523.98	44.600
524.32	45.180
524.66	45.844
525.01	46.330
525.35	47.663
525.69	46.918
526.04	45.668
526.38	46.335
526.72	46.746
527.06	45.261
527.41	45.467
527.75	44.993
528.09	47.039
528.43	46.201
528.78	45.026
529.12	47.542
529.46	47.921
529.80	45.372
530.15	45.495
530.49	47.642
530.83	46.987
531.17	46.438
531.51	45.988
531.86	45.190
532.20	45.899
532.54	46.000
532.88	46.767
533.22	46.195
533.57	47.351
533.91	46.645
534.25	47.526
534.59	45.882
534.93	46.237
535.27	45.924
535.62	47.368
535.96	46.845
536.30	47.540
536.64	45.796
536.98	46.251
537.32	46.975
537.66	45.557
538.01	46.394
538.35	45.304
538.69	45.819
539.03	45.973
539.37	45.406
539.71	45.634
540.05	46.491
540.39	45.836
540.73	45.182
541.07	45.986
541.42	45.791
541.76	45.535
542.10	44.821
542.44	46.223
542.78	45.871
543.12	45.755
543.46	45.404
543.80	46.436
544.14	46.043
544.48	44.658
544.82	45.528
545.16	45.842
545.50	46.050
545.84	45.161
546.18	45.091
546.52	44.813
546.86	44.028
547.20	45.318
547.54	45.104
547.88	45.547
548.22	44.495
548.56	45.564
548.90	45.805
549.24	45.000
549.58	44.270
549.92	45.341
550.26	47.749
550.60	45.796
550.94	44.552
551.28	44.058
551.62	45.714
551.96	44.583
552.30	44.396
552.64	44.138
552.98	46.378
553.32	44.773
553.66	46.001
554.00	43.916
554.34	45.055
554.68	45.488
555.02	44.760
555.36	45.083
555.69	44.355
556.03	44.603
556.37	42.959
556.71	43.588
557.05	44.428
557.39	43.406
557.73	45.764
558.07	44.989
558.41	43.528
558.75	44.265
559.08	44.828
559.42	45.004
559.76	42.890
560.10	44.889
560.44	44.878
560.78	44.676
561.12	42.957
561.45	42.925
561.79	44.773
562.13	44.726
562.47	44.000
562.81	43.795
563.15	44.051
563.48	44.116
563.82	44.733
564.16	44.279
564.50	44.166
564.84	43.784
565.17	43.642
565.51	45.053
565.85	43.238
566.19	43.709
566.52	42.923
566.86	43.742
567.20	42.883
567.54	43.581
567.88	43.169
568.21	43.400
568.55	43.401
568.89	42.722
569.23	43.767
569.56	43.221
569.90	43.098
570.24	42.022
570.57	43.159
570.91	42.810
571.25	42.643
571.59	43.355
571.92	44.148
572.26	44.253
572.60	44.287
572.93	44.361
573.27	43.668
573.61	44.572
573.95	43.469
574.28	44.212
574.62	43.298
574.96	43.775
575.29	44.132
575.63	44.626
575.97	44.864
576.30	44.135
576.64	44.014
576.98	45.131
577.31	43.737
577.65	43.274
577.98	44.093
578.32	43.788
578.66	44.061
578.99	45.423
579.33	44.078
579.67	45.010
580.00	44.248
580.34	43.650
580.67	44.512
581.01	43.563
581.35	43.999
581.68	44.104
582.02	43.568
582.35	43.844
582.69	43.729
583.02	43.577
583.36	43.981
583.70	44.804
584.03	44.702
584.37	43.115
584.70	43.702
585.04	44.739
585.37	44.399
585.71	43.681
586.04	43.584
586.38	43.147
586.72	43.692
587.05	43.570
587.39	43.687
587.72	44.229
588.06	43.912
588.39	43.185
588.73	43.351
589.06	43.776
589.40	43.344
589.73	42.760
590.07	42.727
590.40	43.393
590.73	43.233
591.07	43.209
591.40	43.174
591.74	43.264
592.07	43.222
592.41	42.986
592.74	42.361
593.08	42.598
593.41	43.417
593.75	42.539
594.08	42.798
594.41	42.779
594.75	42.016
595.08	42.980
595.42	42.090
595.75	43.529
596.09	43.957
596.42	43.015
596.75	42.168
597.09	43.949
597.42	43.158
597.75	42.400
598.09	44.035
598.42	42.953
598.76	42.821
599.09	43.938
599.42	43.391
599.76	42.959
600.09	42.884
600.42	42.938
600.76	42.055
601.09	43.089
601.42	43.552
601.76	42.239
602.09	42.967
602.42	42.674
602.76	42.114
603.09	42.752
603.42	42.063
603.76	42.479
604.09	41.581
604.42	42.570
604.76	43.518
605.09	42.411
605.42	42.645
605.75	40.728
606.09	42.260
606.42	42.768
606.75	41.948
607.09	42.420
607.42	42.907
607.75	42.407
608.08	42.831
608.42	42.690
608.75	43.287
609.08	41.401
609.41	42.077
609.75	42.057
610.08	42.505
610.41	42.954
610.74	42.397
611.07	42.234
611.41	42.631
611.74	42.961
612.07	42.209
612.40	43.081
612.73	42.426
613.07	41.574
613.40	42.126
613.73	41.224
614.06	42.178
614.39	41.523
614.72	42.643
615.06	41.444
615.39	41.667
615.72	41.631
616.05	42.962
616.38	41.581
616.71	41.572
617.05	42.322
617.38	40.542
617.71	41.115
618.04	41.743
618.37	41.388
618.70	42.173
619.03	40.550
619.36	42.420
619.69	41.301
620.03	40.636
620.36	39.736
620.69	40.542
621.02	39.462
621.35	40.147
621.68	39.446
622.01	40.453
622.34	39.413
622.67	40.877
623.00	40.502
623.33	40.015
623.66	40.297
623.99	41.185
624.32	40.426
624.65	40.504
624.99	39.750
625.32	40.553
625.65	40.233
625.98	39.258
626.31	39.592
626.64	38.693
626.97	40.225
627.30	41.061
627.63	40.052
627.96	37.749
628.29	39.814
628.62	39.845
628.95	39.679
629.28	41.379
629.61	39.522
629.94	38.588
630.26	40.788
630.59	38.861
630.92	38.855
631.25	40.474
631.58	40.471
631.91	37.646
632.24	38.090
632.57	38.889
632.90	40.257
633.23	38.849
633.56	39.688
633.89	40.909
634.22	40.754
634.55	38.124
634.88	39.338
635.20	39.000
635.53	39.147
635.86	37.564
636.19	40.199
636.52	37.805
636.85	38.239
637.18	37.393
637.51	39.700
637.83	38.512
638.16	38.000
638.49	38.318
638.82	39.739
639.15	38.298
639.48	38.369
639.81	36.944
640.13	38.451
640.46	37.571
640.79	37.842
641.12	38.166
641.45	36.827
641.77	38.733
642.10	37.519
642.43	36.635
642.76	36.751
643.09	36.262
643.41	38.278
643.74	37.641
644.07	37.217
644.40	37.148
644.73	36.949
645.05	36.824
645.38	39.535
645.71	36.054
646.04	33.670
646.36	39.063
646.69	34.266
647.02	36.976
647.35	40.219
647.67	36.414
648.00	38.043
648.33	38.136
648.66	37.229
648.98	35.714
649.31	36.810
649.64	36.150
649.96	37.757
650.29	33.333
650.62	35.091
650.94	38.276
651.27	37.456
651.60	37.238
651.92	36.738
652.25	36.851
652.58	37.129
652.90	37.374
653.23	36.333
653.56	35.868
653.88	36.689
654.21	36.348
654.54	37.542
654.86	35.122
655.19	36.555
655.52	40.554
655.84	38.942
656.17	47.216
656.49	63.099
656.82	63.455
657.15	48.626
657.47	36.320
657.80	27.424
658.13	29.680
658.45	43.964
658.78	44.193
659.10	43.789
659.43	43.764
659.75	43.961
660.08	40.966
660.41	40.568
660.73	36.364
661.06	37.245
661.38	35.271
661.71	38.730
662.03	39.535
662.36	34.292
662.68	34.194
663.01	37.500
663.33	37.149
663.66	34.590
663.98	37.528
664.31	36.923
664.63	30.405
664.96	33.260
665.28	37.768
665.61	33.045
665.93	31.906
666.26	39.030
666.58	35.546
666.91	34.978
667.23	33.641
667.56	34.943
667.88	37.850
668.21	35.045
668.53	36.092
668.86	35.492
669.18	35.225
669.50	32.719
669.83	34.368
670.15	32.619
670.48	32.184
670.80	35.886
671.13	35.240
671.45	36.073
671.77	37.284
672.10	35.088
672.42	37.214
672.75	36.250
673.07	34.000
673.39	34.328
673.72	37.126
674.04	35.451
674.37	34.756
674.69	30.453
675.01	35.256
675.34	34.136
675.66	34.858
675.98	35.619
676.31	33.032
676.63	35.147
676.95	33.647
677.28	33.486
677.60	34.314
677.92	37.472
678.25	36.443
678.57	36.253
678.89	33.475
679.22	34.161
679.54	36.122
679.86	38.477
680.18	35.385
680.51	35.962
680.83	33.528
681.15	34.578
681.48	34.870
681.80	32.924
682.12	33.542
682.44	31.992
682.77	33.684
683.09	33.259
683.41	31.395
683.73	34.152
684.06	35.841
684.38	33.974
684.70	36.049
685.02	37.603
685.34	34.834
685.67	34.522
685.99	36.299
686.31	36.207
686.63	37.316
686.96	35.622
687.28	35.130
687.60	38.941
687.92	36.187
688.24	34.800
688.56	37.061
688.89	35.412
689.21	32.960
689.53	32.883
689.85	33.258
690.17	34.505
690.49	39.614
690.82	32.220
691.14	34.541
691.46	31.787
691.78	34.505
692.10	34.820
692.42	33.407
692.74	34.348
693.06	32.584
693.39	35.597
693.71	34.222
694.03	36.136
694.35	37.838
694.67	35.250
694.99	33.247
695.31	34.367
695.63	33.659
695.95	33.079
696.27	31.507
696.59	29.839
696.91	32.682
697.23	32.234
697.56	33.573
697.88	37.630
698.20	33.909
698.52	35.280
698.84	33.732
699.16	34.043
699.48	34.321
699.80	38.501
700.12	39.142
700.44	31.549
700.76	33.989
701.08	33.233
701.40	34.132
701.72	31.692
702.04	33.962
702.36	34.451
702.68	31.098
703.00	34.795
703.32	31.476
703.64	37.048
703.96	31.965
704.28	29.819
704.60	32.012
704.91	32.602
705.23	28.797
705.55	32.069
705.87	32.394
706.19	32.967
706.51	27.817
706.83	28.025
707.15	31.402
707.47	34.711
707.79	31.726
708.11	31.620
708.43	31.472
708.74	33.511
709.06	28.342
709.38	32.277
709.70	33.634
710.02	30.530
710.34	31.667
710.66	31.596
710.98	30.341
711.29	38.636
711.61	31.290
711.93	35.161
712.25	30.769
712.57	26.316
712.89	34.066
713.20	28.723
713.52	31.387
713.84	31.613
714.16	37.864
714.48	30.063
714.80	31.949
715.11	34.593
715.43	27.019
715.75	34.472
716.07	31.627
716.39	32.323
716.70	32.374
717.02	29.412
717.34	29.545
717.66	25.862
717.97	29.762
718.29	30.709
718.61	27.468
718.93	32.946
719.24	26.568
719.56	30.337
719.88	27.239
720.20	31.621
720.51	30.078
720.83	33.074
721.15	28.049
721.46	30.916
721.78	31.873
722.10	33.466
722.42	27.823
722.73	30.888
723.05	33.878
723.37	32.353
723.68	31.200
724.00	29.787
724.32	27.615
724.63	30.041
724.95	28.205
725.27	35.865
725.58	34.156
725.90	33.891
726.22	29.348
726.53	26.667
726.85	33.212
727.16	27.778
727.48	30.651
727.80	27.734
728.11	33.607
728.43	30.078
728.74	30.952
729.06	33.200
729.38	32.806
729.69	27.758
730.01	30.112
730.32	29.151
730.64	28.788
730.96	33.916
731.27	31.438
731.59	31.746
731.90	32.686
732.22	29.808
732.53	28.041
732.85	31.879
733.16	29.373
733.48	28.041
733.80	30.068
734.11	34.122
734.43	31.889
734.74	30.330
735.06	29.683
735.37	33.739
735.69	29.450
736.00	27.393
736.32	34.043
736.63	28.966
736.95	31.164
737.26	28.621
737.58	32.292
737.89	30.928
738.21	29.537
738.52	28.137
738.83	33.469
739.15	27.004
739.46	27.626
739.78	31.338
740.09	29.110
740.41	32.143
740.72	26.950
741.04	26.400
741.35	28.947
741.66	31.111
741.98	28.365
742.29	29.703
742.61	29.268
742.92	29.825
743.23	26.887
743.55	33.333
743.86	23.767
744.18	26.961
744.49	27.919
744.80	28.061
745.12	25.701
745.43	33.175
745.74	25.225
746.06	28.972
746.37	22.477
746.68	26.923
747.00	33.971
747.31	30.288
747.62	32.110
747.94	32.314
748.25	30.734
748.56	30.667
748.88	33.333
749.19	32.857
749.50	25.243
749.82	26.291
750.13	17.500
750.44	26.923
750.75	31.365
751.07	34.520
751.38	32.624
751.69	28.571
752.01	31.250
752.32	30.385
752.63	30.597
752.94	34.400
753.26	30.544
753.57	27.500
753.88	30.364
754.19	31.076
754.51	25.940
754.82	30.403
755.13	23.478
755.44	29.675
755.75	30.000
756.07	28.413
756.38	28.058
756.69	30.034
757.00	28.349
757.31	27.508
757.63	28.086
757.94	33.333
758.25	33.333
758.56	26.359
758.87	34.821
759.18	30.599
759.50	28.620
759.81	33.110
760.12	31.385
760.43	25.298
760.74	30.791
761.05	29.006
761.36	31.805
761.67	29.305
761.99	26.460
762.30	29.562
762.61	32.922
762.92	35.470
763.23	31.557
763.54	28.571
763.85	30.612
764.16	27.642
764.47	27.600
764.78	28.929
765.10	31.803
765.41	26.748
765.72	31.366
766.03	28.053
766.34	26.538
766.65	24.686
766.96	24.413
767.27	33.168
767.58	22.472
767.89	29.012
768.20	22.652
768.51	32.663
768.82	30.288
769.13	30.531
769.44	28.870
769.75	22.222
770.06	25.561
770.37	25.490
770.68	24.272
770.99	29.612
771.30	30.672
771.61	26.531
771.92	30.290
772.23	19.369
772.54	17.680
772.85	28.488
773.16	30.688
773.47	24.852
773.78	27.586
774.09	36.250
774.39	22.360
774.70	27.891
775.01	21.379
775.32	27.143
775.63	25.564
775.94	18.045
776.25	19.200
776.56	19.835
776.87	26.984
777.18	16.216
777.48	15.315
777.79	15.748
778.10	20.183
778.41	15.789
778.72	18.487
779.03	18.310
779.34	31.081
779.65	25.352
779.95	25.166
780.26	24.460
780.57	29.496
780.88	22.535
781.19	29.412
781.50	24.832
781.80	17.544
782.11	19.186
782.42	27.044
782.73	30.719
783.04	26.897
783.34	17.557
783.65	26.174
783.96	22.308
784.27	20.000
784.57	19.858
784.88	16.346
785.19	34.545
785.50	20.000
785.81	23.810
786.11	21.008
786.42	24.779
786.73	20.755
787.04	9.174
787.34	10.891
787.65	20.833
787.96	23.140
788.26	21.739
788.57	21.429
788.88	21.951
789.19	21.600
789.49	22.137
789.80	27.273
790.11	18.868
790.41	33.663
790.72	23.404
791.03	26.087
791.33	10.588
791.64	18.519
791.95	5.435
792.25	22.727
792.56	25.641
792.87	10.256
793.17	11.538
793.48	5.952
793.79	25.000
794.09	30.769
794.40	33.333
794.70	23.423
795.01	20.312
795.32	24.348
795.62	9.783
795.93	27.358
796.23	32.323
796.54	21.951
796.85	11.905
797.15	18.182
797.46	5.797
797.76	13.158
798.07	15.909
798.37	18.293
798.68	3.226
798.99	13.514
799.29	12.048
799.60	17.949
799.90	13.846
800.21	13.636
800.51	8.000
800.82	10.667
801.12	2.083
801.43	-10.000
801.73	6.757
802.04	24.286
802.34	14.754
802.65	20.896
802.95	18.182
803.26	-1.724
803.56	21.538
803.87	18.868
804.17	12.903
804.48	14.706
804.78	17.073
805.09	36.232
805.39	17.647
805.70	-17.021
806.00	0.000
806.30	24.359
806.61	19.737
806.91	27.027
807.22	18.421
807.52	20.455
807.83	-1.695
808.13	-9.091
808.43	8.333
808.74	-22.414
809.04	23.810
809.35	18.367
809.65	15.000
809.95	-8.163
810.26	25.352
810.56	29.167
810.86	-14.286
811.17	17.308
811.47	6.383
811.77	4.167
812.08	15.094
812.38	-18.750
812.69	0.000
812.99	-7.317
813.29	-5.405
813.59	0.000
813.90	0.000
814.20	23.636
814.50	13.333
814.81	18.182
815.11	12.281
815.41	39.535
815.72	-2.500
816.02	2.857
816.32	13.514
816.62	12.500
816.93	13.333
817.23	-8.889
817.53	-41.667
817.84	-5.405
818.14	-12.195
818.44	16.000
818.74	6.122
819.04	-4.878
819.35	5.556
819.65	6.818
819.95	-55.556
820.25	0.000
820.56	-30.952
820.86	-13.889
821.16	-9.091
821.46	2.174
821.76	-3.448
822.07	17.391
822.37	27.273
822.67	29.268
822.97	10.811
823.27	-25.714
823.57	3.448
823.88	-32.353
824.18	19.444
824.48	8.571
824.78	9.524
825.08	0.000
825.38	-33.333
825.69	-9.677
825.99	9.756
826.29	25.926
826.59	3.125
826.89	-29.032
827.19	-30.435
827.49	-11.111
827.79	-30.435
828.09	-12.903
828.39	18.750
828.70	9.375
829.00	-31.034
829.30	-2.703
829.60	-66.667
829.90	3.704
830.20	6.250
830.50	22.727
830.80	-76.471
831.10	-45.455
831.40	-14.706
831.70	-15.385
832.00	-18.182
832.30	5.882
832.60	10.811
832.90	1500.000
833.20	3.571
833.50	-25.000
833.80	5.263
834.10	-25.000
834.40	-27.273
834.70	-140.000
835.00	-110.000
835.30	-58.333
835.60	-4.762
835.90	-4.762
836.20	-24.000
836.50	-33.333
836.80	-73.684
837.10	13.514
837.40	46.667
837.70	-34.783
838.00	16.667
838.30	-42.105
838.60	-170.000
838.90	-150.000
839.19	33.333
839.49	-38.462
839.79	-63.158
840.09	-133.333
840.39	-150.000
840.69	-13.636
840.99	-14.286
841.29	-37.500
841.59	-61.538
841.88	-100.000
842.18	-85.714
842.48	13.333
842.78	-314.286
843.08	-50.000
843.38	-175.000
843.68	-50.000
843.97	50.000
844.27	-211.111
844.57	-81.818
844.87	6.667
845.17	-50.000
845.47	533.333
845.76	-93.333
846.06	-158.333
846.36	-900.000
846.66	-42.105
846.96	-31.818
847.25	0.000
847.55	-133.333
847.85	-4.762
848.15	0.000
848.44	-216.667
848.74	-66.667
849.04	-23.077
849.34	-350.000
849.63	-136.364
849.93	-142.857
850.23	25.000
850.53	-225.000
850.82	-16.667
851.12	-6.667
851.42	-52.941
851.71	-112.500
852.01	-11.765
852.31	-76.923
852.61	300.000
852.90	-29.412
853.20	-66.667
853.50	-56.250
853.79	-142.857
854.09	-125.000
854.39	-40.000
854.68	-7.500
854.98	-28.571
855.28	-56.000
855.57	0.000
855.87	12.500
856.17	-36.000
856.46	-15.625
856.76	-25.000
857.05	16.000
857.35	-41.667
857.65	-52.941
857.94	-91.667
858.24	-66.667
858.53	-70.000
858.83	-109.091
859.13	12.000
859.42	-92.857
859.72	-62.500
860.01	-8.333
860.31	-237.500
860.60	-31.250
860.90	33.333
861.20	-183.333
861.49	-6.667
861.79	-50.000
862.08	225.000
862.38	-116.667
862.67	328.571
862.97	275.000
863.26	-72.727
863.56	0.000
863.85	10.526
864.15	-23.529
864.44	-180.000
864.74	-150.000
865.03	-166.667
865.33	-21.429
865.62	192.857
865.92	-26.316
866.21	-72.222
866.51	-18.182
866.80	-88.889
867.10	-275.000
867.39	-18.750
867.69	-106.667
867.98	-120.000
868.27	-17.647
868.57	0.000
868.86	950.000
869.16	-225.000
869.45	-271.429
869.75	-50.000
870.04	0.000
870.33	200.000
870.63	0.000
870.92	-150.000
871.22	-1000.000
871.51	-57.143
871.80	-133.333
872.10	-525.000
>>>>>End Processed Spectral Data<<<<<
