SpectraSuite Data File
++++++++++++++++++++++++++++++++++++
Date: Wed May 13 21:07:07 PDT 2015
User: schluterlab
Dark Spectrum Present: Yes
Reference Spectrum Present: Yes
Number of Sampled Component Spectra: 1
Spectrometers: USB2E3373
Integration Time (usec): 3000 (USB2E3373)
Spectra Averaged: 3 (USB2E3373)
Boxcar Smoothing: 0 (USB2E3373)
Correct for Electrical Dark: No (USB2E3373)
Strobe/Lamp Enabled: No (USB2E3373)
Correct for Detector Non-linearity: No (USB2E3373)
Correct for Stray Light: No (USB2E3373)
Number of Pixels in Processed Spectrum: 2048
>>>>>Begin Processed Spectral Data<<<<<
178.53	0.000
178.91	100.000
179.29	125.000
179.67	-400.000
180.04	-466.667
180.42	320.000
180.80	500.000
181.18	116.667
181.56	-100.000
181.94	-150.000
182.31	0.000
182.69	146.154
183.07	-240.000
183.45	116.667
183.83	88.889
184.20	142.857
184.58	100.000
184.96	200.000
185.34	171.429
185.72	0.000
186.09	-100.000
186.47	-240.000
186.85	140.000
187.23	-300.000
187.61	650.000
187.98	1000.000
188.36	-50.000
188.74	0.000
189.12	-63.636
189.49	120.000
189.87	66.667
190.25	200.000
190.63	1200.000
191.00	-240.000
191.38	40.000
191.76	550.000
192.14	100.000
192.51	10.526
192.89	333.333
193.27	175.000
193.65	-100.000
194.02	154.545
194.40	160.000
194.78	-500.000
195.15	220.000
195.53	-160.000
195.91	25.000
196.29	-233.333
196.66	0.000
197.04	450.000
197.42	-160.000
197.79	-40.000
198.17	-112.500
198.55	-233.333
198.92	125.000
199.30	-133.333
199.68	-10.000
200.05	550.000
200.43	66.667
200.81	-900.000
201.18	-160.000
201.56	-50.000
201.94	525.000
202.31	0.000
202.69	-57.143
203.07	-266.667
203.44	-60.000
203.82	-100.000
204.19	50.000
204.57	0.000
204.95	100.000
205.32	0.000
205.70	-500.000
206.08	0.000
206.45	-133.333
206.83	250.000
207.20	-333.333
207.58	-20.000
207.96	-1500.000
208.33	-142.857
208.71	-1400.000
209.08	175.000
209.46	325.000
209.84	0.000
210.21	70.000
210.59	1600.000
210.96	40.000
211.34	400.000
211.71	-600.000
212.09	-250.000
212.46	-170.000
212.84	-33.333
213.22	100.000
213.59	400.000
213.97	-150.000
214.34	-500.000
214.72	7.692
215.09	225.000
215.47	88.889
215.84	150.000
216.22	-25.000
216.59	250.000
216.97	600.000
217.34	155.556
217.72	0.000
218.09	266.667
218.47	800.000
218.84	-228.571
219.22	-37.500
219.59	-133.333
219.97	-125.000
220.34	-100.000
220.72	-100.000
221.09	0.000
221.47	-16.667
221.84	200.000
222.22	0.000
222.59	200.000
222.97	-66.667
223.34	-50.000
223.72	-600.000
224.09	-500.000
224.46	-45.455
224.84	-87.500
225.21	-28.571
225.59	-25.000
225.96	-50.000
226.34	-80.000
226.71	-185.714
227.08	750.000
227.46	-50.000
227.83	-800.000
228.21	-31.250
228.58	-275.000
228.95	-29.412
229.33	-43.750
229.70	-125.000
230.08	38.462
230.45	-125.000
230.82	-50.000
231.20	85.714
231.57	-150.000
231.95	700.000
232.32	66.667
232.69	23.529
233.07	-500.000
233.44	0.000
233.81	-850.000
234.19	33.333
234.56	20.000
234.93	-26.667
235.31	31.579
235.68	-100.000
236.05	0.000
236.43	5.556
236.80	21.212
237.17	0.000
237.55	5.882
237.92	-10.345
238.29	33.333
238.67	13.889
239.04	19.355
239.41	0.000
239.79	12.766
240.16	4.651
240.53	-1.786
240.91	35.714
241.28	21.429
241.65	30.645
242.02	25.000
242.40	21.739
242.77	20.290
243.14	20.513
243.51	27.660
243.89	26.923
244.26	36.792
244.63	24.038
245.00	31.250
245.38	30.252
245.75	26.230
246.12	30.827
246.49	21.951
246.87	22.689
247.24	29.730
247.61	26.490
247.98	32.051
248.36	26.036
248.73	26.404
249.10	31.313
249.47	27.419
249.84	36.316
250.22	29.851
250.59	31.776
250.96	35.455
251.33	23.445
251.70	32.636
252.08	33.054
252.45	36.626
252.82	28.897
253.19	28.405
253.56	30.576
253.94	33.096
254.31	32.746
254.68	32.550
255.05	33.003
255.42	29.371
255.79	32.515
256.16	34.385
256.54	27.619
256.91	28.797
257.28	32.390
257.65	29.936
258.02	31.378
258.39	32.456
258.76	31.977
259.14	34.091
259.51	34.551
259.88	34.688
260.25	32.778
260.62	34.270
260.99	34.218
261.36	32.124
261.73	30.617
262.10	28.753
262.47	31.605
262.85	30.846
263.22	32.308
263.59	31.429
263.96	35.280
264.33	31.731
264.70	32.326
265.07	32.870
265.44	34.483
265.81	32.723
266.18	34.624
266.55	33.406
266.92	31.992
267.29	31.276
267.66	32.484
268.03	31.893
268.40	29.873
268.77	33.471
269.14	33.061
269.51	34.086
269.88	30.550
270.25	34.746
270.62	31.967
270.99	33.268
271.36	34.127
271.73	31.928
272.10	31.619
272.47	32.821
272.84	31.693
273.21	32.485
273.58	32.172
273.95	32.830
274.32	31.530
274.69	30.419
275.06	34.099
275.43	33.333
275.80	30.851
276.17	35.175
276.54	31.972
276.91	29.791
277.28	31.949
277.65	33.217
278.02	31.429
278.39	30.906
278.76	33.445
279.13	31.218
279.50	32.069
279.87	31.159
280.23	33.514
280.60	31.142
280.97	31.331
281.34	32.808
281.71	29.268
282.08	31.282
282.45	33.443
282.82	30.831
283.19	33.079
283.56	31.094
283.92	30.887
284.29	31.357
284.66	33.278
285.03	29.967
285.40	31.118
285.77	31.231
286.14	29.331
286.51	31.334
286.87	31.692
287.24	31.121
287.61	31.175
287.98	31.618
288.35	29.061
288.72	28.981
289.08	31.054
289.45	31.131
289.82	30.408
290.19	30.575
290.56	27.557
290.93	26.796
291.29	30.233
291.66	28.142
292.03	27.929
292.40	27.725
292.77	29.050
293.13	28.033
293.50	27.843
293.87	28.400
294.24	28.439
294.60	27.958
294.97	29.762
295.34	25.462
295.71	27.595
296.08	26.702
296.44	26.403
296.81	26.066
297.18	25.750
297.55	27.948
297.91	26.335
298.28	26.877
298.65	27.833
299.02	26.007
299.38	25.521
299.75	25.481
300.12	24.070
300.48	26.550
300.85	24.480
301.22	26.597
301.59	23.709
301.95	23.229
302.32	24.737
302.69	24.633
303.05	23.588
303.42	25.114
303.79	25.026
304.15	24.863
304.52	25.591
304.89	24.363
305.25	23.271
305.62	24.187
305.99	23.177
306.35	26.437
306.72	24.619
307.09	24.505
307.45	23.216
307.82	23.684
308.19	22.675
308.55	23.234
308.92	25.737
309.29	24.625
309.65	24.775
310.02	23.857
310.38	25.000
310.75	22.682
311.12	24.393
311.48	23.541
311.85	22.933
312.22	23.791
312.58	22.995
312.95	24.080
313.31	23.967
313.68	22.996
314.05	25.331
314.41	24.400
314.78	23.245
315.14	23.611
315.51	23.026
315.87	24.189
316.24	24.059
316.61	24.018
316.97	24.259
317.34	24.777
317.70	25.513
318.07	25.288
318.43	23.306
318.80	23.124
319.16	24.403
319.53	23.925
319.89	23.035
320.26	25.970
320.62	25.116
320.99	24.322
321.35	23.573
321.72	25.217
322.08	24.631
322.45	25.162
322.81	26.155
323.18	24.776
323.54	25.181
323.91	26.016
324.27	25.833
324.64	25.784
325.00	25.284
325.37	27.218
325.73	25.337
326.10	26.997
326.46	26.003
326.83	26.618
327.19	25.772
327.56	26.753
327.92	27.031
328.29	28.798
328.65	27.958
329.01	26.297
329.38	28.609
329.74	27.468
330.11	28.584
330.47	26.910
330.84	27.527
331.20	27.412
331.56	27.264
331.93	28.510
332.29	28.671
332.66	26.610
333.02	29.279
333.38	28.860
333.75	27.389
334.11	28.906
334.48	28.073
334.84	28.180
335.20	27.959
335.57	29.330
335.93	28.093
336.29	26.970
336.66	27.778
337.02	29.652
337.38	29.156
337.75	27.562
338.11	27.156
338.47	27.740
338.84	28.780
339.20	28.836
339.56	28.413
339.93	28.781
340.29	29.547
340.65	30.026
341.02	28.869
341.38	29.139
341.74	27.227
342.11	28.571
342.47	28.619
342.83	30.147
343.20	30.711
343.56	29.109
343.92	29.407
344.28	30.114
344.65	31.102
345.01	29.459
345.37	31.743
345.73	30.474
346.10	30.337
346.46	29.431
346.82	31.059
347.19	29.826
347.55	30.695
347.91	30.398
348.27	29.732
348.63	32.212
349.00	31.211
349.36	31.162
349.72	31.787
350.08	31.591
350.45	31.637
350.81	31.690
351.17	31.101
351.53	33.150
351.89	31.533
352.26	30.502
352.62	31.395
352.98	32.188
353.34	32.528
353.70	32.321
354.07	31.451
354.43	30.949
354.79	32.452
355.15	31.677
355.51	31.891
355.87	32.447
356.24	31.059
356.60	32.369
356.96	32.694
357.32	31.656
357.68	32.315
358.04	32.583
358.40	33.721
358.77	33.104
359.13	33.541
359.49	33.687
359.85	33.055
360.21	32.999
360.57	32.243
360.93	31.866
361.29	33.901
361.66	33.106
362.02	32.468
362.38	32.201
362.74	31.472
363.10	32.899
363.46	33.141
363.82	34.220
364.18	32.922
364.54	34.792
364.90	31.986
365.26	33.050
365.62	31.889
365.98	32.740
366.35	33.475
366.71	33.809
367.07	32.530
367.43	32.822
367.79	32.870
368.15	34.037
368.51	34.177
368.87	33.985
369.23	33.665
369.59	33.968
369.95	34.325
370.31	33.264
370.67	33.382
371.03	32.962
371.39	33.996
371.75	33.857
372.11	34.330
372.47	33.598
372.83	35.160
373.19	33.597
373.55	34.393
373.91	34.371
374.27	33.264
374.63	35.064
374.99	34.749
375.35	34.041
375.71	33.424
376.07	34.750
376.42	34.158
376.78	35.865
377.14	34.780
377.50	34.550
377.86	34.529
378.22	33.881
378.58	35.372
378.94	35.562
379.30	34.603
379.66	35.635
380.02	34.988
380.38	34.398
380.74	36.103
381.09	34.861
381.45	35.671
381.81	35.059
382.17	34.720
382.53	35.754
382.89	35.404
383.25	34.938
383.61	36.320
383.97	35.500
384.32	34.657
384.68	35.040
385.04	34.331
385.40	36.426
385.76	35.401
386.12	36.281
386.48	36.238
386.83	36.170
387.19	35.904
387.55	35.071
387.91	37.331
388.27	35.820
388.62	36.392
388.98	36.045
389.34	36.090
389.70	36.264
390.06	36.000
390.42	36.405
390.77	35.939
391.13	35.922
391.49	35.231
391.85	35.783
392.20	36.466
392.56	36.762
392.92	35.167
393.28	36.084
393.64	36.208
393.99	35.190
394.35	36.728
394.71	34.936
395.07	35.912
395.42	36.197
395.78	35.199
396.14	35.891
396.50	36.906
396.85	37.030
397.21	36.267
397.57	37.826
397.92	35.808
398.28	37.169
398.64	38.009
399.00	36.775
399.35	37.514
399.71	36.109
400.07	37.229
400.42	36.552
400.78	36.556
401.14	36.603
401.49	35.770
401.85	37.654
402.21	37.090
402.57	35.868
402.92	37.484
403.28	37.336
403.63	37.260
403.99	36.788
404.35	36.160
404.70	36.858
405.06	36.641
405.42	36.432
405.77	36.694
406.13	36.229
406.49	36.729
406.84	38.034
407.20	36.530
407.55	36.494
407.91	37.128
408.27	35.933
408.62	37.139
408.98	36.252
409.34	37.314
409.69	37.622
410.05	36.692
410.40	36.032
410.76	36.643
411.11	37.624
411.47	38.553
411.83	37.243
412.18	37.531
412.54	37.469
412.89	36.614
413.25	36.283
413.60	37.367
413.96	36.642
414.31	36.560
414.67	36.508
415.03	36.739
415.38	36.328
415.74	36.062
416.09	37.343
416.45	36.432
416.80	37.718
417.16	38.259
417.51	36.236
417.87	36.243
418.22	37.686
418.58	36.859
418.93	36.786
419.29	38.020
419.64	37.341
420.00	36.952
420.35	37.597
420.71	36.807
421.06	38.130
421.42	36.314
421.77	37.572
422.12	38.338
422.48	36.641
422.83	38.157
423.19	37.953
423.54	37.044
423.90	37.292
424.25	38.302
424.61	37.585
424.96	38.261
425.31	37.353
425.67	37.743
426.02	37.986
426.38	37.127
426.73	37.263
427.09	38.086
427.44	37.052
427.79	36.758
428.15	37.554
428.50	37.825
428.85	38.192
429.21	36.972
429.56	37.885
429.92	38.626
430.27	37.372
430.62	37.041
430.98	37.811
431.33	37.668
431.68	39.244
432.04	38.254
432.39	36.778
432.74	37.768
433.10	39.105
433.45	37.219
433.80	37.816
434.16	38.504
434.51	38.587
434.86	39.164
435.22	38.936
435.57	37.838
435.92	38.359
436.28	38.498
436.63	39.261
436.98	38.778
437.34	39.133
437.69	38.017
438.04	38.540
438.39	38.667
438.75	39.631
439.10	39.503
439.45	39.165
439.81	38.978
440.16	39.304
440.51	38.763
440.86	38.352
441.22	39.989
441.57	38.395
441.92	39.399
442.27	38.853
442.63	39.182
442.98	38.484
443.33	38.995
443.68	38.693
444.03	38.947
444.39	39.266
444.74	39.481
445.09	38.822
445.44	41.127
445.79	39.752
446.15	39.601
446.50	40.474
446.85	39.284
447.20	39.415
447.55	39.731
447.91	38.652
448.26	39.966
448.61	39.298
448.96	40.091
449.31	39.178
449.66	39.503
450.02	39.682
450.37	41.069
450.72	39.036
451.07	40.313
451.42	38.303
451.77	39.501
452.12	39.988
452.47	39.187
452.83	39.151
453.18	40.165
453.53	39.281
453.88	40.602
454.23	39.370
454.58	39.706
454.93	39.448
455.28	39.949
455.63	39.925
455.98	39.197
456.34	39.034
456.69	39.936
457.04	39.381
457.39	39.206
457.74	39.677
458.09	40.047
458.44	39.718
458.79	38.825
459.14	39.045
459.49	39.939
459.84	39.233
460.19	39.016
460.54	39.477
460.89	39.302
461.24	39.273
461.59	40.338
461.94	40.013
462.29	39.154
462.64	39.974
462.99	38.833
463.34	40.401
463.69	40.077
464.04	39.136
464.39	39.475
464.74	39.373
465.09	39.988
465.44	40.516
465.79	39.965
466.14	39.795
466.49	39.941
466.84	40.167
467.19	40.064
467.54	39.857
467.89	39.975
468.24	40.750
468.59	39.962
468.94	40.741
469.29	40.317
469.64	40.098
469.99	40.000
470.34	40.459
470.68	40.000
471.03	41.255
471.38	40.125
471.73	40.466
472.08	40.893
472.43	40.633
472.78	40.095
473.13	39.380
473.48	39.335
473.83	39.674
474.17	38.932
474.52	40.324
474.87	40.893
475.22	39.915
475.57	39.877
475.92	40.349
476.27	40.152
476.61	40.600
476.96	40.605
477.31	40.399
477.66	41.073
478.01	38.956
478.36	40.054
478.70	40.440
479.05	40.344
479.40	38.794
479.75	39.851
480.10	40.796
480.45	40.608
480.79	40.418
481.14	40.780
481.49	41.441
481.84	40.009
482.19	39.926
482.53	40.810
482.88	40.604
483.23	40.423
483.58	39.792
483.92	40.467
484.27	39.799
484.62	39.680
484.97	40.481
485.31	39.743
485.66	39.382
486.01	39.774
486.36	39.421
486.70	40.030
487.05	41.020
487.40	40.279
487.75	41.114
488.09	40.225
488.44	40.659
488.79	40.727
489.13	40.716
489.48	40.573
489.83	40.688
490.17	40.490
490.52	40.767
490.87	39.592
491.22	40.650
491.56	40.345
491.91	40.326
492.26	40.619
492.60	39.490
492.95	39.990
493.30	39.438
493.64	39.185
493.99	40.821
494.34	39.981
494.68	39.952
495.03	40.761
495.37	39.757
495.72	41.003
496.07	40.526
496.41	39.635
496.76	40.631
497.11	40.047
497.45	40.418
497.80	40.939
498.14	40.353
498.49	40.292
498.84	40.891
499.18	40.816
499.53	40.079
499.87	40.320
500.22	41.862
500.56	39.368
500.91	40.392
501.26	39.606
501.60	40.735
501.95	40.680
502.29	39.951
502.64	41.128
502.98	40.607
503.33	40.633
503.67	40.604
504.02	41.765
504.36	40.862
504.71	41.057
505.06	41.416
505.40	40.515
505.75	41.455
506.09	40.930
506.44	39.919
506.78	40.427
507.13	41.788
507.47	42.153
507.82	41.078
508.16	41.583
508.51	40.651
508.85	41.161
509.19	41.005
509.54	42.681
509.88	41.452
510.23	41.421
510.57	41.790
510.92	41.325
511.26	42.629
511.61	41.877
511.95	41.290
512.30	41.866
512.64	43.133
512.98	41.385
513.33	42.592
513.67	43.441
514.02	42.873
514.36	41.854
514.70	42.667
515.05	42.130
515.39	42.571
515.74	42.747
516.08	41.770
516.42	41.244
516.77	42.004
517.11	42.446
517.46	43.517
517.80	43.462
518.14	42.560
518.49	41.772
518.83	42.184
519.17	43.614
519.52	43.124
519.86	42.866
520.20	41.844
520.55	42.351
520.89	43.896
521.23	44.038
521.58	43.300
521.92	42.929
522.26	43.591
522.61	43.827
522.95	44.171
523.29	43.492
523.64	44.310
523.98	42.567
524.32	42.470
524.66	43.506
525.01	44.102
525.35	44.174
525.69	44.400
526.04	42.932
526.38	43.340
526.72	44.707
527.06	42.295
527.41	44.209
527.75	42.924
528.09	45.677
528.43	44.573
528.78	43.217
529.12	44.502
529.46	43.442
529.80	42.977
530.15	43.243
530.49	44.811
530.83	43.399
531.17	44.041
531.51	42.414
531.86	43.157
532.20	43.418
532.54	43.172
532.88	41.729
533.22	44.310
533.57	42.517
533.91	45.097
534.25	43.815
534.59	42.921
534.93	42.730
535.27	42.803
535.62	42.763
535.96	42.811
536.30	43.750
536.64	43.267
536.98	41.626
537.32	42.633
537.66	45.134
538.01	42.372
538.35	43.715
538.69	42.007
539.03	41.208
539.37	42.723
539.71	42.292
540.05	41.970
540.39	43.152
540.73	43.366
541.07	42.857
541.42	41.886
541.76	42.625
542.10	42.383
542.44	43.105
542.78	44.067
543.12	41.846
543.46	41.742
543.80	42.498
544.14	43.634
544.48	41.009
544.82	42.838
545.16	41.988
545.50	42.606
545.84	40.393
546.18	41.865
546.52	42.978
546.86	41.413
547.20	42.244
547.54	41.959
547.88	42.173
548.22	40.326
548.56	42.161
548.90	40.731
549.24	42.014
549.58	41.566
549.92	42.847
550.26	42.657
550.60	42.192
550.94	41.940
551.28	42.316
551.62	41.278
551.96	40.410
552.30	40.830
552.64	40.395
552.98	43.679
553.32	41.168
553.66	41.233
554.00	41.037
554.34	40.586
554.68	41.238
555.02	40.943
555.36	41.755
555.69	41.442
556.03	41.029
556.37	41.323
556.71	40.505
557.05	41.697
557.39	41.447
557.73	41.074
558.07	41.070
558.41	41.938
558.75	40.493
559.08	40.497
559.42	41.385
559.76	39.220
560.10	41.122
560.44	41.489
560.78	40.216
561.12	40.364
561.45	41.293
561.79	41.059
562.13	40.717
562.47	40.929
562.81	39.971
563.15	40.510
563.48	39.367
563.82	41.313
564.16	40.623
564.50	39.824
564.84	40.338
565.17	41.457
565.51	39.773
565.85	39.241
566.19	39.338
566.52	40.433
566.86	38.685
567.20	39.524
567.54	38.860
567.88	38.970
568.21	38.946
568.55	39.593
568.89	39.482
569.23	38.818
569.56	38.965
569.90	38.497
570.24	39.314
570.57	38.485
570.91	39.048
571.25	38.567
571.59	38.274
571.92	38.516
572.26	38.877
572.60	38.959
572.93	39.206
573.27	38.111
573.61	38.670
573.95	38.419
574.28	38.953
574.62	37.892
574.96	38.361
575.29	38.064
575.63	38.962
575.97	38.777
576.30	38.216
576.64	38.538
576.98	38.295
577.31	37.768
577.65	38.105
577.98	38.341
578.32	38.333
578.66	38.176
578.99	38.451
579.33	38.356
579.67	38.620
580.00	38.137
580.34	37.906
580.67	38.070
581.01	37.826
581.35	37.779
581.68	37.346
582.02	37.694
582.35	38.423
582.69	38.473
583.02	37.819
583.36	38.233
583.70	38.645
584.03	38.393
584.37	37.404
584.70	37.630
585.04	37.844
585.37	37.691
585.71	37.627
586.04	37.769
586.38	37.569
586.72	37.454
587.05	37.704
587.39	37.795
587.72	37.234
588.06	38.085
588.39	37.615
588.73	37.094
589.06	37.698
589.40	37.908
589.73	36.795
590.07	36.493
590.40	37.372
590.73	37.358
591.07	36.858
591.40	36.826
591.74	37.083
592.07	36.604
592.41	37.538
592.74	37.076
593.08	36.650
593.41	36.737
593.75	36.628
594.08	37.029
594.41	36.929
594.75	37.369
595.08	37.267
595.42	36.901
595.75	36.587
596.09	36.374
596.42	36.479
596.75	36.376
597.09	37.853
597.42	37.326
597.75	36.978
598.09	35.974
598.42	37.092
598.76	36.524
599.09	36.855
599.42	36.216
599.76	36.012
600.09	36.220
600.42	36.798
600.76	35.772
601.09	36.573
601.42	36.652
601.76	35.830
602.09	36.400
602.42	37.103
602.76	36.619
603.09	37.372
603.42	36.106
603.76	35.503
604.09	36.324
604.42	35.329
604.76	36.229
605.09	36.384
605.42	36.527
605.75	35.589
606.09	35.720
606.42	36.076
606.75	35.584
607.09	35.904
607.42	35.245
607.75	34.179
608.08	35.978
608.42	35.801
608.75	36.407
609.08	34.591
609.41	35.768
609.75	34.947
610.08	35.454
610.41	35.909
610.74	35.563
611.07	35.170
611.41	35.670
611.74	35.507
612.07	35.383
612.40	34.919
612.73	34.852
613.07	34.479
613.40	35.242
613.73	35.211
614.06	34.439
614.39	34.630
614.72	34.259
615.06	34.056
615.39	35.541
615.72	33.801
616.05	34.403
616.38	34.708
616.71	34.073
617.05	36.179
617.38	34.442
617.71	33.762
618.04	33.577
618.37	34.574
618.70	33.506
619.03	34.158
619.36	35.160
619.69	34.357
620.03	33.852
620.36	34.516
620.69	34.404
621.02	34.077
621.35	32.543
621.68	33.904
622.01	33.981
622.34	33.466
622.67	33.751
623.00	32.827
623.33	33.059
623.66	33.234
623.99	33.683
624.32	34.263
624.65	34.199
624.99	32.770
625.32	34.802
625.65	32.868
625.98	33.096
626.31	33.388
626.64	32.330
626.97	32.612
627.30	33.704
627.63	32.439
627.96	31.948
628.29	34.047
628.62	34.333
628.95	33.166
629.28	33.498
629.61	32.440
629.94	33.172
630.26	33.202
630.59	33.566
630.92	31.727
631.25	32.441
631.58	33.512
631.91	31.495
632.24	30.626
632.57	32.222
632.90	34.072
633.23	30.216
633.56	32.854
633.89	32.656
634.22	34.158
634.55	31.912
634.88	31.127
635.20	32.625
635.53	32.817
635.86	32.051
636.19	31.886
636.52	30.854
636.85	31.122
637.18	29.111
637.51	30.836
637.83	32.898
638.16	32.000
638.49	31.108
638.82	30.458
639.15	32.713
639.48	31.684
639.81	29.028
640.13	33.380
640.46	31.921
640.79	32.518
641.12	30.769
641.45	29.403
641.77	30.044
642.10	29.198
642.43	31.447
642.76	28.233
643.09	31.150
643.41	31.260
643.74	32.149
644.07	29.935
644.40	30.680
644.73	30.678
645.05	30.192
645.38	26.910
645.71	31.122
646.04	27.609
646.36	29.861
646.69	29.545
647.02	32.240
647.35	30.530
647.67	31.608
648.00	29.891
648.33	29.831
648.66	28.548
648.98	29.037
649.31	31.748
649.64	30.360
649.96	29.858
650.29	28.922
650.62	30.313
650.94	27.586
651.27	30.212
651.60	28.846
651.92	30.645
652.25	30.151
652.58	28.548
652.90	27.441
653.23	29.372
653.56	28.430
653.88	27.816
654.21	30.375
654.54	30.399
654.86	29.106
655.19	29.552
655.52	31.721
655.84	31.410
656.17	38.020
656.49	50.472
656.82	50.902
657.15	38.333
657.47	28.746
657.80	21.385
658.13	22.367
658.45	33.625
658.78	33.465
659.10	32.218
659.43	32.140
659.75	32.078
660.08	31.862
660.41	29.716
660.73	27.410
661.06	27.041
661.38	28.682
661.71	28.074
662.03	28.964
662.36	27.212
662.68	29.032
663.01	30.720
663.33	28.726
663.66	25.942
663.98	30.787
664.31	29.451
664.63	28.153
664.96	31.729
665.28	29.185
665.61	26.566
665.93	25.696
666.26	29.958
666.58	25.910
666.91	31.839
667.23	28.571
667.56	27.816
667.88	28.972
668.21	27.902
668.53	28.276
668.86	28.058
669.18	25.768
669.50	27.650
669.83	25.776
670.15	29.524
670.48	26.437
670.80	29.759
671.13	29.062
671.45	26.484
671.77	29.310
672.10	29.240
672.42	27.863
672.75	25.536
673.07	27.455
673.39	29.478
673.72	29.341
674.04	28.689
674.37	29.268
674.69	24.897
675.01	28.205
675.34	28.228
675.66	29.412
675.98	29.204
676.31	28.733
676.63	28.798
676.95	26.588
677.28	26.147
677.60	29.412
677.92	26.386
678.25	29.067
678.57	29.124
678.89	26.652
679.22	25.052
679.54	26.735
679.86	25.781
680.18	26.154
680.51	26.346
680.83	25.341
681.15	29.077
681.48	27.856
681.80	27.812
682.12	26.875
682.44	24.346
682.77	26.947
683.09	26.562
683.41	23.953
683.73	25.446
684.06	28.097
684.38	28.205
684.70	26.884
685.02	27.479
685.34	26.419
685.67	28.893
685.99	26.512
686.31	28.793
686.63	28.309
686.96	26.531
687.28	26.148
687.60	29.868
687.92	26.265
688.24	27.600
688.56	28.947
688.89	24.722
689.21	24.215
689.53	25.450
689.85	29.213
690.17	25.275
690.49	27.053
690.82	23.866
691.14	26.812
691.46	23.202
691.78	27.253
692.10	26.964
692.42	24.615
692.74	27.609
693.06	26.067
693.39	27.869
693.71	27.333
694.03	29.091
694.35	26.577
694.67	27.000
694.99	29.381
695.31	28.165
695.63	26.829
695.95	24.936
696.27	24.110
696.59	23.118
696.91	24.022
697.23	22.843
697.56	28.297
697.88	28.067
698.20	27.862
698.52	25.935
698.84	24.880
699.16	25.296
699.48	23.951
699.80	28.165
700.12	25.737
700.44	25.634
700.76	25.843
701.08	25.378
701.40	25.449
701.72	24.000
702.04	23.899
702.36	23.780
702.68	25.305
703.00	27.485
703.32	24.791
703.64	25.301
703.96	26.979
704.28	25.904
704.60	23.476
704.91	24.451
705.23	24.051
705.55	27.586
705.87	27.817
706.19	24.908
706.51	23.592
706.83	23.567
707.15	25.915
707.47	23.416
707.79	25.635
708.11	23.136
708.43	29.695
708.74	24.202
709.06	25.401
709.38	25.072
709.70	25.526
710.02	28.037
710.34	25.333
710.66	23.453
710.98	24.458
711.29	26.299
711.61	21.290
711.93	24.194
712.25	19.231
712.57	23.158
712.89	21.245
713.20	25.532
713.52	22.993
713.84	23.226
714.16	26.214
714.48	26.582
714.80	23.323
715.11	24.709
715.43	24.534
715.75	25.466
716.07	26.506
716.39	26.263
716.70	20.144
717.02	22.353
717.34	20.455
717.66	20.690
717.97	19.841
718.29	28.346
718.61	23.605
718.93	23.643
719.24	23.247
719.56	21.723
719.88	20.522
720.20	22.530
720.51	25.391
720.83	25.292
721.15	19.106
721.46	25.573
721.78	26.693
722.10	22.709
722.42	20.161
722.73	27.799
723.05	22.857
723.37	26.891
723.68	22.400
724.00	19.149
724.32	20.921
724.63	23.457
724.95	19.231
725.27	27.004
725.58	27.160
725.90	26.778
726.22	22.464
726.53	22.745
726.85	26.642
727.16	23.333
727.48	23.755
727.80	25.000
728.11	29.098
728.43	23.437
728.74	24.603
729.06	20.400
729.38	25.692
729.69	24.911
730.01	23.048
730.32	25.461
730.64	20.833
730.96	27.972
731.27	22.742
731.59	26.032
731.90	27.508
732.22	21.795
732.53	20.946
732.85	24.497
733.16	27.393
733.48	26.014
733.80	22.635
734.11	24.324
734.43	23.529
734.74	23.724
735.06	21.326
735.37	25.836
735.69	23.948
736.00	20.462
736.32	27.660
736.63	26.207
736.95	23.288
737.26	25.172
737.58	26.042
737.89	23.024
738.21	19.929
738.52	23.194
738.83	26.122
739.15	20.675
739.46	20.233
739.78	21.479
740.09	22.945
740.41	20.000
740.72	20.567
741.04	23.200
741.35	17.544
741.66	25.778
741.98	24.038
742.29	29.703
742.61	22.439
742.92	27.193
743.23	22.642
743.55	26.577
743.86	20.628
744.18	18.627
744.49	21.827
744.80	21.939
745.12	23.364
745.43	18.957
745.74	23.423
746.06	23.832
746.37	22.018
746.68	21.635
747.00	24.880
747.31	23.558
747.62	20.642
747.94	20.524
748.25	22.936
748.56	25.333
748.88	23.005
749.19	28.571
749.50	23.301
749.82	18.310
750.13	18.750
750.44	23.846
750.75	22.878
751.07	23.843
751.38	21.631
751.69	23.166
752.01	22.656
752.32	20.385
752.63	25.373
752.94	23.600
753.26	21.757
753.57	22.083
753.88	24.291
754.19	25.100
754.51	26.316
754.82	19.414
755.13	16.522
755.44	26.423
755.75	20.400
756.07	20.664
756.38	25.540
756.69	23.549
757.00	20.872
757.31	19.417
757.63	24.074
757.94	24.859
758.25	22.751
758.56	29.076
758.87	27.679
759.18	27.445
759.50	23.569
759.81	25.418
760.12	25.538
760.43	21.131
760.74	22.034
761.05	24.862
761.36	21.777
761.67	23.565
761.99	19.931
762.30	23.723
762.61	19.342
762.92	25.641
763.23	21.721
763.54	22.078
763.85	18.776
764.16	19.919
764.47	20.800
764.78	20.357
765.10	20.984
765.41	25.532
765.72	28.882
766.03	28.383
766.34	26.538
766.65	19.665
766.96	28.169
767.27	24.752
767.58	14.045
767.89	24.691
768.20	17.680
768.51	24.623
768.82	25.481
769.13	28.319
769.44	28.870
769.75	19.231
770.06	25.561
770.37	25.000
770.68	22.330
770.99	22.330
771.30	28.571
771.61	24.898
771.92	30.290
772.23	23.423
772.54	16.575
772.85	19.186
773.16	26.455
773.47	18.343
773.78	25.862
774.09	23.125
774.39	22.981
774.70	28.571
775.01	17.931
775.32	19.286
775.63	21.053
775.94	9.023
776.25	16.000
776.56	31.405
776.87	17.460
777.18	22.523
777.48	18.919
777.79	25.984
778.10	25.688
778.41	12.281
778.72	15.966
779.03	9.155
779.34	24.324
779.65	23.239
779.95	23.179
780.26	10.072
780.57	23.741
780.88	23.239
781.19	15.966
781.50	23.490
781.80	16.959
782.11	22.093
782.42	21.384
782.73	26.144
783.04	24.138
783.34	12.214
783.65	16.107
783.96	24.615
784.27	25.000
784.57	21.986
784.88	8.654
785.19	27.273
785.50	22.727
785.81	14.286
786.11	15.966
786.42	11.504
786.73	13.208
787.04	22.936
787.34	14.851
787.65	25.000
787.96	23.140
788.26	24.638
788.57	17.460
788.88	20.325
789.19	10.400
789.49	12.214
789.80	26.515
790.11	11.321
790.41	36.634
790.72	24.468
791.03	11.957
791.33	0.000
791.64	16.049
791.95	33.696
792.25	14.773
792.56	29.487
792.87	23.077
793.17	3.846
793.48	13.095
793.79	6.250
794.09	20.192
794.40	17.708
794.70	18.018
795.01	17.969
795.32	25.217
795.62	6.522
795.93	14.151
796.23	18.182
796.54	15.854
796.85	15.476
797.15	0.000
797.46	24.638
797.76	2.632
798.07	22.727
798.37	7.317
798.68	-9.677
798.99	5.405
799.29	14.458
799.60	23.077
799.90	35.385
800.21	19.697
800.51	8.000
800.82	14.667
801.12	-14.583
801.43	3.333
801.73	1.351
802.04	14.286
802.34	-3.279
802.65	20.896
802.95	0.000
803.26	1.724
803.56	23.077
803.87	20.755
804.17	17.742
804.48	17.647
804.78	9.756
805.09	8.696
805.39	20.588
805.70	-2.128
806.00	0.000
806.30	25.641
806.61	18.421
806.91	16.216
807.22	18.421
807.52	25.000
807.83	-6.780
808.13	-19.697
808.43	15.000
808.74	-17.241
809.04	14.286
809.35	-6.122
809.65	8.333
809.95	10.204
810.26	26.761
810.56	8.333
810.86	6.122
811.17	36.538
811.47	12.766
811.77	16.667
812.08	18.868
812.38	-3.125
812.69	-1.818
812.99	-24.390
813.29	21.622
813.59	-21.622
813.90	16.364
814.20	21.818
814.50	5.000
814.81	27.273
815.11	31.579
815.41	34.884
815.72	-2.500
816.02	-2.857
816.32	13.514
816.62	20.833
816.93	17.778
817.23	22.222
817.53	-27.778
817.84	16.216
818.14	24.390
818.44	-4.000
818.74	10.204
819.04	26.829
819.35	-2.778
819.65	11.364
819.95	-16.667
820.25	-9.091
820.56	-9.524
820.86	-8.333
821.16	-2.273
821.46	8.696
821.76	22.414
822.07	17.391
822.37	9.091
822.67	39.024
822.97	5.405
823.27	-14.286
823.57	-3.448
823.88	-29.412
824.18	25.000
824.48	0.000
824.78	4.762
825.08	39.286
825.38	7.407
825.69	-12.903
825.99	31.707
826.29	-11.111
826.59	9.375
826.89	16.129
827.19	-69.565
827.49	-13.889
827.79	-17.391
828.09	-6.452
828.39	10.417
828.70	-3.125
829.00	3.448
829.30	16.216
829.60	-25.000
829.90	-14.815
830.20	-6.250
830.50	0.000
830.80	-147.059
831.10	-18.182
831.40	-23.529
831.70	26.923
832.00	-9.091
832.30	20.588
832.60	13.514
832.90	500.000
833.20	-10.714
833.50	-20.000
833.80	13.158
834.10	-37.500
834.40	-40.909
834.70	-100.000
835.00	-80.000
835.30	0.000
835.60	-14.286
835.90	-9.524
836.20	-32.000
836.50	-33.333
836.80	-36.842
837.10	10.811
837.40	53.333
837.70	-13.043
838.00	58.333
838.30	31.579
838.60	-100.000
838.90	-150.000
839.19	-25.000
839.49	-7.692
839.79	31.579
840.09	-116.667
840.39	-80.000
840.69	-31.818
840.99	-4.762
841.29	-20.833
841.59	-92.308
841.88	-40.000
842.18	-28.571
842.48	50.000
842.78	-128.571
843.08	-64.286
843.38	-137.500
843.68	-93.750
843.97	0.000
844.27	-111.111
844.57	-18.182
844.87	-106.667
845.17	4.545
845.47	766.667
845.76	-60.000
846.06	-58.333
846.36	-850.000
846.66	-26.316
846.96	0.000
847.25	-38.889
847.55	-100.000
847.85	-28.571
848.15	7.692
848.44	-316.667
848.74	-66.667
849.04	-23.077
849.34	-425.000
849.63	-90.909
849.93	-64.286
850.23	20.000
850.53	-125.000
850.82	-11.111
851.12	0.000
851.42	-64.706
851.71	-112.500
852.01	52.941
852.31	-38.462
852.61	400.000
852.90	-17.647
853.20	-53.333
853.50	-31.250
853.79	-85.714
854.09	-175.000
854.39	-40.000
854.68	-17.500
854.98	9.524
855.28	20.000
855.57	-25.000
855.87	-33.333
856.17	-36.000
856.46	0.000
856.76	10.000
857.05	0.000
857.35	-100.000
857.65	0.000
857.94	-33.333
858.24	-83.333
858.53	0.000
858.83	-9.091
859.13	-12.000
859.42	-7.143
859.72	-112.500
860.01	12.500
860.31	-237.500
860.60	-25.000
860.90	-150.000
861.20	-133.333
861.49	0.000
861.79	-118.750
862.08	425.000
862.38	-200.000
862.67	242.857
862.97	300.000
863.26	-9.091
863.56	0.000
863.85	47.368
864.15	11.765
864.44	-120.000
864.74	-140.000
865.03	-33.333
865.33	-14.286
865.62	142.857
865.92	-21.053
866.21	-22.222
866.51	-72.727
866.80	-100.000
867.10	-262.500
867.39	0.000
867.69	-106.667
867.98	-150.000
868.27	-17.647
868.57	0.000
868.86	650.000
869.16	-50.000
869.45	-171.429
869.75	500.000
870.04	-40.000
870.33	-500.000
870.63	-10.526
870.92	-50.000
871.22	-1100.000
871.51	-57.143
871.80	-133.333
872.10	-150.000
>>>>>End Processed Spectral Data<<<<<
