SpectraSuite Data File
++++++++++++++++++++++++++++++++++++
Date: Wed May 13 21:36:40 PDT 2015
User: schluterlab
Dark Spectrum Present: Yes
Reference Spectrum Present: Yes
Number of Sampled Component Spectra: 1
Spectrometers: USB2E3373
Integration Time (usec): 3000 (USB2E3373)
Spectra Averaged: 3 (USB2E3373)
Boxcar Smoothing: 0 (USB2E3373)
Correct for Electrical Dark: No (USB2E3373)
Strobe/Lamp Enabled: No (USB2E3373)
Correct for Detector Non-linearity: No (USB2E3373)
Correct for Stray Light: No (USB2E3373)
Number of Pixels in Processed Spectrum: 2048
>>>>>Begin Processed Spectral Data<<<<<
178.53	0.000
178.91	600.000
179.29	208.333
179.67	-1300.000
180.04	-833.333
180.42	120.000
180.80	1900.000
181.18	433.333
181.56	-500.000
181.94	-350.000
182.31	-36.364
182.69	161.538
183.07	-320.000
183.45	500.000
183.83	244.444
184.20	200.000
184.58	-233.333
184.96	633.333
185.34	314.286
185.72	0.000
186.09	-1200.000
186.47	-340.000
186.85	280.000
187.23	-600.000
187.61	200.000
187.98	1900.000
188.36	-62.500
188.74	0.000
189.12	-63.636
189.49	-30.000
189.87	116.667
190.25	400.000
190.63	300.000
191.00	-260.000
191.38	180.000
191.76	550.000
192.14	241.667
192.51	-57.895
192.89	366.667
193.27	300.000
193.65	-220.000
194.02	163.636
194.40	160.000
194.78	-600.000
195.15	340.000
195.53	-380.000
195.91	25.000
196.29	-400.000
196.66	0.000
197.04	300.000
197.42	-240.000
197.79	-40.000
198.17	-275.000
198.55	-533.333
198.92	300.000
199.30	-533.333
199.68	-70.000
200.05	150.000
200.43	216.667
200.81	-900.000
201.18	-420.000
201.56	-250.000
201.94	725.000
202.31	13.043
202.69	-142.857
203.07	-466.667
203.44	-280.000
203.82	-700.000
204.19	-130.000
204.57	0.000
204.95	-216.667
205.32	0.000
205.70	-700.000
206.08	-275.000
206.45	-183.333
206.83	425.000
207.20	-533.333
207.58	-20.000
207.96	-1500.000
208.33	-185.714
208.71	-2400.000
209.08	300.000
209.46	600.000
209.84	0.000
210.21	210.000
210.59	2900.000
210.96	300.000
211.34	1300.000
211.71	-1300.000
212.09	-333.333
212.46	-160.000
212.84	-33.333
213.22	-125.000
213.59	-800.000
213.97	-500.000
214.34	-800.000
214.72	7.692
215.09	225.000
215.47	211.111
215.84	300.000
216.22	-125.000
216.59	-700.000
216.97	466.667
217.34	177.778
217.72	0.000
218.09	433.333
218.47	-400.000
218.84	-142.857
219.22	-200.000
219.59	-433.333
219.97	-200.000
220.34	-112.500
220.72	-120.000
221.09	0.000
221.47	-166.667
221.84	100.000
222.22	0.000
222.59	1100.000
222.97	-100.000
223.34	-50.000
223.72	-1800.000
224.09	-950.000
224.46	-109.091
224.84	-25.000
225.21	-85.714
225.59	-575.000
225.96	-100.000
226.34	-50.000
226.71	-271.429
227.08	400.000
227.46	-62.500
227.83	-1300.000
228.21	-43.750
228.58	-325.000
228.95	-11.765
229.33	0.000
229.70	-25.000
230.08	-76.923
230.45	-237.500
230.82	-133.333
231.20	171.429
231.57	-275.000
231.95	1600.000
232.32	0.000
232.69	-5.882
233.07	-2000.000
233.44	-13.043
233.81	-600.000
234.19	-16.667
234.56	-60.000
234.93	-40.000
235.31	5.263
235.68	-84.615
236.05	-69.231
236.43	-33.333
236.80	-21.212
237.17	-60.000
237.55	-58.824
237.92	0.000
238.29	14.815
238.67	11.111
239.04	3.226
239.41	-4.255
239.79	27.660
240.16	48.837
240.53	33.929
240.91	41.071
241.28	33.929
241.65	35.484
242.02	40.789
242.40	44.928
242.77	30.435
243.14	37.179
243.51	44.681
243.89	45.192
244.26	41.509
244.63	26.923
245.00	43.750
245.38	40.336
245.75	50.000
246.12	36.090
246.49	31.707
246.87	41.176
247.24	43.243
247.61	49.007
247.98	45.513
248.36	42.012
248.73	44.382
249.10	39.899
249.47	44.624
249.84	48.421
250.22	49.751
250.59	45.794
250.96	49.091
251.33	43.062
251.70	46.444
252.08	42.678
252.45	51.852
252.82	43.726
253.19	43.191
253.56	44.964
253.94	49.110
254.31	42.606
254.68	44.631
255.05	45.545
255.42	45.105
255.79	46.626
256.16	44.479
256.54	46.667
256.91	43.987
257.28	49.371
257.65	46.178
258.02	50.440
258.39	47.661
258.76	46.802
259.14	51.136
259.51	45.787
259.88	48.238
260.25	48.611
260.62	46.629
260.99	47.215
261.36	48.187
261.73	43.951
262.10	48.092
262.47	44.938
262.85	47.264
263.22	47.179
263.59	45.195
263.96	44.769
264.33	43.510
264.70	46.279
265.07	46.528
265.44	47.356
265.81	48.055
266.18	46.925
266.55	44.541
266.92	46.398
267.29	47.325
267.66	50.531
268.03	47.942
268.40	42.161
268.77	47.521
269.14	47.755
269.51	48.871
269.88	44.807
270.25	50.000
270.62	47.541
270.99	47.441
271.36	48.611
271.73	46.787
272.10	48.571
272.47	47.025
272.84	47.835
273.21	49.511
273.58	46.721
273.95	44.528
274.32	44.590
274.69	47.177
275.06	46.290
275.43	45.951
275.80	45.035
276.17	46.593
276.54	45.826
276.91	46.690
277.28	46.570
277.65	45.629
278.02	44.286
278.39	47.425
278.76	46.488
279.13	44.940
279.50	46.034
279.87	44.928
280.23	48.468
280.60	46.367
280.97	43.831
281.34	45.584
281.71	42.276
282.08	45.641
282.45	45.574
282.82	45.527
283.19	45.427
283.56	42.500
283.92	45.566
284.29	43.370
284.66	44.811
285.03	45.277
285.40	41.541
285.77	45.195
286.14	43.465
286.51	45.727
286.87	42.462
287.24	42.330
287.61	44.428
287.98	44.118
288.35	43.368
288.72	43.185
289.08	43.305
289.45	41.703
289.82	42.814
290.19	41.374
290.56	41.335
290.93	39.917
291.29	41.313
291.66	39.071
292.03	40.736
292.40	39.435
292.77	39.224
293.13	40.586
293.50	39.869
293.87	40.000
294.24	39.947
294.60	37.971
294.97	39.683
295.34	35.092
295.71	39.422
296.08	37.696
296.44	37.372
296.81	35.445
297.18	37.750
297.55	35.495
297.91	39.006
298.28	36.320
298.65	35.714
299.02	37.241
299.38	35.460
299.75	36.659
300.12	35.000
300.48	34.620
300.85	35.797
301.22	34.262
301.59	34.977
301.95	33.333
302.32	33.606
302.69	34.124
303.05	34.219
303.42	33.977
303.79	33.018
304.15	32.968
304.52	35.269
304.89	33.666
305.25	35.236
305.62	34.816
305.99	32.644
306.35	33.856
306.72	33.672
307.09	32.430
307.45	34.398
307.82	34.316
308.19	32.602
308.55	32.242
308.92	32.711
309.29	33.534
309.65	32.867
310.02	31.511
310.38	32.927
310.75	32.742
311.12	31.098
311.48	32.344
311.85	32.382
312.22	32.689
312.58	32.560
312.95	31.343
313.31	32.691
313.68	32.634
314.05	32.420
314.41	33.237
314.78	33.966
315.14	32.222
315.51	32.921
315.87	32.252
316.24	32.599
316.61	32.785
316.97	32.407
317.34	31.373
317.70	31.936
318.07	33.185
318.43	31.798
318.80	31.501
319.16	32.449
319.53	32.348
319.89	30.714
320.26	31.423
320.62	30.120
320.99	32.849
321.35	30.776
321.72	30.991
322.08	31.827
322.45	32.285
322.81	30.684
323.18	31.485
323.54	30.325
323.91	30.443
324.27	30.603
324.64	30.575
325.00	30.709
325.37	30.887
325.73	29.714
326.10	29.352
326.46	30.686
326.83	30.259
327.19	30.894
327.56	31.023
327.92	30.813
328.29	31.970
328.65	30.500
329.01	31.574
329.38	31.130
329.74	30.644
330.11	31.199
330.47	30.556
330.84	29.603
331.20	29.206
331.56	30.525
331.93	30.749
332.29	31.190
332.66	30.085
333.02	29.279
333.38	29.474
333.75	30.205
334.11	30.295
334.48	30.166
334.84	30.300
335.20	30.017
335.57	29.330
335.93	29.381
336.29	29.597
336.66	28.803
337.02	30.087
337.38	30.809
337.75	29.630
338.11	30.999
338.47	27.568
338.84	29.811
339.20	27.778
339.56	29.522
339.93	28.954
340.29	28.864
340.65	28.144
341.02	28.120
341.38	29.730
341.74	28.571
342.11	28.571
342.47	28.787
342.83	27.533
343.20	29.188
343.56	28.291
343.92	28.595
344.28	27.922
344.65	29.061
345.01	26.957
345.37	28.536
345.73	28.758
346.10	28.491
346.46	28.618
346.82	28.010
347.19	27.690
347.55	29.079
347.91	29.228
348.27	28.391
348.63	27.965
349.00	28.302
349.36	28.571
349.72	29.466
350.08	28.393
350.45	29.209
350.81	26.369
351.17	28.406
351.53	27.808
351.89	28.515
352.26	26.873
352.62	28.140
352.98	27.796
353.34	27.375
353.70	28.738
354.07	28.000
354.43	26.983
354.79	28.365
355.15	27.950
355.51	26.803
355.87	28.303
356.24	26.966
356.60	26.583
356.96	27.859
357.32	27.786
357.68	28.495
358.04	27.386
358.40	27.132
358.77	27.599
359.13	28.249
359.49	27.631
359.85	27.066
360.21	28.296
360.57	27.605
360.93	27.390
361.29	27.831
361.66	27.790
362.02	26.983
362.38	27.622
362.74	27.701
363.10	27.766
363.46	26.945
363.82	27.790
364.18	26.541
364.54	28.082
364.90	27.108
365.26	26.115
365.62	26.776
365.98	27.189
366.35	27.660
366.71	25.892
367.07	27.144
367.43	27.317
367.79	28.353
368.15	27.567
368.51	26.231
368.87	27.565
369.23	26.904
369.59	27.132
369.95	25.689
370.31	25.872
370.67	26.430
371.03	27.246
371.39	26.686
371.75	27.500
372.11	27.493
372.47	26.172
372.83	26.491
373.19	26.043
373.55	27.095
373.91	26.803
374.27	27.317
374.63	27.738
374.99	25.905
375.35	26.986
375.71	26.563
376.07	26.525
376.42	26.604
376.78	26.816
377.14	26.847
377.50	27.314
377.86	27.224
378.22	26.612
378.58	26.419
378.94	26.437
379.30	27.171
379.66	27.189
380.02	25.735
380.38	26.627
380.74	26.599
381.09	26.297
381.45	26.723
381.81	27.603
382.17	27.410
382.53	25.785
382.89	25.633
383.25	26.605
383.61	27.482
383.97	26.562
384.32	26.843
384.68	26.897
385.04	25.657
385.40	26.650
385.76	25.973
386.12	27.050
386.48	26.458
386.83	26.909
387.19	26.589
387.55	25.996
387.91	26.445
388.27	25.709
388.62	26.717
388.98	27.034
389.34	26.190
389.70	26.679
390.06	25.625
390.42	27.320
390.77	25.753
391.13	26.894
391.49	26.123
391.85	26.518
392.20	26.441
392.56	25.968
392.92	26.039
393.28	26.148
393.64	25.872
393.99	25.153
394.35	26.481
394.71	26.218
395.07	25.094
395.42	26.143
395.78	25.804
396.14	26.633
396.50	25.999
396.85	27.215
397.21	26.092
397.57	25.963
397.92	25.569
398.28	26.283
398.64	26.715
399.00	26.060
399.35	25.823
399.71	25.976
400.07	26.024
400.42	24.639
400.78	25.498
401.14	26.793
401.49	26.064
401.85	26.351
402.21	26.068
402.57	26.426
402.92	26.596
403.28	26.141
403.63	25.480
403.99	25.272
404.35	26.185
404.70	26.344
405.06	26.424
405.42	26.131
405.77	25.058
406.13	25.029
406.49	25.464
406.84	25.946
407.20	25.281
407.55	25.584
407.91	25.480
408.27	25.452
408.62	26.335
408.98	25.647
409.34	24.629
409.69	26.706
410.05	25.560
410.40	25.441
410.76	25.872
411.11	26.679
411.47	26.145
411.83	25.515
412.18	25.567
412.54	26.629
412.89	25.141
413.25	24.897
413.60	25.893
413.96	25.406
414.31	25.709
414.67	26.095
415.03	25.710
415.38	25.694
415.74	24.496
416.09	25.843
416.45	26.452
416.80	26.309
417.16	26.383
417.51	25.988
417.87	25.992
418.22	25.856
418.58	24.704
418.93	25.235
419.29	25.677
419.64	25.000
420.00	24.889
420.35	25.583
420.71	25.838
421.06	26.691
421.42	26.642
421.77	26.647
422.12	25.845
422.48	25.845
422.83	25.576
423.19	25.762
423.54	25.677
423.90	25.416
424.25	26.343
424.61	25.570
424.96	26.138
425.31	25.911
425.67	25.808
426.02	26.973
426.38	25.435
426.73	26.634
427.09	25.516
427.44	25.895
427.79	25.891
428.15	25.199
428.50	25.680
428.85	26.199
429.21	25.267
429.56	25.877
429.92	25.299
430.27	25.460
430.62	26.023
430.98	26.388
431.33	26.169
431.68	27.157
432.04	26.366
432.39	25.924
432.74	25.015
433.10	26.031
433.45	25.740
433.80	26.839
434.16	25.341
434.51	26.196
434.86	26.325
435.22	27.221
435.57	26.290
435.92	25.694
436.28	26.006
436.63	26.443
436.98	26.851
437.34	26.252
437.69	25.797
438.04	25.920
438.39	26.961
438.75	26.579
439.10	27.241
439.45	25.666
439.81	26.909
440.16	26.319
440.51	25.922
440.86	26.378
441.22	27.252
441.57	25.868
441.92	25.505
442.27	26.190
442.63	26.319
442.98	26.273
443.33	26.185
443.68	25.303
444.03	26.428
444.39	26.029
444.74	25.897
445.09	26.267
445.44	25.690
445.79	26.639
446.15	27.232
446.50	25.826
446.85	26.670
447.20	26.817
447.55	26.581
447.91	26.236
448.26	25.958
448.61	26.122
448.96	26.082
449.31	26.271
449.66	26.374
450.02	27.061
450.37	26.204
450.72	26.349
451.07	26.708
451.42	25.452
451.77	26.598
452.12	26.738
452.47	27.502
452.83	25.649
453.18	26.034
453.53	26.860
453.88	26.566
454.23	26.514
454.58	26.103
454.93	25.722
455.28	26.718
455.63	25.639
455.98	26.293
456.34	25.493
456.69	26.518
457.04	26.378
457.39	25.135
457.74	26.332
458.09	26.718
458.44	27.380
458.79	26.194
459.14	25.562
459.49	26.220
459.84	26.945
460.19	25.630
460.54	26.764
460.89	25.619
461.24	26.572
461.59	26.208
461.94	25.790
462.29	26.103
462.64	26.451
462.99	25.889
463.34	27.762
463.69	27.320
464.04	25.150
464.39	26.236
464.74	25.676
465.09	25.604
465.44	26.599
465.79	25.992
466.14	25.770
466.49	26.334
466.84	26.061
467.19	26.433
467.54	26.183
467.89	26.461
468.24	26.060
468.59	26.386
468.94	26.373
469.29	26.702
469.64	25.523
469.99	27.448
470.34	25.556
470.68	25.725
471.03	26.587
471.38	25.382
471.73	26.680
472.08	26.186
472.43	26.979
472.78	27.721
473.13	25.330
473.48	26.223
473.83	25.549
474.17	26.693
474.52	26.731
474.87	26.417
475.22	26.389
475.57	26.046
475.92	26.990
476.27	26.515
476.61	26.840
476.96	26.842
477.31	26.052
477.66	25.876
478.01	26.044
478.36	27.248
478.70	26.638
479.05	26.637
479.40	26.469
479.75	26.727
480.10	26.670
480.45	26.729
480.79	27.377
481.14	26.798
481.49	27.134
481.84	25.872
482.19	26.494
482.53	26.476
482.88	26.750
483.23	26.275
483.58	26.560
483.92	26.702
484.27	25.663
484.62	25.477
484.97	26.586
485.31	26.044
485.66	24.881
486.01	25.658
486.36	26.259
486.70	26.139
487.05	26.183
487.40	25.959
487.75	26.615
488.09	25.586
488.44	26.569
488.79	26.646
489.13	26.282
489.48	25.652
489.83	26.485
490.17	26.373
490.52	27.443
490.87	26.611
491.22	26.519
491.56	27.024
491.91	26.644
492.26	26.354
492.60	26.599
492.95	26.822
493.30	26.163
493.64	25.516
493.99	26.763
494.34	25.819
494.68	26.539
495.03	27.174
495.37	26.618
495.72	26.416
496.07	27.716
496.41	27.000
496.76	26.463
497.11	26.526
497.45	27.140
497.80	26.754
498.14	27.103
498.49	26.374
498.84	26.417
499.18	27.028
499.53	26.194
499.87	26.152
500.22	27.377
500.56	27.182
500.91	26.509
501.26	26.650
501.60	26.618
501.95	27.312
502.29	26.359
502.64	27.435
502.98	26.686
503.33	27.056
503.67	27.410
504.02	27.108
504.36	27.291
504.71	26.931
505.06	26.643
505.40	27.320
505.75	27.467
506.09	26.162
506.44	26.714
506.78	25.597
507.13	27.911
507.47	27.147
507.82	27.263
508.16	26.121
508.51	26.498
508.85	27.009
509.19	26.614
509.54	26.702
509.88	26.559
510.23	27.105
510.57	27.383
510.92	28.718
511.26	27.668
511.61	26.729
511.95	26.185
512.30	27.596
512.64	27.696
512.98	26.371
513.33	27.099
513.67	27.030
514.02	27.480
514.36	27.809
514.70	27.136
515.05	27.677
515.39	27.417
515.74	27.294
516.08	26.608
516.42	27.131
516.77	27.006
517.11	27.219
517.46	27.551
517.80	27.966
518.14	27.495
518.49	27.908
518.83	27.446
519.17	27.410
519.52	26.417
519.86	26.897
520.20	26.683
520.55	27.488
520.89	28.273
521.23	28.974
521.58	27.244
521.92	26.838
522.26	27.131
522.61	27.085
522.95	27.396
523.29	27.492
523.64	28.735
523.98	28.081
524.32	26.969
524.66	26.753
525.01	27.982
525.35	29.164
525.69	27.966
526.04	28.274
526.38	28.298
526.72	27.482
527.06	26.886
527.41	27.201
527.75	28.171
528.09	28.455
528.43	28.223
528.78	27.649
529.12	27.943
529.46	27.191
529.80	27.314
530.15	27.091
530.49	27.695
530.83	27.962
531.17	28.425
531.51	26.365
531.86	27.236
532.20	27.223
532.54	27.034
532.88	27.706
533.22	28.081
533.57	28.013
533.91	27.419
534.25	28.255
534.59	26.834
534.93	27.551
535.27	27.580
535.62	27.434
535.96	27.586
536.30	27.926
536.64	26.794
536.98	25.368
537.32	27.260
537.66	28.420
538.01	27.462
538.35	27.279
538.69	27.759
539.03	27.047
539.37	26.761
539.71	27.285
540.05	26.721
540.39	27.116
540.73	28.142
541.07	27.551
541.42	27.609
541.76	27.470
542.10	27.962
542.44	26.888
542.78	26.579
543.12	27.561
543.46	27.367
543.80	27.088
544.14	27.529
544.48	26.941
544.82	28.379
545.16	27.045
545.50	27.414
545.84	26.928
546.18	26.578
546.52	28.088
546.86	27.279
547.20	27.091
547.54	26.948
547.88	28.475
548.22	27.231
548.56	28.152
548.90	26.387
549.24	27.986
549.58	27.117
549.92	27.219
550.26	28.930
550.60	27.252
550.94	27.537
551.28	27.025
551.62	27.444
551.96	28.404
552.30	25.983
552.64	27.613
552.98	27.557
553.32	26.676
553.66	27.733
554.00	26.854
554.34	26.300
554.68	28.561
555.02	27.769
555.36	28.215
555.69	25.856
556.03	27.520
556.37	26.743
556.71	27.120
557.05	27.675
557.39	27.054
557.73	26.626
558.07	28.109
558.41	28.842
558.75	28.099
559.08	26.784
559.42	28.796
559.76	27.370
560.10	27.902
560.44	27.634
560.78	27.266
561.12	28.101
561.45	27.143
561.79	27.579
562.13	27.567
562.47	27.929
562.81	27.417
563.15	26.983
563.48	26.910
563.82	27.839
564.16	26.879
564.50	27.069
564.84	27.027
565.17	27.748
565.51	26.671
565.85	26.716
566.19	27.881
566.52	27.720
566.86	27.560
567.20	27.062
567.54	26.310
567.88	25.700
568.21	26.344
568.55	27.021
568.89	26.321
569.23	26.123
569.56	26.700
569.90	26.227
570.24	25.740
570.57	25.623
570.91	25.566
571.25	25.732
571.59	25.887
571.92	26.019
572.26	26.017
572.60	25.531
572.93	26.304
573.27	25.357
573.61	26.461
573.95	26.177
574.28	25.574
574.62	25.451
574.96	25.960
575.29	25.652
575.63	25.237
575.97	26.250
576.30	26.129
576.64	25.675
576.98	25.858
577.31	25.336
577.65	25.514
577.98	25.574
578.32	25.215
578.66	25.954
578.99	25.540
579.33	25.912
579.67	25.687
580.00	25.267
580.34	25.424
580.67	25.649
581.01	25.303
581.35	25.256
581.68	25.629
582.02	25.568
582.35	26.479
582.69	25.604
583.02	25.543
583.36	25.607
583.70	25.712
584.03	25.775
584.37	24.945
584.70	25.486
585.04	26.061
585.37	25.784
585.71	25.036
586.04	25.840
586.38	25.862
586.72	25.541
587.05	25.691
587.39	25.224
587.72	25.612
588.06	25.910
588.39	25.385
588.73	25.933
589.06	25.897
589.40	24.733
589.73	25.584
590.07	25.191
590.40	25.824
590.73	26.256
591.07	26.076
591.40	25.174
591.74	26.234
592.07	25.924
592.41	26.083
592.74	26.235
593.08	25.880
593.41	25.819
593.75	24.839
594.08	25.285
594.41	25.558
594.75	26.049
595.08	25.915
595.42	25.054
595.75	25.452
596.09	25.905
596.42	25.654
596.75	25.450
597.09	25.660
597.42	26.469
597.75	25.511
598.09	26.002
598.42	26.443
598.76	25.819
599.09	26.050
599.42	25.302
599.76	25.047
600.09	25.904
600.42	25.047
600.76	25.277
601.09	26.365
601.42	25.676
601.76	25.560
602.09	25.942
602.42	26.455
602.76	25.839
603.09	26.407
603.42	26.669
603.76	25.136
604.09	25.929
604.42	25.324
604.76	25.709
605.09	26.552
605.42	26.271
605.75	24.839
606.09	24.917
606.42	26.392
606.75	25.195
607.09	25.532
607.42	25.569
607.75	24.902
608.08	26.014
608.42	25.820
608.75	26.230
609.08	27.046
609.41	26.379
609.75	24.912
610.08	25.542
610.41	26.482
610.74	25.602
611.07	26.102
611.41	26.510
611.74	25.932
612.07	25.326
612.40	26.324
612.73	25.521
613.07	25.333
613.40	25.000
613.73	25.731
614.06	25.981
614.39	26.181
614.72	26.319
615.06	25.056
615.39	26.214
615.72	25.108
616.05	26.014
616.38	25.200
616.71	25.075
617.05	27.088
617.38	25.693
617.71	25.919
618.04	25.350
618.37	25.615
618.70	26.003
619.03	24.742
619.36	25.338
619.69	25.731
620.03	25.442
620.36	25.052
620.69	25.981
621.02	25.615
621.35	25.184
621.68	26.895
622.01	25.647
622.34	26.011
622.67	25.685
623.00	26.748
623.33	25.729
623.66	25.799
623.99	26.032
624.32	26.192
624.65	26.335
624.99	25.569
625.32	24.421
625.65	25.814
625.98	27.093
626.31	26.776
626.64	25.107
626.97	25.779
627.30	26.176
627.63	26.644
627.96	26.061
628.29	26.605
628.62	26.886
628.95	26.954
629.28	25.320
629.61	26.794
629.94	25.048
630.26	26.897
630.59	26.773
630.92	25.602
631.25	25.129
631.58	26.981
631.91	25.027
632.24	24.698
632.57	25.222
632.90	25.321
633.23	24.940
633.56	26.139
633.89	27.871
634.22	28.386
634.55	25.213
634.88	25.245
635.20	28.000
635.53	25.581
635.86	25.769
636.19	27.295
636.52	25.732
636.85	26.900
637.18	25.213
637.51	25.968
637.83	27.285
638.16	26.000
638.49	26.302
638.82	26.013
639.15	27.394
639.48	27.273
639.81	25.000
640.13	26.197
640.46	26.695
640.79	26.187
641.12	27.663
641.45	26.055
641.77	26.215
642.10	27.837
642.43	27.987
642.76	25.552
643.09	26.198
643.41	27.113
643.74	27.464
644.07	24.757
644.40	26.700
644.73	25.593
645.05	23.211
645.38	27.575
645.71	26.871
646.04	25.421
646.36	26.042
646.69	25.350
647.02	26.230
647.35	26.143
647.67	26.248
648.00	24.457
648.33	25.593
648.66	26.043
648.98	25.932
649.31	25.613
649.64	24.413
649.96	26.066
650.29	24.837
650.62	24.217
650.94	26.724
651.27	25.265
651.60	26.573
651.92	25.090
652.25	27.806
652.58	26.403
652.90	23.737
653.23	24.278
653.56	24.132
653.88	24.403
654.21	24.915
654.54	26.744
654.86	23.740
655.19	23.249
655.52	26.692
655.84	25.334
656.17	30.684
656.49	40.364
656.82	39.574
657.15	29.341
657.47	21.555
657.80	15.966
658.13	16.904
658.45	24.183
658.78	23.507
659.10	22.944
659.43	22.362
659.75	23.521
660.08	23.655
660.41	23.732
660.73	24.105
661.06	24.490
661.38	23.450
661.71	24.385
662.03	25.370
662.36	24.115
662.68	25.806
663.01	25.424
663.33	25.054
663.66	26.608
663.98	25.843
664.31	24.396
664.63	20.045
664.96	27.133
665.28	27.897
665.61	25.702
665.93	26.124
666.26	25.949
666.58	25.268
666.91	28.475
667.23	24.654
667.56	26.897
667.88	24.533
668.21	23.438
668.53	25.517
668.86	24.221
669.18	26.478
669.50	26.728
669.83	24.821
670.15	25.000
670.48	23.218
670.80	28.665
671.13	24.027
671.45	28.082
671.77	25.216
672.10	25.341
672.42	24.427
672.75	24.107
673.07	23.273
673.39	26.866
673.72	26.547
674.04	24.180
674.37	25.407
674.69	24.280
675.01	26.282
675.34	26.477
675.66	24.401
675.98	24.779
676.31	22.851
676.63	26.304
676.95	26.588
677.28	23.624
677.60	25.980
677.92	26.164
678.25	27.766
678.57	28.513
678.89	26.652
679.22	21.946
679.54	25.306
679.86	25.586
680.18	25.192
680.51	23.269
680.83	25.926
681.15	27.505
681.48	24.048
681.80	24.335
682.12	21.667
682.44	25.352
682.77	23.789
683.09	22.321
683.41	19.767
683.73	22.098
684.06	24.558
684.38	25.000
684.70	23.014
685.02	25.000
685.34	24.070
685.67	23.827
685.99	24.911
686.31	23.448
686.63	23.529
686.96	25.046
687.28	21.357
687.60	25.331
687.92	23.930
688.24	22.200
688.56	26.316
688.89	24.276
689.21	24.439
689.53	23.198
689.85	24.494
690.17	26.374
690.49	24.879
690.82	23.389
691.14	25.845
691.46	22.042
691.78	25.714
692.10	24.628
692.42	23.077
692.74	25.652
693.06	24.719
693.39	25.527
693.71	24.000
694.03	28.864
694.35	25.225
694.67	26.000
694.99	25.258
695.31	22.481
695.63	26.585
695.95	22.137
696.27	20.822
696.59	22.043
696.91	21.788
697.23	22.589
697.56	22.062
697.88	25.780
698.20	23.110
698.52	24.533
698.84	22.967
699.16	25.532
699.48	23.457
699.80	25.581
700.12	25.469
700.44	20.000
700.76	20.225
701.08	22.054
701.40	26.347
701.72	21.846
702.04	19.182
702.36	25.305
702.68	19.817
703.00	24.854
703.32	22.284
703.64	22.892
703.96	25.513
704.28	21.988
704.60	22.866
704.91	22.257
705.23	22.785
705.55	22.069
705.87	20.775
706.19	19.048
706.51	18.310
706.83	22.930
707.15	23.171
707.47	26.722
707.79	20.812
708.11	23.136
708.43	26.396
708.74	23.404
709.06	23.797
709.38	25.648
709.70	25.225
710.02	24.299
710.34	22.667
710.66	23.453
710.98	21.053
711.29	23.701
711.61	21.935
711.93	22.258
712.25	21.678
712.57	16.491
712.89	19.780
713.20	25.887
713.52	24.088
713.84	24.839
714.16	22.006
714.48	23.101
714.80	23.962
715.11	26.163
715.43	20.807
715.75	25.155
716.07	22.289
716.39	21.886
716.70	26.259
717.02	17.647
717.34	20.076
717.66	19.828
717.97	16.667
718.29	22.047
718.61	17.597
718.93	25.194
719.24	20.664
719.56	19.850
719.88	20.896
720.20	26.877
720.51	21.875
720.83	25.681
721.15	17.886
721.46	21.756
721.78	21.514
722.10	21.116
722.42	20.565
722.73	20.463
723.05	20.408
723.37	23.109
723.68	23.200
724.00	16.170
724.32	18.410
724.63	22.634
724.95	17.094
725.27	24.895
725.58	22.634
725.90	20.502
726.22	24.638
726.53	22.745
726.85	28.467
727.16	23.333
727.48	22.605
727.80	20.313
728.11	20.492
728.43	21.094
728.74	21.032
729.06	17.200
729.38	24.111
729.69	21.708
730.01	19.703
730.32	25.830
730.64	15.909
730.96	25.874
731.27	19.398
731.59	26.667
731.90	24.919
732.22	20.833
732.53	20.608
732.85	19.128
733.16	21.122
733.48	16.554
733.80	20.270
734.11	25.000
734.43	20.124
734.74	25.826
735.06	22.478
735.37	22.796
735.69	22.006
736.00	17.492
736.32	22.340
736.63	21.379
736.95	23.288
737.26	19.310
737.58	20.833
737.89	18.213
738.21	17.794
738.52	21.673
738.83	22.041
739.15	23.207
739.46	18.288
739.78	20.775
740.09	19.178
740.41	19.286
740.72	16.667
741.04	18.400
741.35	13.158
741.66	20.444
741.98	27.885
742.29	28.218
742.61	19.024
742.92	26.754
743.23	23.585
743.55	19.369
743.86	16.143
744.18	17.647
744.49	17.259
744.80	20.408
745.12	19.626
745.43	18.483
745.74	19.820
746.06	19.626
746.37	17.890
746.68	23.077
747.00	25.837
747.31	18.750
747.62	22.477
747.94	20.087
748.25	26.147
748.56	20.000
748.88	24.413
749.19	25.714
749.50	14.563
749.82	15.962
750.13	18.750
750.44	22.308
750.75	21.402
751.07	23.132
751.38	23.050
751.69	26.255
752.01	23.828
752.32	20.385
752.63	20.896
752.94	18.400
753.26	20.084
753.57	20.417
753.88	21.862
754.19	17.928
754.51	16.541
754.82	14.286
755.13	14.348
755.44	19.106
755.75	18.400
756.07	20.664
756.38	22.302
756.69	21.843
757.00	21.184
757.31	21.359
757.63	18.210
757.94	22.599
758.25	22.222
758.56	21.739
758.87	23.512
759.18	21.767
759.50	16.498
759.81	19.398
760.12	22.154
760.43	20.536
760.74	18.362
761.05	20.718
761.36	19.771
761.67	25.378
761.99	18.557
762.30	17.883
762.61	22.222
762.92	23.077
763.23	23.361
763.54	20.779
763.85	20.408
764.16	19.512
764.47	20.400
764.78	18.214
765.10	23.607
765.41	20.973
765.72	22.050
766.03	16.502
766.34	20.769
766.65	17.573
766.96	16.432
767.27	25.743
767.58	15.730
767.89	15.432
768.20	10.497
768.51	22.111
768.82	20.192
769.13	16.372
769.44	28.033
769.75	15.385
770.06	14.798
770.37	17.647
770.68	20.874
770.99	19.903
771.30	21.849
771.61	17.959
771.92	22.407
772.23	19.369
772.54	16.022
772.85	19.767
773.16	22.751
773.47	11.834
773.78	19.540
774.09	22.500
774.39	17.391
774.70	19.048
775.01	21.379
775.32	24.286
775.63	15.038
775.94	17.293
776.25	20.800
776.56	11.570
776.87	23.016
777.18	2.703
777.48	15.315
777.79	4.724
778.10	15.596
778.41	7.895
778.72	15.966
779.03	2.817
779.34	19.595
779.65	19.718
779.95	17.881
780.26	11.511
780.57	15.827
780.88	9.155
781.19	6.723
781.50	22.148
781.80	19.883
782.11	13.953
782.42	22.013
782.73	15.686
783.04	15.172
783.34	13.740
783.65	12.752
783.96	12.308
784.27	24.286
784.57	12.766
784.88	10.577
785.19	26.364
785.50	17.273
785.81	-4.762
786.11	15.126
786.42	9.735
786.73	4.717
787.04	0.000
787.34	1.980
787.65	21.667
787.96	19.008
788.26	17.391
788.57	10.317
788.88	7.317
789.19	19.200
789.49	9.160
789.80	18.939
790.11	6.604
790.41	17.822
790.72	6.383
791.03	16.304
791.33	11.765
791.64	6.173
791.95	11.957
792.25	9.091
792.56	6.410
792.87	-2.564
793.17	-6.410
793.48	20.238
793.79	2.500
794.09	25.000
794.40	19.792
794.70	16.216
795.01	17.188
795.32	15.652
795.62	10.870
795.93	12.264
796.23	16.162
796.54	13.415
796.85	7.143
797.15	1.515
797.46	2.899
797.76	10.526
798.07	3.409
798.37	8.537
798.68	-1.613
798.99	-2.703
799.29	16.867
799.60	14.103
799.90	-1.538
800.21	16.667
800.51	18.667
800.82	2.667
801.12	-20.833
801.43	-16.667
801.73	10.811
802.04	1.429
802.34	-3.279
802.65	-4.478
802.95	14.545
803.26	-6.897
803.56	12.308
803.87	9.434
804.17	1.613
804.48	-1.471
804.78	-34.146
805.09	4.348
805.39	8.824
805.70	-6.383
806.00	3.509
806.30	17.949
806.61	6.579
806.91	5.405
807.22	2.632
807.52	15.909
807.83	3.390
808.13	-12.121
808.43	0.000
808.74	-15.517
809.04	0.000
809.35	2.041
809.65	-5.000
809.95	-24.490
810.26	28.169
810.56	-18.750
810.86	-6.122
811.17	3.846
811.47	-12.766
811.77	6.250
812.08	7.547
812.38	9.375
812.69	-1.818
812.99	-7.317
813.29	-13.514
813.59	-27.027
813.90	-18.182
814.20	-1.818
814.50	3.333
814.81	0.000
815.11	7.018
815.41	18.605
815.72	0.000
816.02	5.714
816.32	-21.622
816.62	10.417
816.93	-4.444
817.23	-15.556
817.53	-33.333
817.84	-21.622
818.14	4.878
818.44	14.000
818.74	-14.286
819.04	4.878
819.35	-16.667
819.65	-15.909
819.95	-100.000
820.25	-3.030
820.56	-21.429
820.86	8.333
821.16	6.818
821.46	-15.217
821.76	-3.448
822.07	4.348
822.37	12.121
822.67	9.756
822.97	-24.324
823.27	-40.000
823.57	3.448
823.88	-55.882
824.18	-30.556
824.48	8.571
824.78	-19.048
825.08	-57.143
825.38	-18.519
825.69	0.000
825.99	0.000
826.29	-40.741
826.59	-37.500
826.89	-19.355
827.19	-43.478
827.49	-44.444
827.79	4.348
828.09	-25.806
828.39	8.333
828.70	-50.000
829.00	-34.483
829.30	-13.514
829.60	-66.667
829.90	-25.926
830.20	-34.375
830.50	-4.545
830.80	-170.588
831.10	-100.000
831.40	-8.824
831.70	-34.615
832.00	-3.030
832.30	-11.765
832.60	-16.216
832.90	1700.000
833.20	-3.571
833.50	-65.000
833.80	2.632
834.10	-37.500
834.40	-100.000
834.70	-73.333
835.00	-100.000
835.30	-33.333
835.60	-14.286
835.90	-19.048
836.20	-48.000
836.50	-25.000
836.80	-36.842
837.10	8.108
837.40	16.667
837.70	-21.739
838.00	58.333
838.30	-31.579
838.60	-90.000
838.90	-190.000
839.19	-133.333
839.49	7.692
839.79	-42.105
840.09	-116.667
840.39	-160.000
840.69	-31.818
840.99	-47.619
841.29	-8.333
841.59	-123.077
841.88	-93.333
842.18	-142.857
842.48	-33.333
842.78	-214.286
843.08	-57.143
843.38	-237.500
843.68	-50.000
843.97	7.143
844.27	-188.889
844.57	-136.364
844.87	-146.667
845.17	-4.545
845.47	666.667
845.76	-40.000
846.06	-100.000
846.36	-1150.000
846.66	-42.105
846.96	-13.636
847.25	-122.222
847.55	-144.444
847.85	-42.857
848.15	-38.462
848.44	-400.000
848.74	-91.667
849.04	-84.615
849.34	-150.000
849.63	-154.545
849.93	-164.286
850.23	-5.000
850.53	-225.000
850.82	-16.667
851.12	-46.667
851.42	-76.471
851.71	-87.500
852.01	29.412
852.31	-92.308
852.61	850.000
852.90	23.529
853.20	-53.333
853.50	-12.500
853.79	-121.429
854.09	-400.000
854.39	-95.000
854.68	0.000
854.98	-52.381
855.28	-40.000
855.57	-41.667
855.87	-62.500
856.17	-16.000
856.46	0.000
856.76	-10.000
857.05	8.000
857.35	-66.667
857.65	-17.647
857.94	-58.333
858.24	-83.333
858.53	-20.000
858.83	-90.909
859.13	-44.000
859.42	-64.286
859.72	-175.000
860.01	-16.667
860.31	-187.500
860.60	-31.250
860.90	-333.333
861.20	-66.667
861.49	33.333
861.79	-62.500
862.08	450.000
862.38	-108.333
862.67	385.714
862.97	325.000
863.26	-36.364
863.56	-145.455
863.85	-5.263
864.15	-52.941
864.44	-380.000
864.74	-160.000
865.03	-155.556
865.33	-28.571
865.62	171.429
865.92	21.053
866.21	-61.111
866.51	-127.273
866.80	-155.556
867.10	-237.500
867.39	-18.750
867.69	-40.000
867.98	-90.000
868.27	-17.647
868.57	0.000
868.86	750.000
869.16	-250.000
869.45	-171.429
869.75	600.000
870.04	-70.000
870.33	-1900.000
870.63	-47.368
870.92	-125.000
871.22	-1500.000
871.51	-200.000
871.80	-100.000
872.10	-450.000
>>>>>End Processed Spectral Data<<<<<
