SpectraSuite Data File
++++++++++++++++++++++++++++++++++++
Date: Wed May 13 21:36:37 PDT 2015
User: schluterlab
Dark Spectrum Present: Yes
Reference Spectrum Present: Yes
Number of Sampled Component Spectra: 1
Spectrometers: USB2E3373
Integration Time (usec): 3000 (USB2E3373)
Spectra Averaged: 3 (USB2E3373)
Boxcar Smoothing: 0 (USB2E3373)
Correct for Electrical Dark: No (USB2E3373)
Strobe/Lamp Enabled: No (USB2E3373)
Correct for Detector Non-linearity: No (USB2E3373)
Correct for Stray Light: No (USB2E3373)
Number of Pixels in Processed Spectrum: 2048
>>>>>Begin Processed Spectral Data<<<<<
178.53	0.000
178.91	550.000
179.29	225.000
179.67	-650.000
180.04	-566.667
180.42	300.000
180.80	2500.000
181.18	416.667
181.56	-475.000
181.94	-425.000
182.31	-63.636
182.69	184.615
183.07	-120.000
183.45	166.667
183.83	255.556
184.20	271.429
184.58	-400.000
184.96	533.333
185.34	228.571
185.72	0.000
186.09	-300.000
186.47	-240.000
186.85	240.000
187.23	-450.000
187.61	600.000
187.98	1400.000
188.36	12.500
188.74	0.000
189.12	-100.000
189.49	-10.000
189.87	116.667
190.25	480.000
190.63	2200.000
191.00	-440.000
191.38	380.000
191.76	500.000
192.14	175.000
192.51	5.263
192.89	233.333
193.27	250.000
193.65	-300.000
194.02	200.000
194.40	210.000
194.78	-1200.000
195.15	180.000
195.53	-280.000
195.91	-50.000
196.29	-266.667
196.66	0.000
197.04	200.000
197.42	-180.000
197.79	-50.000
198.17	-250.000
198.55	-433.333
198.92	425.000
199.30	-500.000
199.68	-70.000
200.05	950.000
200.43	250.000
200.81	-1200.000
201.18	-200.000
201.56	-216.667
201.94	500.000
202.31	-30.435
202.69	-114.286
203.07	-866.667
203.44	-280.000
203.82	-300.000
204.19	-140.000
204.57	0.000
204.95	-250.000
205.32	0.000
205.70	-850.000
206.08	-500.000
206.45	-233.333
206.83	500.000
207.20	-566.667
207.58	-80.000
207.96	-2400.000
208.33	-214.286
208.71	-1600.000
209.08	262.500
209.46	275.000
209.84	0.000
210.21	110.000
210.59	2000.000
210.96	320.000
211.34	1600.000
211.71	-350.000
212.09	-233.333
212.46	-140.000
212.84	-33.333
213.22	-25.000
213.59	-900.000
213.97	-1100.000
214.34	-1200.000
214.72	-92.308
215.09	225.000
215.47	222.222
215.84	650.000
216.22	-62.500
216.59	-350.000
216.97	566.667
217.34	266.667
217.72	0.000
218.09	566.667
218.47	-400.000
218.84	-257.143
219.22	0.000
219.59	-433.333
219.97	-325.000
220.34	-125.000
220.72	-40.000
221.09	0.000
221.47	-200.000
221.84	-1000.000
222.22	0.000
222.59	800.000
222.97	-100.000
223.34	-141.667
223.72	-1200.000
224.09	-450.000
224.46	-81.818
224.84	-175.000
225.21	-100.000
225.59	-350.000
225.96	-183.333
226.34	-110.000
226.71	-385.714
227.08	950.000
227.46	-87.500
227.83	-800.000
228.21	-43.750
228.58	-100.000
228.95	-123.529
229.33	-50.000
229.70	-25.000
230.08	-84.615
230.45	-225.000
230.82	-125.000
231.20	185.714
231.57	-350.000
231.95	600.000
232.32	-58.333
232.69	-47.059
233.07	-1500.000
233.44	-56.522
233.81	-1150.000
234.19	-20.833
234.56	-86.667
234.93	-73.333
235.31	0.000
235.68	-84.615
236.05	-92.308
236.43	-88.889
236.80	-9.091
237.17	-86.667
237.55	-82.353
237.92	-24.138
238.29	-55.556
238.67	2.778
239.04	-9.677
239.41	-27.660
239.79	14.894
240.16	-9.302
240.53	-17.857
240.91	-1.786
241.28	-1.786
241.65	-6.452
242.02	3.947
242.40	5.797
242.77	-1.449
243.14	-10.256
243.51	3.191
243.89	12.500
244.26	16.981
244.63	-4.808
245.00	13.542
245.38	8.403
245.75	4.098
246.12	14.286
246.49	-2.439
246.87	3.361
247.24	14.865
247.61	9.272
247.98	10.897
248.36	7.101
248.73	4.494
249.10	6.061
249.47	11.290
249.84	11.579
250.22	19.900
250.59	11.682
250.96	11.364
251.33	4.785
251.70	17.155
252.08	9.623
252.45	16.461
252.82	12.548
253.19	12.840
253.56	14.029
253.94	16.726
254.31	13.732
254.68	14.765
255.05	11.221
255.42	13.287
255.79	12.577
256.16	14.196
256.54	13.651
256.91	9.494
257.28	18.553
257.65	11.146
258.02	15.249
258.39	14.620
258.76	14.535
259.14	11.080
259.51	12.360
259.88	17.886
260.25	12.500
260.62	10.393
260.99	16.446
261.36	15.026
261.73	13.827
262.10	12.468
262.47	14.568
262.85	13.433
263.22	12.564
263.59	16.623
263.96	16.302
264.33	13.942
264.70	13.488
265.07	15.046
265.44	17.471
265.81	12.815
266.18	12.301
266.55	13.319
266.92	14.619
267.29	15.021
267.66	17.410
268.03	16.461
268.40	11.229
268.77	15.083
269.14	16.531
269.51	14.990
269.88	13.849
270.25	12.288
270.62	14.754
270.99	14.173
271.36	14.087
271.73	16.064
272.10	15.238
272.47	16.123
272.84	14.370
273.21	12.524
273.58	12.910
273.95	12.075
274.32	14.552
274.69	13.115
275.06	15.018
275.43	13.936
275.80	13.830
276.17	12.523
276.54	12.611
276.91	15.854
277.28	12.094
277.65	14.685
278.02	15.179
278.39	13.144
278.76	14.381
279.13	14.751
279.50	15.517
279.87	13.225
280.23	13.153
280.60	11.592
280.97	15.422
281.34	15.615
281.71	13.496
282.08	12.821
282.45	13.770
282.82	13.099
283.19	14.939
283.56	15.156
283.92	15.596
284.29	13.105
284.66	12.521
285.03	11.238
285.40	14.350
285.77	16.066
286.14	14.742
286.51	14.693
286.87	13.538
287.24	14.602
287.61	14.307
287.98	15.735
288.35	13.562
288.72	14.778
289.08	15.527
289.45	14.244
289.82	16.188
290.19	15.007
290.56	13.210
290.93	12.983
291.29	12.996
291.66	12.432
292.03	14.578
292.40	13.459
292.77	13.253
293.13	13.808
293.50	13.464
293.87	14.267
294.24	11.111
294.60	13.134
294.97	13.228
295.34	12.929
295.71	11.564
296.08	11.387
296.44	12.372
296.81	10.597
297.18	11.750
297.55	13.797
297.91	12.050
298.28	11.622
298.65	11.207
299.02	12.210
299.38	11.656
299.75	11.659
300.12	11.628
300.48	12.281
300.85	11.432
301.22	10.918
301.59	11.150
301.95	10.105
302.32	11.202
302.69	10.056
303.05	10.963
303.42	11.250
303.79	11.672
304.15	10.953
304.52	12.581
304.89	10.410
305.25	10.977
305.62	10.846
305.99	12.078
306.35	13.166
306.72	11.190
307.09	11.992
307.45	11.928
307.82	10.947
308.19	9.613
308.55	10.952
308.92	12.279
309.29	11.111
309.65	11.189
310.02	11.630
310.38	11.484
310.75	10.454
311.12	11.176
311.48	10.584
311.85	10.630
312.22	11.315
312.58	10.628
312.95	10.050
313.31	11.295
313.68	10.973
314.05	10.586
314.41	10.951
314.78	11.101
315.14	11.204
315.51	11.323
315.87	11.029
316.24	11.019
316.61	12.146
316.97	9.444
317.34	12.121
317.70	11.508
318.07	12.067
318.43	12.195
318.80	10.471
319.16	9.814
319.53	11.470
319.89	11.021
320.26	11.275
320.62	11.029
320.99	11.143
321.35	10.384
321.72	11.261
322.08	11.162
322.45	11.101
322.81	11.460
323.18	11.628
323.54	11.101
323.91	11.743
324.27	10.261
324.64	9.582
325.00	10.586
325.37	11.263
325.73	9.933
326.10	10.177
326.46	10.870
326.83	11.650
327.19	10.650
327.56	11.120
327.92	12.068
328.29	12.270
328.65	12.095
329.01	10.202
329.38	10.870
329.74	10.987
330.11	10.911
330.47	10.417
330.84	10.379
331.20	10.931
331.56	11.504
331.93	11.197
332.29	12.337
332.66	10.000
333.02	12.250
333.38	10.351
333.75	10.580
334.11	12.500
334.48	11.683
334.84	10.866
335.20	10.978
335.57	11.053
335.93	10.137
336.29	9.632
336.66	9.744
337.02	10.522
337.38	11.140
337.75	10.939
338.11	10.675
338.47	10.188
338.84	10.911
339.20	10.670
339.56	11.007
339.93	10.285
340.29	10.077
340.65	11.548
341.02	10.566
341.38	9.966
341.74	9.328
342.11	10.322
342.47	9.958
342.83	10.948
343.20	10.575
343.56	11.038
343.92	10.561
344.28	10.795
344.65	10.367
345.01	9.685
345.37	11.184
345.73	11.275
346.10	10.514
346.46	10.488
346.82	9.872
347.19	9.810
347.55	10.501
347.91	8.885
348.27	10.252
348.63	10.978
349.00	10.456
349.36	11.460
349.72	10.828
350.08	10.686
350.45	8.849
350.81	10.720
351.17	11.162
351.53	10.369
351.89	9.531
352.26	9.344
352.62	10.233
352.98	9.904
353.34	9.581
353.70	10.436
354.07	10.431
354.43	10.575
354.79	9.856
355.15	10.248
355.51	10.175
355.87	10.868
356.24	9.551
356.60	9.539
356.96	9.900
357.32	9.520
357.68	10.008
358.04	9.775
358.40	11.085
358.77	10.245
359.13	10.117
359.49	9.614
359.85	10.008
360.21	10.717
360.57	10.570
360.93	8.498
361.29	10.733
361.66	11.086
362.02	9.785
362.38	9.970
362.74	10.587
363.10	10.123
363.46	9.798
363.82	10.273
364.18	9.572
364.54	10.430
364.90	9.895
365.26	9.271
365.62	9.375
365.98	10.107
366.35	9.078
366.71	10.414
367.07	9.780
367.43	10.383
367.79	9.868
368.15	10.127
368.51	9.775
368.87	9.351
369.23	9.609
369.59	10.430
369.95	8.999
370.31	9.763
370.67	10.500
371.03	10.393
371.39	11.072
371.75	10.286
372.11	10.114
372.47	9.877
372.83	10.125
373.19	9.137
373.55	10.405
373.91	10.184
374.27	9.613
374.63	9.531
374.99	10.028
375.35	9.726
375.71	9.307
376.07	9.664
376.42	9.893
376.78	10.502
377.14	9.559
377.50	10.169
377.86	9.761
378.22	9.987
378.58	9.395
378.94	9.938
379.30	9.744
379.66	10.234
380.02	9.498
380.38	9.639
380.74	10.161
381.09	9.590
381.45	10.218
381.81	9.735
382.17	9.893
382.53	10.031
382.89	9.952
383.25	10.309
383.61	10.775
383.97	10.437
384.32	9.389
384.68	9.747
385.04	9.407
385.40	9.776
385.76	10.888
386.12	9.877
386.48	9.592
386.83	10.263
387.19	8.822
387.55	10.116
387.91	10.209
388.27	9.494
388.62	10.175
388.98	9.825
389.34	9.649
389.70	9.524
390.06	10.250
390.42	10.309
390.77	10.314
391.13	10.417
391.49	9.614
391.85	9.585
392.20	9.461
392.56	9.651
392.92	10.064
393.28	9.704
393.64	8.869
393.99	9.302
394.35	10.000
394.71	9.808
395.07	9.308
395.42	10.847
395.78	8.880
396.14	10.336
396.50	9.892
396.85	9.943
397.21	9.176
397.57	10.248
397.92	9.461
398.28	9.363
398.64	9.897
399.00	10.435
399.35	10.613
399.71	9.552
400.07	9.940
400.42	9.467
400.78	9.607
401.14	9.074
401.49	9.527
401.85	9.337
402.21	9.659
402.57	9.871
402.92	11.014
403.28	9.694
403.63	9.361
403.99	8.189
404.35	9.788
404.70	9.728
405.06	9.982
405.42	9.108
405.77	10.138
406.13	9.543
406.49	10.126
406.84	9.463
407.20	9.177
407.55	8.961
407.91	9.464
408.27	9.669
408.62	10.497
408.98	10.049
409.34	9.715
409.69	10.721
410.05	10.386
410.40	9.251
410.76	9.747
411.11	9.950
411.47	10.418
411.83	9.482
412.18	8.753
412.54	10.276
412.89	9.592
413.25	9.617
413.60	9.969
413.96	9.988
414.31	9.371
414.67	9.905
415.03	9.540
415.38	9.313
415.74	9.552
416.09	9.121
416.45	9.433
416.80	9.933
417.16	9.379
417.51	9.042
417.87	9.987
418.22	9.567
418.58	9.461
418.93	9.040
419.29	10.495
419.64	9.606
420.00	9.841
420.35	10.161
420.71	9.202
421.06	10.578
421.42	10.158
421.77	9.827
422.12	10.029
422.48	8.942
422.83	9.923
423.19	9.258
423.54	10.247
423.90	9.323
424.25	10.630
424.61	9.550
424.96	9.462
425.31	9.927
425.67	10.229
426.02	10.306
426.38	9.639
426.73	9.774
427.09	9.631
427.44	9.748
427.79	9.798
428.15	10.092
428.50	9.426
428.85	11.009
429.21	9.510
429.56	10.202
429.92	9.630
430.27	10.020
430.62	9.864
430.98	10.100
431.33	9.565
431.68	10.543
432.04	10.423
432.39	9.411
432.74	10.239
433.10	10.866
433.45	10.000
433.80	10.115
434.16	10.213
434.51	10.380
434.86	9.835
435.22	10.526
435.57	9.214
435.92	9.831
436.28	9.670
436.63	9.988
436.98	9.871
437.34	10.440
437.69	9.799
438.04	10.470
438.39	9.838
438.75	10.072
439.10	10.353
439.45	9.685
439.81	10.345
440.16	10.377
440.51	10.285
440.86	10.018
441.22	10.212
441.57	10.738
441.92	10.627
442.27	10.498
442.63	9.688
442.98	9.664
443.33	10.158
443.68	10.016
444.03	10.184
444.39	10.610
444.74	10.271
445.09	10.187
445.44	11.211
445.79	10.274
446.15	10.205
446.50	10.573
446.85	10.315
447.20	10.246
447.55	11.024
447.91	10.393
448.26	9.949
448.61	10.644
448.96	10.308
449.31	10.680
449.66	10.642
450.02	10.688
450.37	10.811
450.72	10.735
451.07	11.160
451.42	9.981
451.77	10.895
452.12	10.933
452.47	10.265
452.83	10.554
453.18	9.675
453.53	10.088
453.88	10.663
454.23	10.260
454.58	11.336
454.93	10.327
455.28	10.469
455.63	9.607
455.98	9.982
456.34	9.981
456.69	10.735
457.04	10.402
457.39	10.704
457.74	9.874
458.09	9.893
458.44	10.223
458.79	10.379
459.14	9.663
459.49	9.695
459.84	9.470
460.19	9.964
460.54	10.219
460.89	9.516
461.24	9.679
461.59	10.205
461.94	10.051
462.29	9.743
462.64	11.016
462.99	10.999
463.34	10.981
463.69	10.116
464.04	9.904
464.39	10.433
464.74	10.074
465.09	10.229
465.44	10.269
465.79	10.696
466.14	10.661
466.49	9.736
466.84	10.281
467.19	9.427
467.54	11.277
467.89	10.748
468.24	10.510
468.59	10.006
468.94	10.281
469.29	9.914
469.64	11.437
469.99	10.897
470.34	10.924
470.68	10.929
471.03	10.931
471.38	10.918
471.73	11.523
472.08	11.065
472.43	11.214
472.78	11.021
473.13	10.026
473.48	10.959
473.83	10.483
474.17	10.026
474.52	10.485
474.87	10.314
475.22	10.205
475.57	10.206
475.92	10.414
476.27	9.499
476.61	10.985
476.96	10.623
477.31	10.680
477.66	10.791
478.01	10.549
478.36	10.354
478.70	11.547
479.05	10.433
479.40	11.440
479.75	10.627
480.10	10.760
480.45	10.495
480.79	11.000
481.14	11.246
481.49	11.495
481.84	10.179
482.19	11.255
482.53	11.190
482.88	11.074
483.23	10.780
483.58	11.437
483.92	10.360
484.27	10.339
484.62	10.209
484.97	11.116
485.31	9.989
485.66	9.877
486.01	9.868
486.36	10.086
486.70	10.164
487.05	10.955
487.40	10.878
487.75	10.738
488.09	10.885
488.44	11.427
488.79	11.241
489.13	10.934
489.48	10.859
489.83	11.210
490.17	11.212
490.52	11.547
490.87	10.431
491.22	11.116
491.56	11.404
491.91	11.522
492.26	10.928
492.60	10.967
492.95	11.176
493.30	10.707
493.64	10.072
493.99	11.014
494.34	11.272
494.68	10.835
495.03	10.820
495.37	10.949
495.72	11.378
496.07	11.934
496.41	10.529
496.76	11.015
497.11	10.751
497.45	10.992
497.80	12.014
498.14	11.537
498.49	10.338
498.84	10.678
499.18	11.349
499.53	11.275
499.87	11.063
500.22	11.498
500.56	11.785
500.91	11.268
501.26	11.330
501.60	10.441
501.95	11.260
502.29	10.874
502.64	11.668
502.98	11.320
503.33	10.803
503.67	11.782
504.02	11.275
504.36	11.095
504.71	10.874
505.06	11.360
505.40	10.567
505.75	11.699
506.09	11.293
506.44	11.341
506.78	11.072
507.13	10.915
507.47	11.506
507.82	11.617
508.16	12.401
508.51	11.622
508.85	10.783
509.19	11.481
509.54	11.957
509.88	10.645
510.23	11.789
510.57	12.076
510.92	12.284
511.26	11.661
511.61	11.416
511.95	11.577
512.30	11.327
512.64	11.918
512.98	11.634
513.33	11.211
513.67	11.811
514.02	12.144
514.36	11.966
514.70	11.778
515.05	11.937
515.39	11.792
515.74	11.723
516.08	12.094
516.42	11.348
516.77	11.131
517.11	11.934
517.46	12.605
517.80	12.530
518.14	10.900
518.49	11.272
518.83	12.589
519.17	11.747
519.52	12.545
519.86	11.900
520.20	12.068
520.55	12.500
520.89	12.334
521.23	13.141
521.58	12.579
521.92	12.319
522.26	12.167
522.61	11.765
522.95	12.047
523.29	12.190
523.64	13.160
523.98	11.626
524.32	12.161
524.66	12.143
525.01	11.664
525.35	12.047
525.69	12.061
526.04	11.726
526.38	12.683
526.72	11.506
527.06	12.121
527.41	12.442
527.75	12.150
528.09	12.321
528.43	12.280
528.78	11.886
529.12	12.678
529.46	12.668
529.80	12.492
530.15	11.390
530.49	12.399
530.83	11.713
531.17	11.507
531.51	12.070
531.86	12.873
532.20	11.027
532.54	11.586
532.88	12.185
533.22	12.525
533.57	11.722
533.91	12.581
534.25	12.435
534.59	11.776
534.93	11.607
535.27	12.229
535.62	11.776
535.96	13.468
536.30	12.832
536.64	11.620
536.98	12.193
537.32	12.811
537.66	12.694
538.01	11.720
538.35	11.602
538.69	12.040
539.03	11.879
539.37	11.804
539.71	11.255
540.05	10.931
540.39	11.493
540.73	12.640
541.07	12.721
541.42	11.717
541.76	11.976
542.10	12.661
542.44	12.128
542.78	12.144
543.12	12.466
543.46	11.610
543.80	12.288
544.14	12.113
544.48	11.082
544.82	12.643
545.16	11.900
545.50	13.032
545.84	12.132
546.18	12.132
546.52	13.056
546.86	10.813
547.20	11.794
547.54	12.437
547.88	12.618
548.22	11.857
548.56	11.007
548.90	11.773
549.24	11.806
549.58	11.886
549.92	13.353
550.26	13.579
550.60	11.712
550.94	11.866
551.28	12.188
551.62	12.632
551.96	12.225
552.30	12.227
552.64	12.359
552.98	12.642
553.32	11.968
553.66	13.280
554.00	12.527
554.34	11.795
554.68	12.304
555.02	12.051
555.36	11.044
555.69	11.653
556.03	11.794
556.37	11.451
556.71	12.193
557.05	12.251
557.39	11.530
557.73	12.254
558.07	12.057
558.41	11.658
558.75	12.163
559.08	11.468
559.42	12.038
559.76	12.615
560.10	11.683
560.44	12.307
560.78	11.151
561.12	12.754
561.45	11.497
561.79	11.898
562.13	11.955
562.47	12.071
562.81	11.977
563.15	11.898
563.48	11.631
563.82	11.696
564.16	11.916
564.50	11.669
564.84	12.095
565.17	12.450
565.51	10.829
565.85	11.726
566.19	11.589
566.52	12.123
566.86	11.631
567.20	11.484
567.54	11.687
567.88	10.694
568.21	10.864
568.55	11.424
568.89	10.219
569.23	11.182
569.56	10.680
569.90	10.506
570.24	10.397
570.57	10.713
570.91	10.885
571.25	11.019
571.59	10.583
571.92	10.971
572.26	10.841
572.60	10.656
572.93	10.715
573.27	10.932
573.61	10.711
573.95	11.052
574.28	10.570
574.62	10.491
574.96	10.753
575.29	10.181
575.63	10.616
575.97	10.897
576.30	10.683
576.64	10.584
576.98	10.772
577.31	10.710
577.65	10.382
577.98	10.283
578.32	10.503
578.66	10.541
578.99	10.892
579.33	11.419
579.67	10.514
580.00	10.584
580.34	10.155
580.67	11.024
581.01	10.331
581.35	10.394
581.68	10.203
582.02	10.306
582.35	10.566
582.69	10.087
583.02	10.272
583.36	10.483
583.70	10.778
584.03	10.839
584.37	10.355
584.70	10.759
585.04	10.908
585.37	10.595
585.71	10.830
586.04	10.451
586.38	10.602
586.72	10.424
587.05	10.773
587.39	10.453
587.72	10.532
588.06	10.342
588.39	10.635
588.73	10.620
589.06	10.734
589.40	10.836
589.73	10.456
590.07	11.046
590.40	10.716
590.73	11.062
591.07	10.907
591.40	11.087
591.74	10.938
592.07	11.000
592.41	11.369
592.74	10.802
593.08	10.598
593.41	10.340
593.75	10.401
594.08	10.155
594.41	10.786
594.75	10.457
595.08	10.829
595.42	10.200
595.75	11.316
596.09	11.047
596.42	10.172
596.75	11.014
597.09	10.874
597.42	11.306
597.75	11.111
598.09	10.610
598.42	11.141
598.76	10.663
599.09	11.164
599.42	10.876
599.76	10.702
600.09	10.542
600.42	10.960
600.76	10.237
601.09	10.960
601.42	10.780
601.76	10.927
602.09	10.863
602.42	11.638
602.76	10.906
603.09	10.883
603.42	11.076
603.76	11.107
604.09	10.988
604.42	10.758
604.76	11.000
605.09	10.739
605.42	11.291
605.75	10.107
606.09	11.341
606.42	10.557
606.75	10.866
607.09	10.284
607.42	11.121
607.75	9.584
608.08	10.595
608.42	10.825
608.75	10.846
609.08	10.534
609.41	11.326
609.75	10.540
610.08	10.897
610.41	11.759
610.74	10.395
611.07	11.022
611.41	10.747
611.74	11.128
612.07	10.943
612.40	11.027
612.73	10.318
613.07	11.530
613.40	11.123
613.73	10.943
614.06	10.116
614.39	11.173
614.72	11.105
615.06	10.944
615.39	11.258
615.72	9.989
616.05	10.698
616.38	10.538
616.71	10.738
617.05	11.425
617.38	10.967
617.71	10.294
618.04	11.091
618.37	10.852
618.70	10.996
619.03	11.478
619.36	11.957
619.69	11.184
620.03	10.954
620.36	10.438
620.69	10.064
621.02	11.000
621.35	10.793
621.68	11.328
622.01	11.489
622.34	10.626
622.67	11.198
623.00	11.778
623.33	11.967
623.66	10.929
623.99	10.953
624.32	10.051
624.65	11.276
624.99	11.609
625.32	11.202
625.65	10.930
625.98	11.690
626.31	11.429
626.64	11.522
626.97	11.938
627.30	12.062
627.63	11.505
627.96	10.996
628.29	12.372
628.62	12.476
628.95	10.621
629.28	11.921
629.61	12.632
629.94	11.315
630.26	12.906
630.59	12.188
630.92	11.446
631.25	10.402
631.58	13.062
631.91	10.710
632.24	11.526
632.57	10.444
632.90	12.485
633.23	10.911
633.56	12.950
633.89	12.081
634.22	14.959
634.55	14.129
634.88	12.255
635.20	12.625
635.53	10.207
635.86	12.949
636.19	13.648
636.52	12.073
636.85	11.098
637.18	10.597
637.51	11.486
637.83	13.708
638.16	12.400
638.49	11.749
638.82	12.288
639.15	13.165
639.48	12.032
639.81	11.944
640.13	13.803
640.46	12.288
640.79	11.799
641.12	9.615
641.45	10.480
641.77	12.077
642.10	13.011
642.43	13.208
642.76	11.672
643.09	12.620
643.41	11.324
643.74	11.632
644.07	10.518
644.40	12.106
644.73	11.356
645.05	10.122
645.38	9.468
645.71	11.735
646.04	10.101
646.36	12.674
646.69	13.986
647.02	13.297
647.35	12.249
647.67	13.309
648.00	11.051
648.33	12.203
648.66	9.015
648.98	12.888
649.31	11.350
649.64	11.737
649.96	13.428
650.29	11.601
650.62	11.862
650.94	10.517
651.27	12.014
651.60	13.986
651.92	12.007
652.25	12.730
652.58	12.046
652.90	10.774
653.23	8.319
653.56	12.231
653.88	8.362
654.21	9.727
654.54	12.625
654.86	9.593
655.19	12.325
655.52	11.863
655.84	9.241
656.17	11.024
656.49	14.839
656.82	14.962
657.15	11.697
657.47	8.984
657.80	6.567
658.13	7.358
658.45	10.737
658.78	10.681
659.10	11.373
659.43	10.849
659.75	11.247
660.08	11.103
660.41	10.548
660.73	11.295
661.06	11.905
661.38	12.597
661.71	13.525
662.03	12.262
662.36	12.832
662.68	12.903
663.01	13.347
663.33	12.311
663.66	8.647
663.98	12.584
664.31	14.725
664.63	7.207
664.96	12.035
665.28	13.734
665.61	12.095
665.93	10.493
666.26	13.080
666.58	13.276
666.91	13.229
667.23	12.442
667.56	12.184
667.88	12.150
668.21	11.830
668.53	9.885
668.86	11.031
669.18	11.820
669.50	11.982
669.83	12.172
670.15	10.714
670.48	12.184
670.80	15.317
671.13	12.815
671.45	10.274
671.77	12.284
672.10	9.162
672.42	11.260
672.75	10.357
673.07	10.000
673.39	13.246
673.72	13.772
674.04	13.320
674.37	12.805
674.69	8.848
675.01	10.256
675.34	11.160
675.66	14.815
675.98	10.398
676.31	12.217
676.63	11.791
676.95	7.765
677.28	11.697
677.60	12.990
677.92	12.417
678.25	12.798
678.57	13.849
678.89	10.021
679.22	10.973
679.54	13.265
679.86	12.305
680.18	12.692
680.51	9.231
680.83	9.357
681.15	12.181
681.48	9.018
681.80	10.429
682.12	9.375
682.44	8.048
682.77	9.474
683.09	10.045
683.41	10.465
683.73	10.714
684.06	9.956
684.38	8.547
684.70	8.147
685.02	11.983
685.34	10.959
685.67	11.445
685.99	11.388
686.31	10.862
686.63	9.191
686.96	10.390
687.28	10.778
687.60	10.775
687.92	9.144
688.24	10.800
688.56	11.404
688.89	11.359
689.21	8.969
689.53	6.757
689.85	12.584
690.17	12.747
690.49	12.560
690.82	9.069
691.14	9.420
691.46	6.497
691.78	11.868
692.10	10.403
692.42	9.231
692.74	9.565
693.06	8.764
693.39	7.728
693.71	13.333
694.03	12.273
694.35	10.586
694.67	11.250
694.99	10.052
695.31	10.594
695.63	11.463
695.95	10.433
696.27	6.849
696.59	9.677
696.91	7.263
697.23	9.898
697.56	10.791
697.88	11.227
698.20	10.583
698.52	10.280
698.84	8.852
699.16	11.820
699.48	9.877
699.80	14.987
700.12	12.601
700.44	7.887
700.76	10.955
701.08	11.782
701.40	9.880
701.72	11.077
702.04	5.660
702.36	9.451
702.68	7.622
703.00	11.111
703.32	10.306
703.64	8.735
703.96	8.798
704.28	11.446
704.60	11.280
704.91	12.853
705.23	15.190
705.55	11.379
705.87	9.155
706.19	8.425
706.51	7.746
706.83	8.599
707.15	12.805
707.47	9.366
707.79	8.883
708.11	8.997
708.43	10.660
708.74	10.372
709.06	9.893
709.38	10.375
709.70	12.012
710.02	10.592
710.34	3.667
710.66	8.469
710.98	10.217
711.29	9.740
711.61	10.323
711.93	11.613
712.25	6.993
712.57	6.667
712.89	10.989
713.20	10.638
713.52	7.664
713.84	11.613
714.16	12.945
714.48	8.228
714.80	8.946
715.11	12.791
715.43	9.627
715.75	12.733
716.07	10.843
716.39	11.448
716.70	11.511
717.02	9.412
717.34	10.985
717.66	6.466
717.97	6.746
718.29	4.724
718.61	3.863
718.93	9.690
719.24	13.653
719.56	5.993
719.88	7.463
720.20	7.115
720.51	10.547
720.83	10.895
721.15	4.878
721.46	6.489
721.78	7.570
722.10	10.757
722.42	4.839
722.73	11.583
723.05	9.388
723.37	5.462
723.68	6.800
724.00	10.638
724.32	10.042
724.63	13.580
724.95	6.838
725.27	11.392
725.58	11.111
725.90	6.695
726.22	9.783
726.53	3.137
726.85	8.394
727.16	7.778
727.48	10.345
727.80	8.594
728.11	4.098
728.43	6.641
728.74	7.143
729.06	7.200
729.38	10.277
729.69	7.117
730.01	4.833
730.32	7.011
730.64	5.682
730.96	11.189
731.27	6.689
731.59	7.619
731.90	6.149
732.22	4.808
732.53	6.081
732.85	7.047
733.16	12.211
733.48	8.446
733.80	8.446
734.11	8.446
734.43	9.907
734.74	12.312
735.06	6.340
735.37	7.599
735.69	11.650
736.00	6.931
736.32	8.511
736.63	10.690
736.95	11.986
737.26	5.172
737.58	6.944
737.89	8.935
738.21	6.406
738.52	9.506
738.83	5.306
739.15	4.641
739.46	6.615
739.78	3.169
740.09	7.534
740.41	7.500
740.72	6.738
741.04	5.200
741.35	-2.193
741.66	11.556
741.98	8.173
742.29	14.356
742.61	8.293
742.92	13.158
743.23	4.245
743.55	9.910
743.86	4.036
744.18	12.255
744.49	9.645
744.80	6.633
745.12	9.346
745.43	11.848
745.74	12.613
746.06	7.944
746.37	4.128
746.68	7.212
747.00	8.134
747.31	7.692
747.62	5.963
747.94	10.044
748.25	11.009
748.56	7.111
748.88	10.329
749.19	13.810
749.50	5.825
749.82	4.225
750.13	4.583
750.44	6.154
750.75	7.011
751.07	10.676
751.38	11.348
751.69	4.633
752.01	7.422
752.32	5.385
752.63	7.836
752.94	8.400
753.26	7.531
753.57	2.500
753.88	8.502
754.19	5.578
754.51	1.128
754.82	6.227
755.13	1.739
755.44	7.724
755.75	1.600
756.07	4.428
756.38	5.396
756.69	7.509
757.00	7.165
757.31	7.767
757.63	8.642
757.94	7.062
758.25	7.937
758.56	9.511
758.87	7.440
759.18	10.095
759.50	6.397
759.81	7.023
760.12	8.923
760.43	8.036
760.74	5.932
761.05	4.972
761.36	7.163
761.67	5.438
761.99	6.873
762.30	8.029
762.61	3.292
762.92	9.402
763.23	10.246
763.54	9.957
763.85	7.755
764.16	4.878
764.47	6.400
764.78	8.214
765.10	7.869
765.41	8.207
765.72	10.248
766.03	5.941
766.34	8.846
766.65	1.674
766.96	4.695
767.27	14.356
767.58	2.247
767.89	8.025
768.20	1.657
768.51	3.015
768.82	9.135
769.13	7.080
769.44	7.113
769.75	5.128
770.06	6.726
770.37	2.941
770.68	8.738
770.99	-1.456
771.30	6.723
771.61	8.980
771.92	6.639
772.23	9.009
772.54	-0.552
772.85	6.977
773.16	4.762
773.47	1.183
773.78	8.046
774.09	6.250
774.39	5.590
774.70	8.844
775.01	-5.517
775.32	4.286
775.63	2.256
775.94	-0.752
776.25	-0.800
776.56	9.091
776.87	0.794
777.18	-10.811
777.48	-4.505
777.79	1.575
778.10	-2.752
778.41	1.754
778.72	5.882
779.03	1.408
779.34	6.757
779.65	0.000
779.95	5.298
780.26	4.317
780.57	0.000
780.88	0.704
781.19	2.521
781.50	2.685
781.80	1.170
782.11	0.581
782.42	13.208
782.73	6.536
783.04	5.517
783.34	-1.527
783.65	1.342
783.96	1.538
784.27	1.429
784.57	5.674
784.88	-4.808
785.19	9.091
785.50	-0.909
785.81	-4.762
786.11	-0.840
786.42	1.770
786.73	-9.434
787.04	0.000
787.34	-7.921
787.65	5.000
787.96	2.479
788.26	4.348
788.57	3.175
788.88	4.065
789.19	-2.400
789.49	0.000
789.80	11.364
790.11	-1.887
790.41	1.980
790.72	-4.255
791.03	2.174
791.33	0.000
791.64	-3.704
791.95	3.261
792.25	-6.818
792.56	-11.538
792.87	-7.692
793.17	-1.282
793.48	-4.762
793.79	-2.500
794.09	4.808
794.40	2.083
794.70	0.901
795.01	2.344
795.32	2.609
795.62	-18.478
795.93	0.943
796.23	9.091
796.54	0.000
796.85	3.571
797.15	-12.121
797.46	-4.348
797.76	-3.947
798.07	-2.273
798.37	-8.537
798.68	-20.968
798.99	-8.108
799.29	3.614
799.60	2.564
799.90	-15.385
800.21	-9.091
800.51	-2.667
800.82	1.333
801.12	-41.667
801.43	-18.333
801.73	-14.865
802.04	1.429
802.34	-13.115
802.65	-7.463
802.95	-10.909
803.26	-15.517
803.56	6.154
803.87	-5.660
804.17	-3.226
804.48	-11.765
804.78	-41.463
805.09	4.348
805.39	1.471
805.70	-40.426
806.00	-21.053
806.30	-1.282
806.61	-9.211
806.91	0.000
807.22	-1.316
807.52	12.500
807.83	-16.949
808.13	-31.818
808.43	-33.333
808.74	-29.310
809.04	-19.048
809.35	-20.408
809.65	-21.667
809.95	-51.020
810.26	0.000
810.56	-12.500
810.86	-32.653
811.17	7.692
811.47	-27.660
811.77	-29.167
812.08	-20.755
812.38	-53.125
812.69	-14.545
812.99	-9.756
813.29	-21.622
813.59	-35.135
813.90	-29.091
814.20	-23.636
814.50	-8.333
814.81	-20.000
815.11	7.018
815.41	-4.651
815.72	-25.000
816.02	0.000
816.32	-13.514
816.62	-4.167
816.93	-13.333
817.23	-22.222
817.53	-19.444
817.84	-45.946
818.14	-14.634
818.44	10.000
818.74	-16.327
819.04	-19.512
819.35	-27.778
819.65	-11.364
819.95	-44.444
820.25	-27.273
820.56	-19.048
820.86	-22.222
821.16	-40.909
821.46	-15.217
821.76	-6.897
822.07	-8.696
822.37	-21.212
822.67	4.878
822.97	-13.514
823.27	-60.000
823.57	3.448
823.88	-47.059
824.18	-41.667
824.48	-37.143
824.78	-47.619
825.08	-10.714
825.38	-11.111
825.69	-19.355
825.99	-21.951
826.29	-40.741
826.59	-25.000
826.89	-41.935
827.19	-34.783
827.49	-58.333
827.79	-73.913
828.09	-38.710
828.39	-12.500
828.70	-68.750
829.00	-44.828
829.30	-10.811
829.60	-104.167
829.90	-14.815
830.20	-9.375
830.50	-50.000
830.80	-111.765
831.10	-36.364
831.40	-35.294
831.70	-34.615
832.00	-18.182
832.30	2.941
832.60	-2.703
832.90	1800.000
833.20	-35.714
833.50	-50.000
833.80	-28.947
834.10	-70.833
834.40	-77.273
834.70	-126.667
835.00	-180.000
835.30	-58.333
835.60	-90.476
835.90	-80.952
836.20	-44.000
836.50	-62.500
836.80	-115.789
837.10	-8.108
837.40	0.000
837.70	-65.217
838.00	-25.000
838.30	-31.579
838.60	-210.000
838.90	-180.000
839.19	-91.667
839.49	-30.769
839.79	-73.684
840.09	-433.333
840.39	-140.000
840.69	-81.818
840.99	-61.905
841.29	-45.833
841.59	-115.385
841.88	-160.000
842.18	-71.429
842.48	-33.333
842.78	-371.429
843.08	-71.429
843.38	-100.000
843.68	-131.250
843.97	-28.571
844.27	-200.000
844.57	-172.727
844.87	-140.000
845.17	-13.636
845.47	933.333
845.76	-86.667
846.06	-216.667
846.36	-1000.000
846.66	-57.895
846.96	-59.091
847.25	-44.444
847.55	-155.556
847.85	-47.619
848.15	-69.231
848.44	-366.667
848.74	-150.000
849.04	-76.923
849.34	-375.000
849.63	-181.818
849.93	-135.714
850.23	-20.000
850.53	-237.500
850.82	-5.556
851.12	-73.333
851.42	-88.235
851.71	-162.500
852.01	0.000
852.31	-69.231
852.61	700.000
852.90	-64.706
853.20	-113.333
853.50	-56.250
853.79	-107.143
854.09	-425.000
854.39	-55.000
854.68	-5.000
854.98	-19.048
855.28	-16.000
855.57	-50.000
855.87	-54.167
856.17	-64.000
856.46	-21.875
856.76	-5.000
857.05	-24.000
857.35	-125.000
857.65	-41.176
857.94	-166.667
858.24	-108.333
858.53	-40.000
858.83	-181.818
859.13	-20.000
859.42	-107.143
859.72	-187.500
860.01	4.167
860.31	-237.500
860.60	-31.250
860.90	-200.000
861.20	-83.333
861.49	-66.667
861.79	-81.250
862.08	375.000
862.38	-116.667
862.67	342.857
862.97	375.000
863.26	-127.273
863.56	-109.091
863.85	-31.579
864.15	-70.588
864.44	-360.000
864.74	-160.000
865.03	-255.556
865.33	0.000
865.62	92.857
865.92	-26.316
866.21	-77.778
866.51	-18.182
866.80	-166.667
867.10	-275.000
867.39	-6.250
867.69	-146.667
867.98	-120.000
868.27	-58.824
868.57	0.000
868.86	650.000
869.16	-325.000
869.45	-185.714
869.75	750.000
870.04	-140.000
870.33	-1900.000
870.63	-26.316
870.92	-166.667
871.22	-2100.000
871.51	-157.143
871.80	-255.556
872.10	-325.000
>>>>>End Processed Spectral Data<<<<<
