SpectraSuite Data File
++++++++++++++++++++++++++++++++++++
Date: Wed May 13 21:37:00 PDT 2015
User: schluterlab
Dark Spectrum Present: Yes
Reference Spectrum Present: Yes
Number of Sampled Component Spectra: 1
Spectrometers: USB2E3373
Integration Time (usec): 3000 (USB2E3373)
Spectra Averaged: 3 (USB2E3373)
Boxcar Smoothing: 0 (USB2E3373)
Correct for Electrical Dark: No (USB2E3373)
Strobe/Lamp Enabled: No (USB2E3373)
Correct for Detector Non-linearity: No (USB2E3373)
Correct for Stray Light: No (USB2E3373)
Number of Pixels in Processed Spectrum: 2048
>>>>>Begin Processed Spectral Data<<<<<
178.53	0.000
178.91	950.000
179.29	250.000
179.67	-1250.000
180.04	-466.667
180.42	240.000
180.80	1300.000
181.18	350.000
181.56	-725.000
181.94	-625.000
182.31	-100.000
182.69	261.538
183.07	-180.000
183.45	400.000
183.83	233.333
184.20	200.000
184.58	-200.000
184.96	433.333
185.34	314.286
185.72	0.000
186.09	-1100.000
186.47	-420.000
186.85	200.000
187.23	-650.000
187.61	800.000
187.98	1600.000
188.36	-50.000
188.74	0.000
189.12	-63.636
189.49	30.000
189.87	100.000
190.25	480.000
190.63	700.000
191.00	-60.000
191.38	140.000
191.76	250.000
192.14	158.333
192.51	10.526
192.89	633.333
193.27	375.000
193.65	-300.000
194.02	290.909
194.40	260.000
194.78	-800.000
195.15	180.000
195.53	-260.000
195.91	-75.000
196.29	-233.333
196.66	0.000
197.04	450.000
197.42	-160.000
197.79	-50.000
198.17	-237.500
198.55	-66.667
198.92	425.000
199.30	-633.333
199.68	-60.000
200.05	750.000
200.43	233.333
200.81	-1800.000
201.18	-200.000
201.56	-200.000
201.94	550.000
202.31	-4.348
202.69	-142.857
203.07	-366.667
203.44	-180.000
203.82	-300.000
204.19	-50.000
204.57	0.000
204.95	-250.000
205.32	0.000
205.70	-500.000
206.08	-425.000
206.45	-200.000
206.83	375.000
207.20	-333.333
207.58	-160.000
207.96	-1700.000
208.33	-157.143
208.71	-2900.000
209.08	250.000
209.46	475.000
209.84	0.000
210.21	70.000
210.59	1400.000
210.96	140.000
211.34	300.000
211.71	-1050.000
212.09	-150.000
212.46	-80.000
212.84	-233.333
213.22	-175.000
213.59	-1000.000
213.97	-250.000
214.34	-800.000
214.72	-92.308
215.09	337.500
215.47	233.333
215.84	1150.000
216.22	-212.500
216.59	-400.000
216.97	800.000
217.34	211.111
217.72	0.000
218.09	400.000
218.47	-1400.000
218.84	-257.143
219.22	-112.500
219.59	-400.000
219.97	-375.000
220.34	-162.500
220.72	-200.000
221.09	0.000
221.47	-283.333
221.84	-1500.000
222.22	0.000
222.59	1700.000
222.97	-266.667
223.34	-91.667
223.72	-1500.000
224.09	-800.000
224.46	-63.636
224.84	-125.000
225.21	-100.000
225.59	-300.000
225.96	-100.000
226.34	-160.000
226.71	-200.000
227.08	1400.000
227.46	-150.000
227.83	-700.000
228.21	6.250
228.58	-300.000
228.95	-29.412
229.33	-31.250
229.70	-137.500
230.08	-7.692
230.45	-150.000
230.82	-150.000
231.20	314.286
231.57	-575.000
231.95	1700.000
232.32	8.333
232.69	-58.824
233.07	-1700.000
233.44	-30.435
233.81	-750.000
234.19	-20.833
234.56	-113.333
234.93	-80.000
235.31	-26.316
235.68	-92.308
236.05	-53.846
236.43	-44.444
236.80	-36.364
237.17	-93.333
237.55	-52.941
237.92	-10.345
238.29	-37.037
238.67	5.556
239.04	0.000
239.41	4.255
239.79	6.383
240.16	9.302
240.53	17.857
240.91	0.000
241.28	-1.786
241.65	24.194
242.02	6.579
242.40	13.043
242.77	4.348
243.14	11.538
243.51	26.596
243.89	10.577
244.26	30.189
244.63	21.154
245.00	26.042
245.38	27.731
245.75	16.393
246.12	19.549
246.49	14.634
246.87	7.563
247.24	26.351
247.61	26.490
247.98	23.718
248.36	23.077
248.73	23.596
249.10	23.232
249.47	22.043
249.84	26.316
250.22	25.373
250.59	26.168
250.96	25.455
251.33	18.660
251.70	30.544
252.08	26.778
252.45	24.280
252.82	29.658
253.19	25.681
253.56	22.302
253.94	28.114
254.31	24.648
254.68	25.168
255.05	24.422
255.42	22.028
255.79	27.301
256.16	27.129
256.54	29.524
256.91	23.101
257.28	27.358
257.65	24.522
258.02	24.047
258.39	27.778
258.76	27.616
259.14	22.443
259.51	25.281
259.88	23.577
260.25	26.944
260.62	28.652
260.99	27.321
261.36	27.979
261.73	26.173
262.10	23.919
262.47	23.951
262.85	30.597
263.22	28.462
263.59	29.610
263.96	26.764
264.33	25.240
264.70	28.140
265.07	29.398
265.44	27.126
265.81	26.773
266.18	25.968
266.55	27.293
266.92	27.966
267.29	27.160
267.66	27.813
268.03	26.337
268.40	24.788
268.77	26.860
269.14	29.184
269.51	29.158
269.88	26.273
270.25	28.602
270.62	25.000
270.99	26.181
271.36	28.571
271.73	26.908
272.10	25.714
272.47	28.791
272.84	27.165
273.21	26.419
273.58	26.639
273.95	26.038
274.32	29.104
274.69	26.230
275.06	29.329
275.43	29.944
275.80	28.014
276.17	27.256
276.54	26.821
276.91	26.655
277.28	25.090
277.65	26.224
278.02	26.429
278.39	25.933
278.76	25.251
279.13	27.101
279.50	25.690
279.87	25.543
280.23	27.928
280.60	27.163
280.97	24.513
281.34	27.287
281.71	26.341
282.08	27.692
282.45	28.689
282.82	27.796
283.19	26.829
283.56	27.187
283.92	25.229
284.29	25.741
284.66	24.876
285.03	26.384
285.40	25.076
285.77	26.727
286.14	26.748
286.51	29.535
286.87	23.846
287.24	26.106
287.61	25.753
287.98	25.588
288.35	24.143
288.72	28.121
289.08	24.786
289.45	24.816
289.82	25.870
290.19	25.666
290.56	24.006
290.93	23.481
291.29	24.624
291.66	22.268
292.03	24.523
292.40	23.419
292.77	22.892
293.13	22.176
293.50	23.529
293.87	24.400
294.24	23.810
294.60	22.627
294.97	23.545
295.34	21.372
295.71	21.025
296.08	21.466
296.44	21.301
296.81	22.777
297.18	22.125
297.55	21.698
297.91	21.118
298.28	23.002
298.65	22.044
299.02	23.321
299.38	21.595
299.75	21.514
300.12	20.233
300.48	20.702
300.85	20.208
301.22	21.022
301.59	20.540
301.95	20.441
302.32	20.303
302.69	20.113
303.05	20.487
303.42	21.250
303.79	20.505
304.15	20.701
304.52	20.430
304.89	20.155
305.25	19.539
305.62	19.523
305.99	19.695
306.35	19.331
306.72	19.939
307.09	20.751
307.45	18.637
307.82	20.000
308.19	20.167
308.55	20.573
308.92	21.022
309.29	20.621
309.65	18.581
310.02	20.577
310.38	20.833
310.75	20.414
311.12	20.117
311.48	19.980
311.85	21.260
312.22	20.503
312.58	20.097
312.95	18.607
313.31	20.478
313.68	20.038
314.05	21.739
314.41	20.941
314.78	20.873
315.14	22.500
315.51	21.598
315.87	21.872
316.24	22.590
316.61	22.466
316.97	21.852
317.34	21.836
317.70	23.461
318.07	23.869
318.43	23.668
318.80	23.124
319.16	23.607
319.53	23.746
319.89	24.932
320.26	25.970
320.62	26.413
320.99	25.000
321.35	26.380
321.72	27.141
322.08	28.044
322.45	29.047
322.81	29.298
323.18	30.501
323.54	32.310
323.91	32.882
324.27	32.043
324.64	30.575
325.00	33.246
325.37	35.495
325.73	35.690
326.10	35.744
326.46	36.873
326.83	37.783
327.19	39.187
327.56	40.693
327.92	40.788
328.29	41.820
328.65	42.945
329.01	42.832
329.38	44.174
329.74	44.807
330.11	44.995
330.47	44.705
330.84	46.570
331.20	46.200
331.56	47.917
331.93	47.890
332.29	49.175
332.66	47.373
333.02	50.130
333.38	50.263
333.75	48.720
334.11	50.781
334.48	50.480
334.84	50.883
335.20	49.743
335.57	50.305
335.93	50.945
336.29	51.401
336.66	50.598
337.02	50.522
337.38	49.521
337.75	51.335
338.11	50.897
338.47	51.199
338.84	51.117
339.20	52.557
339.56	50.512
339.93	52.636
340.29	53.373
340.65	52.609
341.02	53.328
341.38	54.054
341.74	51.681
342.11	51.858
342.47	52.385
342.83	52.533
343.20	53.892
343.56	54.211
343.92	52.478
344.28	53.571
344.65	52.408
345.01	52.139
345.37	55.592
345.73	54.085
346.10	52.648
346.46	52.846
346.82	53.692
347.19	54.747
347.55	54.766
347.91	52.767
348.27	54.180
348.63	54.006
349.00	53.381
349.36	53.454
349.72	53.751
350.08	53.900
350.45	54.424
350.81	53.834
351.17	54.042
351.53	54.281
351.89	55.044
352.26	53.282
352.62	54.651
352.98	54.313
353.34	55.072
353.70	54.829
354.07	55.765
354.43	54.355
354.79	55.609
355.15	53.882
355.51	53.834
355.87	54.027
356.24	55.457
356.60	56.841
356.96	55.564
357.32	55.573
357.68	55.844
358.04	54.461
358.40	54.729
358.77	54.205
359.13	55.720
359.49	54.504
359.85	53.677
360.21	55.821
360.57	55.894
360.93	55.008
361.29	56.255
361.66	57.707
362.02	54.781
362.38	55.465
362.74	54.460
363.10	54.085
363.46	55.331
363.82	56.098
364.18	56.128
364.54	55.799
364.90	54.843
365.26	54.848
365.62	54.972
365.98	56.014
366.35	56.170
366.71	54.351
367.07	55.422
367.43	56.376
367.79	55.664
368.15	55.204
368.51	55.977
368.87	55.618
369.23	54.947
369.59	55.391
369.95	58.055
370.31	55.509
370.67	55.902
371.03	56.719
371.39	55.358
371.75	56.143
372.11	56.695
372.47	56.813
372.83	56.380
373.19	56.475
373.55	56.936
373.91	55.375
374.27	54.910
374.63	56.686
374.99	55.641
375.35	55.342
375.71	55.639
376.07	56.957
376.42	56.016
376.78	56.935
377.14	57.424
377.50	55.932
377.86	56.574
378.22	56.005
378.58	56.873
378.94	57.250
379.30	57.214
379.66	57.152
380.02	57.292
380.38	56.627
380.74	57.920
381.09	55.790
381.45	56.651
381.81	56.993
382.17	56.144
382.53	55.323
382.89	56.755
383.25	57.716
383.61	57.203
383.97	56.812
384.32	56.711
384.68	56.632
385.04	55.773
385.40	57.036
385.76	56.752
386.12	56.359
386.48	57.179
386.83	56.446
387.19	57.804
387.55	58.492
387.91	57.565
388.27	57.522
388.62	56.055
388.98	57.196
389.34	56.892
389.70	57.937
390.06	57.125
390.42	57.281
390.77	55.798
391.13	56.944
391.49	55.851
391.85	55.911
392.20	56.015
392.56	57.460
392.92	55.822
393.28	56.304
393.64	57.064
393.99	54.896
394.35	56.111
394.71	57.179
395.07	54.906
395.42	56.795
395.78	55.663
396.14	56.183
396.50	57.070
396.85	57.234
397.21	55.493
397.57	55.466
397.92	55.389
398.28	55.838
398.64	56.223
399.00	54.743
399.35	56.243
399.71	55.737
400.07	56.325
400.42	55.486
400.78	54.139
401.14	56.223
401.49	55.063
401.85	55.897
402.21	56.904
402.57	55.303
402.92	56.633
403.28	54.159
403.63	55.735
403.99	56.430
404.35	56.484
404.70	53.958
405.06	54.727
405.42	54.083
405.77	53.687
406.13	53.657
406.49	53.625
406.84	54.518
407.20	52.931
407.55	55.195
407.91	53.011
408.27	52.152
408.62	54.942
408.98	54.377
409.34	53.218
409.69	54.516
410.05	54.415
410.40	52.952
410.76	54.693
411.11	53.047
411.47	54.944
411.83	53.150
412.18	53.401
412.54	55.201
412.89	53.856
413.25	53.628
413.60	53.292
413.96	52.622
414.31	53.453
414.67	51.619
415.03	52.571
415.38	52.642
415.74	52.762
416.09	53.536
416.45	52.495
416.80	52.819
417.16	53.441
417.51	52.981
417.87	53.902
418.22	52.877
418.58	52.102
418.93	52.103
419.29	53.069
419.64	52.545
420.00	52.254
420.35	52.779
420.71	53.748
421.06	52.214
421.42	54.562
421.77	53.064
422.12	52.665
422.48	52.181
422.83	52.215
423.19	53.997
423.54	53.239
423.90	52.613
424.25	51.935
424.61	53.235
424.96	52.277
425.31	51.318
425.67	53.028
426.02	53.180
426.38	53.234
426.73	52.046
427.09	52.283
427.44	51.850
427.79	52.197
428.15	52.294
428.50	52.024
428.85	52.091
429.21	50.985
429.56	51.807
429.92	51.848
430.27	51.585
430.62	51.784
430.98	52.776
431.33	51.961
431.68	52.875
432.04	52.507
432.39	52.425
432.74	52.054
433.10	52.179
433.45	50.414
433.80	52.816
434.16	50.956
434.51	51.413
434.86	52.827
435.22	52.009
435.57	52.150
435.92	51.628
436.28	51.111
436.63	51.674
436.98	51.998
437.34	52.442
437.69	50.945
438.04	51.839
438.39	54.172
438.75	51.967
439.10	53.441
439.45	52.119
439.81	52.771
440.16	51.478
440.51	52.259
440.86	52.460
441.22	51.922
441.57	51.573
441.92	51.737
442.27	51.840
442.63	52.583
442.98	52.257
443.33	52.314
443.68	51.713
444.03	51.913
444.39	51.760
444.74	51.518
445.09	50.716
445.44	52.394
445.79	51.781
446.15	52.745
446.50	52.148
446.85	52.966
447.20	52.901
447.55	53.050
447.91	51.854
448.26	51.801
448.61	52.244
448.96	52.847
449.31	52.256
449.66	52.979
450.02	52.018
450.37	52.115
450.72	51.780
451.07	51.912
451.42	52.152
451.77	52.343
452.12	52.050
452.47	53.389
452.83	51.474
453.18	50.732
453.53	50.820
453.88	51.386
454.23	52.225
454.58	51.716
454.93	51.187
455.28	53.051
455.63	50.967
455.98	51.795
456.34	52.003
456.69	51.629
457.04	50.588
457.39	51.714
457.74	50.389
458.09	52.251
458.44	51.645
458.79	50.961
459.14	50.506
459.49	52.073
459.84	49.718
460.19	52.041
460.54	50.973
460.89	51.914
461.24	50.555
461.59	51.268
461.94	51.896
462.29	50.919
462.64	50.462
462.99	51.442
463.34	51.865
463.69	50.129
464.04	49.700
464.39	50.153
464.74	50.614
465.09	50.155
465.44	49.888
465.79	50.949
466.14	49.430
466.49	50.088
466.84	49.791
467.19	50.637
467.54	50.421
467.89	49.151
468.24	51.752
468.59	50.159
468.94	49.489
469.29	49.835
469.64	50.418
469.99	49.793
470.34	49.022
470.68	50.781
471.03	49.295
471.38	49.026
471.73	49.588
472.08	49.003
472.43	50.330
472.78	49.899
473.13	47.164
473.48	48.532
473.83	49.027
474.17	48.958
474.52	50.485
474.87	49.276
475.22	48.913
475.57	48.745
475.92	49.182
476.27	48.485
476.61	49.660
476.96	49.343
477.31	48.328
477.66	49.153
478.01	47.253
478.36	48.011
478.70	49.463
479.05	48.224
479.40	47.946
479.75	50.159
480.10	47.833
480.45	47.474
480.79	48.980
481.14	49.899
481.49	48.347
481.84	47.078
482.19	47.661
482.53	47.857
482.88	48.993
483.23	48.027
483.58	47.873
483.92	48.054
484.27	46.706
484.62	47.403
484.97	48.569
485.31	47.413
485.66	45.665
486.01	46.071
486.36	46.496
486.70	48.183
487.05	48.346
487.40	47.740
487.75	48.722
488.09	48.796
488.44	48.195
488.79	48.486
489.13	46.998
489.48	46.516
489.83	47.611
490.17	47.299
490.52	47.733
490.87	46.407
491.22	45.926
491.56	47.724
491.91	47.000
492.26	46.712
492.60	47.234
492.95	46.939
493.30	45.203
493.64	45.851
493.99	46.280
494.34	46.484
494.68	46.683
495.03	47.233
495.37	46.180
495.72	46.216
496.07	47.199
496.41	46.420
496.76	45.841
497.11	45.962
497.45	45.379
497.80	47.400
498.14	46.801
498.49	46.193
498.84	46.609
499.18	44.749
499.53	45.101
499.87	45.560
500.22	45.993
500.56	45.537
500.91	46.579
501.26	45.172
501.60	45.784
501.95	45.759
502.29	45.388
502.64	46.384
502.98	44.605
503.33	45.499
503.67	44.742
504.02	45.000
504.36	44.676
504.71	44.614
505.06	45.848
505.40	46.186
505.75	45.270
506.09	45.018
506.44	44.708
506.78	45.099
507.13	44.854
507.47	45.493
507.82	44.846
508.16	44.538
508.51	45.300
508.85	44.997
509.19	44.603
509.54	46.220
509.88	44.194
510.23	43.895
510.57	44.174
510.92	44.504
511.26	44.939
511.61	44.182
511.95	43.605
512.30	43.420
512.64	45.176
512.98	43.989
513.33	43.268
513.67	43.725
514.02	43.729
514.36	43.764
514.70	43.418
515.05	44.529
515.39	43.809
515.74	44.879
516.08	42.537
516.42	42.742
516.77	42.414
517.11	43.621
517.46	42.917
517.80	44.734
518.14	43.478
518.49	43.520
518.83	42.661
519.17	43.554
519.52	43.305
519.86	43.959
520.20	42.450
520.55	42.475
520.89	43.833
521.23	44.487
521.58	43.489
521.92	43.243
522.26	42.290
522.61	43.245
522.95	43.264
523.29	43.302
523.64	43.420
523.98	42.821
524.32	43.352
524.66	43.117
525.01	43.447
525.35	43.252
525.69	43.009
526.04	41.694
526.38	43.021
526.72	43.327
527.06	41.070
527.41	41.827
527.75	41.121
528.09	43.839
528.43	43.351
528.78	41.796
529.12	41.527
529.46	41.267
529.80	42.201
530.15	42.149
530.49	42.318
530.83	41.706
531.17	41.986
531.51	40.661
531.86	40.786
532.20	41.626
532.54	40.690
532.88	40.912
533.22	41.481
533.57	41.854
533.91	43.161
534.25	42.839
534.59	43.115
534.93	40.115
535.27	42.229
535.62	42.039
535.96	40.729
536.30	41.822
536.64	41.080
536.98	40.785
537.32	40.427
537.66	41.326
538.01	40.707
538.35	40.401
538.69	40.268
539.03	40.067
539.37	40.241
539.71	40.723
540.05	39.136
540.39	39.917
540.73	39.735
541.07	40.476
541.42	40.337
541.76	40.122
542.10	40.487
542.44	38.808
542.78	41.152
543.12	40.364
543.46	39.945
543.80	39.647
544.14	40.881
544.48	39.416
544.82	40.753
545.16	40.095
545.50	40.581
545.84	39.691
546.18	39.762
546.52	39.167
546.86	39.717
547.20	39.242
547.54	39.814
547.88	39.204
548.22	39.739
548.56	39.960
548.90	39.919
549.24	39.444
549.58	39.431
549.92	40.646
550.26	39.779
550.60	38.589
550.94	38.582
551.28	38.759
551.62	38.872
551.96	38.873
552.30	37.991
552.64	37.712
552.98	39.702
553.32	39.654
553.66	40.132
554.00	37.941
554.34	38.681
554.68	38.702
555.02	38.997
555.36	39.637
555.69	38.165
556.03	39.099
556.37	37.553
556.71	37.491
557.05	39.114
557.39	38.056
557.73	38.124
558.07	37.830
558.41	39.213
558.75	38.876
559.08	38.412
559.42	39.339
559.76	38.456
560.10	37.510
560.44	39.130
560.78	38.633
561.12	37.491
561.45	38.231
561.79	37.483
562.13	38.467
562.47	38.429
562.81	38.312
563.15	36.756
563.48	37.164
563.82	38.167
564.16	37.915
564.50	38.128
564.84	37.230
565.17	37.881
565.51	38.570
565.85	37.708
566.19	37.881
566.52	37.484
566.86	37.042
567.20	37.813
567.54	36.903
567.88	36.506
568.21	36.393
568.55	37.715
568.89	37.089
569.23	36.847
569.56	37.630
569.90	37.117
570.24	36.570
570.57	35.858
570.91	36.784
571.25	36.019
571.59	36.200
571.92	36.990
572.26	37.452
572.60	37.512
572.93	37.113
573.27	37.352
573.61	36.798
573.95	36.753
574.28	36.685
574.62	36.115
574.96	36.934
575.29	36.359
575.63	36.644
575.97	37.527
576.30	36.096
576.64	36.626
576.98	36.428
577.31	36.683
577.65	36.183
577.98	36.375
578.32	36.718
578.66	36.926
578.99	37.019
579.33	36.432
579.67	36.991
580.00	35.826
580.34	36.306
580.67	37.114
581.01	36.217
581.35	35.775
581.68	35.699
582.02	36.090
582.35	36.329
582.69	36.367
583.02	35.604
583.36	35.948
583.70	36.695
584.03	36.937
584.37	35.601
584.70	36.325
585.04	36.661
585.37	35.942
585.71	35.649
586.04	36.266
586.38	35.701
586.72	36.049
587.05	36.069
587.39	36.275
587.72	35.691
588.06	36.306
588.39	35.376
588.73	35.710
589.06	36.211
589.40	36.051
589.73	35.070
590.07	35.800
590.40	35.933
590.73	36.548
591.07	36.314
591.40	35.217
591.74	35.171
592.07	35.737
592.41	35.736
592.74	35.918
593.08	35.009
593.41	35.421
593.75	35.110
594.08	35.199
594.41	35.210
594.75	35.007
595.08	35.624
595.42	34.610
595.75	35.864
596.09	35.912
596.42	35.580
596.75	35.717
597.09	35.669
597.42	35.621
597.75	35.244
598.09	34.517
598.42	35.526
598.76	35.474
599.09	35.494
599.42	34.441
599.76	34.998
600.09	34.526
600.42	34.162
600.76	34.035
601.09	34.765
601.42	35.319
601.76	34.286
602.09	35.266
602.42	35.328
602.76	35.151
603.09	34.908
603.42	34.946
603.76	34.996
604.09	34.348
604.42	34.826
604.76	35.137
605.09	34.617
605.42	35.852
605.75	34.218
606.09	33.526
606.42	34.830
606.75	34.069
607.09	34.220
607.42	34.501
607.75	33.348
608.08	34.671
608.42	34.255
608.75	35.308
609.08	33.513
609.41	35.072
609.75	34.191
610.08	34.024
610.41	34.645
610.74	33.975
611.07	34.619
611.41	34.852
611.74	34.731
612.07	32.830
612.40	34.973
612.73	33.315
613.07	33.370
613.40	34.802
613.73	34.615
614.06	33.057
614.39	33.130
614.72	34.870
615.06	33.833
615.39	33.664
615.72	32.775
616.05	34.234
616.38	34.192
616.71	32.693
617.05	34.459
617.38	33.395
617.71	33.211
618.04	32.419
618.37	34.006
618.70	33.959
619.03	33.058
619.36	33.594
619.69	33.406
620.03	33.004
620.36	32.985
620.69	31.906
621.02	33.846
621.35	33.115
621.68	33.496
622.01	32.362
622.34	32.514
622.67	32.420
623.00	34.043
623.33	32.311
623.66	32.639
623.99	33.458
624.32	32.575
624.65	32.567
624.99	32.403
625.32	32.786
625.65	32.016
625.98	32.070
626.31	32.245
626.64	32.932
626.97	31.747
627.30	33.447
627.63	32.007
627.96	31.602
628.29	33.674
628.62	33.752
628.95	31.663
629.28	31.527
629.61	31.770
629.94	31.528
630.26	33.300
630.59	34.466
630.92	31.124
631.25	32.956
631.58	32.120
631.91	30.541
632.24	30.516
632.57	31.667
632.90	33.022
633.23	30.216
633.56	32.254
633.89	31.459
634.22	33.687
634.55	32.521
634.88	31.985
635.20	32.000
635.53	30.362
635.86	29.231
636.19	31.266
636.52	30.366
636.85	31.484
637.18	29.354
637.51	31.461
637.83	30.287
638.16	31.200
638.49	28.037
638.82	31.373
639.15	30.053
639.48	30.615
639.81	30.278
640.13	32.113
640.46	30.650
640.79	30.360
641.12	29.882
641.45	30.568
641.77	29.897
642.10	30.560
642.43	30.503
642.76	28.549
643.09	29.872
643.41	30.303
643.74	30.856
644.07	28.964
644.40	28.690
644.73	31.695
645.05	29.494
645.38	31.229
645.71	32.653
646.04	29.125
646.36	31.076
646.69	29.545
647.02	28.962
647.35	29.982
647.67	29.390
648.00	29.348
648.33	28.814
648.66	29.716
648.98	29.037
649.31	29.908
649.64	29.890
649.96	31.596
650.29	27.614
650.62	29.160
650.94	29.483
651.27	30.035
651.60	29.021
651.92	29.928
652.25	32.161
652.58	29.208
652.90	28.956
653.23	27.674
653.56	29.421
653.88	27.645
654.21	29.352
654.54	27.243
654.86	28.943
655.19	29.692
655.52	30.948
655.84	30.542
656.17	36.991
656.49	49.758
656.82	49.736
657.15	37.839
657.47	28.568
657.80	21.402
658.13	22.827
658.45	33.665
658.78	33.582
659.10	33.012
659.43	32.620
659.75	32.225
660.08	31.448
660.41	29.412
660.73	29.477
661.06	29.762
661.38	28.682
661.71	29.303
662.03	29.598
662.36	30.973
662.68	31.183
663.01	30.297
663.33	27.862
663.66	24.169
663.98	29.438
664.31	29.011
664.63	25.000
664.96	31.072
665.28	30.258
665.61	29.158
665.93	26.338
666.26	28.903
666.58	27.409
666.91	28.700
667.23	29.493
667.56	27.816
667.88	27.804
668.21	27.232
668.53	28.736
668.86	25.899
669.18	30.496
669.50	28.802
669.83	28.162
670.15	23.810
670.48	26.667
670.80	31.072
671.13	28.375
671.45	26.256
671.77	26.940
672.10	28.265
672.42	27.672
672.75	27.857
673.07	26.545
673.39	28.172
673.72	27.545
674.04	27.254
674.37	28.049
674.69	26.955
675.01	27.778
675.34	25.164
675.66	28.322
675.98	27.434
676.31	26.923
676.63	30.839
676.95	27.529
677.28	26.606
677.60	29.412
677.92	28.825
678.25	29.501
678.57	28.310
678.89	26.439
679.22	25.880
679.54	30.204
679.86	29.492
680.18	28.654
680.51	25.192
680.83	24.951
681.15	28.487
681.48	28.657
681.80	25.153
682.12	26.250
682.44	25.956
682.77	24.842
683.09	26.116
683.41	29.302
683.73	27.679
684.06	28.761
684.38	24.786
684.70	27.902
685.02	29.339
685.34	28.571
685.67	29.831
685.99	24.199
686.31	26.207
686.63	25.735
686.96	26.531
687.28	28.543
687.60	29.868
687.92	27.237
688.24	28.200
688.56	27.632
688.89	26.503
689.21	26.906
689.53	23.423
689.85	25.393
690.17	25.714
690.49	23.671
690.82	23.389
691.14	27.295
691.46	28.074
691.78	27.692
692.10	26.964
692.42	26.154
692.74	24.783
693.06	26.067
693.39	24.356
693.71	28.222
694.03	30.227
694.35	27.027
694.67	24.750
694.99	29.639
695.31	28.165
695.63	24.146
695.95	23.410
696.27	23.014
696.59	25.538
696.91	23.743
697.23	23.604
697.56	26.379
697.88	26.819
698.20	26.782
698.52	25.000
698.84	28.230
699.16	25.768
699.48	29.383
699.80	29.716
700.12	26.542
700.44	22.254
700.76	26.124
701.08	23.867
701.40	25.749
701.72	23.692
702.04	23.585
702.36	19.207
702.68	24.695
703.00	28.070
703.32	24.234
703.64	25.000
703.96	24.047
704.28	23.193
704.60	25.610
704.91	23.197
705.23	24.684
705.55	24.138
705.87	27.465
706.19	21.978
706.51	20.423
706.83	22.611
707.15	24.695
707.47	26.722
707.79	27.157
708.11	22.879
708.43	26.650
708.74	23.670
709.06	22.460
709.38	24.496
709.70	23.423
710.02	20.561
710.34	23.333
710.66	24.104
710.98	22.291
711.29	23.701
711.61	25.806
711.93	23.226
712.25	15.734
712.57	15.789
712.89	20.147
713.20	22.695
713.52	22.628
713.84	22.258
714.16	22.006
714.48	24.684
714.80	20.447
715.11	28.488
715.43	22.360
715.75	25.466
716.07	22.892
716.39	27.946
716.70	21.942
717.02	22.353
717.34	19.697
717.66	18.103
717.97	21.032
718.29	26.772
718.61	21.888
718.93	27.132
719.24	22.509
719.56	25.094
719.88	24.627
720.20	21.344
720.51	22.656
720.83	25.292
721.15	15.041
721.46	16.794
721.78	25.896
722.10	20.319
722.42	17.742
722.73	20.077
723.05	27.755
723.37	25.630
723.68	23.200
724.00	22.553
724.32	16.318
724.63	23.868
724.95	20.085
725.27	26.582
725.58	24.691
725.90	28.452
726.22	23.913
726.53	20.784
726.85	21.533
727.16	22.222
727.48	25.287
727.80	22.656
728.11	24.180
728.43	25.000
728.74	19.444
729.06	20.000
729.38	24.111
729.69	25.267
730.01	20.074
730.32	25.830
730.64	21.212
730.96	30.769
731.27	22.742
731.59	20.317
731.90	20.388
732.22	18.590
732.53	23.311
732.85	21.812
733.16	23.762
733.48	26.351
733.80	19.932
734.11	23.649
734.43	21.053
734.74	25.826
735.06	21.902
735.37	25.532
735.69	24.919
736.00	22.442
736.32	21.277
736.63	24.138
736.95	25.342
737.26	21.379
737.58	22.222
737.89	23.368
738.21	21.708
738.52	19.392
738.83	22.041
739.15	21.097
739.46	20.233
739.78	22.887
740.09	22.945
740.41	22.857
740.72	21.986
741.04	20.400
741.35	18.860
741.66	20.000
741.98	22.115
742.29	24.752
742.61	21.951
742.92	21.053
743.23	18.868
743.55	21.622
743.86	19.731
744.18	19.608
744.49	12.183
744.80	13.265
745.12	19.626
745.43	18.009
745.74	22.523
746.06	18.692
746.37	16.514
746.68	18.269
747.00	23.445
747.31	21.635
747.62	23.853
747.94	16.594
748.25	19.725
748.56	26.222
748.88	23.005
749.19	26.190
749.50	17.476
749.82	20.188
750.13	15.000
750.44	19.615
750.75	19.188
751.07	21.708
751.38	24.468
751.69	23.552
752.01	19.531
752.32	17.308
752.63	22.388
752.94	20.400
753.26	23.013
753.57	22.917
753.88	23.482
754.19	21.912
754.51	21.429
754.82	18.681
755.13	18.261
755.44	23.171
755.75	19.600
756.07	20.664
756.38	21.942
756.69	21.843
757.00	19.938
757.31	20.065
757.63	19.753
757.94	24.294
758.25	24.339
758.56	20.924
758.87	21.726
759.18	19.874
759.50	22.559
759.81	20.067
760.12	20.615
760.43	16.964
760.74	22.316
761.05	24.033
761.36	17.765
761.67	22.356
761.99	19.931
762.30	17.883
762.61	21.399
762.92	23.504
763.23	22.951
763.54	21.645
763.85	20.000
764.16	19.106
764.47	18.400
764.78	18.214
765.10	21.967
765.41	20.973
765.72	22.671
766.03	20.462
766.34	20.769
766.65	22.594
766.96	17.371
767.27	20.297
767.58	12.921
767.89	22.840
768.20	14.917
768.51	18.593
768.82	24.519
769.13	18.142
769.44	24.686
769.75	17.094
770.06	21.525
770.37	16.667
770.68	19.903
770.99	18.447
771.30	21.849
771.61	20.408
771.92	21.577
772.23	23.874
772.54	13.260
772.85	22.093
773.16	16.931
773.47	14.793
773.78	21.839
774.09	14.375
774.39	22.360
774.70	17.687
775.01	10.345
775.32	20.000
775.63	14.286
775.94	15.038
776.25	4.800
776.56	10.744
776.87	17.460
777.18	11.712
777.48	12.613
777.79	5.512
778.10	17.431
778.41	7.018
778.72	10.924
779.03	6.338
779.34	17.568
779.65	19.718
779.95	15.232
780.26	16.547
780.57	17.266
780.88	14.085
781.19	6.723
781.50	14.094
781.80	21.637
782.11	13.953
782.42	17.610
782.73	16.993
783.04	10.345
783.34	11.450
783.65	18.792
783.96	14.615
784.27	17.857
784.57	13.475
784.88	4.808
785.19	27.273
785.50	10.000
785.81	23.810
786.11	16.807
786.42	14.159
786.73	17.925
787.04	6.422
787.34	2.970
787.65	14.167
787.96	12.397
788.26	15.217
788.57	16.667
788.88	5.691
789.19	7.200
789.49	3.053
789.80	17.424
790.11	6.604
790.41	19.802
790.72	12.766
791.03	6.522
791.33	-2.353
791.64	-1.235
791.95	11.957
792.25	6.818
792.56	23.077
792.87	-3.846
793.17	-3.846
793.48	-1.190
793.79	1.250
794.09	22.115
794.40	12.500
794.70	11.712
795.01	13.281
795.32	5.217
795.62	-1.087
795.93	9.434
796.23	8.081
796.54	3.659
796.85	19.048
797.15	-3.030
797.46	13.043
797.76	2.632
798.07	14.773
798.37	3.659
798.68	-8.065
798.99	-2.703
799.29	12.048
799.60	0.000
799.90	-4.615
800.21	10.606
800.51	12.000
800.82	12.000
801.12	-35.417
801.43	-11.667
801.73	-4.054
802.04	18.571
802.34	-11.475
802.65	1.493
802.95	-5.455
803.26	-6.897
803.56	-10.769
803.87	-9.434
804.17	-4.839
804.48	-1.471
804.78	-39.024
805.09	10.145
805.39	4.412
805.70	-19.149
806.00	-3.509
806.30	17.949
806.61	21.053
806.91	-2.703
807.22	3.947
807.52	6.818
807.83	-20.339
808.13	-13.636
808.43	-16.667
808.74	-36.207
809.04	-4.762
809.35	-18.367
809.65	6.667
809.95	-26.531
810.26	15.493
810.56	16.667
810.86	-14.286
811.17	1.923
811.47	-17.021
811.77	-10.417
812.08	13.208
812.38	12.500
812.69	3.636
812.99	-2.439
813.29	-16.216
813.59	-16.216
813.90	-12.727
814.20	-12.727
814.50	10.000
814.81	-1.818
815.11	-8.772
815.41	30.233
815.72	0.000
816.02	-20.000
816.32	-18.919
816.62	4.167
816.93	4.444
817.23	6.667
817.53	-30.556
817.84	-24.324
818.14	-12.195
818.44	2.000
818.74	-26.531
819.04	-12.195
819.35	-47.222
819.65	15.909
819.95	-72.222
820.25	-3.030
820.56	-33.333
820.86	-61.111
821.16	-25.000
821.46	-32.609
821.76	-20.690
822.07	-2.174
822.37	0.000
822.67	17.073
822.97	13.514
823.27	-40.000
823.57	-6.897
823.88	-8.824
824.18	-11.111
824.48	-17.143
824.78	-85.714
825.08	-17.857
825.38	-14.815
825.69	-19.355
825.99	9.756
826.29	-29.630
826.59	-28.125
826.89	3.226
827.19	-60.870
827.49	-8.333
827.79	-43.478
828.09	-38.710
828.39	-8.333
828.70	-37.500
829.00	20.690
829.30	-35.135
829.60	-100.000
829.90	-29.630
830.20	-46.875
830.50	-22.727
830.80	-88.235
831.10	-54.545
831.40	-50.000
831.70	-53.846
832.00	-33.333
832.30	-14.706
832.60	-13.514
832.90	1200.000
833.20	-64.286
833.50	-100.000
833.80	-5.263
834.10	-58.333
834.40	-100.000
834.70	-86.667
835.00	-130.000
835.30	-54.167
835.60	-33.333
835.90	-42.857
836.20	-68.000
836.50	-20.833
836.80	-47.368
837.10	-18.919
837.40	33.333
837.70	-39.130
838.00	8.333
838.30	-31.579
838.60	-150.000
838.90	-170.000
839.19	-58.333
839.49	-53.846
839.79	-42.105
840.09	-150.000
840.39	-120.000
840.69	-54.545
840.99	-38.095
841.29	-50.000
841.59	-38.462
841.88	-100.000
842.18	-107.143
842.48	-6.667
842.78	-257.143
843.08	-57.143
843.38	-275.000
843.68	-87.500
843.97	-57.143
844.27	-222.222
844.57	-127.273
844.87	-113.333
845.17	-22.727
845.47	866.667
845.76	-73.333
846.06	-108.333
846.36	-1250.000
846.66	-68.421
846.96	-72.727
847.25	-77.778
847.55	-177.778
847.85	-76.190
848.15	-69.231
848.44	-116.667
848.74	-58.333
849.04	-84.615
849.34	-450.000
849.63	-154.545
849.93	-157.143
850.23	-15.000
850.53	-225.000
850.82	-44.444
851.12	-53.333
851.42	-29.412
851.71	-37.500
852.01	0.000
852.31	-153.846
852.61	650.000
852.90	-41.176
853.20	-6.667
853.50	-100.000
853.79	-207.143
854.09	-525.000
854.39	-30.000
854.68	2.500
854.98	-19.048
855.28	-32.000
855.57	8.333
855.87	-20.833
856.17	-28.000
856.46	-15.625
856.76	-15.000
857.05	-32.000
857.35	-75.000
857.65	-35.294
857.94	-200.000
858.24	-41.667
858.53	10.000
858.83	-127.273
859.13	0.000
859.42	-142.857
859.72	-137.500
860.01	-20.833
860.31	-225.000
860.60	18.750
860.90	-316.667
861.20	-150.000
861.49	-20.000
861.79	-56.250
862.08	375.000
862.38	-158.333
862.67	400.000
862.97	600.000
863.26	-145.455
863.56	-90.909
863.85	-10.526
864.15	-17.647
864.44	-280.000
864.74	-220.000
865.03	-233.333
865.33	-78.571
865.62	150.000
865.92	-21.053
866.21	-94.444
866.51	-36.364
866.80	-211.111
867.10	-225.000
867.39	0.000
867.69	-113.333
867.98	-50.000
868.27	-29.412
868.57	0.000
868.86	1050.000
869.16	-350.000
869.45	-300.000
869.75	600.000
870.04	-100.000
870.33	-1900.000
870.63	-10.526
870.92	-91.667
871.22	-2400.000
871.51	-257.143
871.80	-111.111
872.10	-525.000
>>>>>End Processed Spectral Data<<<<<
