SpectraSuite Data File
++++++++++++++++++++++++++++++++++++
Date: Wed May 13 21:36:51 PDT 2015
User: schluterlab
Dark Spectrum Present: Yes
Reference Spectrum Present: Yes
Number of Sampled Component Spectra: 1
Spectrometers: USB2E3373
Integration Time (usec): 3000 (USB2E3373)
Spectra Averaged: 3 (USB2E3373)
Boxcar Smoothing: 0 (USB2E3373)
Correct for Electrical Dark: No (USB2E3373)
Strobe/Lamp Enabled: No (USB2E3373)
Correct for Detector Non-linearity: No (USB2E3373)
Correct for Stray Light: No (USB2E3373)
Number of Pixels in Processed Spectrum: 2048
>>>>>Begin Processed Spectral Data<<<<<
178.53	0.000
178.91	950.000
179.29	258.333
179.67	-1050.000
180.04	-533.333
180.42	220.000
180.80	2100.000
181.18	266.667
181.56	-450.000
181.94	-425.000
182.31	-63.636
182.69	169.231
183.07	-200.000
183.45	366.667
183.83	300.000
184.20	185.714
184.58	-200.000
184.96	600.000
185.34	357.143
185.72	0.000
186.09	-1800.000
186.47	-260.000
186.85	80.000
187.23	-200.000
187.61	950.000
187.98	1500.000
188.36	-212.500
188.74	0.000
189.12	-118.182
189.49	70.000
189.87	158.333
190.25	360.000
190.63	2100.000
191.00	-300.000
191.38	380.000
191.76	475.000
192.14	191.667
192.51	-63.158
192.89	733.333
193.27	175.000
193.65	-320.000
194.02	172.727
194.40	180.000
194.78	-600.000
195.15	220.000
195.53	-160.000
195.91	-75.000
196.29	-200.000
196.66	0.000
197.04	750.000
197.42	-20.000
197.79	-80.000
198.17	-225.000
198.55	-466.667
198.92	200.000
199.30	-733.333
199.68	20.000
200.05	300.000
200.43	116.667
200.81	-1400.000
201.18	-160.000
201.56	-33.333
201.94	650.000
202.31	-30.435
202.69	-200.000
203.07	-500.000
203.44	-160.000
203.82	-366.667
204.19	-80.000
204.57	0.000
204.95	-200.000
205.32	0.000
205.70	-750.000
206.08	-525.000
206.45	-216.667
206.83	500.000
207.20	-700.000
207.58	-130.000
207.96	-2500.000
208.33	-285.714
208.71	-2200.000
209.08	287.500
209.46	650.000
209.84	0.000
210.21	110.000
210.59	2400.000
210.96	360.000
211.34	1700.000
211.71	-1250.000
212.09	-266.667
212.46	-170.000
212.84	-333.333
213.22	-150.000
213.59	-700.000
213.97	-750.000
214.34	-950.000
214.72	-46.154
215.09	262.500
215.47	222.222
215.84	700.000
216.22	-112.500
216.59	-500.000
216.97	666.667
217.34	100.000
217.72	0.000
218.09	600.000
218.47	-700.000
218.84	-57.143
219.22	-137.500
219.59	-200.000
219.97	-425.000
220.34	-62.500
220.72	-260.000
221.09	0.000
221.47	-250.000
221.84	-1600.000
222.22	0.000
222.59	1200.000
222.97	-333.333
223.34	-108.333
223.72	-1500.000
224.09	-950.000
224.46	18.182
224.84	25.000
225.21	-85.714
225.59	-525.000
225.96	-233.333
226.34	-70.000
226.71	-228.571
227.08	700.000
227.46	-62.500
227.83	-600.000
228.21	-37.500
228.58	-350.000
228.95	-82.353
229.33	-56.250
229.70	-37.500
230.08	-38.462
230.45	-175.000
230.82	-58.333
231.20	257.143
231.57	-350.000
231.95	1800.000
232.32	0.000
232.69	-47.059
233.07	-1000.000
233.44	-43.478
233.81	-1050.000
234.19	-20.833
234.56	-133.333
234.93	-126.667
235.31	-10.526
235.68	-92.308
236.05	-7.692
236.43	-38.889
236.80	-45.455
237.17	-60.000
237.55	-88.235
237.92	-62.069
238.29	-96.296
238.67	-19.444
239.04	-38.710
239.41	-23.404
239.79	2.128
240.16	0.000
240.53	3.571
240.91	5.357
241.28	-7.143
241.65	0.000
242.02	-3.947
242.40	2.899
242.77	-11.594
243.14	-10.256
243.51	1.064
243.89	-0.962
244.26	12.264
244.63	-7.692
245.00	-2.083
245.38	4.202
245.75	4.098
246.12	3.008
246.49	-3.252
246.87	-5.042
247.24	10.135
247.61	7.947
247.98	8.333
248.36	8.876
248.73	6.742
249.10	5.556
249.47	4.301
249.84	7.895
250.22	4.478
250.59	7.009
250.96	9.091
251.33	1.435
251.70	13.389
252.08	10.042
252.45	3.292
252.82	7.985
253.19	7.004
253.56	8.273
253.94	12.456
254.31	10.915
254.68	12.752
255.05	9.241
255.42	7.692
255.79	11.350
256.16	6.940
256.54	8.889
256.91	6.646
257.28	8.176
257.65	5.096
258.02	9.971
258.39	8.480
258.76	7.849
259.14	6.818
259.51	7.022
259.88	7.317
260.25	10.833
260.62	5.618
260.99	10.610
261.36	7.772
261.73	7.901
262.10	9.924
262.47	8.642
262.85	10.448
263.22	10.513
263.59	9.870
263.96	7.543
264.33	8.413
264.70	11.163
265.07	9.259
265.44	7.816
265.81	8.924
266.18	7.517
266.55	8.952
266.92	8.263
267.29	10.082
267.66	9.979
268.03	11.934
268.40	6.780
268.77	7.231
269.14	10.204
269.51	13.758
269.88	8.350
270.25	9.110
270.62	8.197
270.99	10.039
271.36	8.730
271.73	8.434
272.10	8.190
272.47	10.173
272.84	10.433
273.21	8.219
273.58	9.836
273.95	8.491
274.32	10.634
274.69	11.840
275.06	13.074
275.43	10.923
275.80	9.397
276.17	9.392
276.54	9.769
276.91	10.627
277.28	8.484
277.65	10.664
278.02	12.143
278.39	10.124
278.76	10.535
279.13	10.463
279.50	9.828
279.87	10.145
280.23	8.468
280.60	8.131
280.97	7.792
281.34	13.249
281.71	11.382
282.08	7.009
282.45	10.164
282.82	10.064
283.19	11.585
283.56	9.844
283.92	9.939
284.29	11.076
284.66	9.226
285.03	9.283
285.40	9.970
285.77	11.111
286.14	10.182
286.51	9.445
286.87	8.615
287.24	9.587
287.61	10.090
287.98	10.147
288.35	9.240
288.72	10.904
289.08	10.969
289.45	11.013
289.82	10.439
290.19	10.379
290.56	8.239
290.93	9.530
291.29	8.482
291.66	9.973
292.03	9.537
292.40	10.363
292.77	9.371
293.13	9.205
293.50	8.758
293.87	10.133
294.24	7.672
294.60	8.192
294.97	8.730
295.34	8.047
295.71	9.067
296.08	8.246
296.44	7.398
296.81	8.404
297.18	9.250
297.55	8.844
297.91	8.944
298.28	9.322
298.65	8.621
299.02	8.425
299.38	7.975
299.75	9.375
300.12	8.023
300.48	7.836
300.85	9.238
301.22	7.666
301.59	6.808
301.95	7.201
302.32	7.235
302.69	7.571
303.05	7.530
303.42	7.614
303.79	7.886
304.15	7.338
304.52	9.785
304.89	6.755
305.25	7.135
305.62	6.508
305.99	8.379
306.35	8.464
306.72	8.749
307.09	8.029
307.45	8.307
307.82	7.263
308.19	6.792
308.55	7.779
308.92	10.216
309.29	7.407
309.65	7.992
310.02	8.250
310.38	5.793
310.75	7.199
311.12	8.552
311.48	6.924
311.85	8.268
312.22	8.511
312.58	7.923
312.95	7.164
313.31	8.907
313.68	7.920
314.05	9.074
314.41	7.589
314.78	8.634
315.14	8.241
315.51	8.088
315.87	9.082
316.24	8.264
316.61	9.772
316.97	8.796
317.34	7.487
317.70	9.367
318.07	10.027
318.43	9.756
318.80	8.290
319.16	8.400
319.53	8.602
319.89	8.130
320.26	10.444
320.62	10.102
320.99	8.915
321.35	9.635
321.72	8.855
322.08	10.701
322.45	12.118
322.81	10.998
323.18	11.807
323.54	11.462
323.91	11.653
324.27	11.701
324.64	10.801
325.00	11.286
325.37	12.543
325.73	10.690
326.10	12.532
326.46	12.375
326.83	11.812
327.19	12.358
327.56	13.699
327.92	13.516
328.29	14.691
328.65	14.023
329.01	12.841
329.38	14.348
329.74	13.820
330.11	13.255
330.47	14.236
330.84	13.989
331.20	15.201
331.56	14.130
331.93	15.676
332.29	15.117
332.66	14.407
333.02	15.639
333.38	15.351
333.75	15.017
334.11	15.104
334.48	14.560
334.84	14.841
335.20	15.866
335.57	14.099
335.93	14.175
336.29	14.799
336.66	14.786
337.02	15.913
337.38	16.362
337.75	15.848
338.11	14.432
338.47	16.182
338.84	15.636
339.20	16.226
339.56	15.444
339.93	15.385
340.29	15.286
340.65	16.253
341.02	15.474
341.38	16.047
341.74	15.042
342.11	15.442
342.47	15.230
342.83	15.523
343.20	16.836
343.56	15.781
343.92	15.678
344.28	17.532
344.65	16.490
345.01	16.142
345.37	16.941
345.73	16.422
346.10	15.730
346.46	16.260
346.82	15.329
347.19	16.297
347.55	16.397
347.91	16.602
348.27	16.088
348.63	16.587
349.00	15.959
349.36	16.091
349.72	16.705
350.08	16.303
350.45	16.836
350.81	16.667
351.17	17.475
351.53	16.496
351.89	16.283
352.26	16.216
352.62	16.512
352.98	16.853
353.34	16.425
353.70	16.121
354.07	16.941
354.43	16.174
354.79	16.426
355.15	15.916
355.51	17.084
355.87	17.123
356.24	16.774
356.60	16.419
356.96	16.500
357.32	16.718
357.68	17.723
358.04	16.835
358.40	17.209
358.77	17.125
359.13	16.965
359.49	17.411
359.85	17.134
360.21	16.577
360.57	17.567
360.93	16.161
361.29	17.617
361.66	18.223
362.02	16.679
362.38	16.396
362.74	16.389
363.10	16.920
363.46	18.012
363.82	16.630
364.18	17.984
364.54	16.776
364.90	16.098
365.26	15.924
365.62	16.832
365.98	17.794
366.35	18.227
366.71	17.332
367.07	17.364
367.43	16.516
367.79	17.512
368.15	17.932
368.51	17.440
368.87	18.144
369.23	17.580
369.59	17.548
369.95	17.417
370.31	16.597
370.67	17.524
371.03	17.669
371.39	18.098
371.75	17.857
372.11	18.803
372.47	18.097
372.83	18.169
373.19	18.345
373.55	17.775
373.91	17.893
374.27	18.188
374.63	18.208
374.99	16.783
375.35	17.671
375.71	17.188
376.07	18.917
376.42	18.917
376.78	19.221
377.14	18.847
377.50	18.905
377.86	20.319
378.22	17.826
378.58	17.402
378.94	19.500
379.30	18.926
379.66	18.311
380.02	18.382
380.38	18.855
380.74	19.665
381.09	18.335
381.45	19.831
381.81	19.039
382.17	19.597
382.53	19.692
382.89	19.421
383.25	19.444
383.61	19.734
383.97	19.500
384.32	19.282
384.68	19.371
385.04	19.120
385.40	20.299
385.76	19.951
386.12	19.948
386.48	19.687
386.83	19.775
387.19	20.111
387.55	19.865
387.91	20.111
388.27	19.667
388.62	19.663
388.98	20.964
389.34	19.925
389.70	20.024
390.06	18.937
390.42	20.812
390.77	20.884
391.13	20.265
391.49	20.114
391.85	20.319
392.20	19.549
392.56	21.079
392.92	19.953
393.28	20.918
393.64	20.917
393.99	19.767
394.35	21.728
394.71	20.769
395.07	20.818
395.42	21.511
395.78	20.142
396.14	20.038
396.50	20.989
396.85	22.498
397.21	20.849
397.57	20.932
397.92	21.257
398.28	21.602
398.64	21.372
399.00	21.763
399.35	21.793
399.71	21.782
400.07	21.325
400.42	21.755
400.78	21.813
401.14	21.704
401.49	21.270
401.85	22.174
402.21	22.043
402.57	22.685
402.92	22.966
403.28	21.889
403.63	22.505
403.99	21.241
404.35	22.257
404.70	22.175
405.06	22.548
405.42	21.922
405.77	22.293
406.13	21.543
406.49	22.289
406.84	22.589
407.20	22.084
407.55	22.987
407.91	22.303
408.27	21.959
408.62	22.897
408.98	23.058
409.34	21.658
409.69	23.132
410.05	22.139
410.40	22.581
410.76	22.804
411.11	22.761
411.47	23.490
411.83	23.144
412.18	23.804
412.54	22.494
412.89	23.260
413.25	23.186
413.60	23.072
413.96	23.471
414.31	23.305
414.67	22.540
415.03	22.395
415.38	22.655
415.74	24.042
416.09	24.190
416.45	22.898
416.80	23.960
417.16	23.819
417.51	23.912
417.87	24.008
418.22	23.206
418.58	23.522
418.93	24.168
419.29	24.422
419.64	24.237
420.00	24.762
420.35	24.029
420.71	23.705
421.06	23.924
421.42	24.574
421.77	24.393
422.12	24.069
422.48	24.046
422.83	24.808
423.19	24.727
423.54	24.971
423.90	24.287
424.25	26.054
424.61	24.831
424.96	25.547
425.31	24.958
425.67	25.162
426.02	25.913
426.38	25.933
426.73	25.473
427.09	25.141
427.44	25.778
427.79	24.941
428.15	25.505
428.50	25.498
428.85	25.400
429.21	25.267
429.56	25.611
429.92	25.716
430.27	25.920
430.62	25.079
430.98	26.071
431.33	26.545
431.68	26.518
432.04	26.141
432.39	25.289
432.74	25.690
433.10	26.729
433.45	26.627
433.80	27.069
434.16	25.833
434.51	26.141
434.86	27.503
435.22	26.599
435.57	26.720
435.92	26.236
436.28	26.246
436.63	27.309
436.98	27.321
437.34	27.289
437.69	26.978
438.04	26.882
438.39	26.712
438.75	26.758
439.10	27.588
439.45	27.119
439.81	26.539
440.16	27.420
440.51	27.765
440.86	27.208
441.22	27.309
441.57	27.169
441.92	27.216
442.27	27.002
442.63	26.642
442.98	27.083
443.33	26.975
443.68	26.621
444.03	27.620
444.39	27.169
444.74	27.830
445.09	27.478
445.44	28.338
445.79	28.085
446.15	28.120
446.50	27.588
446.85	28.113
447.20	28.071
447.55	27.700
447.91	28.034
448.26	28.702
448.61	27.848
448.96	28.189
449.31	28.612
449.66	29.092
450.02	28.653
450.37	27.027
450.72	28.186
451.07	28.715
451.42	27.760
451.77	28.119
452.12	28.580
452.47	29.826
452.83	28.361
453.18	29.281
453.53	28.815
453.88	29.157
454.23	28.616
454.58	28.860
454.93	28.672
455.28	28.645
455.63	28.010
455.98	28.484
456.34	28.353
456.69	28.243
457.04	29.040
457.39	28.803
457.74	28.007
458.09	28.436
458.44	28.907
458.79	28.446
459.14	29.719
459.49	29.085
459.84	28.523
460.19	28.992
460.54	28.406
460.89	29.167
461.24	28.792
461.59	28.684
461.94	28.319
462.29	28.799
462.64	28.628
462.99	28.638
463.34	28.867
463.69	30.026
464.04	28.631
464.39	29.103
464.74	28.563
465.09	29.696
465.44	29.012
465.79	29.730
466.14	29.247
466.49	29.971
466.84	29.169
467.19	28.535
467.54	30.914
467.89	29.164
468.24	29.379
468.59	29.127
468.94	30.013
469.29	28.949
469.64	30.335
469.99	30.552
470.34	28.995
470.68	30.260
471.03	29.619
471.38	29.068
471.73	29.492
472.08	30.859
472.43	30.673
472.78	31.170
473.13	29.683
473.48	30.463
473.83	29.944
474.17	29.948
474.52	30.680
474.87	29.493
475.22	30.012
475.57	29.727
475.92	30.971
476.27	30.594
476.61	30.011
476.96	30.954
477.31	29.881
477.66	30.565
478.01	29.835
478.36	29.864
478.70	30.827
479.05	29.967
479.40	30.473
479.75	30.606
480.10	30.189
480.45	29.573
480.79	29.766
481.14	31.307
481.49	31.327
481.84	29.689
482.19	30.338
482.53	30.571
482.88	29.530
483.23	30.366
483.58	30.340
483.92	29.961
484.27	30.741
484.62	29.871
484.97	30.900
485.31	29.718
485.66	27.193
486.01	27.688
486.36	28.003
486.70	28.131
487.05	29.352
487.40	29.191
487.75	29.687
488.09	29.715
488.44	30.179
488.79	30.583
489.13	30.060
489.48	30.740
489.83	30.773
490.17	30.685
490.52	31.043
490.87	30.783
491.22	31.748
491.56	31.433
491.91	31.925
492.26	31.915
492.60	30.832
492.95	32.021
493.30	30.475
493.64	30.695
493.99	31.159
494.34	31.792
494.68	30.406
495.03	30.879
495.37	31.873
495.72	32.481
496.07	30.492
496.41	32.382
496.76	31.307
497.11	31.127
497.45	31.809
497.80	32.559
498.14	31.839
498.49	31.367
498.84	31.377
499.18	31.508
499.53	32.349
499.87	32.217
500.22	31.707
500.56	31.846
500.91	32.294
501.26	31.084
501.60	31.520
501.95	32.391
502.29	31.602
502.64	32.015
502.98	31.551
503.33	32.409
503.67	31.889
504.02	31.422
504.36	32.343
504.71	32.419
505.06	32.756
505.40	33.041
505.75	32.757
506.09	31.937
506.44	32.611
506.78	31.996
507.13	33.420
507.47	32.503
507.82	32.601
508.16	32.348
508.51	32.438
508.85	32.400
509.19	33.439
509.54	33.298
509.88	32.849
510.23	33.895
510.57	33.633
510.92	33.728
511.26	34.598
511.61	33.370
511.95	33.241
512.30	33.148
512.64	34.733
512.98	33.019
513.33	33.915
513.67	33.901
514.02	34.607
514.36	34.270
514.70	33.487
515.05	35.225
515.39	34.788
515.74	34.873
516.08	35.044
516.42	34.217
516.77	34.329
517.11	34.039
517.46	37.035
517.80	35.533
518.14	35.517
518.49	34.659
518.83	34.964
519.17	35.663
519.52	36.490
519.86	35.155
520.20	35.901
520.55	35.448
520.89	37.255
521.23	36.731
521.58	36.473
521.92	36.832
522.26	35.849
522.61	37.169
522.95	36.205
523.29	36.444
523.64	36.554
523.98	35.515
524.32	36.547
524.66	36.364
525.01	38.139
525.35	36.801
525.69	38.304
526.04	37.264
526.38	37.859
526.72	37.673
527.06	37.589
527.41	37.326
527.75	36.916
528.09	37.577
528.43	37.856
528.78	36.757
529.12	37.322
529.46	38.068
529.80	38.058
530.15	37.323
530.49	37.938
530.83	39.269
531.17	38.219
531.51	36.952
531.86	37.263
532.20	37.009
532.54	38.000
532.88	38.462
533.22	38.519
533.57	38.477
533.91	38.258
534.25	38.802
534.59	37.387
534.93	37.691
535.27	37.070
535.62	36.513
535.96	37.345
536.30	38.763
536.64	37.799
536.98	37.982
537.32	38.577
537.66	39.492
538.01	37.587
538.35	37.569
538.69	37.324
539.03	37.450
539.37	38.095
539.71	37.312
540.05	37.449
540.39	39.023
540.73	38.268
541.07	37.619
541.42	38.249
541.76	38.024
542.10	37.576
542.44	38.669
542.78	38.099
543.12	37.332
543.46	38.079
543.80	38.968
544.14	38.128
544.48	36.629
544.82	38.467
545.16	37.931
545.50	38.623
545.84	37.728
546.18	38.640
546.52	38.814
546.86	36.113
547.20	37.384
547.54	38.313
547.88	39.069
548.22	37.915
548.56	37.091
548.90	37.821
549.24	39.861
549.58	38.861
549.92	40.572
550.26	40.664
550.60	39.865
550.94	38.881
551.28	38.683
551.62	40.301
551.96	38.580
552.30	39.229
552.64	39.266
552.98	39.773
553.32	38.789
553.66	40.205
554.00	39.957
554.34	37.729
554.68	41.014
555.02	39.521
555.36	39.107
555.69	38.310
556.03	38.242
556.37	39.118
556.71	38.262
557.05	37.491
557.39	39.186
557.73	39.713
558.07	38.508
558.41	39.970
558.75	39.492
559.08	39.054
559.42	40.913
559.76	38.532
560.10	39.969
560.44	39.499
560.78	38.489
561.12	38.893
561.45	38.435
561.79	39.546
562.13	40.084
562.47	40.000
562.81	38.672
563.15	38.173
563.48	38.541
563.82	39.398
564.16	37.508
564.50	37.720
564.84	38.243
565.17	38.212
565.51	38.436
565.85	38.108
566.19	38.543
566.52	36.959
566.86	37.358
567.20	36.775
567.54	36.442
567.88	36.002
568.21	35.904
568.55	36.046
568.89	35.593
569.23	34.785
569.56	35.252
569.90	33.972
570.24	32.708
570.57	34.118
570.91	33.622
571.25	33.057
571.59	33.403
571.92	32.590
572.26	32.937
572.60	32.953
572.93	33.271
573.27	32.493
573.61	32.969
573.95	32.787
574.28	32.379
574.62	32.190
574.96	32.480
575.29	32.472
575.63	32.429
575.97	32.989
576.30	32.406
576.64	32.539
576.98	32.064
577.31	31.989
577.65	31.655
577.98	31.575
578.32	31.569
578.66	32.076
578.99	31.761
579.33	32.234
579.67	32.841
580.00	32.224
580.34	31.120
580.67	32.166
581.01	31.973
581.35	31.517
581.68	31.194
582.02	31.441
582.35	31.496
582.69	31.729
583.02	30.837
583.36	31.731
583.70	32.512
584.03	32.327
584.37	32.350
584.70	32.197
585.04	32.313
585.37	32.296
585.71	31.452
586.04	32.180
586.38	32.570
586.72	32.369
587.05	32.741
587.39	32.664
587.72	32.500
588.06	32.421
588.39	32.718
588.73	32.822
589.06	33.172
589.40	33.230
589.73	32.447
590.07	32.811
590.40	33.813
590.73	34.319
591.07	34.141
591.40	32.826
591.74	33.348
592.07	35.600
592.41	34.063
592.74	33.989
593.08	32.821
593.41	32.691
593.75	32.558
594.08	33.022
594.41	33.016
594.75	33.208
595.08	33.271
595.42	32.785
595.75	33.948
596.09	33.295
596.42	32.721
596.75	33.392
597.09	34.395
597.42	34.769
597.75	34.444
598.09	33.880
598.42	35.660
598.76	33.039
599.09	33.573
599.42	32.553
599.76	32.595
600.09	34.036
600.42	32.655
600.76	32.483
601.09	32.655
601.42	33.399
601.76	33.282
602.09	33.158
602.42	34.090
602.76	33.851
603.09	33.840
603.42	33.187
603.76	33.164
604.09	32.688
604.42	33.194
604.76	33.915
605.09	33.711
605.42	33.963
605.75	33.405
606.09	32.781
606.42	33.624
606.75	32.900
607.09	33.422
607.42	33.669
607.75	32.648
608.08	34.220
608.42	33.693
608.75	34.448
609.08	34.738
609.41	33.631
609.75	34.342
610.08	33.432
610.41	33.868
610.74	34.167
611.07	33.517
611.41	35.056
611.74	34.006
612.07	34.184
612.40	35.027
612.73	33.589
613.07	34.146
613.40	34.526
613.73	34.345
614.06	34.107
614.39	33.685
614.72	34.703
615.06	34.167
615.39	34.216
615.72	34.557
616.05	33.615
616.38	34.021
616.71	34.373
617.05	34.889
617.38	34.442
617.71	34.436
618.04	34.613
618.37	34.953
618.70	35.317
619.03	35.052
619.36	36.726
619.69	36.623
620.03	35.548
620.36	34.377
620.69	35.118
621.02	35.615
621.35	36.059
621.68	36.267
622.01	36.570
622.34	36.796
622.67	36.648
623.00	37.538
623.33	36.051
623.66	35.465
623.99	36.309
624.32	34.629
624.65	36.053
624.99	36.003
625.32	37.267
625.65	36.512
625.98	37.125
626.31	37.388
626.64	37.403
626.97	37.024
627.30	38.323
627.63	37.543
627.96	36.797
628.29	39.349
628.62	39.265
628.95	40.381
629.28	38.424
629.61	39.234
629.94	38.781
630.26	38.227
630.59	37.862
630.92	38.554
631.25	38.929
631.58	38.116
631.91	37.964
632.24	38.310
632.57	39.333
632.90	39.090
633.23	38.609
633.56	40.887
633.89	40.072
634.22	42.521
634.55	42.509
634.88	39.093
635.20	42.750
635.53	39.793
635.86	40.769
636.19	39.330
636.52	39.512
636.85	37.998
637.18	39.342
637.51	39.451
637.83	42.950
638.16	39.600
638.49	40.988
638.82	40.915
639.15	40.957
639.48	40.642
639.81	41.111
640.13	42.113
640.46	39.407
640.79	41.583
641.12	41.420
641.45	41.485
641.77	39.617
642.10	43.419
642.43	44.969
642.76	40.379
643.09	41.534
643.41	42.743
643.74	42.488
644.07	42.395
644.40	43.615
644.73	43.559
645.05	42.757
645.38	42.027
645.71	42.857
646.04	40.572
646.36	42.535
646.69	41.084
647.02	43.169
647.35	44.241
647.67	43.993
648.00	42.935
648.33	42.034
648.66	39.566
648.98	41.304
649.31	41.564
649.64	40.219
649.96	41.232
650.29	39.052
650.62	39.374
650.94	39.483
651.27	42.756
651.60	41.084
651.92	39.247
652.25	42.714
652.58	40.264
652.90	40.741
653.23	40.407
653.56	39.174
653.88	38.567
654.21	39.420
654.54	40.199
654.86	39.024
655.19	35.994
655.52	33.462
655.84	27.978
656.17	32.792
656.49	42.832
656.82	42.843
657.15	32.174
657.47	24.088
657.80	18.237
658.13	19.293
658.45	29.303
658.78	29.291
659.10	29.410
659.43	30.074
659.75	31.785
660.08	32.138
660.41	33.469
660.73	36.915
661.06	37.755
661.38	39.729
661.71	39.959
662.03	43.129
662.36	42.920
662.68	42.366
663.01	45.127
663.33	41.469
663.66	39.468
663.98	43.146
664.31	41.758
664.63	39.189
664.96	42.451
665.28	43.991
665.61	40.821
665.93	41.542
666.26	41.772
666.58	40.257
666.91	43.722
667.23	41.935
667.56	44.138
667.88	42.757
668.21	41.964
668.53	44.828
668.86	42.926
669.18	42.080
669.50	40.553
669.83	41.050
670.15	42.857
670.48	40.000
670.80	43.764
671.13	43.021
671.45	42.237
671.77	38.793
672.10	39.376
672.42	37.595
672.75	36.429
673.07	37.273
673.39	40.112
673.72	40.319
674.04	39.139
674.37	39.837
674.69	38.272
675.01	39.957
675.34	43.982
675.66	43.355
675.98	38.938
676.31	41.855
676.63	43.991
676.95	38.118
677.28	38.761
677.60	41.912
677.92	39.246
678.25	41.432
678.57	38.697
678.89	36.674
679.22	37.888
679.54	37.755
679.86	38.086
680.18	35.962
680.51	37.500
680.83	33.723
681.15	39.293
681.48	37.275
681.80	35.992
682.12	40.625
682.44	38.028
682.77	35.579
683.09	36.161
683.41	36.977
683.73	37.723
684.06	38.938
684.38	37.607
684.70	37.678
685.02	38.430
685.34	38.160
685.67	37.899
685.99	35.943
686.31	35.000
686.63	36.397
686.96	36.364
687.28	37.924
687.60	40.265
687.92	37.354
688.24	36.000
688.56	35.088
688.89	39.198
689.21	37.668
689.53	34.459
689.85	37.978
690.17	38.022
690.49	39.130
690.82	37.947
691.14	40.580
691.46	38.515
691.78	36.923
692.10	38.217
692.42	36.044
692.74	36.522
693.06	34.831
693.39	35.597
693.71	40.000
694.03	38.182
694.35	36.712
694.67	38.500
694.99	38.918
695.31	40.827
695.63	39.268
695.95	34.097
696.27	40.000
696.59	34.946
696.91	34.358
697.23	38.832
697.56	41.007
697.88	34.719
698.20	35.637
698.52	32.944
698.84	36.124
699.16	37.352
699.48	36.543
699.80	39.535
700.12	38.874
700.44	38.310
700.76	38.202
701.08	36.556
701.40	39.820
701.72	40.000
702.04	33.648
702.36	39.939
702.68	36.890
703.00	38.889
703.32	34.819
703.64	38.554
703.96	36.950
704.28	38.253
704.60	38.415
704.91	37.931
705.23	38.608
705.55	39.655
705.87	40.493
706.19	42.857
706.51	37.324
706.83	34.713
707.15	39.329
707.47	37.466
707.79	34.518
708.11	33.933
708.43	38.579
708.74	39.362
709.06	32.888
709.38	34.006
709.70	36.336
710.02	34.579
710.34	35.000
710.66	35.179
710.98	36.223
711.29	37.338
711.61	35.484
711.93	34.516
712.25	35.315
712.57	33.333
712.89	35.897
713.20	38.298
713.52	37.591
713.84	30.968
714.16	35.599
714.48	39.241
714.80	34.185
715.11	38.081
715.43	30.124
715.75	33.540
716.07	31.928
716.39	36.700
716.70	32.374
717.02	34.510
717.34	33.712
717.66	29.310
717.97	35.317
718.29	38.976
718.61	35.193
718.93	34.109
719.24	35.055
719.56	35.581
719.88	31.716
720.20	38.340
720.51	33.984
720.83	35.409
721.15	29.675
721.46	38.931
721.78	37.052
722.10	37.849
722.42	30.645
722.73	35.135
723.05	38.367
723.37	36.975
723.68	29.200
724.00	31.489
724.32	38.075
724.63	34.979
724.95	32.906
725.27	41.350
725.58	39.095
725.90	36.820
726.22	31.884
726.53	31.373
726.85	34.672
727.16	30.741
727.48	32.184
727.80	40.234
728.11	36.475
728.43	34.375
728.74	28.968
729.06	32.400
729.38	37.945
729.69	30.605
730.01	33.829
730.32	36.900
730.64	29.545
730.96	33.916
731.27	31.104
731.59	30.794
731.90	28.479
732.22	28.205
732.53	26.351
732.85	27.852
733.16	28.053
733.48	27.365
733.80	32.770
734.11	33.108
734.43	29.721
734.74	31.832
735.06	27.954
735.37	28.267
735.69	28.803
736.00	29.373
736.32	31.206
736.63	30.690
736.95	30.479
737.26	26.552
737.58	29.861
737.89	30.241
738.21	28.470
738.52	30.418
738.83	33.878
739.15	31.646
739.46	34.241
739.78	25.704
740.09	29.452
740.41	24.643
740.72	28.723
741.04	28.400
741.35	27.632
741.66	34.222
741.98	33.654
742.29	40.594
742.61	33.171
742.92	27.632
743.23	26.887
743.55	36.937
743.86	29.596
744.18	30.882
744.49	31.472
744.80	36.224
745.12	33.645
745.43	36.493
745.74	31.982
746.06	30.374
746.37	31.651
746.68	25.962
747.00	30.622
747.31	35.096
747.62	34.862
747.94	31.004
748.25	26.606
748.56	39.111
748.88	32.394
749.19	30.476
749.50	30.583
749.82	25.352
750.13	28.333
750.44	28.077
750.75	24.723
751.07	31.317
751.38	27.660
751.69	29.730
752.01	31.250
752.32	26.538
752.63	32.090
752.94	31.600
753.26	32.218
753.57	33.750
753.88	34.413
754.19	31.873
754.51	24.812
754.82	25.641
755.13	25.652
755.44	33.740
755.75	25.600
756.07	27.306
756.38	29.496
756.69	32.423
757.00	29.283
757.31	26.861
757.63	33.025
757.94	30.791
758.25	26.720
758.56	26.902
758.87	30.952
759.18	29.653
759.50	28.283
759.81	28.428
760.12	28.923
760.43	28.571
760.74	24.011
761.05	27.624
761.36	24.928
761.67	28.701
761.99	24.399
762.30	27.737
762.61	26.337
762.92	34.615
763.23	31.148
763.54	29.870
763.85	27.347
764.16	27.642
764.47	32.000
764.78	25.000
765.10	25.902
765.41	28.875
765.72	27.640
766.03	30.363
766.34	21.923
766.65	25.523
766.96	23.944
767.27	26.238
767.58	21.910
767.89	23.457
768.20	28.177
768.51	32.161
768.82	31.731
769.13	33.628
769.44	25.105
769.75	20.085
770.06	21.973
770.37	26.471
770.68	36.408
770.99	26.214
771.30	26.050
771.61	25.714
771.92	30.705
772.23	24.324
772.54	18.232
772.85	25.581
773.16	28.571
773.47	24.852
773.78	26.437
774.09	27.500
774.39	28.571
774.70	29.252
775.01	28.966
775.32	30.714
775.63	20.301
775.94	15.038
776.25	17.600
776.56	28.099
776.87	18.254
777.18	23.423
777.48	25.225
777.79	31.496
778.10	20.183
778.41	25.439
778.72	25.210
779.03	16.901
779.34	31.757
779.65	28.169
779.95	22.517
780.26	22.302
780.57	28.058
780.88	22.535
781.19	26.050
781.50	27.517
781.80	22.222
782.11	20.349
782.42	27.044
782.73	27.451
783.04	22.759
783.34	17.557
783.65	22.148
783.96	20.769
784.27	24.286
784.57	17.021
784.88	10.577
785.19	31.818
785.50	27.273
785.81	24.762
786.11	25.210
786.42	23.009
786.73	18.868
787.04	18.349
787.34	20.792
787.65	35.000
787.96	20.661
788.26	22.464
788.57	21.429
788.88	19.512
789.19	12.800
789.49	20.611
789.80	30.303
790.11	15.094
790.41	20.792
790.72	21.277
791.03	19.565
791.33	14.118
791.64	22.222
791.95	26.087
792.25	25.000
792.56	15.385
792.87	11.538
793.17	7.692
793.48	22.619
793.79	13.750
794.09	27.885
794.40	13.542
794.70	20.721
795.01	23.438
795.32	25.217
795.62	7.609
795.93	9.434
796.23	29.293
796.54	31.707
796.85	23.810
797.15	18.182
797.46	13.043
797.76	11.842
798.07	26.136
798.37	8.537
798.68	14.516
798.99	13.514
799.29	27.711
799.60	30.769
799.90	7.692
800.21	22.727
800.51	6.667
800.82	20.000
801.12	-4.167
801.43	-8.333
801.73	2.703
802.04	21.429
802.34	11.475
802.65	14.925
802.95	16.364
803.26	17.241
803.56	10.769
803.87	18.868
804.17	17.742
804.48	19.118
804.78	-9.756
805.09	8.696
805.39	16.176
805.70	6.383
806.00	24.561
806.30	23.077
806.61	28.947
806.91	35.135
807.22	18.421
807.52	18.182
807.83	10.169
808.13	7.576
808.43	8.333
808.74	-12.069
809.04	25.397
809.35	12.245
809.65	5.000
809.95	-4.082
810.26	30.986
810.56	16.667
810.86	6.122
811.17	46.154
811.47	4.255
811.77	-2.083
812.08	16.981
812.38	25.000
812.69	20.000
812.99	4.878
813.29	5.405
813.59	-24.324
813.90	7.273
814.20	21.818
814.50	6.667
814.81	7.273
815.11	22.807
815.41	18.605
815.72	-17.500
816.02	-5.714
816.32	13.514
816.62	0.000
816.93	-17.778
817.23	-2.222
817.53	-13.889
817.84	-24.324
818.14	14.634
818.44	14.000
818.74	6.122
819.04	12.195
819.35	13.889
819.65	9.091
819.95	-55.556
820.25	-6.061
820.56	-2.381
820.86	-25.000
821.16	2.273
821.46	-2.174
821.76	-5.172
822.07	2.174
822.37	9.091
822.67	36.585
822.97	-24.324
823.27	-31.429
823.57	37.931
823.88	26.471
824.18	-25.000
824.48	-5.714
824.78	-42.857
825.08	0.000
825.38	3.704
825.69	16.129
825.99	24.390
826.29	-11.111
826.59	-28.125
826.89	3.226
827.19	-17.391
827.49	-47.222
827.79	0.000
828.09	-12.903
828.39	0.000
828.70	6.250
829.00	-6.897
829.30	5.405
829.60	-58.333
829.90	-18.519
830.20	-18.750
830.50	4.545
830.80	-64.706
831.10	-4.545
831.40	0.000
831.70	0.000
832.00	-12.121
832.30	2.941
832.60	8.108
832.90	700.000
833.20	-14.286
833.50	-35.000
833.80	-7.895
834.10	-4.167
834.40	-63.636
834.70	-86.667
835.00	-50.000
835.30	-58.333
835.60	-28.571
835.90	-9.524
836.20	4.000
836.50	-12.500
836.80	-110.526
837.10	5.405
837.40	-13.333
837.70	-21.739
838.00	20.833
838.30	21.053
838.60	-100.000
838.90	-190.000
839.19	-75.000
839.49	-7.692
839.79	-10.526
840.09	-316.667
840.39	0.000
840.69	-22.727
840.99	-9.524
841.29	-41.667
841.59	-84.615
841.88	-113.333
842.18	-7.143
842.48	-13.333
842.78	-271.429
843.08	-64.286
843.38	-175.000
843.68	-68.750
843.97	-71.429
844.27	-211.111
844.57	-136.364
844.87	-73.333
845.17	-22.727
845.47	466.667
845.76	-53.333
846.06	-33.333
846.36	-1450.000
846.66	-42.105
846.96	-63.636
847.25	-55.556
847.55	-222.222
847.85	-47.619
848.15	-30.769
848.44	-233.333
848.74	-100.000
849.04	-115.385
849.34	-175.000
849.63	-136.364
849.93	-64.286
850.23	-45.000
850.53	-262.500
850.82	-44.444
851.12	-33.333
851.42	11.765
851.71	-87.500
852.01	0.000
852.31	-61.538
852.61	850.000
852.90	-41.176
853.20	13.333
853.50	-18.750
853.79	-150.000
854.09	-350.000
854.39	-35.000
854.68	5.000
854.98	-38.095
855.28	-36.000
855.57	-4.167
855.87	-33.333
856.17	-56.000
856.46	3.125
856.76	-35.000
857.05	12.000
857.35	-83.333
857.65	-41.176
857.94	-183.333
858.24	-91.667
858.53	-30.000
858.83	-127.273
859.13	-4.000
859.42	-64.286
859.72	-212.500
860.01	-16.667
860.31	-237.500
860.60	-25.000
860.90	-100.000
861.20	-116.667
861.49	-6.667
861.79	-31.250
862.08	200.000
862.38	-125.000
862.67	442.857
862.97	300.000
863.26	-118.182
863.56	-81.818
863.85	-47.368
864.15	-23.529
864.44	-280.000
864.74	-60.000
865.03	0.000
865.33	-28.571
865.62	128.571
865.92	10.526
866.21	-94.444
866.51	-100.000
866.80	-111.111
867.10	-187.500
867.39	6.250
867.69	-120.000
867.98	-160.000
868.27	-58.824
868.57	0.000
868.86	950.000
869.16	-450.000
869.45	-157.143
869.75	950.000
870.04	40.000
870.33	-1100.000
870.63	-26.316
870.92	-116.667
871.22	-1900.000
871.51	-114.286
871.80	-300.000
872.10	-550.000
>>>>>End Processed Spectral Data<<<<<
