SpectraSuite Data File
++++++++++++++++++++++++++++++++++++
Date: Wed May 13 21:36:53 PDT 2015
User: schluterlab
Dark Spectrum Present: Yes
Reference Spectrum Present: Yes
Number of Sampled Component Spectra: 1
Spectrometers: USB2E3373
Integration Time (usec): 3000 (USB2E3373)
Spectra Averaged: 3 (USB2E3373)
Boxcar Smoothing: 0 (USB2E3373)
Correct for Electrical Dark: No (USB2E3373)
Strobe/Lamp Enabled: No (USB2E3373)
Correct for Detector Non-linearity: No (USB2E3373)
Correct for Stray Light: No (USB2E3373)
Number of Pixels in Processed Spectrum: 2048
>>>>>Begin Processed Spectral Data<<<<<
178.53	0.000
178.91	500.000
179.29	225.000
179.67	-450.000
180.04	-400.000
180.42	100.000
180.80	1400.000
181.18	333.333
181.56	-200.000
181.94	-375.000
182.31	-63.636
182.69	169.231
183.07	-240.000
183.45	333.333
183.83	255.556
184.20	128.571
184.58	-333.333
184.96	366.667
185.34	414.286
185.72	0.000
186.09	-1200.000
186.47	-400.000
186.85	240.000
187.23	-200.000
187.61	750.000
187.98	2200.000
188.36	-50.000
188.74	0.000
189.12	-36.364
189.49	-90.000
189.87	91.667
190.25	420.000
190.63	1700.000
191.00	-300.000
191.38	340.000
191.76	450.000
192.14	216.667
192.51	-78.947
192.89	800.000
193.27	425.000
193.65	-400.000
194.02	163.636
194.40	280.000
194.78	-800.000
195.15	360.000
195.53	-460.000
195.91	-75.000
196.29	-300.000
196.66	0.000
197.04	400.000
197.42	-40.000
197.79	-80.000
198.17	-137.500
198.55	-466.667
198.92	225.000
199.30	-700.000
199.68	-80.000
200.05	200.000
200.43	250.000
200.81	-2000.000
201.18	-180.000
201.56	-183.333
201.94	650.000
202.31	0.000
202.69	-185.714
203.07	-333.333
203.44	-100.000
203.82	-366.667
204.19	-60.000
204.57	0.000
204.95	-166.667
205.32	0.000
205.70	-500.000
206.08	-475.000
206.45	-150.000
206.83	700.000
207.20	-633.333
207.58	-120.000
207.96	-1400.000
208.33	-414.286
208.71	-2400.000
209.08	250.000
209.46	375.000
209.84	0.000
210.21	130.000
210.59	2400.000
210.96	420.000
211.34	1400.000
211.71	-550.000
212.09	-250.000
212.46	-250.000
212.84	-33.333
213.22	-25.000
213.59	-1500.000
213.97	-850.000
214.34	-1150.000
214.72	-76.923
215.09	200.000
215.47	244.444
215.84	250.000
216.22	-212.500
216.59	-600.000
216.97	900.000
217.34	222.222
217.72	0.000
218.09	233.333
218.47	-1000.000
218.84	-214.286
219.22	-150.000
219.59	-433.333
219.97	-350.000
220.34	-162.500
220.72	-400.000
221.09	0.000
221.47	-266.667
221.84	-900.000
222.22	0.000
222.59	1800.000
222.97	-233.333
223.34	-50.000
223.72	-1900.000
224.09	-550.000
224.46	-154.545
224.84	-75.000
225.21	-42.857
225.59	-350.000
225.96	-150.000
226.34	-40.000
226.71	-242.857
227.08	950.000
227.46	-212.500
227.83	-700.000
228.21	0.000
228.58	-325.000
228.95	-100.000
229.33	-56.250
229.70	-37.500
230.08	-76.923
230.45	-150.000
230.82	-91.667
231.20	242.857
231.57	-275.000
231.95	1500.000
232.32	66.667
232.69	-41.176
233.07	-1500.000
233.44	-8.696
233.81	-500.000
234.19	16.667
234.56	-100.000
234.93	-60.000
235.31	10.526
235.68	-123.077
236.05	-84.615
236.43	0.000
236.80	12.121
237.17	-73.333
237.55	-82.353
237.92	-13.793
238.29	-37.037
238.67	8.333
239.04	-9.677
239.41	10.638
239.79	17.021
240.16	2.326
240.53	14.286
240.91	23.214
241.28	26.786
241.65	16.129
242.02	10.526
242.40	31.884
242.77	-4.348
243.14	20.513
243.51	19.149
243.89	21.154
244.26	33.962
244.63	18.269
245.00	26.042
245.38	24.370
245.75	21.311
246.12	18.797
246.49	19.512
246.87	14.286
247.24	41.216
247.61	23.841
247.98	32.692
248.36	24.852
248.73	31.461
249.10	29.798
249.47	30.645
249.84	30.000
250.22	27.363
250.59	28.505
250.96	29.091
251.33	24.402
251.70	33.054
252.08	30.126
252.45	37.449
252.82	33.460
253.19	34.630
253.56	28.058
253.94	32.384
254.31	31.690
254.68	34.899
255.05	33.663
255.42	31.119
255.79	34.356
256.16	33.123
256.54	33.333
256.91	31.329
257.28	30.818
257.65	28.981
258.02	34.604
258.39	35.673
258.76	31.686
259.14	34.375
259.51	30.618
259.88	32.520
260.25	35.000
260.62	32.584
260.99	32.095
261.36	34.715
261.73	30.123
262.10	33.842
262.47	33.580
262.85	33.333
263.22	34.872
263.59	31.429
263.96	31.630
264.33	33.413
264.70	30.000
265.07	34.954
265.44	35.172
265.81	34.096
266.18	34.396
266.55	32.096
266.92	34.958
267.29	32.099
267.66	34.607
268.03	33.128
268.40	32.627
268.77	33.884
269.14	35.510
269.51	35.934
269.88	33.198
270.25	36.017
270.62	32.582
270.99	34.252
271.36	33.532
271.73	33.534
272.10	31.238
272.47	36.852
272.84	33.858
273.21	33.659
273.58	33.197
273.95	32.453
274.32	32.090
274.69	34.973
275.06	34.099
275.43	33.898
275.80	32.270
276.17	34.438
276.54	31.616
276.91	31.010
277.28	33.394
277.65	32.692
278.02	33.214
278.39	31.972
278.76	33.946
279.13	34.477
279.50	33.103
279.87	32.065
280.23	34.234
280.60	31.834
280.97	31.981
281.34	32.808
281.71	31.057
282.08	32.650
282.45	31.148
282.82	32.109
283.19	32.470
283.56	30.625
283.92	33.639
284.29	31.513
284.66	32.455
285.03	29.967
285.40	30.967
285.77	32.733
286.14	32.523
286.51	31.334
286.87	30.000
287.24	32.448
287.61	31.777
287.98	31.176
288.35	31.744
288.72	32.138
289.08	31.766
289.45	29.809
289.82	31.921
290.19	28.892
290.56	29.972
290.93	29.282
291.29	29.138
291.66	28.689
292.03	29.155
292.40	28.264
292.77	28.514
293.13	29.010
293.50	29.542
293.87	28.933
294.24	29.101
294.60	28.088
294.97	28.836
295.34	27.045
295.71	26.018
296.08	27.094
296.44	27.296
296.81	25.944
297.18	27.000
297.55	26.297
297.91	28.820
298.28	27.240
298.65	27.217
299.02	27.839
299.38	26.626
299.75	24.880
300.12	24.535
300.48	24.561
300.85	25.173
301.22	26.481
301.59	25.822
301.95	25.552
302.32	25.438
302.69	25.198
303.05	24.806
303.42	24.091
303.79	25.657
304.15	24.535
304.52	26.237
304.89	24.142
305.25	24.040
305.62	22.993
305.99	23.613
306.35	26.855
306.72	25.432
307.09	24.505
307.45	24.814
307.82	23.474
308.19	22.466
308.55	24.872
308.92	24.754
309.29	24.625
309.65	23.876
310.02	23.360
310.38	24.289
310.75	23.373
311.12	24.393
311.48	24.233
311.85	22.933
312.22	25.048
312.58	23.092
312.95	23.980
313.31	23.416
313.68	24.332
314.05	25.047
314.41	25.360
314.78	24.763
315.14	25.278
315.51	25.024
315.87	25.301
316.24	24.242
316.61	24.749
316.97	23.981
317.34	24.688
317.70	24.888
318.07	25.555
318.43	25.926
318.80	24.433
319.16	25.641
319.53	25.269
319.89	24.210
320.26	26.063
320.62	25.301
320.99	27.035
321.35	27.409
321.72	26.949
322.08	26.015
322.45	27.937
322.81	26.340
323.18	27.639
323.54	28.069
323.91	28.455
324.27	28.713
324.64	28.049
325.00	29.309
325.37	27.986
325.73	27.609
326.10	28.680
326.46	29.181
326.83	29.773
327.19	29.756
327.56	30.620
327.92	29.686
328.29	30.885
328.65	31.376
329.01	30.783
329.38	31.391
329.74	31.159
330.11	32.101
330.47	31.250
330.84	33.123
331.20	31.255
331.56	32.518
331.93	30.922
332.29	33.189
332.66	32.373
333.02	33.884
333.38	32.368
333.75	33.106
334.11	33.420
334.48	33.130
334.84	32.420
335.20	33.962
335.57	32.463
335.93	32.560
336.29	33.800
336.66	32.393
337.02	32.609
337.38	32.637
337.75	33.592
338.11	33.732
338.47	32.363
338.84	33.505
339.20	32.892
339.56	33.447
339.93	34.140
340.29	33.049
340.65	33.276
341.02	34.193
341.38	33.108
341.74	33.025
342.11	33.443
342.47	32.636
342.83	32.843
343.20	34.602
343.56	33.851
343.92	34.362
344.28	33.442
344.65	33.633
345.01	34.302
345.37	35.033
345.73	33.742
346.10	33.628
346.46	34.228
346.82	34.029
347.19	35.206
347.55	35.784
347.91	32.736
348.27	34.543
348.63	32.372
349.00	33.491
349.36	33.909
349.72	33.952
350.08	34.243
350.45	34.534
350.81	34.351
351.17	34.411
351.53	35.742
351.89	33.360
352.26	33.668
352.62	34.264
352.98	33.546
353.34	34.541
353.70	34.735
354.07	34.431
354.43	33.515
354.79	34.375
355.15	33.696
355.51	34.472
355.87	34.871
356.24	34.189
356.60	34.324
356.96	33.691
357.32	33.591
357.68	33.919
358.04	33.359
358.40	34.651
358.77	34.251
359.13	34.008
359.49	35.049
359.85	34.420
360.21	34.695
360.57	33.840
360.93	34.750
361.29	35.159
361.66	35.611
362.02	34.766
362.38	34.934
362.74	34.880
363.10	34.635
363.46	35.231
363.82	35.920
364.18	35.025
364.54	36.689
364.90	34.774
365.26	35.315
365.62	33.949
365.98	35.801
366.35	34.752
366.71	34.593
367.07	34.373
367.43	34.983
367.79	35.719
368.15	35.584
368.51	34.740
368.87	35.520
369.23	35.516
369.59	35.166
369.95	35.196
370.31	35.914
370.67	36.423
371.03	36.154
371.39	36.125
371.75	35.643
372.11	35.684
372.47	35.977
372.83	35.368
373.19	35.827
373.55	37.211
373.91	36.634
374.27	36.238
374.63	37.411
374.99	35.446
375.35	35.822
375.71	36.277
376.07	36.463
376.42	36.430
376.78	36.658
377.14	37.017
377.50	37.549
377.86	37.583
378.22	37.042
378.58	36.570
378.94	37.625
379.30	37.601
379.66	37.793
380.02	36.581
380.38	36.145
380.74	38.553
381.09	37.817
381.45	37.666
381.81	37.277
382.17	37.177
382.53	37.969
382.89	38.299
383.25	38.148
383.61	38.257
383.97	37.875
384.32	38.311
384.68	37.323
385.04	37.691
385.40	38.543
385.76	37.530
386.12	38.347
386.48	37.179
386.83	38.486
387.19	38.988
387.55	38.443
387.91	38.622
388.27	38.101
388.62	38.889
388.98	38.235
389.34	39.599
389.70	38.889
390.06	38.438
390.42	39.626
390.77	39.334
391.13	40.152
391.49	39.975
391.85	38.466
392.20	40.100
392.56	40.254
392.92	39.380
393.28	38.466
393.64	39.633
393.99	39.045
394.35	39.568
394.71	40.385
395.07	38.491
395.42	39.732
395.78	38.739
396.14	40.583
396.50	39.442
396.85	41.364
397.21	38.577
397.57	40.000
397.92	39.820
398.28	40.214
398.64	39.344
399.00	40.737
399.35	40.806
399.71	39.779
400.07	40.783
400.42	40.251
400.78	41.450
401.14	40.037
401.49	40.204
401.85	41.769
402.21	41.672
402.57	42.121
402.92	41.552
403.28	42.151
403.63	40.980
403.99	41.843
404.35	42.020
404.70	40.363
405.06	41.574
405.42	41.080
405.77	40.323
406.13	41.714
406.49	41.821
406.84	41.575
407.20	41.622
407.55	41.623
407.91	41.496
408.27	41.110
408.62	43.033
408.98	42.417
409.34	42.698
409.69	43.925
410.05	40.796
410.40	41.509
410.76	42.960
411.11	42.662
411.47	44.791
411.83	42.608
412.18	42.569
412.54	42.607
412.89	42.320
413.25	41.947
413.60	43.135
413.96	43.383
414.31	44.020
414.67	43.238
415.03	43.099
415.38	42.999
415.74	43.405
416.09	44.151
416.45	43.677
416.80	43.624
417.16	44.130
417.51	43.470
417.87	43.452
418.22	44.279
418.58	43.167
418.93	44.507
419.29	44.356
419.64	44.211
420.00	44.190
420.35	43.634
420.71	44.607
421.06	44.957
421.42	44.951
421.77	44.624
422.12	44.470
422.48	44.329
422.83	45.186
423.19	44.853
423.54	44.935
423.90	44.774
424.25	45.465
424.61	44.547
424.96	46.245
425.31	44.420
425.67	45.855
426.02	45.878
426.38	46.517
426.73	46.182
427.09	45.091
427.44	45.625
427.79	45.903
428.15	45.382
428.50	45.921
428.85	46.248
429.21	45.695
429.56	46.068
429.92	46.486
430.27	46.268
430.62	45.960
430.98	45.690
431.33	47.071
431.68	47.977
432.04	47.437
432.39	45.958
432.74	46.475
433.10	47.763
433.45	47.456
433.80	47.586
434.16	46.150
434.51	46.848
434.86	48.704
435.22	47.312
435.57	46.806
435.92	48.432
436.28	46.607
436.63	47.229
436.98	48.179
437.34	47.985
437.69	46.930
438.04	46.746
438.39	48.319
438.75	47.795
439.10	49.104
439.45	47.942
439.81	49.015
440.16	49.159
440.51	48.335
440.86	48.903
441.22	47.849
441.57	48.048
441.92	48.937
442.27	48.160
442.63	48.762
442.98	49.016
443.33	49.774
443.68	47.496
444.03	48.882
444.39	48.934
444.74	48.426
445.09	48.678
445.44	49.183
445.79	49.045
446.15	49.251
446.50	49.284
446.85	49.920
447.20	50.183
447.55	49.301
447.91	48.820
448.26	50.257
448.61	48.792
448.96	49.544
449.31	49.229
449.66	50.260
450.02	50.199
450.37	50.059
450.72	49.713
451.07	49.969
451.42	50.281
451.77	50.517
452.12	50.446
452.47	52.356
452.83	49.646
453.18	50.159
453.53	50.946
453.88	51.566
454.23	51.545
454.58	51.287
454.93	50.225
455.28	50.610
455.63	50.655
455.98	50.943
456.34	50.223
456.69	51.693
457.04	50.836
457.39	50.331
457.74	51.346
458.09	51.481
458.44	50.940
458.79	49.863
459.14	50.674
459.49	52.256
459.84	50.789
460.19	49.400
460.54	50.304
460.89	50.282
461.24	51.171
461.59	51.087
461.94	51.454
462.29	52.145
462.64	50.330
462.99	52.046
463.34	53.591
463.69	51.804
464.04	49.580
464.39	51.312
464.74	50.860
465.09	50.527
465.44	50.224
465.79	51.754
466.14	51.995
466.49	52.845
466.84	52.421
467.19	52.293
467.54	52.236
467.89	53.300
468.24	52.551
468.59	53.155
468.94	53.193
469.29	52.875
469.64	52.022
469.99	53.793
470.34	53.338
470.68	54.126
471.03	54.090
471.38	54.033
471.73	54.252
472.08	54.227
472.43	55.079
472.78	54.361
473.13	53.364
473.48	53.816
473.83	54.300
474.17	54.102
474.52	55.728
474.87	52.774
475.22	52.899
475.57	54.378
475.92	54.089
476.27	54.021
476.61	54.360
476.96	54.940
477.31	53.722
477.66	54.407
478.01	53.352
478.36	54.169
478.70	53.276
479.05	54.939
479.40	53.978
479.75	55.101
480.10	54.156
480.45	53.752
480.79	53.410
481.14	53.597
481.49	53.922
481.84	53.864
482.19	53.034
482.53	53.476
482.88	53.931
483.23	52.743
483.58	53.970
483.92	53.988
484.27	53.431
484.62	53.351
484.97	52.966
485.31	52.587
485.66	48.856
486.01	48.609
486.36	48.651
486.70	49.437
487.05	50.597
487.40	51.104
487.75	51.737
488.09	51.204
488.44	52.050
488.79	53.520
489.13	53.201
489.48	54.168
489.83	53.953
490.17	56.468
490.52	55.867
490.87	54.149
491.22	55.959
491.56	55.870
491.91	54.825
492.26	55.416
492.60	55.556
492.95	55.831
493.30	54.748
493.64	55.012
493.99	56.570
494.34	56.407
494.68	55.990
495.03	55.781
495.37	55.523
495.72	55.338
496.07	56.795
496.41	55.826
496.76	55.850
497.11	56.009
497.45	57.004
497.80	56.739
498.14	56.877
498.49	56.278
498.84	57.945
499.18	56.695
499.53	55.884
499.87	55.847
500.22	56.048
500.56	57.823
500.91	56.539
501.26	56.059
501.60	55.833
501.95	56.876
502.29	56.650
502.64	56.509
502.98	55.588
503.33	58.054
503.67	57.157
504.02	57.010
504.36	57.405
504.71	57.470
505.06	57.514
505.40	58.299
505.75	57.579
506.09	58.201
506.44	58.720
506.78	58.304
507.13	59.511
507.47	58.643
507.82	58.399
508.16	60.106
508.51	57.955
508.85	58.942
509.19	59.365
509.54	60.483
509.88	59.301
510.23	58.789
510.57	59.852
510.92	59.375
511.26	60.506
511.61	59.001
511.95	60.805
512.30	60.244
512.64	61.635
512.98	59.391
513.33	60.732
513.67	60.931
514.02	60.832
514.36	60.674
514.70	61.778
515.05	62.844
515.39	61.969
515.74	62.049
516.08	61.121
516.42	60.829
516.77	61.746
517.11	62.434
517.46	62.605
517.80	64.891
518.14	61.604
518.49	62.809
518.83	61.695
519.17	63.373
519.52	63.209
519.86	63.874
520.20	62.401
520.55	62.873
520.89	63.314
521.23	65.641
521.58	64.159
521.92	64.488
522.26	64.086
522.61	65.805
522.95	64.637
523.29	63.492
523.64	64.399
523.98	64.740
524.32	63.201
524.66	64.870
525.01	65.924
525.35	65.701
525.69	65.408
526.04	64.039
526.38	63.544
526.72	65.746
527.06	65.055
527.41	64.196
527.75	65.154
528.09	67.529
528.43	65.672
528.78	64.793
529.12	65.330
529.46	65.515
529.80	65.566
530.15	65.187
530.49	67.385
530.83	66.622
531.17	66.712
531.51	66.217
531.86	65.176
532.20	66.782
532.54	65.931
532.88	66.848
533.22	66.869
533.57	66.821
533.91	65.548
534.25	66.211
534.59	64.672
534.93	65.497
535.27	64.204
535.62	64.474
535.96	65.127
536.30	65.160
536.64	65.003
536.98	66.643
537.32	68.256
537.66	68.054
538.01	66.436
538.35	65.401
538.69	65.886
539.03	64.631
539.37	64.789
539.71	65.689
540.05	63.968
540.39	64.763
540.73	66.201
541.07	66.190
541.42	64.108
541.76	66.103
542.10	63.507
542.44	65.974
542.78	66.273
543.12	65.296
543.46	65.238
543.80	65.513
544.14	66.621
544.48	63.504
544.82	65.098
545.16	65.788
545.50	65.429
545.84	64.867
546.18	66.269
546.52	66.690
546.86	64.311
547.20	65.904
547.54	65.261
547.88	66.802
548.22	64.886
548.56	64.643
548.90	64.005
549.24	66.806
549.58	65.907
549.92	66.398
550.26	67.454
550.60	68.243
550.94	67.463
551.28	65.632
551.62	66.015
551.96	65.959
552.30	66.303
552.64	65.890
552.98	67.969
553.32	66.835
553.66	67.058
554.00	67.099
554.34	67.253
554.68	66.070
555.02	66.243
555.36	67.625
555.69	65.914
556.03	65.690
556.37	65.292
556.71	65.662
557.05	67.159
557.39	67.295
557.73	67.398
558.07	66.089
558.41	66.616
558.75	68.129
559.08	67.682
559.42	68.843
559.76	67.049
560.10	68.793
560.44	65.733
560.78	66.978
561.12	66.573
561.45	63.673
561.79	65.337
562.13	65.963
562.47	67.214
562.81	65.368
563.15	65.156
563.48	64.074
563.82	65.116
564.16	66.148
564.50	65.468
564.84	65.000
565.17	65.298
565.51	64.305
565.85	64.424
566.19	64.768
566.52	63.893
566.86	62.832
567.20	62.737
567.54	61.831
567.88	60.470
568.21	61.054
568.55	61.502
568.89	59.870
569.23	58.158
569.56	57.363
569.90	56.863
570.24	55.307
570.57	55.544
570.91	55.859
571.25	54.841
571.59	54.089
571.92	54.063
572.26	54.559
572.60	54.327
572.93	54.545
573.27	53.690
573.61	54.305
573.95	53.675
574.28	52.771
574.62	52.901
574.96	52.731
575.29	52.658
575.63	53.425
575.97	53.614
576.30	52.808
576.64	52.476
576.98	53.153
577.31	52.229
577.65	51.491
577.98	51.769
578.32	51.737
578.66	51.369
578.99	52.042
579.33	52.574
579.67	53.462
580.00	52.099
580.34	51.769
580.67	52.327
581.01	51.399
581.35	51.576
581.68	50.956
582.02	51.550
582.35	51.305
582.69	50.783
583.02	51.276
583.36	51.661
583.70	51.552
584.03	52.143
584.37	52.650
584.70	51.904
585.04	51.608
585.37	51.859
585.71	51.737
586.04	52.180
586.38	52.013
586.72	51.840
587.05	52.848
587.39	52.810
587.72	52.101
588.06	52.886
588.39	52.057
588.73	52.798
589.06	53.637
589.40	53.698
589.73	52.713
590.07	53.409
590.40	53.427
590.73	55.794
591.07	55.077
591.40	56.000
591.74	56.558
592.07	56.686
592.41	56.242
592.74	54.900
593.08	53.299
593.41	53.179
593.75	52.487
594.08	53.161
594.41	54.333
594.75	54.723
595.08	54.294
595.42	53.472
595.75	53.615
596.09	53.541
596.42	54.616
596.75	55.200
597.09	55.914
597.42	55.989
597.75	55.911
598.09	55.601
598.42	54.765
598.76	54.702
599.09	55.262
599.42	55.174
599.76	53.924
600.09	53.577
600.42	54.087
600.76	53.548
601.09	54.200
601.42	54.410
601.76	53.707
602.09	54.398
602.42	54.354
602.76	54.614
603.09	54.702
603.42	54.018
603.76	53.468
604.09	53.636
604.42	55.170
604.76	54.780
605.09	55.958
605.42	54.791
605.75	54.904
606.09	54.470
606.42	54.364
606.75	54.589
607.09	55.629
607.42	54.772
607.75	53.654
608.08	54.824
608.42	55.108
608.75	55.710
609.08	55.463
609.41	56.085
609.75	57.035
610.08	55.030
610.41	56.997
610.74	56.256
611.07	55.762
611.41	56.448
611.74	55.901
612.07	55.810
612.40	57.946
612.73	56.202
613.07	56.153
613.40	57.324
613.73	57.313
614.06	55.777
614.39	56.976
614.72	57.468
615.06	57.556
615.39	56.457
615.72	56.425
616.05	57.714
616.38	56.701
616.71	57.349
617.05	57.310
617.38	57.055
617.71	57.292
618.04	57.709
618.37	58.675
618.70	59.444
619.03	60.412
619.36	60.925
619.69	60.015
620.03	58.657
620.36	59.499
620.69	59.529
621.02	61.077
621.35	61.079
621.68	62.021
622.01	61.731
622.34	60.666
622.67	61.159
623.00	60.942
623.33	59.910
623.66	60.595
623.99	61.065
624.32	59.134
624.65	60.534
624.99	60.544
625.32	60.717
625.65	61.783
625.98	60.348
626.31	61.388
626.64	62.769
626.97	62.457
627.30	64.671
627.63	64.014
627.96	61.732
628.29	63.721
628.62	67.021
628.95	65.531
629.28	66.108
629.61	64.785
629.94	65.087
630.26	64.236
630.59	67.033
630.92	65.562
631.25	67.868
631.58	66.381
631.91	66.384
632.24	65.423
632.57	67.000
632.90	68.961
633.23	66.307
633.56	69.904
633.89	69.617
634.22	70.554
634.55	68.697
634.88	69.240
635.20	69.250
635.53	70.543
635.86	70.513
636.19	69.479
636.52	68.049
636.85	68.396
637.18	66.626
637.51	68.914
637.83	70.235
638.16	70.133
638.49	70.628
638.82	68.235
639.15	71.410
639.48	70.856
639.81	70.556
640.13	71.831
640.46	72.599
640.79	70.935
641.12	72.189
641.45	72.635
641.77	70.103
642.10	72.315
642.43	73.270
642.76	73.817
643.09	73.163
643.41	73.684
643.74	76.898
644.07	71.845
644.40	73.798
644.73	75.085
645.05	73.822
645.38	73.422
645.71	74.320
646.04	71.549
646.36	74.479
646.69	73.601
647.02	77.413
647.35	74.771
647.67	75.786
648.00	73.188
648.33	74.576
648.66	73.790
648.98	68.012
649.31	68.865
649.64	68.701
649.96	69.194
650.29	69.935
650.62	68.369
650.94	70.172
651.27	70.671
651.60	72.552
651.92	73.297
652.25	70.017
652.58	69.802
652.90	71.212
653.23	69.779
653.56	70.579
653.88	70.137
654.21	67.747
654.54	66.777
654.86	67.642
655.19	65.546
655.52	56.028
655.84	46.902
656.17	54.331
656.49	70.425
656.82	68.460
657.15	51.127
657.47	38.071
657.80	28.403
658.13	29.792
658.45	44.542
658.78	43.913
659.10	43.505
659.43	45.129
659.75	46.210
660.08	49.172
660.41	54.057
660.73	60.193
661.06	66.667
661.38	68.798
661.71	73.361
662.03	78.013
662.36	74.115
662.68	76.129
663.01	76.059
663.33	71.274
663.66	75.166
663.98	75.056
664.31	76.264
664.63	70.946
664.96	75.711
665.28	76.395
665.61	69.546
665.93	74.304
666.26	73.207
666.58	70.878
666.91	77.354
667.23	74.654
667.56	75.402
667.88	77.336
668.21	74.554
668.53	75.172
668.86	74.580
669.18	77.541
669.50	76.037
669.83	73.986
670.15	73.333
670.48	73.103
670.80	73.304
671.13	75.515
671.45	77.626
671.77	70.474
672.10	67.057
672.42	69.084
672.75	67.143
673.07	66.182
673.39	68.470
673.72	71.856
674.04	68.238
674.37	67.886
674.69	66.461
675.01	68.590
675.34	67.834
675.66	75.817
675.98	67.035
676.31	74.434
676.63	74.830
676.95	71.765
677.28	73.394
677.60	74.020
677.92	72.949
678.25	72.234
678.57	70.061
678.89	68.870
679.22	69.979
679.54	65.306
679.86	67.578
680.18	65.192
680.51	65.577
680.83	67.057
681.15	65.619
681.48	68.136
681.80	68.303
682.12	67.708
682.44	65.795
682.77	63.579
683.09	68.080
683.41	69.535
683.73	65.625
684.06	70.354
684.38	65.171
684.70	61.711
685.02	70.041
685.34	66.145
685.67	65.854
685.99	61.210
686.31	62.586
686.63	61.765
686.96	65.121
687.28	64.471
687.60	66.730
687.92	65.759
688.24	60.200
688.56	67.325
688.89	64.811
689.21	64.126
689.53	65.315
689.85	66.067
690.17	63.297
690.49	67.391
690.82	66.826
691.14	67.633
691.46	67.749
691.78	66.813
692.10	64.544
692.42	62.857
692.74	66.087
693.06	66.517
693.39	64.169
693.71	65.111
694.03	66.591
694.35	64.640
694.67	66.000
694.99	70.361
695.31	67.700
695.63	65.366
695.95	65.903
696.27	67.397
696.59	68.280
696.91	69.274
697.23	68.020
697.56	67.146
697.88	61.123
698.20	61.339
698.52	63.318
698.84	59.569
699.16	65.012
699.48	65.185
699.80	66.150
700.12	66.756
700.44	64.507
700.76	64.607
701.08	69.486
701.40	66.467
701.72	70.769
702.04	62.264
702.36	67.683
702.68	68.598
703.00	67.251
703.32	62.396
703.64	69.578
703.96	65.982
704.28	67.470
704.60	67.683
704.91	68.025
705.23	66.456
705.55	70.345
705.87	74.296
706.19	71.429
706.51	70.775
706.83	65.924
707.15	67.988
707.47	64.738
707.79	59.645
708.11	59.383
708.43	62.690
708.74	60.638
709.06	60.428
709.38	62.248
709.70	64.565
710.02	65.109
710.34	64.667
710.66	67.101
710.98	65.944
711.29	64.286
711.61	65.484
711.93	63.871
712.25	63.287
712.57	63.860
712.89	64.835
713.20	67.376
713.52	67.518
713.84	62.581
714.16	62.136
714.48	64.873
714.80	61.342
715.11	59.593
715.43	59.627
715.75	64.907
716.07	60.241
716.39	67.003
716.70	67.626
717.02	69.412
717.34	64.773
717.66	73.707
717.97	61.508
718.29	63.386
718.61	71.245
718.93	64.729
719.24	66.052
719.56	63.296
719.88	60.448
720.20	62.846
720.51	67.969
720.83	66.148
721.15	59.350
721.46	61.069
721.78	62.151
722.10	61.355
722.42	61.694
722.73	63.707
723.05	66.531
723.37	65.546
723.68	61.200
724.00	62.979
724.32	62.762
724.63	59.671
724.95	61.538
725.27	65.823
725.58	62.140
725.90	64.854
726.22	58.333
726.53	59.216
726.85	62.409
727.16	56.296
727.48	58.621
727.80	61.328
728.11	61.475
728.43	64.844
728.74	61.508
729.06	60.400
729.38	64.032
729.69	59.075
730.01	57.993
730.32	60.517
730.64	55.303
730.96	60.839
731.27	56.856
731.59	57.460
731.90	57.282
732.22	56.410
732.53	53.378
732.85	52.013
733.16	57.426
733.48	57.095
733.80	58.784
734.11	55.405
734.43	55.728
734.74	55.255
735.06	54.755
735.37	53.191
735.69	55.016
736.00	54.785
736.32	56.738
736.63	59.655
736.95	56.507
737.26	51.034
737.58	55.556
737.89	53.608
738.21	53.737
738.52	53.612
738.83	60.000
739.15	61.603
739.46	52.918
739.78	52.465
740.09	53.082
740.41	53.571
740.72	51.064
741.04	55.200
741.35	51.754
741.66	54.667
741.98	59.615
742.29	61.881
742.61	63.902
742.92	56.579
743.23	59.434
743.55	54.054
743.86	59.641
744.18	68.627
744.49	61.421
744.80	60.204
745.12	58.411
745.43	61.137
745.74	58.559
746.06	56.542
746.37	50.917
746.68	58.654
747.00	64.593
747.31	59.135
747.62	60.550
747.94	58.515
748.25	61.009
748.56	67.111
748.88	61.033
749.19	64.762
749.50	59.223
749.82	58.685
750.13	50.000
750.44	53.077
750.75	52.768
751.07	57.295
751.38	53.546
751.69	54.054
752.01	57.813
752.32	54.231
752.63	53.731
752.94	55.200
753.26	55.649
753.57	55.000
753.88	58.704
754.19	51.793
754.51	54.887
754.82	49.451
755.13	52.174
755.44	52.846
755.75	61.200
756.07	56.458
756.38	55.036
756.69	55.290
757.00	46.106
757.31	52.427
757.63	47.531
757.94	53.390
758.25	46.296
758.56	50.000
758.87	49.702
759.18	49.211
759.50	47.475
759.81	54.849
760.12	49.231
760.43	47.321
760.74	48.305
761.05	44.751
761.36	48.997
761.67	45.317
761.99	48.797
762.30	50.000
762.61	51.029
762.92	58.120
763.23	52.049
763.54	53.247
763.85	46.122
764.16	54.472
764.47	56.800
764.78	51.786
765.10	48.197
765.41	44.073
765.72	43.478
766.03	47.855
766.34	51.154
766.65	48.954
766.96	47.418
767.27	58.416
767.58	53.933
767.89	58.642
768.20	49.724
768.51	60.302
768.82	52.885
769.13	47.788
769.44	51.464
769.75	47.009
770.06	49.776
770.37	49.510
770.68	49.029
770.99	54.369
771.30	48.739
771.61	49.388
771.92	54.772
772.23	45.946
772.54	53.039
772.85	54.070
773.16	40.741
773.47	49.112
773.78	50.000
774.09	56.250
774.39	56.522
774.70	56.463
775.01	48.966
775.32	56.429
775.63	51.880
775.94	48.120
776.25	44.000
776.56	58.678
776.87	57.937
777.18	53.153
777.48	61.261
777.79	44.882
778.10	63.303
778.41	50.877
778.72	49.580
779.03	50.000
779.34	50.676
779.65	49.296
779.95	51.656
780.26	49.640
780.57	47.482
780.88	43.662
781.19	47.059
781.50	58.389
781.80	52.047
782.11	33.721
782.42	47.799
782.73	48.366
783.04	46.897
783.34	45.802
783.65	49.664
783.96	49.231
784.27	44.286
784.57	50.355
784.88	45.192
785.19	54.545
785.50	50.909
785.81	56.190
786.11	41.176
786.42	52.212
786.73	43.396
787.04	28.440
787.34	40.594
787.65	46.667
787.96	53.719
788.26	49.275
788.57	48.413
788.88	37.398
789.19	44.000
789.49	27.481
789.80	53.030
790.11	40.566
790.41	46.535
790.72	47.872
791.03	33.696
791.33	41.176
791.64	49.383
791.95	55.435
792.25	51.136
792.56	62.821
792.87	37.179
793.17	29.487
793.48	52.381
793.79	37.500
794.09	50.000
794.40	55.208
794.70	42.342
795.01	34.375
795.32	47.826
795.62	47.826
795.93	35.849
796.23	44.444
796.54	51.220
796.85	53.571
797.15	43.939
797.46	20.290
797.76	36.842
798.07	35.227
798.37	40.244
798.68	37.097
798.99	43.243
799.29	48.193
799.60	42.308
799.90	43.077
800.21	43.939
800.51	33.333
800.82	42.667
801.12	31.250
801.43	41.667
801.73	32.432
802.04	41.429
802.34	31.148
802.65	37.313
802.95	40.000
803.26	41.379
803.56	29.231
803.87	54.717
804.17	37.097
804.48	41.176
804.78	41.463
805.09	50.725
805.39	42.647
805.70	34.043
806.00	42.105
806.30	46.154
806.61	36.842
806.91	41.892
807.22	36.842
807.52	44.318
807.83	16.949
808.13	-1.515
808.43	45.000
808.74	25.862
809.04	33.333
809.35	55.102
809.65	36.667
809.95	-4.082
810.26	45.070
810.56	29.167
810.86	51.020
811.17	67.308
811.47	17.021
811.77	16.667
812.08	9.434
812.38	43.750
812.69	23.636
812.99	36.585
813.29	18.919
813.59	35.135
813.90	3.636
814.20	56.364
814.50	31.667
814.81	38.182
815.11	22.807
815.41	46.512
815.72	5.000
816.02	2.857
816.32	43.243
816.62	31.250
816.93	37.778
817.23	20.000
817.53	19.444
817.84	21.622
818.14	26.829
818.44	22.000
818.74	22.449
819.04	43.902
819.35	41.667
819.65	43.182
819.95	0.000
820.25	27.273
820.56	9.524
820.86	30.556
821.16	9.091
821.46	2.174
821.76	15.517
822.07	26.087
822.37	66.667
822.67	56.098
822.97	37.838
823.27	14.286
823.57	62.069
823.88	38.235
824.18	41.667
824.48	14.286
824.78	52.381
825.08	25.000
825.38	18.519
825.69	38.710
825.99	46.341
826.29	48.148
826.59	31.250
826.89	32.258
827.19	-8.696
827.49	5.556
827.79	-34.783
828.09	45.161
828.39	-2.083
828.70	-15.625
829.00	17.241
829.30	21.622
829.60	-29.167
829.90	22.222
830.20	46.875
830.50	50.000
830.80	-70.588
831.10	-18.182
831.40	11.765
831.70	-3.846
832.00	12.121
832.30	20.588
832.60	37.838
832.90	600.000
833.20	10.714
833.50	-70.000
833.80	-2.632
834.10	-20.833
834.40	-50.000
834.70	-26.667
835.00	30.000
835.30	16.667
835.60	23.810
835.90	23.810
836.20	28.000
836.50	-29.167
836.80	-26.316
837.10	24.324
837.40	46.667
837.70	34.783
838.00	50.000
838.30	21.053
838.60	-140.000
838.90	-130.000
839.19	41.667
839.49	38.462
839.79	21.053
840.09	-33.333
840.39	40.000
840.69	-13.636
840.99	-14.286
841.29	-29.167
841.59	30.769
841.88	-100.000
842.18	-7.143
842.48	13.333
842.78	-214.286
843.08	-21.429
843.38	-200.000
843.68	-87.500
843.97	-35.714
844.27	-33.333
844.57	-36.364
844.87	-100.000
845.17	-13.636
845.47	600.000
845.76	-60.000
846.06	-100.000
846.36	-950.000
846.66	21.053
846.96	-9.091
847.25	-55.556
847.55	-44.444
847.85	-80.952
848.15	15.385
848.44	-166.667
848.74	-50.000
849.04	-69.231
849.34	-75.000
849.63	-118.182
849.93	-92.857
850.23	30.000
850.53	-150.000
850.82	-44.444
851.12	-6.667
851.42	23.529
851.71	-75.000
852.01	70.588
852.31	-15.385
852.61	150.000
852.90	-23.529
853.20	20.000
853.50	-37.500
853.79	-121.429
854.09	-150.000
854.39	-10.000
854.68	-5.000
854.98	4.762
855.28	-24.000
855.57	-33.333
855.87	-20.833
856.17	-16.000
856.46	0.000
856.76	20.000
857.05	0.000
857.35	-58.333
857.65	-47.059
857.94	-125.000
858.24	-33.333
858.53	-20.000
858.83	-36.364
859.13	-12.000
859.42	-50.000
859.72	-175.000
860.01	8.333
860.31	-200.000
860.60	-43.750
860.90	-83.333
861.20	-33.333
861.49	0.000
861.79	-43.750
862.08	375.000
862.38	-83.333
862.67	228.571
862.97	275.000
863.26	-100.000
863.56	-100.000
863.85	10.526
864.15	-52.941
864.44	-80.000
864.74	-150.000
865.03	-22.222
865.33	-42.857
865.62	128.571
865.92	21.053
866.21	-33.333
866.51	27.273
866.80	-66.667
867.10	-125.000
867.39	31.250
867.69	-73.333
867.98	-40.000
868.27	-5.882
868.57	0.000
868.86	950.000
869.16	-150.000
869.45	-257.143
869.75	750.000
870.04	-30.000
870.33	-800.000
870.63	-5.263
870.92	16.667
871.22	-500.000
871.51	-157.143
871.80	-122.222
872.10	-425.000
>>>>>End Processed Spectral Data<<<<<
