SpectraSuite Data File
++++++++++++++++++++++++++++++++++++
Date: Wed May 13 21:37:05 PDT 2015
User: schluterlab
Dark Spectrum Present: Yes
Reference Spectrum Present: Yes
Number of Sampled Component Spectra: 1
Spectrometers: USB2E3373
Integration Time (usec): 3000 (USB2E3373)
Spectra Averaged: 3 (USB2E3373)
Boxcar Smoothing: 0 (USB2E3373)
Correct for Electrical Dark: No (USB2E3373)
Strobe/Lamp Enabled: No (USB2E3373)
Correct for Detector Non-linearity: No (USB2E3373)
Correct for Stray Light: No (USB2E3373)
Number of Pixels in Processed Spectrum: 2048
>>>>>Begin Processed Spectral Data<<<<<
178.53	0.000
178.91	650.000
179.29	241.667
179.67	-1100.000
180.04	-400.000
180.42	300.000
180.80	800.000
181.18	283.333
181.56	-550.000
181.94	-300.000
182.31	-109.091
182.69	230.769
183.07	-340.000
183.45	216.667
183.83	244.444
184.20	257.143
184.58	-233.333
184.96	366.667
185.34	271.429
185.72	0.000
186.09	-1700.000
186.47	-280.000
186.85	80.000
187.23	-400.000
187.61	850.000
187.98	1100.000
188.36	-100.000
188.74	0.000
189.12	-72.727
189.49	-60.000
189.87	141.667
190.25	520.000
190.63	1300.000
191.00	-200.000
191.38	340.000
191.76	325.000
192.14	233.333
192.51	-26.316
192.89	400.000
193.27	275.000
193.65	-300.000
194.02	154.545
194.40	190.000
194.78	-1100.000
195.15	420.000
195.53	-280.000
195.91	-62.500
196.29	-600.000
196.66	0.000
197.04	700.000
197.42	-180.000
197.79	40.000
198.17	-162.500
198.55	-100.000
198.92	375.000
199.30	-766.667
199.68	-110.000
200.05	850.000
200.43	200.000
200.81	-1900.000
201.18	-360.000
201.56	-50.000
201.94	450.000
202.31	-13.043
202.69	-185.714
203.07	-633.333
203.44	-220.000
203.82	-266.667
204.19	-70.000
204.57	0.000
204.95	-250.000
205.32	0.000
205.70	-450.000
206.08	-475.000
206.45	-300.000
206.83	575.000
207.20	-533.333
207.58	-100.000
207.96	-2000.000
208.33	-285.714
208.71	-1800.000
209.08	325.000
209.46	400.000
209.84	0.000
210.21	180.000
210.59	2900.000
210.96	380.000
211.34	1700.000
211.71	-1150.000
212.09	-266.667
212.46	-190.000
212.84	-66.667
213.22	-125.000
213.59	-2000.000
213.97	-700.000
214.34	-1350.000
214.72	-15.385
215.09	287.500
215.47	111.111
215.84	1050.000
216.22	-62.500
216.59	-200.000
216.97	466.667
217.34	300.000
217.72	0.000
218.09	500.000
218.47	-1200.000
218.84	-171.429
219.22	-137.500
219.59	-600.000
219.97	-475.000
220.34	-250.000
220.72	-280.000
221.09	0.000
221.47	-250.000
221.84	-1100.000
222.22	0.000
222.59	1400.000
222.97	-433.333
223.34	-91.667
223.72	-400.000
224.09	-1250.000
224.46	-27.273
224.84	-62.500
225.21	-228.571
225.59	-325.000
225.96	-300.000
226.34	-50.000
226.71	-228.571
227.08	1000.000
227.46	-75.000
227.83	-1400.000
228.21	-25.000
228.58	-550.000
228.95	-76.471
229.33	-12.500
229.70	-125.000
230.08	-23.077
230.45	-112.500
230.82	-158.333
231.20	342.857
231.57	-450.000
231.95	800.000
232.32	-50.000
232.69	-35.294
233.07	-2200.000
233.44	-34.783
233.81	-500.000
234.19	-8.333
234.56	-93.333
234.93	-93.333
235.31	-57.895
235.68	-123.077
236.05	-84.615
236.43	-44.444
236.80	-12.121
237.17	-33.333
237.55	-70.588
237.92	-37.931
238.29	-74.074
238.67	-27.778
239.04	-22.581
239.41	2.128
239.79	-2.128
240.16	25.581
240.53	14.286
240.91	8.929
241.28	26.786
241.65	27.419
242.02	7.895
242.40	11.594
242.77	4.348
243.14	12.821
243.51	20.213
243.89	11.538
244.26	28.302
244.63	13.462
245.00	17.708
245.38	15.126
245.75	23.770
246.12	18.797
246.49	22.764
246.87	11.765
247.24	18.919
247.61	25.166
247.98	26.282
248.36	21.302
248.73	17.978
249.10	23.737
249.47	24.731
249.84	24.737
250.22	20.398
250.59	24.766
250.96	25.909
251.33	19.617
251.70	26.360
252.08	24.686
252.45	26.749
252.82	24.715
253.19	25.292
253.56	24.101
253.94	27.758
254.31	26.056
254.68	26.846
255.05	24.752
255.42	27.972
255.79	28.834
256.16	27.760
256.54	20.952
256.91	22.785
257.28	28.302
257.65	24.841
258.02	24.340
258.39	26.901
258.76	25.000
259.14	27.841
259.51	24.719
259.88	25.203
260.25	25.000
260.62	25.000
260.99	26.525
261.36	25.648
261.73	26.420
262.10	24.682
262.47	26.173
262.85	25.373
263.22	25.128
263.59	29.870
263.96	25.791
264.33	20.913
264.70	27.209
265.07	25.231
265.44	26.437
265.81	26.316
266.18	28.702
266.55	23.581
266.92	24.364
267.29	27.160
267.66	28.662
268.03	27.572
268.40	24.153
268.77	24.380
269.14	26.735
269.51	30.185
269.88	24.236
270.25	25.636
270.62	25.000
270.99	26.575
271.36	27.381
271.73	25.703
272.10	25.905
272.47	25.144
272.84	25.787
273.21	26.614
273.58	29.098
273.95	26.604
274.32	26.306
274.69	24.408
275.06	27.032
275.43	28.437
275.80	23.582
276.17	25.967
276.54	25.044
276.91	24.739
277.28	26.534
277.65	25.524
278.02	27.500
278.39	25.044
278.76	24.749
279.13	26.758
279.50	26.552
279.87	26.087
280.23	27.027
280.60	25.087
280.97	26.948
281.34	27.287
281.71	24.390
282.08	26.154
282.45	24.918
282.82	25.559
283.19	27.439
283.56	26.250
283.92	25.535
284.29	23.713
284.66	25.865
285.03	24.267
285.40	23.867
285.77	26.126
286.14	24.164
286.51	27.586
286.87	23.846
287.24	24.926
287.61	25.301
287.98	23.971
288.35	23.994
288.72	26.399
289.08	26.496
289.45	23.642
289.82	22.844
290.19	23.703
290.56	23.011
290.93	22.928
291.29	22.298
291.66	22.951
292.03	23.569
292.40	23.419
292.77	23.025
293.13	23.431
293.50	22.614
293.87	24.000
294.24	22.090
294.60	22.237
294.97	22.751
295.34	21.636
295.71	22.208
296.08	22.120
296.44	19.898
296.81	21.559
297.18	21.125
297.55	22.877
297.91	22.733
298.28	21.308
298.65	19.089
299.02	21.978
299.38	19.632
299.75	21.755
300.12	19.186
300.48	20.000
300.85	20.323
301.22	20.325
301.59	19.014
301.95	19.164
302.32	20.420
302.69	18.870
303.05	19.380
303.42	18.864
303.79	20.820
304.15	20.701
304.52	21.183
304.89	18.715
305.25	18.002
305.62	19.848
305.99	18.281
306.35	19.958
306.72	19.736
307.09	20.229
307.45	21.725
307.82	20.105
308.19	18.391
308.55	19.345
308.92	21.415
309.29	20.821
309.65	20.979
310.02	20.080
310.38	19.512
310.75	19.527
311.12	19.825
311.48	21.068
311.85	20.374
312.22	19.923
312.58	19.227
312.95	20.498
313.31	20.478
313.68	19.370
314.05	21.456
314.41	21.614
314.78	21.252
315.14	21.389
315.51	20.837
315.87	21.038
316.24	22.681
316.61	21.644
316.97	20.926
317.34	22.460
317.70	22.391
318.07	23.514
318.43	22.945
318.80	24.258
319.16	23.254
319.53	24.552
319.89	25.023
320.26	24.861
320.62	25.301
320.99	26.550
321.35	26.006
321.72	28.585
322.08	29.059
322.45	28.677
322.81	29.298
323.18	30.143
323.54	31.769
323.91	32.430
324.27	32.763
324.64	32.840
325.00	33.771
325.37	34.044
325.73	33.165
326.10	34.819
326.46	35.702
326.83	37.864
327.19	37.317
327.56	39.807
327.92	38.455
328.29	40.735
328.65	40.929
329.01	40.985
329.38	43.304
329.74	42.918
330.11	42.831
330.47	43.837
330.84	43.231
331.20	43.980
331.56	45.743
331.93	44.789
332.29	46.481
332.66	45.932
333.02	46.308
333.38	46.228
333.75	46.758
334.11	46.701
334.48	48.213
334.84	46.820
335.20	47.170
335.57	48.042
335.93	47.079
336.29	48.074
336.66	47.265
337.02	49.391
337.38	49.434
337.75	48.923
338.11	48.335
338.47	47.774
338.84	50.172
339.20	49.383
339.56	47.952
339.93	49.352
340.29	48.676
340.65	48.760
341.02	47.920
341.38	48.649
341.74	48.824
342.11	48.720
342.47	48.368
342.83	47.794
343.20	51.100
343.56	48.896
343.92	49.959
344.28	48.458
344.65	49.143
345.01	49.395
345.37	49.589
345.73	49.918
346.10	51.525
346.46	49.187
346.82	49.759
347.19	48.972
347.55	49.515
347.91	49.182
348.27	49.448
348.63	49.439
349.00	49.135
349.36	49.608
349.72	49.420
350.08	50.078
350.45	51.057
350.81	51.017
351.17	49.577
351.53	51.375
351.89	49.404
352.26	49.421
352.62	50.078
352.98	50.399
353.34	51.449
353.70	50.156
354.07	50.667
354.43	50.389
354.79	50.481
355.15	50.078
355.51	49.810
355.87	50.821
356.24	51.525
356.60	48.788
356.96	50.192
357.32	49.226
357.68	50.726
358.04	50.737
358.40	51.318
358.77	51.606
359.13	51.284
359.49	50.719
359.85	49.204
360.21	51.812
360.57	50.951
360.93	52.276
361.29	51.369
361.66	51.101
362.02	51.223
362.38	51.108
362.74	49.746
363.10	51.555
363.46	50.576
363.82	52.106
364.18	50.254
364.54	51.568
364.90	49.338
365.26	50.318
365.62	51.562
365.98	51.174
366.35	51.702
366.71	50.571
367.07	50.532
367.43	51.080
367.79	49.687
368.15	51.688
368.51	50.000
368.87	52.687
369.23	51.459
369.59	51.374
369.95	51.597
370.31	50.209
370.67	50.978
371.03	52.264
371.39	51.739
371.75	51.643
372.11	52.422
372.47	50.829
372.83	51.179
373.19	51.655
373.55	53.540
373.91	52.617
374.27	51.037
374.63	51.991
374.99	50.696
375.35	52.397
375.71	50.679
376.07	52.570
376.42	51.604
376.78	52.708
377.14	52.203
377.50	51.956
377.86	52.191
378.22	52.592
378.58	52.270
378.94	52.000
379.30	51.780
379.66	51.603
380.02	52.635
380.38	52.530
380.74	53.138
381.09	52.051
381.45	52.660
381.81	51.510
382.17	51.985
382.53	51.631
382.89	51.689
383.25	52.469
383.61	53.087
383.97	52.750
384.32	51.607
384.68	52.190
385.04	52.230
385.40	52.491
385.76	52.616
386.12	52.485
386.48	53.166
386.83	51.502
387.19	52.930
387.55	52.054
387.91	52.952
388.27	51.480
388.62	51.061
388.98	52.566
389.34	51.504
389.70	51.038
390.06	50.938
390.42	52.577
390.77	52.146
391.13	52.652
391.49	51.170
391.85	52.013
392.20	51.504
392.56	51.937
392.92	51.902
393.28	51.714
393.64	51.927
393.99	50.306
394.35	51.358
394.71	52.372
395.07	49.811
395.42	51.615
395.78	51.094
396.14	52.061
396.50	52.061
396.85	51.689
397.21	50.437
397.57	50.621
397.92	50.479
398.28	50.536
398.64	49.362
399.00	49.721
399.35	51.532
399.71	49.680
400.07	50.542
400.42	50.408
400.78	50.514
401.14	51.012
401.49	50.150
401.85	49.631
402.21	50.898
402.57	49.479
402.92	50.000
403.28	49.969
403.63	49.721
403.99	49.456
404.35	50.125
404.70	48.822
405.06	49.971
405.42	49.686
405.77	47.753
406.13	48.000
406.49	48.951
406.84	48.779
407.20	48.194
407.55	49.026
407.91	48.776
408.27	46.725
408.62	50.460
408.98	48.089
409.34	48.082
409.69	49.188
410.05	48.632
410.40	48.813
410.76	47.954
411.11	48.197
411.47	49.370
411.83	48.659
412.18	48.300
412.54	46.992
412.89	47.837
413.25	46.903
413.60	48.213
413.96	47.129
414.31	48.644
414.67	48.000
415.03	47.158
415.38	47.754
415.74	48.538
416.09	48.711
416.45	48.325
416.80	47.584
417.16	48.381
417.51	47.622
417.87	48.148
418.22	48.028
418.58	46.912
418.93	47.960
419.29	47.327
419.64	47.901
420.00	49.460
420.35	47.340
420.71	47.654
421.06	47.970
421.42	48.114
421.77	48.035
422.12	48.424
422.48	45.965
422.83	48.021
423.19	48.591
423.54	48.645
423.90	48.397
424.25	48.873
424.61	48.429
424.96	46.895
425.31	48.009
425.67	48.560
426.02	48.822
426.38	48.507
426.73	48.381
427.09	48.218
427.44	47.739
427.79	49.228
428.15	47.951
428.50	48.701
428.85	49.139
429.21	48.227
429.56	48.565
429.92	48.777
430.27	47.342
430.62	47.901
430.98	48.757
431.33	48.737
431.68	49.042
432.04	48.958
432.39	49.423
432.74	48.498
433.10	48.809
433.45	47.633
433.80	48.448
434.16	48.389
434.51	48.478
434.86	48.469
435.22	49.010
435.57	48.342
435.92	48.673
436.28	48.168
436.63	48.845
436.98	49.354
437.34	49.817
437.69	48.819
438.04	47.595
438.39	50.000
438.75	49.046
439.10	49.277
439.45	49.153
439.81	49.569
440.16	49.333
440.51	49.346
440.86	49.674
441.22	49.799
441.57	49.837
441.92	49.611
442.27	48.593
442.63	49.731
442.98	49.248
443.33	50.169
443.68	49.183
444.03	49.727
444.39	49.678
444.74	49.807
445.09	49.119
445.44	49.690
445.79	50.594
446.15	49.529
446.50	48.844
446.85	50.241
447.20	50.549
447.55	49.468
447.91	49.438
448.26	49.628
448.61	50.345
448.96	50.513
449.31	50.428
449.66	51.533
450.02	50.199
450.37	49.236
450.72	50.115
451.07	49.530
451.42	48.846
451.77	49.665
452.12	49.138
452.47	49.451
452.83	50.177
453.18	50.095
453.53	49.496
453.88	51.205
454.23	51.112
454.58	49.571
454.93	49.904
455.28	49.775
455.63	49.095
455.98	50.456
456.34	50.223
456.69	51.182
457.04	48.854
457.39	50.992
457.74	51.107
458.09	49.289
458.44	50.470
458.79	49.423
459.14	48.652
459.49	51.463
459.84	50.000
460.19	48.980
460.54	48.418
460.89	49.212
461.24	48.705
461.59	50.060
461.94	50.126
462.29	49.632
462.64	49.604
462.99	50.570
463.34	48.619
463.69	50.064
464.04	48.319
464.39	49.603
464.74	49.201
465.09	49.349
465.44	48.934
465.79	49.454
466.14	49.487
466.49	49.208
466.84	49.014
467.19	48.280
467.54	48.995
467.89	48.272
468.24	49.416
468.59	48.311
468.94	49.808
469.29	48.249
469.64	49.651
469.99	49.793
470.34	48.146
470.68	48.476
471.03	48.872
471.38	49.166
471.73	48.354
472.08	49.072
472.43	49.142
472.78	49.155
473.13	46.306
473.48	48.141
473.83	48.399
474.17	48.568
474.52	47.573
474.87	48.794
475.22	47.947
475.57	48.912
475.92	49.182
476.27	48.310
476.61	47.565
476.96	47.687
477.31	49.029
477.66	48.814
478.01	48.352
478.36	48.283
478.70	48.657
479.05	48.779
479.40	47.114
479.75	48.140
480.10	47.629
480.45	46.739
480.79	48.283
481.14	47.568
481.49	47.657
481.84	47.267
482.19	47.383
482.53	47.810
482.88	47.459
483.23	46.920
483.58	47.259
483.92	46.790
484.27	46.432
484.62	46.427
484.97	47.905
485.31	46.415
485.66	44.659
486.01	45.564
486.36	46.331
486.70	47.076
487.05	47.497
487.40	46.847
487.75	47.143
488.09	46.950
488.44	46.793
488.79	46.858
489.13	46.561
489.48	45.618
489.83	45.601
490.17	46.936
490.52	47.873
490.87	46.500
491.22	47.103
491.56	47.437
491.91	47.672
492.26	47.485
492.60	46.176
492.95	47.085
493.30	45.010
493.64	45.324
493.99	47.198
494.34	45.954
494.68	46.826
495.03	46.146
495.37	44.866
495.72	46.165
496.07	46.517
496.41	44.923
496.76	46.344
497.11	45.211
497.45	46.839
497.80	47.047
498.14	45.945
498.49	45.335
498.84	46.255
499.18	46.690
499.53	45.446
499.87	44.250
500.22	46.242
500.56	46.339
500.91	45.926
501.26	45.567
501.60	45.196
501.95	45.328
502.29	45.583
502.64	45.661
502.98	45.135
503.33	44.964
503.67	45.278
504.02	45.245
504.36	45.072
504.71	44.919
505.06	45.950
505.40	45.928
505.75	46.083
506.09	45.529
506.44	44.607
506.78	44.794
507.13	45.634
507.47	44.804
507.82	44.322
508.16	45.435
508.51	44.215
508.85	44.894
509.19	44.603
509.54	44.987
509.88	44.247
510.23	43.842
510.57	44.968
510.92	45.474
511.26	44.389
511.61	44.841
511.95	43.550
512.30	44.531
512.64	44.268
512.98	43.490
513.33	44.056
513.67	43.668
514.02	44.185
514.36	44.213
514.70	44.977
515.05	45.290
515.39	43.927
515.74	44.346
516.08	44.543
516.42	42.857
516.77	42.648
517.11	44.033
517.46	45.318
517.80	44.370
518.14	43.233
518.49	43.822
518.83	44.332
519.17	42.831
519.52	44.210
519.86	44.384
520.20	43.784
520.55	43.408
520.89	42.758
521.23	44.872
521.58	43.805
521.92	42.929
522.26	42.355
522.61	43.310
522.95	43.977
523.29	43.492
523.64	43.547
523.98	42.249
524.32	42.785
524.66	43.896
525.01	44.626
525.35	44.635
525.69	43.406
526.04	42.606
526.38	43.212
526.72	42.669
527.06	42.876
527.41	41.893
527.75	42.390
528.09	44.656
528.43	43.148
528.78	42.571
529.12	42.303
529.46	42.418
529.80	42.589
530.15	41.570
530.49	42.722
530.83	42.654
531.17	42.740
531.51	41.537
531.86	41.192
532.20	40.317
532.54	41.448
532.88	41.525
533.22	42.222
533.57	41.656
533.91	42.581
534.25	41.862
534.59	40.991
534.93	41.582
535.27	42.293
535.62	41.184
535.96	42.681
536.30	42.154
536.64	41.353
536.98	41.906
537.32	41.637
537.66	41.678
538.01	41.956
538.35	41.229
538.69	41.204
539.03	40.268
539.37	40.241
539.71	41.610
540.05	39.136
540.39	39.780
540.73	41.131
541.07	39.932
541.42	40.943
541.76	41.543
542.10	40.014
542.44	39.848
542.78	40.250
543.12	40.431
543.46	40.290
543.80	39.783
544.14	40.606
544.48	40.212
544.82	40.013
545.16	41.109
545.50	39.635
545.84	38.920
546.18	39.130
546.52	38.462
546.86	37.880
547.20	39.385
547.54	39.671
547.88	39.136
548.22	39.414
548.56	39.226
548.90	39.310
549.24	40.000
549.58	39.786
549.92	41.526
550.26	39.410
550.60	39.414
550.94	37.836
551.28	38.077
551.62	40.526
551.96	40.264
552.30	38.719
552.64	37.712
552.98	40.625
553.32	38.861
553.66	40.352
554.00	39.669
554.34	38.901
554.68	39.746
555.02	39.446
555.36	38.729
555.69	38.602
556.03	39.099
556.37	38.691
556.71	37.842
557.05	39.336
557.39	39.111
557.73	40.393
558.07	37.453
558.41	37.926
558.75	39.030
559.08	36.889
559.42	38.946
559.76	37.997
560.10	37.894
560.44	38.688
560.78	38.633
561.12	38.332
561.45	37.619
561.79	37.689
562.13	37.904
562.47	38.214
562.81	37.734
563.15	37.819
563.48	37.164
563.82	38.440
564.16	37.373
564.50	38.874
564.84	37.905
565.17	37.682
565.51	38.503
565.85	36.176
566.19	37.947
566.52	36.697
566.86	36.662
567.20	37.385
567.54	36.154
567.88	37.794
568.21	37.643
568.55	37.298
568.89	35.842
569.23	36.572
569.56	37.338
569.90	36.120
570.24	35.560
570.57	35.790
570.91	35.919
571.25	35.764
571.59	35.719
571.92	36.374
572.26	35.848
572.60	36.711
572.93	35.426
573.27	35.074
573.61	35.934
573.95	35.748
574.28	35.679
574.62	36.065
574.96	35.630
575.29	35.933
575.63	35.959
575.97	35.788
576.30	35.903
576.64	36.023
576.98	36.075
577.31	35.386
577.65	34.747
577.98	35.796
578.32	35.431
578.66	35.676
578.99	35.258
579.33	35.707
579.67	35.667
580.00	35.503
580.34	35.119
580.67	35.375
581.01	35.215
581.35	34.711
581.68	34.658
582.02	35.477
582.35	35.483
582.69	35.111
583.02	34.972
583.36	35.194
583.70	35.489
584.03	35.185
584.37	35.191
584.70	34.834
585.04	35.297
585.37	34.994
585.71	34.684
586.04	34.912
586.38	34.412
586.72	35.122
587.05	35.477
587.39	34.863
587.72	34.894
588.06	35.075
588.39	34.593
588.73	34.747
589.06	35.015
589.40	35.157
589.73	34.459
590.07	34.889
590.40	34.646
590.73	34.968
591.07	34.852
591.40	34.522
591.74	34.282
592.07	35.783
592.41	35.607
592.74	34.336
593.08	34.291
593.41	34.457
593.75	34.109
594.08	34.404
594.41	34.808
594.75	34.708
595.08	35.325
595.42	34.145
595.75	34.707
596.09	34.834
596.42	34.069
596.75	34.840
597.09	35.168
597.42	35.442
597.75	34.000
598.09	34.927
598.42	34.989
598.76	33.543
599.09	34.894
599.42	34.441
599.76	34.472
600.09	34.262
600.42	33.785
600.76	33.962
601.09	34.200
601.42	34.614
601.76	33.320
602.09	33.522
602.42	35.658
602.76	33.683
603.09	34.620
603.42	33.786
603.76	33.009
604.09	33.083
604.42	33.278
604.76	33.522
605.09	34.527
605.42	34.458
605.75	33.790
606.09	33.154
606.42	34.165
606.75	33.333
607.09	33.555
607.42	34.151
607.75	32.910
608.08	33.950
608.42	33.411
608.75	33.588
609.08	33.660
609.41	33.929
609.75	33.384
610.08	34.122
610.41	33.382
610.74	33.927
611.07	33.918
611.41	33.930
611.74	33.954
612.07	33.038
612.40	34.108
612.73	34.248
613.07	33.149
613.40	33.811
613.73	32.665
614.06	33.776
614.39	33.130
614.72	34.259
615.06	32.833
615.39	32.947
615.72	32.991
616.05	32.489
616.38	33.162
616.71	32.214
617.05	32.555
617.38	32.964
617.71	32.782
618.04	32.236
618.37	33.943
618.70	33.312
619.03	32.577
619.36	34.021
619.69	32.749
620.03	31.661
620.36	32.916
620.69	31.263
621.02	33.000
621.35	31.235
621.68	32.518
622.01	32.362
622.34	31.404
622.67	32.420
623.00	32.979
623.33	31.788
623.66	32.119
623.99	33.008
624.32	32.135
624.65	32.122
624.99	32.182
625.32	32.786
625.65	31.938
625.98	32.622
626.31	33.061
626.64	32.416
626.97	31.574
627.30	32.763
627.63	32.353
627.96	30.303
628.29	33.488
628.62	33.269
628.95	31.363
629.28	31.626
629.61	33.589
629.94	31.335
630.26	32.414
630.59	31.069
630.92	31.124
631.25	32.132
631.58	31.478
631.91	31.177
632.24	31.284
632.57	31.111
632.90	31.972
633.23	30.815
633.56	32.014
633.89	32.775
634.22	33.687
634.55	32.400
634.88	31.005
635.20	32.375
635.53	31.525
635.86	29.872
636.19	34.243
636.52	30.244
636.85	31.242
637.18	29.720
637.51	31.835
637.83	30.679
638.16	31.067
638.49	27.904
638.82	29.412
639.15	30.319
639.48	32.888
639.81	31.806
640.13	31.831
640.46	31.921
640.79	31.799
641.12	31.509
641.45	30.859
641.77	30.044
642.10	31.014
642.43	28.774
642.76	30.599
643.09	33.227
643.41	31.100
643.74	32.795
644.07	31.068
644.40	32.007
644.73	30.169
645.05	30.017
645.38	28.904
645.71	30.102
646.04	28.956
646.36	31.250
646.69	29.371
647.02	31.148
647.35	32.724
647.67	30.129
648.00	27.174
648.33	30.169
648.66	29.549
648.98	31.522
649.31	29.294
649.64	30.203
649.96	30.964
650.29	29.902
650.62	30.972
650.94	27.759
651.27	30.212
651.60	29.895
651.92	32.616
652.25	30.151
652.58	29.868
652.90	29.966
653.23	29.032
653.56	27.438
653.88	27.474
654.21	29.010
654.54	28.405
654.86	29.106
655.19	26.891
655.52	30.819
655.84	30.075
656.17	36.065
656.49	48.362
656.82	47.898
657.15	35.925
657.47	26.579
657.80	19.956
658.13	20.875
658.45	30.817
658.78	30.644
659.10	30.630
659.43	30.627
659.75	30.318
660.08	29.379
660.41	29.209
660.73	27.824
661.06	27.381
661.38	25.581
661.71	28.279
662.03	29.598
662.36	24.558
662.68	28.817
663.01	30.508
663.33	26.350
663.66	26.608
663.98	31.685
664.31	25.714
664.63	22.973
664.96	27.790
665.28	28.755
665.61	26.566
665.93	27.623
666.26	30.169
666.58	26.124
666.91	28.924
667.23	27.650
667.56	30.115
667.88	29.439
668.21	26.562
668.53	28.046
668.86	30.216
669.18	27.896
669.50	26.498
669.83	26.969
670.15	24.762
670.48	28.046
670.80	28.446
671.13	29.748
671.45	28.311
671.77	26.293
672.10	27.875
672.42	27.863
672.75	27.143
673.07	26.909
673.39	28.172
673.72	30.140
674.04	29.508
674.37	28.455
674.69	27.572
675.01	27.137
675.34	30.197
675.66	27.015
675.98	27.212
676.31	24.434
676.63	30.839
676.95	26.588
677.28	26.376
677.60	29.902
677.92	31.042
678.25	28.850
678.57	27.902
678.89	25.160
679.22	25.052
679.54	29.388
679.86	28.320
680.18	27.115
680.51	26.923
680.83	23.977
681.15	26.916
681.48	25.451
681.80	28.630
682.12	25.000
682.44	26.559
682.77	23.158
683.09	25.670
683.41	23.023
683.73	25.670
684.06	27.434
684.38	24.145
684.70	26.069
685.02	28.306
685.34	26.419
685.67	25.516
685.99	24.021
686.31	27.241
686.63	25.184
686.96	27.644
687.28	28.343
687.60	27.410
687.92	27.237
688.24	27.600
688.56	25.439
688.89	24.276
689.21	26.457
689.53	24.550
689.85	26.966
690.17	28.571
690.49	28.019
690.82	22.912
691.14	26.570
691.46	24.594
691.78	27.253
692.10	26.752
692.42	24.396
692.74	26.304
693.06	24.270
693.39	21.780
693.71	25.556
694.03	27.500
694.35	22.973
694.67	25.750
694.99	30.155
695.31	26.357
695.63	27.073
695.95	24.427
696.27	24.658
696.59	22.581
696.91	25.698
697.23	22.843
697.56	24.700
697.88	24.948
698.20	28.078
698.52	28.271
698.84	25.837
699.16	25.296
699.48	26.914
699.80	29.974
700.12	27.614
700.44	24.507
700.76	24.438
701.08	19.033
701.40	23.952
701.72	24.000
702.04	22.327
702.36	27.744
702.68	24.390
703.00	27.778
703.32	23.955
703.64	25.301
703.96	24.047
704.28	22.289
704.60	27.439
704.91	21.944
705.23	23.418
705.55	22.759
705.87	22.535
706.19	20.879
706.51	24.648
706.83	24.204
707.15	26.220
707.47	27.824
707.79	22.843
708.11	23.393
708.43	27.665
708.74	24.468
709.06	22.727
709.38	25.937
709.70	24.625
710.02	20.872
710.34	25.333
710.66	24.756
710.98	19.814
711.29	23.052
711.61	23.548
711.93	22.903
712.25	19.930
712.57	21.053
712.89	20.513
713.20	19.858
713.52	22.993
713.84	19.355
714.16	22.006
714.48	25.949
714.80	19.808
715.11	26.744
715.43	23.913
715.75	23.913
716.07	25.000
716.39	20.539
716.70	23.022
717.02	19.216
717.34	23.106
717.66	22.414
717.97	16.270
718.29	24.409
718.61	24.034
718.93	18.605
719.24	26.199
719.56	19.476
719.88	19.030
720.20	24.111
720.51	22.656
720.83	22.957
721.15	17.480
721.46	22.901
721.78	24.303
722.10	24.701
722.42	20.565
722.73	22.780
723.05	25.714
723.37	23.529
723.68	20.400
724.00	19.574
724.32	16.736
724.63	25.514
724.95	12.821
725.27	25.738
725.58	22.634
725.90	24.686
726.22	21.377
726.53	20.000
726.85	27.007
727.16	19.630
727.48	18.391
727.80	22.656
728.11	20.082
728.43	23.437
728.74	18.651
729.06	22.400
729.38	22.134
729.69	22.420
730.01	21.190
730.32	25.092
730.64	19.697
730.96	26.224
731.27	21.405
731.59	22.857
731.90	20.712
732.22	22.436
732.53	19.932
732.85	19.128
733.16	22.442
733.48	25.000
733.80	19.932
734.11	25.338
734.43	23.220
734.74	24.625
735.06	21.326
735.37	22.796
735.69	21.359
736.00	23.432
736.32	21.631
736.63	21.724
736.95	23.288
737.26	21.034
737.58	24.653
737.89	20.619
738.21	22.776
738.52	22.053
738.83	20.816
739.15	18.565
739.46	24.903
739.78	20.775
740.09	21.918
740.41	16.429
740.72	19.858
741.04	20.000
741.35	17.982
741.66	20.000
741.98	19.231
742.29	28.218
742.61	20.488
742.92	27.193
743.23	17.925
743.55	21.171
743.86	18.834
744.18	22.549
744.49	21.320
744.80	18.878
745.12	21.028
745.43	22.275
745.74	20.270
746.06	19.626
746.37	15.596
746.68	23.558
747.00	23.445
747.31	19.712
747.62	26.147
747.94	21.397
748.25	18.349
748.56	21.778
748.88	24.883
749.19	20.952
749.50	16.505
749.82	21.127
750.13	14.583
750.44	20.000
750.75	21.771
751.07	20.285
751.38	18.085
751.69	20.077
752.01	16.406
752.32	18.077
752.63	19.030
752.94	19.200
753.26	17.155
753.57	15.000
753.88	19.838
754.19	21.912
754.51	18.045
754.82	21.978
755.13	9.130
755.44	22.764
755.75	23.200
756.07	22.509
756.38	20.863
756.69	23.549
757.00	21.184
757.31	19.417
757.63	19.136
757.94	22.316
758.25	20.106
758.56	23.098
758.87	20.536
759.18	22.713
759.50	19.865
759.81	23.077
760.12	24.308
760.43	20.833
760.74	18.644
761.05	20.994
761.36	20.630
761.67	22.356
761.99	17.182
762.30	20.073
762.61	24.691
762.92	22.222
763.23	22.951
763.54	18.182
763.85	19.592
764.16	19.106
764.47	22.400
764.78	21.429
765.10	20.656
765.41	21.884
765.72	22.671
766.03	16.832
766.34	24.231
766.65	17.992
766.96	16.901
767.27	19.307
767.58	13.483
767.89	20.988
768.20	17.127
768.51	19.095
768.82	23.077
769.13	22.124
769.44	24.268
769.75	18.376
770.06	20.179
770.37	17.647
770.68	17.476
770.99	20.388
771.30	21.429
771.61	17.143
771.92	23.651
772.23	19.369
772.54	14.365
772.85	20.349
773.16	22.751
773.47	18.935
773.78	20.115
774.09	20.000
774.39	18.012
774.70	18.367
775.01	15.862
775.32	10.714
775.63	9.774
775.94	13.534
776.25	11.200
776.56	16.529
776.87	13.492
777.18	9.009
777.48	14.414
777.79	18.110
778.10	13.761
778.41	4.386
778.72	11.765
779.03	9.859
779.34	20.270
779.65	11.268
779.95	21.192
780.26	5.036
780.57	21.583
780.88	19.718
781.19	8.403
781.50	16.779
781.80	14.620
782.11	10.465
782.42	16.352
782.73	15.033
783.04	13.793
783.34	16.031
783.65	12.752
783.96	13.846
784.27	18.571
784.57	13.475
784.88	-5.769
785.19	23.636
785.50	24.545
785.81	10.476
786.11	14.286
786.42	15.044
786.73	8.491
787.04	10.092
787.34	-6.931
787.65	17.500
787.96	11.570
788.26	18.841
788.57	15.873
788.88	19.512
789.19	4.000
789.49	10.687
789.80	21.970
790.11	16.038
790.41	16.832
790.72	10.638
791.03	-1.087
791.33	1.176
791.64	11.111
791.95	16.304
792.25	20.455
792.56	7.692
792.87	3.846
793.17	-7.692
793.48	8.333
793.79	8.750
794.09	13.462
794.40	11.458
794.70	15.315
795.01	8.594
795.32	17.391
795.62	-5.435
795.93	7.547
796.23	5.051
796.54	6.098
796.85	9.524
797.15	13.636
797.46	1.449
797.76	-1.316
798.07	5.682
798.37	7.317
798.68	-16.129
798.99	-4.054
799.29	22.892
799.60	12.821
799.90	-6.154
800.21	9.091
800.51	12.000
800.82	6.667
801.12	-6.250
801.43	-13.333
801.73	2.703
802.04	14.286
802.34	1.639
802.65	8.955
802.95	9.091
803.26	5.172
803.56	29.231
803.87	-7.547
804.17	-6.452
804.48	-4.412
804.78	-29.268
805.09	13.043
805.39	11.765
805.70	-2.128
806.00	-8.772
806.30	11.538
806.61	9.211
806.91	6.757
807.22	2.632
807.52	11.364
807.83	-13.559
808.13	-13.636
808.43	10.000
808.74	-6.897
809.04	-14.286
809.35	-18.367
809.65	-5.000
809.95	-8.163
810.26	15.493
810.56	-29.167
810.86	0.000
811.17	25.000
811.47	4.255
811.77	-18.750
812.08	-15.094
812.38	-40.625
812.69	5.455
812.99	-29.268
813.29	-35.135
813.59	-18.919
813.90	-12.727
814.20	1.818
814.50	5.000
814.81	-3.636
815.11	3.509
815.41	6.977
815.72	12.500
816.02	-25.714
816.32	-40.541
816.62	-10.417
816.93	13.333
817.23	-48.889
817.53	-38.889
817.84	-32.432
818.14	-14.634
818.44	10.000
818.74	-30.612
819.04	-4.878
819.35	-30.556
819.65	0.000
819.95	-77.778
820.25	-33.333
820.56	-23.810
820.86	-11.111
821.16	-25.000
821.46	-21.739
821.76	-1.724
822.07	0.000
822.37	9.091
822.67	12.195
822.97	-24.324
823.27	-25.714
823.57	-10.345
823.88	-41.176
824.18	13.889
824.48	8.571
824.78	-23.810
825.08	-17.857
825.38	-55.556
825.69	-38.710
825.99	-19.512
826.29	7.407
826.59	-34.375
826.89	-58.065
827.19	-43.478
827.49	-52.778
827.79	-104.348
828.09	-3.226
828.39	0.000
828.70	-25.000
829.00	-17.241
829.30	5.405
829.60	-54.167
829.90	-29.630
830.20	-3.125
830.50	-27.273
830.80	-170.588
831.10	-54.545
831.40	-29.412
831.70	-3.846
832.00	-6.061
832.30	2.941
832.60	-2.703
832.90	1000.000
833.20	7.143
833.50	-80.000
833.80	-10.526
834.10	-79.167
834.40	-9.091
834.70	-153.333
835.00	0.000
835.30	-54.167
835.60	-28.571
835.90	-33.333
836.20	-20.000
836.50	-45.833
836.80	-52.632
837.10	-29.730
837.40	13.333
837.70	-26.087
838.00	-29.167
838.30	-47.368
838.60	-160.000
838.90	-240.000
839.19	-191.667
839.49	-84.615
839.79	-15.789
840.09	-416.667
840.39	-160.000
840.69	-40.909
840.99	-14.286
841.29	-83.333
841.59	-53.846
841.88	-60.000
842.18	-78.571
842.48	-13.333
842.78	-300.000
843.08	-178.571
843.38	-150.000
843.68	-50.000
843.97	14.286
844.27	-222.222
844.57	-118.182
844.87	-113.333
845.17	-4.545
845.47	933.333
845.76	-46.667
846.06	-150.000
846.36	-900.000
846.66	-105.263
846.96	-68.182
847.25	-127.778
847.55	-200.000
847.85	-61.905
848.15	-53.846
848.44	-350.000
848.74	-58.333
849.04	-107.692
849.34	-625.000
849.63	-172.727
849.93	-171.429
850.23	-40.000
850.53	-262.500
850.82	0.000
851.12	-53.333
851.42	-100.000
851.71	-100.000
852.01	-47.059
852.31	-100.000
852.61	1050.000
852.90	-29.412
853.20	-60.000
853.50	-93.750
853.79	-107.143
854.09	-550.000
854.39	-75.000
854.68	-20.000
854.98	-76.190
855.28	-24.000
855.57	-41.667
855.87	-33.333
856.17	-8.000
856.46	-37.500
856.76	-10.000
857.05	20.000
857.35	-175.000
857.65	-105.882
857.94	-183.333
858.24	-175.000
858.53	-75.000
858.83	-154.545
859.13	-28.000
859.42	-100.000
859.72	-187.500
860.01	-50.000
860.31	-225.000
860.60	-93.750
860.90	-150.000
861.20	-283.333
861.49	-33.333
861.79	-118.750
862.08	575.000
862.38	-166.667
862.67	400.000
862.97	450.000
863.26	-190.909
863.56	-18.182
863.85	0.000
864.15	-70.588
864.44	-400.000
864.74	-60.000
865.03	-211.111
865.33	-100.000
865.62	207.143
865.92	-31.579
866.21	-77.778
866.51	-118.182
866.80	-233.333
867.10	-262.500
867.39	-18.750
867.69	-106.667
867.98	10.000
868.27	-58.824
868.57	0.000
868.86	1250.000
869.16	-350.000
869.45	-371.429
869.75	850.000
870.04	-150.000
870.33	-1800.000
870.63	-110.526
870.92	-75.000
871.22	-1500.000
871.51	-171.429
871.80	-200.000
872.10	-275.000
>>>>>End Processed Spectral Data<<<<<
