SpectraSuite Data File
++++++++++++++++++++++++++++++++++++
Date: Thu May 14 16:04:54 PDT 2015
User: schluterlab
Dark Spectrum Present: Yes
Reference Spectrum Present: Yes
Number of Sampled Component Spectra: 1
Spectrometers: USB2E3373
Integration Time (usec): 3000 (USB2E3373)
Spectra Averaged: 3 (USB2E3373)
Boxcar Smoothing: 0 (USB2E3373)
Correct for Electrical Dark: No (USB2E3373)
Strobe/Lamp Enabled: No (USB2E3373)
Correct for Detector Non-linearity: No (USB2E3373)
Correct for Stray Light: No (USB2E3373)
Number of Pixels in Processed Spectrum: 2048
>>>>>Begin Processed Spectral Data<<<<<
178.53	0.000
178.91	114.286
179.29	-1900.000
179.67	-2100.000
180.04	228.571
180.42	170.000
180.80	460.000
181.18	-1900.000
181.56	-1700.000
181.94	425.000
182.31	-325.000
182.69	566.667
183.07	-850.000
183.45	500.000
183.83	-133.333
184.20	-266.667
184.58	1600.000
184.96	-425.000
185.34	-88.889
185.72	-260.000
186.09	333.333
186.47	900.000
186.85	520.000
187.23	-211.111
187.61	-1700.000
187.98	220.000
188.36	375.000
188.74	-325.000
189.12	-500.000
189.49	-12.500
189.87	-112.500
190.25	-55.556
190.63	-160.000
191.00	-188.889
191.38	0.000
191.76	-300.000
192.14	-200.000
192.51	350.000
192.89	-66.667
193.27	0.000
193.65	-142.857
194.02	-2000.000
194.40	-200.000
194.78	200.000
195.15	0.000
195.53	-54.545
195.91	0.000
196.29	-325.000
196.66	-84.615
197.04	-2100.000
197.42	-300.000
197.79	-550.000
198.17	-262.500
198.55	-285.714
198.92	-33.333
199.30	-275.000
199.68	-90.909
200.05	-100.000
200.43	-1100.000
200.81	214.286
201.18	0.000
201.56	277.778
201.94	0.000
202.31	733.333
202.69	-122.222
203.07	800.000
203.44	-88.889
203.82	-300.000
204.19	-66.667
204.57	-200.000
204.95	-275.000
205.32	-2400.000
205.70	500.000
206.08	-133.333
206.45	-266.667
206.83	420.000
207.20	-283.333
207.58	-260.000
207.96	-266.667
208.33	-133.333
208.71	33.333
209.08	-83.333
209.46	0.000
209.84	316.667
210.21	450.000
210.59	600.000
210.96	966.667
211.34	-125.000
211.71	-137.500
212.09	-1000.000
212.46	0.000
212.84	1400.000
213.22	-340.000
213.59	-425.000
213.97	-50.000
214.34	-566.667
214.72	250.000
215.09	-450.000
215.47	0.000
215.84	214.286
216.22	1000.000
216.59	-260.000
216.97	-220.000
217.34	-175.000
217.72	-162.500
218.09	-350.000
218.47	-450.000
218.84	0.000
219.22	200.000
219.59	-94.118
219.97	-60.000
220.34	1000.000
220.72	-188.889
221.09	-15.385
221.47	-633.333
221.84	-130.000
222.22	-328.571
222.59	0.000
222.97	-112.500
223.34	-560.000
223.72	-1200.000
224.09	-425.000
224.46	-275.000
224.84	-180.000
225.21	-328.571
225.59	-525.000
225.96	-225.000
226.34	-26.923
226.71	416.667
227.08	-900.000
227.46	-66.667
227.83	-75.000
228.21	-63.158
228.58	275.000
228.95	900.000
229.33	-16.667
229.70	-160.000
230.08	-57.895
230.45	130.000
230.82	-400.000
231.20	-92.857
231.57	-66.667
231.95	-100.000
232.32	-72.727
232.69	-35.000
233.07	-250.000
233.44	-76.471
233.81	-190.000
234.19	-61.111
234.56	-9.091
234.93	-3.448
235.31	-89.474
235.68	-61.111
236.05	-65.000
236.43	-19.231
236.80	0.000
237.17	-18.519
237.55	-30.303
237.92	-220.000
238.29	-48.387
238.67	-20.455
239.04	-27.778
239.41	-45.238
239.79	-30.435
240.16	-18.519
240.53	-26.087
240.91	-37.255
241.28	-22.951
241.65	-7.463
242.02	6.757
242.40	-21.538
242.77	-13.333
243.14	-18.293
243.51	-26.316
243.89	-24.359
244.26	-16.832
244.63	-1.961
245.00	-6.542
245.38	-7.895
245.75	-21.239
246.12	-1.587
246.49	-6.202
246.87	-2.143
247.24	1.325
247.61	0.000
247.98	-8.725
248.36	-2.469
248.73	-8.589
249.10	-3.825
249.47	6.965
249.84	1.571
250.22	0.000
250.59	2.222
250.96	1.364
251.33	-1.531
251.70	1.282
252.08	2.083
252.45	2.049
252.82	1.240
253.19	-2.734
253.56	1.901
253.94	2.692
254.31	-1.515
254.68	1.399
255.05	2.280
255.42	-1.020
255.79	0.971
256.16	-0.331
256.54	-3.642
256.91	1.311
257.28	-0.656
257.65	-0.955
258.02	-2.360
258.39	-0.570
258.76	3.364
259.14	5.747
259.51	2.017
259.88	2.266
260.25	0.278
260.62	1.918
260.99	4.372
261.36	5.362
261.73	2.122
262.10	2.198
262.47	2.949
262.85	5.051
263.22	0.779
263.59	1.316
263.96	2.046
264.33	1.790
264.70	3.457
265.07	3.819
265.44	4.989
265.81	1.389
266.18	3.175
266.55	6.027
266.92	0.228
267.29	4.158
267.66	3.769
268.03	1.965
268.40	1.879
268.77	-0.683
269.14	0.220
269.51	3.728
269.88	5.123
270.25	3.622
270.62	2.743
270.99	5.051
271.36	2.970
271.73	3.536
272.10	3.206
272.47	1.403
272.84	2.008
273.21	2.405
273.58	3.024
273.95	2.115
274.32	2.471
274.69	1.934
275.06	2.930
275.43	2.218
275.80	2.998
276.17	2.037
276.54	1.119
276.91	2.326
277.28	1.447
277.65	3.591
278.02	3.860
278.39	2.536
278.76	1.933
279.13	1.773
279.50	3.780
279.87	4.114
280.23	1.937
280.60	4.915
280.97	3.125
281.34	3.565
281.71	4.399
282.08	1.993
282.45	1.800
282.82	2.041
283.19	3.231
283.56	2.787
283.92	4.805
284.29	5.845
284.66	3.120
285.03	1.923
285.40	3.864
285.77	2.632
286.14	3.817
286.51	1.522
286.87	3.002
287.24	4.367
287.61	2.541
287.98	2.115
288.35	2.959
288.72	2.959
289.08	3.367
289.45	3.107
289.82	2.410
290.19	3.017
290.56	4.085
290.93	2.140
291.29	4.408
291.66	2.204
292.03	2.578
292.40	4.082
292.77	3.504
293.13	3.654
293.50	1.708
293.87	2.416
294.24	5.333
294.60	3.161
294.97	2.685
295.34	4.609
295.71	2.900
296.08	3.488
296.44	2.819
296.81	2.192
297.18	2.864
297.55	4.009
297.91	4.270
298.28	1.659
298.65	4.756
299.02	1.771
299.38	3.890
299.75	4.089
300.12	2.315
300.48	3.571
300.85	3.825
301.22	4.698
301.59	2.740
301.95	3.842
302.32	4.333
302.69	3.834
303.05	3.591
303.42	3.880
303.79	3.750
304.15	4.311
304.52	2.643
304.89	3.874
305.25	3.727
305.62	4.284
305.99	3.505
306.35	3.125
306.72	3.930
307.09	2.741
307.45	3.727
307.82	5.146
308.19	4.945
308.55	5.400
308.92	3.895
309.29	4.406
309.65	3.899
310.02	4.257
310.38	5.512
310.75	5.146
311.12	4.890
311.48	3.910
311.85	5.508
312.22	6.072
312.58	6.667
312.95	5.545
313.31	6.323
313.68	7.326
314.05	7.227
314.41	7.741
314.78	7.539
315.14	7.350
315.51	8.218
315.87	8.641
316.24	9.132
316.61	8.437
316.97	8.416
317.34	8.907
317.70	10.830
318.07	9.524
318.43	11.139
318.80	11.037
319.16	10.472
319.53	10.197
319.89	10.254
320.26	12.456
320.62	12.057
320.99	12.742
321.35	13.863
321.72	14.884
322.08	13.616
322.45	14.182
322.81	15.523
323.18	15.044
323.54	15.431
323.91	16.014
324.27	15.749
324.64	18.640
325.00	17.579
325.37	18.346
325.73	20.331
326.10	19.059
326.46	20.114
326.83	20.336
327.19	19.449
327.56	22.055
327.92	21.086
328.29	20.323
328.65	22.278
329.01	23.012
329.38	24.600
329.74	23.545
330.11	25.171
330.47	23.926
330.84	24.634
331.20	25.167
331.56	25.130
331.93	24.854
332.29	25.169
332.66	25.332
333.02	25.042
333.38	25.084
333.75	25.926
334.11	26.188
334.48	25.578
334.84	27.188
335.20	25.357
335.57	25.464
335.93	26.446
336.29	25.541
336.66	25.484
337.02	25.669
337.38	27.296
337.75	25.124
338.11	26.325
338.47	26.799
338.84	25.719
339.20	26.116
339.56	25.453
339.93	26.601
340.29	25.282
340.65	25.953
341.02	27.694
341.38	26.677
341.74	26.877
342.11	26.468
342.47	26.291
342.83	26.167
343.20	26.574
343.56	26.303
343.92	27.062
344.28	27.031
344.65	27.132
345.01	26.677
345.37	26.361
345.73	26.111
346.10	26.989
346.46	25.475
346.82	27.041
347.19	26.738
347.55	26.024
347.91	26.746
348.27	26.328
348.63	26.657
349.00	26.324
349.36	26.543
349.72	26.711
350.08	27.117
350.45	26.844
350.81	26.320
351.17	26.241
351.53	26.232
351.89	26.803
352.26	26.045
352.62	26.418
352.98	26.183
353.34	26.139
353.70	26.502
354.07	26.677
354.43	26.044
354.79	24.757
355.15	26.122
355.51	26.681
355.87	26.028
356.24	26.996
356.60	26.460
356.96	24.833
357.32	25.502
357.68	26.354
358.04	26.123
358.40	26.343
358.77	26.827
359.13	26.662
359.49	25.576
359.85	25.381
360.21	26.758
360.57	25.987
360.93	24.894
361.29	26.947
361.66	26.140
362.02	27.070
362.38	26.634
362.74	26.466
363.10	26.272
363.46	26.177
363.82	26.491
364.18	27.586
364.54	26.487
364.90	26.555
365.26	25.655
365.62	25.933
365.98	26.957
366.35	25.772
366.71	26.190
367.07	26.861
367.43	26.133
367.79	26.742
368.15	27.224
368.51	27.334
368.87	25.669
369.23	26.000
369.59	26.639
369.95	26.302
370.31	25.793
370.67	25.241
371.03	26.316
371.39	25.453
371.75	26.891
372.11	25.881
372.47	27.150
372.83	25.785
373.19	26.084
373.55	26.287
373.91	26.449
374.27	25.873
374.63	26.590
374.99	26.260
375.35	27.273
375.71	26.581
376.07	26.210
376.42	25.945
376.78	27.470
377.14	27.261
377.50	26.692
377.86	27.217
378.22	26.826
378.58	27.467
378.94	26.585
379.30	26.362
379.66	27.454
380.02	26.774
380.38	27.535
380.74	27.380
381.09	27.178
381.45	27.784
381.81	28.162
382.17	27.078
382.53	27.018
382.89	26.806
383.25	28.253
383.61	26.852
383.97	27.150
384.32	27.632
384.68	27.320
385.04	27.704
385.40	27.283
385.76	27.198
386.12	26.272
386.48	27.118
386.83	27.354
387.19	26.188
387.55	26.937
387.91	26.884
388.27	28.176
388.62	26.632
388.98	26.565
389.34	27.166
389.70	27.368
390.06	26.880
390.42	27.410
390.77	27.935
391.13	27.641
391.49	28.321
391.85	26.727
392.20	26.987
392.56	27.643
392.92	27.099
393.28	26.866
393.64	27.151
393.99	28.065
394.35	27.512
394.71	27.006
395.07	26.228
395.42	27.584
395.78	27.361
396.14	27.986
396.50	27.494
396.85	27.490
397.21	26.982
397.57	27.326
397.92	27.491
398.28	26.670
398.64	27.403
399.00	27.120
399.35	26.230
399.71	26.739
400.07	27.176
400.42	27.008
400.78	26.968
401.14	27.433
401.49	27.175
401.85	26.105
402.21	27.346
402.57	27.700
402.92	27.187
403.28	25.351
403.63	26.253
403.99	26.663
404.35	25.696
404.70	27.422
405.06	25.326
405.42	26.112
405.77	27.154
406.13	26.472
406.49	26.802
406.84	26.427
407.20	26.160
407.55	26.348
407.91	26.461
408.27	25.913
408.62	26.236
408.98	26.233
409.34	26.862
409.69	27.009
410.05	26.671
410.40	26.856
410.76	26.248
411.11	26.943
411.47	26.904
411.83	26.573
412.18	26.928
412.54	26.200
412.89	25.902
413.25	26.806
413.60	25.905
413.96	26.340
414.31	25.609
414.67	25.999
415.03	26.585
415.38	26.230
415.74	27.062
416.09	25.293
416.45	26.049
416.80	25.153
417.16	26.692
417.51	26.152
417.87	26.242
418.22	25.928
418.58	26.208
418.93	26.077
419.29	25.956
419.64	26.291
420.00	25.460
420.35	25.997
420.71	26.422
421.06	25.992
421.42	25.917
421.77	25.363
422.12	26.110
422.48	26.318
422.83	25.739
423.19	25.942
423.54	26.604
423.90	27.057
424.25	26.240
424.61	25.660
424.96	25.975
425.31	26.592
425.67	25.872
426.02	26.563
426.38	26.292
426.73	25.614
427.09	26.413
427.44	25.997
427.79	25.981
428.15	25.742
428.50	25.787
428.85	25.545
429.21	26.543
429.56	26.061
429.92	25.848
430.27	26.795
430.62	25.598
430.98	25.726
431.33	25.562
431.68	25.718
432.04	26.155
432.39	27.156
432.74	26.142
433.10	25.906
433.45	25.585
433.80	25.751
434.16	26.240
434.51	26.002
434.86	26.819
435.22	25.930
435.57	25.943
435.92	26.099
436.28	26.337
436.63	25.997
436.98	26.033
437.34	25.930
437.69	25.647
438.04	26.335
438.39	25.101
438.75	26.176
439.10	26.427
439.45	25.657
439.81	25.367
440.16	25.469
440.51	25.920
440.86	25.681
441.22	25.509
441.57	25.472
441.92	25.606
442.27	26.616
442.63	25.832
442.98	26.094
443.33	26.144
443.68	25.966
444.03	26.294
444.39	25.982
444.74	26.238
445.09	26.356
445.44	26.291
445.79	26.772
446.15	26.876
446.50	25.788
446.85	25.632
447.20	25.338
447.55	26.674
447.91	25.602
448.26	25.476
448.61	25.877
448.96	27.039
449.31	25.822
449.66	25.926
450.02	25.105
450.37	25.999
450.72	26.103
451.07	26.253
451.42	25.650
451.77	25.069
452.12	26.242
452.47	25.490
452.83	26.802
453.18	25.102
453.53	24.928
453.88	24.959
454.23	25.311
454.58	26.117
454.93	25.000
455.28	25.768
455.63	25.355
455.98	25.754
456.34	25.501
456.69	25.573
457.04	25.236
457.39	25.721
457.74	25.503
458.09	25.755
458.44	25.754
458.79	25.580
459.14	25.328
459.49	25.127
459.84	25.761
460.19	25.042
460.54	25.667
460.89	26.310
461.24	24.770
461.59	25.567
461.94	24.415
462.29	25.084
462.64	24.744
462.99	24.670
463.34	26.152
463.69	25.147
464.04	25.792
464.39	24.159
464.74	24.800
465.09	25.721
465.44	24.839
465.79	25.701
466.14	24.752
466.49	25.895
466.84	25.620
467.19	25.145
467.54	22.973
467.89	24.540
468.24	24.820
468.59	24.378
468.94	23.543
469.29	24.415
469.64	23.903
469.99	25.175
470.34	25.062
470.68	24.470
471.03	24.754
471.38	24.133
471.73	23.797
472.08	24.239
472.43	23.961
472.78	23.804
473.13	24.083
473.48	24.653
473.83	24.956
474.17	24.443
474.52	24.293
474.87	23.920
475.22	25.127
475.57	24.714
475.92	24.092
476.27	25.133
476.61	24.455
476.96	24.140
477.31	24.554
477.66	24.764
478.01	24.708
478.36	23.878
478.70	24.680
479.05	24.540
479.40	23.988
479.75	24.207
480.10	24.207
480.45	24.248
480.79	24.263
481.14	23.805
481.49	23.489
481.84	24.238
482.19	23.914
482.53	24.224
482.88	24.634
483.23	24.411
483.58	23.843
483.92	23.449
484.27	23.751
484.62	23.267
484.97	23.911
485.31	23.724
485.66	23.305
486.01	22.678
486.36	23.527
486.70	24.679
487.05	24.346
487.40	24.309
487.75	23.791
488.09	23.697
488.44	22.935
488.79	23.272
489.13	23.353
489.48	22.641
489.83	22.495
490.17	22.641
490.52	22.578
490.87	22.758
491.22	23.354
491.56	23.208
491.91	23.419
492.26	23.496
492.60	22.344
492.95	22.817
493.30	22.860
493.64	23.478
493.99	23.202
494.34	22.387
494.68	22.784
495.03	22.996
495.37	23.480
495.72	23.356
496.07	22.875
496.41	22.608
496.76	22.727
497.11	22.718
497.45	22.874
497.80	23.056
498.14	22.132
498.49	22.932
498.84	22.898
499.18	22.492
499.53	22.242
499.87	22.549
500.22	21.950
500.56	22.672
500.91	22.654
501.26	23.136
501.60	22.227
501.95	22.232
502.29	22.466
502.64	22.868
502.98	22.131
503.33	22.203
503.67	22.198
504.02	22.023
504.36	22.118
504.71	22.324
505.06	22.146
505.40	22.029
505.75	22.450
506.09	22.744
506.44	21.773
506.78	21.835
507.13	21.346
507.47	22.406
507.82	21.733
508.16	21.893
508.51	21.003
508.85	21.351
509.19	21.175
509.54	22.382
509.88	21.515
510.23	22.098
510.57	22.475
510.92	21.432
511.26	22.030
511.61	20.811
511.95	21.132
512.30	21.566
512.64	20.990
512.98	21.711
513.33	21.321
513.67	21.469
514.02	21.768
514.36	20.818
514.70	21.406
515.05	21.637
515.39	21.365
515.74	21.845
516.08	21.025
516.42	21.873
516.77	22.029
517.11	20.629
517.46	21.368
517.80	20.577
518.14	22.089
518.49	21.312
518.83	20.809
519.17	20.409
519.52	21.908
519.86	21.014
520.20	20.820
520.55	20.044
520.89	20.439
521.23	20.771
521.58	20.678
521.92	20.340
522.26	19.874
522.61	20.891
522.95	20.300
523.29	20.517
523.64	21.076
523.98	20.993
524.32	21.203
524.66	21.400
525.01	19.762
525.35	20.505
525.69	19.490
526.04	20.666
526.38	20.115
526.72	21.050
527.06	19.765
527.41	20.292
527.75	20.190
528.09	20.071
528.43	20.367
528.78	19.249
529.12	19.495
529.46	19.449
529.80	20.538
530.15	19.826
530.49	20.225
530.83	20.248
531.17	19.295
531.51	20.698
531.86	18.870
532.20	20.915
532.54	19.509
532.88	19.758
533.22	19.976
533.57	19.158
533.91	19.641
534.25	19.672
534.59	19.713
534.93	19.525
535.27	19.493
535.62	19.613
535.96	19.582
536.30	19.389
536.64	19.880
536.98	19.680
537.32	20.556
537.66	20.025
538.01	18.187
538.35	19.001
538.69	18.329
539.03	19.865
539.37	18.905
539.71	19.399
540.05	19.484
540.39	20.232
540.73	19.854
541.07	19.252
541.42	19.374
541.76	18.327
542.10	18.818
542.44	18.331
542.78	18.796
543.12	19.428
543.46	18.987
543.80	19.125
544.14	18.432
544.48	19.563
544.82	19.090
545.16	18.545
545.50	18.035
545.84	18.494
546.18	19.321
546.52	18.726
546.86	18.491
547.20	19.211
547.54	18.414
547.88	18.927
548.22	18.363
548.56	17.905
548.90	18.328
549.24	19.331
549.58	17.981
549.92	18.878
550.26	19.223
550.60	18.188
550.94	18.629
551.28	18.416
551.62	17.925
551.96	17.864
552.30	18.674
552.64	18.357
552.98	17.779
553.32	18.585
553.66	18.842
554.00	18.663
554.34	18.340
554.68	17.495
555.02	18.200
555.36	18.277
555.69	16.912
556.03	17.087
556.37	18.210
556.71	17.819
557.05	16.550
557.39	17.452
557.73	17.305
558.07	16.424
558.41	18.671
558.75	18.053
559.08	18.580
559.42	17.421
559.76	18.182
560.10	17.013
560.44	17.744
560.78	18.250
561.12	17.241
561.45	17.944
561.79	17.155
562.13	17.807
562.47	16.831
562.81	16.646
563.15	17.487
563.48	17.154
563.82	17.110
564.16	16.535
564.50	17.223
564.84	16.106
565.17	17.471
565.51	16.341
565.85	16.924
566.19	16.475
566.52	16.559
566.86	16.582
567.20	17.020
567.54	16.622
567.88	16.208
568.21	16.551
568.55	17.314
568.89	17.113
569.23	17.110
569.56	16.647
569.90	16.393
570.24	16.526
570.57	16.613
570.91	16.320
571.25	16.488
571.59	17.061
571.92	16.525
572.26	16.596
572.60	16.598
572.93	16.783
573.27	16.269
573.61	16.623
573.95	16.655
574.28	16.328
574.62	16.212
574.96	16.343
575.29	16.325
575.63	16.147
575.97	16.311
576.30	16.136
576.64	16.201
576.98	16.310
577.31	16.075
577.65	16.385
577.98	16.209
578.32	15.793
578.66	16.491
578.99	15.830
579.33	16.252
579.67	15.866
580.00	16.026
580.34	16.099
580.67	15.600
581.01	16.270
581.35	16.034
581.68	15.776
582.02	15.912
582.35	16.343
582.69	16.353
583.02	15.679
583.36	15.855
583.70	15.815
584.03	16.007
584.37	15.601
584.70	15.526
585.04	15.369
585.37	15.842
585.71	15.750
586.04	15.566
586.38	15.529
586.72	15.342
587.05	15.682
587.39	15.956
587.72	16.029
588.06	15.546
588.39	15.584
588.73	15.847
589.06	15.519
589.40	15.673
589.73	15.553
590.07	15.517
590.40	15.754
590.73	15.447
591.07	15.897
591.40	15.202
591.74	14.825
592.07	15.428
592.41	15.221
592.74	14.661
593.08	15.382
593.41	15.077
593.75	15.316
594.08	15.208
594.41	15.256
594.75	15.144
595.08	15.242
595.42	15.292
595.75	15.144
596.09	15.147
596.42	15.299
596.75	15.670
597.09	15.152
597.42	15.336
597.75	15.327
598.09	15.595
598.42	14.958
598.76	14.100
599.09	14.667
599.42	14.549
599.76	14.790
600.09	15.215
600.42	14.982
600.76	14.894
601.09	14.338
601.42	14.418
601.76	14.690
602.09	14.403
602.42	13.959
602.76	14.280
603.09	15.125
603.42	14.523
603.76	14.271
604.09	14.585
604.42	14.752
604.76	14.193
605.09	14.559
605.42	14.713
605.75	14.115
606.09	14.408
606.42	14.155
606.75	14.168
607.09	13.940
607.42	14.258
607.75	14.029
608.08	14.365
608.42	13.946
608.75	13.972
609.08	13.328
609.41	13.763
609.75	13.795
610.08	14.204
610.41	13.849
610.74	14.496
611.07	13.854
611.41	14.529
611.74	14.688
612.07	13.932
612.40	14.021
612.73	13.936
613.07	14.279
613.40	13.330
613.73	13.962
614.06	14.573
614.39	13.071
614.72	13.246
615.06	14.148
615.39	13.146
615.72	13.981
616.05	13.259
616.38	13.925
616.71	13.845
617.05	13.525
617.38	14.286
617.71	14.039
618.04	13.654
618.37	14.317
618.70	14.027
619.03	12.724
619.36	12.885
619.69	13.389
620.03	13.308
620.36	14.356
620.69	13.078
621.02	12.861
621.35	12.990
621.68	13.738
622.01	14.591
622.34	12.413
622.67	13.333
623.00	12.686
623.33	13.072
623.66	13.424
623.99	12.508
624.32	14.880
624.65	13.063
624.99	13.264
625.32	14.631
625.65	13.149
625.98	12.610
626.31	12.190
626.64	12.967
626.97	13.053
627.30	13.136
627.63	12.303
627.96	14.114
628.29	12.996
628.62	12.846
628.95	13.059
629.28	11.555
629.61	13.552
629.94	12.720
630.26	12.203
630.59	13.040
630.92	11.688
631.25	13.864
631.58	12.994
631.91	12.933
632.24	13.737
632.57	12.239
632.90	12.738
633.23	12.551
633.56	12.653
633.89	12.293
634.22	14.137
634.55	13.779
634.88	12.662
635.20	13.563
635.53	11.864
635.86	12.026
636.19	13.786
636.52	12.342
636.85	11.951
637.18	12.578
637.51	10.753
637.83	12.957
638.16	11.866
638.49	12.676
638.82	12.289
639.15	12.257
639.48	12.356
639.81	12.702
640.13	12.839
640.46	10.061
640.79	12.745
641.12	13.043
641.45	13.174
641.77	13.992
642.10	10.105
642.43	12.899
642.76	11.924
643.09	11.507
643.41	11.485
643.74	11.172
644.07	12.276
644.40	11.740
644.73	12.192
645.05	10.573
645.38	11.511
645.71	12.903
646.04	11.765
646.36	12.555
646.69	10.123
647.02	12.844
647.35	12.672
647.67	12.721
648.00	10.032
648.33	12.462
648.66	11.127
648.98	10.204
649.31	11.637
649.64	11.952
649.96	11.273
650.29	10.153
650.62	12.023
650.94	11.261
651.27	10.180
651.60	12.135
651.92	12.766
652.25	11.143
652.58	11.554
652.90	10.756
653.23	10.704
653.56	12.126
653.88	11.938
654.21	11.408
654.54	9.827
654.86	11.190
655.19	10.916
655.52	12.849
655.84	12.274
656.17	14.361
656.49	20.474
656.82	22.415
657.15	17.501
657.47	13.197
657.80	9.864
658.13	7.641
658.45	10.251
658.78	12.209
659.10	11.639
659.43	11.670
659.75	11.269
660.08	10.140
660.41	11.497
660.73	9.578
661.06	8.957
661.38	10.048
661.71	9.828
662.03	9.347
662.36	12.165
662.68	12.008
663.01	10.265
663.33	10.397
663.66	13.919
663.98	10.769
664.31	11.820
664.63	7.514
664.96	12.160
665.28	10.345
665.61	11.364
665.93	9.107
666.26	10.573
666.58	8.487
666.91	11.402
667.23	12.000
667.56	14.004
667.88	10.600
668.21	10.156
668.53	9.846
668.86	10.413
669.18	9.980
669.50	11.730
669.83	8.200
670.15	12.598
670.48	13.492
670.80	8.413
671.13	9.452
671.45	10.236
671.77	10.734
672.10	9.833
672.42	9.385
672.75	9.985
673.07	10.896
673.39	8.937
673.72	10.570
674.04	11.724
674.37	9.839
674.69	11.640
675.01	8.381
675.34	9.733
675.66	8.989
675.98	9.888
676.31	9.180
676.63	10.837
676.95	9.962
677.28	10.081
677.60	8.858
677.92	9.597
678.25	9.689
678.57	10.854
678.89	11.092
679.22	9.408
679.54	9.744
679.86	7.797
680.18	10.282
680.51	10.535
680.83	7.365
681.15	8.276
681.48	10.535
681.80	10.535
682.12	10.839
682.44	10.184
682.77	10.284
683.09	8.902
683.41	9.496
683.73	10.626
684.06	8.303
684.38	8.050
684.70	9.336
685.02	10.155
685.34	7.321
685.67	8.991
685.99	9.509
686.31	7.994
686.63	8.689
686.96	9.621
687.28	9.121
687.60	8.249
687.92	6.270
688.24	9.182
688.56	9.138
688.89	10.163
689.21	12.133
689.53	6.667
689.85	7.298
690.17	9.074
690.49	6.972
690.82	8.515
691.14	7.895
691.46	9.751
691.78	10.129
692.10	8.257
692.42	8.214
692.74	7.804
693.06	6.667
693.39	11.006
693.71	9.023
694.03	9.851
694.35	8.571
694.67	10.267
694.99	12.128
695.31	9.492
695.63	6.494
695.95	8.489
696.27	7.692
696.59	10.841
696.91	9.234
697.23	10.330
697.56	7.536
697.88	7.197
698.20	9.416
698.52	11.553
698.84	9.563
699.16	10.204
699.48	7.741
699.80	8.085
700.12	8.079
700.44	8.986
700.76	6.176
701.08	9.201
701.40	8.290
701.72	8.706
702.04	8.556
702.36	6.283
702.68	8.068
703.00	7.090
703.32	5.172
703.64	8.557
703.96	6.921
704.28	7.617
704.60	8.101
704.91	9.184
705.23	9.589
705.55	7.799
705.87	9.394
706.19	8.589
706.51	6.928
706.83	6.052
707.15	5.026
707.47	7.710
707.79	8.297
708.11	5.085
708.43	7.097
708.74	4.688
709.06	7.657
709.38	11.268
709.70	7.196
710.02	6.718
710.34	10.106
710.66	5.307
710.98	8.743
711.29	6.044
711.61	5.932
711.93	5.128
712.25	8.649
712.57	9.735
712.89	9.412
713.20	5.030
713.52	8.960
713.84	11.142
714.16	8.684
714.48	6.959
714.80	8.831
715.11	5.249
715.43	6.366
715.75	7.895
716.07	8.564
716.39	5.464
716.70	6.627
717.02	7.869
717.34	1.045
717.66	7.047
717.97	2.055
718.29	5.842
718.61	5.592
718.93	7.120
719.24	7.764
719.56	7.669
719.88	6.306
720.20	9.355
720.51	7.453
720.83	4.375
721.15	7.566
721.46	0.342
721.78	6.000
722.10	7.443
722.42	3.020
722.73	5.161
723.05	7.368
723.37	6.597
723.68	7.885
724.00	5.054
724.32	1.056
724.63	4.196
724.95	9.929
725.27	5.575
725.58	6.714
725.90	11.034
726.22	3.135
726.53	5.519
726.85	5.975
727.16	3.625
727.48	7.034
727.80	7.285
728.11	2.473
728.43	6.061
728.74	7.692
729.06	3.642
729.38	5.195
729.69	4.362
730.01	7.143
730.32	4.848
730.64	2.830
730.96	3.106
731.27	7.263
731.59	8.516
731.90	5.455
732.22	5.469
732.53	3.039
732.85	6.000
733.16	3.812
733.48	5.488
733.80	5.014
734.11	7.123
734.43	7.568
734.74	8.861
735.06	4.020
735.37	7.297
735.69	6.216
736.00	7.062
736.32	7.547
736.63	3.056
736.95	5.460
737.26	7.879
737.58	4.242
737.89	5.882
738.21	4.893
738.52	4.262
738.83	5.461
739.15	3.191
739.46	4.762
739.78	6.135
740.09	2.292
740.41	5.539
740.72	5.000
741.04	6.149
741.35	7.719
741.66	2.745
741.98	1.639
742.29	3.347
742.61	3.947
742.92	1.154
743.23	3.610
743.55	4.264
743.86	3.600
744.18	1.240
744.49	-0.844
744.80	4.115
745.12	2.110
745.43	8.130
745.74	0.862
746.06	4.661
746.37	4.219
746.68	5.285
747.00	3.750
747.31	3.433
747.62	8.077
747.94	3.239
748.25	1.606
748.56	3.673
748.88	0.427
749.19	6.466
749.50	4.762
749.82	6.827
750.13	8.185
750.44	4.667
750.75	5.231
751.07	7.385
751.38	4.732
751.69	5.112
752.01	6.796
752.32	4.902
752.63	5.442
752.94	2.768
753.26	1.115
753.57	0.000
753.88	3.371
754.19	7.717
754.51	5.788
754.82	4.180
755.13	9.180
755.44	2.389
755.75	2.303
756.07	8.060
756.38	3.774
756.69	8.133
757.00	5.263
757.31	4.098
757.63	4.859
757.94	5.399
758.25	7.901
758.56	7.190
758.87	8.636
759.18	3.467
759.50	5.099
759.81	6.723
760.12	5.391
760.43	6.771
760.74	7.882
761.05	5.250
761.36	6.747
761.67	3.553
761.99	7.027
762.30	5.488
762.61	2.640
762.92	6.716
763.23	3.745
763.54	3.597
763.85	3.436
764.16	5.724
764.47	3.521
764.78	3.834
765.10	2.639
765.41	7.949
765.72	3.439
766.03	5.932
766.34	-0.313
766.65	-1.394
766.96	2.390
767.27	5.991
767.58	-4.478
767.89	5.288
768.20	3.286
768.51	1.852
768.82	6.426
769.13	4.167
769.44	-3.462
769.75	5.415
770.06	3.846
770.37	7.087
770.68	3.404
770.99	0.810
771.30	9.259
771.61	1.901
771.92	1.481
772.23	4.453
772.54	-0.926
772.85	7.373
773.16	0.952
773.47	2.116
773.78	-3.784
774.09	-2.841
774.39	8.500
774.70	5.464
775.01	-3.049
775.32	0.588
775.63	-1.840
775.94	-5.732
776.25	7.097
776.56	7.051
776.87	4.082
777.18	0.000
777.48	-3.497
777.79	-1.351
778.10	-3.676
778.41	3.472
778.72	4.138
779.03	-1.235
779.34	-1.212
779.65	3.109
779.95	-0.556
780.26	-1.705
780.57	1.935
780.88	6.522
781.19	4.516
781.50	6.471
781.80	4.839
782.11	3.704
782.42	-2.020
782.73	-2.395
783.04	0.559
783.34	-6.667
783.65	-10.458
783.96	-7.453
784.27	-7.738
784.57	3.974
784.88	-0.714
785.19	-2.362
785.50	-1.575
785.81	2.256
786.11	0.000
786.42	-4.317
786.73	-4.317
787.04	-1.504
787.34	3.279
787.65	0.000
787.96	-1.493
788.26	2.098
788.57	13.986
788.88	1.316
789.19	3.268
789.49	-1.370
789.80	2.128
790.11	1.575
790.41	-1.562
790.72	-2.542
791.03	-7.767
791.33	-6.957
791.64	-6.140
791.95	-15.179
792.25	-7.619
792.56	-1.786
792.87	-3.125
793.17	-4.464
793.48	-7.292
793.79	-20.482
794.09	-10.092
794.40	-13.761
794.70	2.041
795.01	0.649
795.32	-4.795
795.62	1.408
795.93	-3.030
796.23	-8.197
796.54	-1.786
796.85	-11.702
797.15	-6.522
797.46	-19.178
797.76	-10.000
798.07	-7.609
798.37	-10.309
798.68	-20.779
798.99	-8.046
799.29	-1.124
799.60	1.064
799.90	-19.277
800.21	-15.385
800.51	-19.403
800.82	-19.118
801.12	-23.288
801.43	-39.706
801.73	-22.034
802.04	-12.121
802.34	-40.000
802.65	-11.864
802.95	-16.418
803.26	-6.780
803.56	-15.068
803.87	-10.000
804.17	-4.110
804.48	-38.596
804.78	-6.944
805.09	-29.310
805.39	-5.405
805.70	-25.352
806.00	1.220
806.30	-12.048
806.61	-17.808
806.91	-2.885
807.22	-5.556
807.52	-11.494
807.83	-18.056
808.13	-1.205
808.43	-3.371
808.74	-11.250
809.04	-33.824
809.35	-21.333
809.65	-11.429
809.95	-16.438
810.26	-29.825
810.56	-3.448
810.86	-11.765
811.17	-14.035
811.47	-21.311
811.77	-48.889
812.08	-27.119
812.38	-25.000
812.69	-8.621
812.99	-41.509
813.29	-46.154
813.59	-22.000
813.90	-17.544
814.20	-30.909
814.50	-1.408
814.81	-1.282
815.11	4.918
815.41	-4.478
815.72	0.000
816.02	-5.357
816.32	-11.111
816.62	-29.545
816.93	-31.111
817.23	-5.556
817.53	-17.021
817.84	-30.952
818.14	-50.000
818.44	-14.286
818.74	-24.444
819.04	-41.026
819.35	-31.429
819.65	-61.538
819.95	-20.755
820.25	-8.889
820.56	-50.000
820.86	-50.000
821.16	-35.897
821.46	-39.535
821.76	-28.000
822.07	-14.286
822.37	-41.304
822.67	-17.021
822.97	-78.378
823.27	-27.500
823.57	-2.041
823.88	-2.222
824.18	-17.500
824.48	-13.333
824.78	-76.000
825.08	-42.424
825.38	-8.889
825.69	-25.532
825.99	-25.000
826.29	-60.000
826.59	-41.026
826.89	-23.256
827.19	-12.000
827.49	-26.471
827.79	-27.083
828.09	-59.459
828.39	-40.000
828.70	-53.659
829.00	-37.209
829.30	-71.429
829.60	-20.588
829.90	-36.957
830.20	-54.286
830.50	-48.276
830.80	-88.889
831.10	-69.231
831.40	-32.353
831.70	-33.333
832.00	0.000
832.30	-170.588
832.60	-108.333
832.90	-123.077
833.20	-84.211
833.50	-120.000
833.80	-68.421
834.10	-114.286
834.40	-22.222
834.70	-18.750
835.00	-60.000
835.30	-47.059
835.60	-63.333
835.90	-64.000
836.20	-118.182
836.50	-72.000
836.80	-84.848
837.10	-77.778
837.40	-77.778
837.70	-131.250
838.00	-28.571
838.30	-86.957
838.60	-37.931
838.90	-135.714
839.19	-113.043
839.49	-158.333
839.79	-52.174
840.09	-106.250
840.39	-70.000
840.69	-16.129
840.99	-46.429
841.29	-86.667
841.59	-110.526
841.88	-10.256
842.18	-53.846
842.48	-210.000
842.78	-75.000
843.08	-40.000
843.38	-6.452
843.68	-94.444
843.97	-20.588
844.27	-100.000
844.57	-47.368
844.87	-120.000
845.17	-140.000
845.47	-57.143
845.76	-47.619
846.06	-188.889
846.36	-64.706
846.66	-42.308
846.96	-166.667
847.25	-100.000
847.55	-56.522
847.85	-85.000
848.15	-52.941
848.44	-63.636
848.74	-38.095
849.04	-95.833
849.34	-118.750
849.63	-39.130
849.93	1150.000
850.23	-100.000
850.53	-38.462
850.82	-172.727
851.12	-50.000
851.42	-145.455
851.71	-38.462
852.01	-120.000
852.31	-161.538
852.61	-68.421
852.90	-75.000
853.20	-27.778
853.50	-155.556
853.79	-85.714
854.09	-77.273
854.39	-100.000
854.68	-25.806
854.98	-73.077
855.28	-16.667
855.57	-57.143
855.87	-60.000
856.17	-59.091
856.46	-40.741
856.76	-94.444
857.05	-69.565
857.35	-54.167
857.65	-123.077
857.94	-42.857
858.24	-29.630
858.53	-34.783
858.83	-70.588
859.13	-88.235
859.42	-52.941
859.72	-64.286
860.01	-25.000
860.31	-188.889
860.60	-100.000
860.90	-93.333
861.20	-50.000
861.49	-84.615
861.79	-30.000
862.08	-84.615
862.38	-3.125
862.67	-82.353
862.97	-118.750
863.26	-211.111
863.56	-110.000
863.85	-54.545
864.15	-66.667
864.44	-466.667
864.74	-114.286
865.03	-100.000
865.33	-160.000
865.62	-19.355
865.92	18.182
866.21	-26.087
866.51	-7.143
866.80	-360.000
867.10	-133.333
867.39	-250.000
867.69	2400.000
867.98	-142.857
868.27	-64.706
868.57	-2100.000
868.86	-170.000
869.16	-38.095
869.45	-41.667
869.75	-36.364
870.04	-242.857
870.33	-125.000
870.63	-257.143
870.92	-400.000
871.22	-275.000
871.51	-145.455
871.80	-633.333
872.10	-850.000
>>>>>End Processed Spectral Data<<<<<
