SpectraSuite Data File
++++++++++++++++++++++++++++++++++++
Date: Thu May 14 16:00:38 PDT 2015
User: schluterlab
Dark Spectrum Present: Yes
Reference Spectrum Present: Yes
Number of Sampled Component Spectra: 1
Spectrometers: USB2E3373
Integration Time (usec): 3000 (USB2E3373)
Spectra Averaged: 3 (USB2E3373)
Boxcar Smoothing: 0 (USB2E3373)
Correct for Electrical Dark: No (USB2E3373)
Strobe/Lamp Enabled: No (USB2E3373)
Correct for Detector Non-linearity: No (USB2E3373)
Correct for Stray Light: No (USB2E3373)
Number of Pixels in Processed Spectrum: 2048
>>>>>Begin Processed Spectral Data<<<<<
178.53	0.000
178.91	214.286
179.29	-2300.000
179.67	-2300.000
180.04	264.286
180.42	90.000
180.80	420.000
181.18	-2000.000
181.56	-700.000
181.94	250.000
182.31	-125.000
182.69	700.000
183.07	-650.000
183.45	275.000
183.83	-216.667
184.20	-666.667
184.58	1700.000
184.96	-400.000
185.34	-177.778
185.72	-320.000
186.09	322.222
186.47	1200.000
186.85	500.000
187.23	-311.111
187.61	-2500.000
187.98	380.000
188.36	375.000
188.74	-600.000
189.12	-633.333
189.49	-50.000
189.87	-225.000
190.25	-66.667
190.63	-340.000
191.00	-222.222
191.38	0.000
191.76	-275.000
192.14	-283.333
192.51	650.000
192.89	-66.667
193.27	0.000
193.65	-128.571
194.02	-2400.000
194.40	-185.714
194.78	342.857
195.15	0.000
195.53	-81.818
195.91	0.000
196.29	-425.000
196.66	-192.308
197.04	-2100.000
197.42	-442.857
197.79	-1100.000
198.17	-300.000
198.55	-328.571
198.92	-166.667
199.30	-250.000
199.68	-27.273
200.05	-78.571
200.43	-1250.000
200.81	257.143
201.18	0.000
201.56	411.111
201.94	0.000
202.31	633.333
202.69	-244.444
203.07	2300.000
203.44	-166.667
203.82	-400.000
204.19	-133.333
204.57	-233.333
204.95	-162.500
205.32	-2200.000
205.70	275.000
206.08	-133.333
206.45	-200.000
206.83	620.000
207.20	-250.000
207.58	-540.000
207.96	-350.000
208.33	-266.667
208.71	108.333
209.08	-166.667
209.46	0.000
209.84	416.667
210.21	900.000
210.59	750.000
210.96	533.333
211.34	-175.000
211.71	-137.500
212.09	-1400.000
212.46	0.000
212.84	1400.000
213.22	-420.000
213.59	-600.000
213.97	-120.000
214.34	-566.667
214.72	266.667
215.09	-250.000
215.47	0.000
215.84	157.143
216.22	1300.000
216.59	-340.000
216.97	-340.000
217.34	-375.000
217.72	-187.500
218.09	-500.000
218.47	-650.000
218.84	0.000
219.22	400.000
219.59	-64.706
219.97	-95.000
220.34	900.000
220.72	-111.111
221.09	-15.385
221.47	-666.667
221.84	-210.000
222.22	-271.429
222.59	0.000
222.97	-200.000
223.34	-420.000
223.72	-900.000
224.09	-400.000
224.46	-525.000
224.84	-340.000
225.21	-242.857
225.59	-425.000
225.96	-400.000
226.34	-46.154
226.71	350.000
227.08	-1050.000
227.46	-53.333
227.83	-525.000
228.21	-94.737
228.58	325.000
228.95	1000.000
229.33	-16.667
229.70	-100.000
230.08	-68.421
230.45	230.000
230.82	-400.000
231.20	-121.429
231.57	-100.000
231.95	-163.636
232.32	-145.455
232.69	-70.000
233.07	-400.000
233.44	-117.647
233.81	-180.000
234.19	-61.111
234.56	-40.909
234.93	-48.276
235.31	-105.263
235.68	-83.333
236.05	-125.000
236.43	-34.615
236.80	-28.000
237.17	-48.148
237.55	-54.545
237.92	-240.000
238.29	-32.258
238.67	-31.818
239.04	-41.667
239.41	-40.476
239.79	-34.783
240.16	-33.333
240.53	-21.739
240.91	-66.667
241.28	-31.148
241.65	-4.478
242.02	-10.811
242.40	-24.615
242.77	-24.000
243.14	-18.293
243.51	-25.000
243.89	-25.641
244.26	-0.990
244.63	-7.843
245.00	-10.280
245.38	-17.544
245.75	-11.504
246.12	0.000
246.49	-10.078
246.87	0.000
247.24	-0.662
247.61	3.289
247.98	-3.356
248.36	-10.494
248.73	-6.135
249.10	-3.825
249.47	1.493
249.84	2.618
250.22	-5.699
250.59	-3.889
250.96	0.000
251.33	-5.612
251.70	4.701
252.08	1.250
252.45	4.508
252.82	-3.306
253.19	-2.734
253.56	6.464
253.94	-3.077
254.31	2.652
254.68	5.594
255.05	2.280
255.42	0.340
255.79	0.971
256.16	0.000
256.54	2.318
256.91	5.902
257.28	-0.656
257.65	-0.637
258.02	-0.590
258.39	3.134
258.76	3.976
259.14	2.874
259.51	0.865
259.88	1.416
260.25	4.444
260.62	4.932
260.99	2.732
261.36	3.753
261.73	0.796
262.10	0.549
262.47	1.877
262.85	7.576
263.22	2.857
263.59	-0.789
263.96	3.325
264.33	1.279
264.70	2.963
265.07	4.773
265.44	7.710
265.81	3.935
266.18	4.762
266.55	2.009
266.92	-0.683
267.29	5.033
267.66	3.104
268.03	1.747
268.40	3.758
268.77	1.822
269.14	2.203
269.51	1.974
269.88	4.508
270.25	3.219
270.62	2.954
270.99	4.848
271.36	5.149
271.73	3.536
272.10	3.808
272.47	2.605
272.84	3.213
273.21	2.405
273.58	4.234
273.95	2.115
274.32	3.422
274.69	0.580
275.06	3.663
275.43	3.697
275.80	2.293
276.17	3.519
276.54	1.679
276.91	2.504
277.28	3.617
277.65	3.232
278.02	3.309
278.39	2.174
278.76	1.757
279.13	3.723
279.50	4.983
279.87	3.757
280.23	1.056
280.60	2.203
280.97	2.796
281.34	0.849
281.71	3.723
282.08	2.658
282.45	1.800
282.82	2.198
283.19	0.646
283.56	1.311
283.92	4.354
284.29	5.213
284.66	3.284
285.03	1.923
285.40	4.019
285.77	2.477
286.14	4.580
286.51	1.370
286.87	3.318
287.24	1.958
287.61	3.438
287.98	1.662
288.35	3.698
288.72	3.254
289.08	3.660
289.45	3.846
289.82	3.916
290.19	3.736
290.56	3.380
290.93	3.852
291.29	3.444
291.66	2.893
292.03	2.578
292.40	4.898
292.77	4.043
293.13	1.759
293.50	2.102
293.87	2.819
294.24	2.267
294.60	4.298
294.97	0.940
295.34	4.609
295.71	3.279
296.08	2.455
296.44	2.451
296.81	2.923
297.18	3.487
297.55	1.887
297.91	2.372
298.28	2.488
298.65	4.518
299.02	2.479
299.38	3.661
299.75	3.621
300.12	3.819
300.48	3.226
300.85	3.375
301.22	4.698
301.59	1.826
301.95	2.486
302.32	4.556
302.69	3.724
303.05	4.570
303.42	3.215
303.79	4.479
304.15	2.839
304.52	3.594
304.89	4.293
305.25	3.727
305.62	3.657
305.99	5.052
306.35	3.831
306.72	4.447
307.09	3.858
307.45	4.141
307.82	3.835
308.19	4.137
308.55	5.207
308.92	4.284
309.29	4.119
309.65	4.483
310.02	4.455
310.38	4.331
310.75	4.854
311.12	5.944
311.48	5.767
311.85	4.938
312.22	5.503
312.58	5.634
312.95	5.832
313.31	7.046
313.68	6.777
314.05	7.317
314.41	7.377
314.78	6.812
315.14	6.443
315.51	8.403
315.87	8.011
316.24	8.584
316.61	9.591
316.97	8.597
317.34	8.995
317.70	10.655
318.07	10.406
318.43	10.544
318.80	11.873
319.16	11.845
319.53	9.426
319.89	11.306
320.26	11.566
320.62	12.057
320.99	11.911
321.35	13.586
321.72	14.884
322.08	14.427
322.45	15.176
322.81	15.794
323.18	15.575
323.54	16.121
323.91	16.993
324.27	17.384
324.64	18.976
325.00	18.988
325.37	20.229
325.73	20.496
326.10	20.925
326.46	21.417
326.83	23.539
327.19	22.205
327.56	22.372
327.92	22.974
328.29	24.919
328.65	24.791
329.01	22.927
329.38	26.369
329.74	26.627
330.11	25.257
330.47	28.559
330.84	27.304
331.20	27.250
331.56	27.383
331.93	28.285
332.29	28.136
332.66	29.402
333.02	28.224
333.38	28.272
333.75	28.956
334.11	29.525
334.48	30.446
334.84	29.482
335.20	29.219
335.57	30.017
335.93	30.413
336.29	30.116
336.66	30.109
337.02	29.849
337.38	30.442
337.75	30.083
338.11	31.791
338.47	31.927
338.84	30.457
339.20	29.992
339.56	31.631
339.93	32.020
340.29	31.643
340.65	30.333
341.02	32.721
341.38	31.851
341.74	32.446
342.11	32.180
342.47	32.089
342.83	33.736
343.20	32.788
343.56	32.077
343.92	33.547
344.28	32.656
344.65	33.953
345.01	32.761
345.37	33.670
345.73	32.658
346.10	32.605
346.46	32.516
346.82	33.258
347.19	33.843
347.55	33.687
347.91	33.655
348.27	33.915
348.63	35.034
349.00	33.408
349.36	33.978
349.72	34.747
350.08	35.364
350.45	35.285
350.81	34.540
351.17	35.865
351.53	35.481
351.89	34.624
352.26	34.925
352.62	35.672
352.98	36.641
353.34	34.877
353.70	34.823
354.07	36.066
354.43	35.383
354.79	35.752
355.15	37.528
355.51	37.061
355.87	36.724
356.24	38.023
356.60	35.551
356.96	37.658
357.32	36.803
357.68	37.408
358.04	38.174
358.40	37.463
358.77	38.596
359.13	37.149
359.49	37.844
359.85	38.434
360.21	37.661
360.57	37.976
360.93	38.787
361.29	40.140
361.66	39.392
362.02	39.318
362.38	39.213
362.74	39.874
363.10	39.752
363.46	39.474
363.82	39.986
364.18	39.550
364.54	40.249
364.90	40.201
365.26	40.276
365.62	40.400
365.98	40.572
366.35	39.799
366.71	39.660
367.07	41.137
367.43	41.169
367.79	42.203
368.15	41.739
368.51	41.746
368.87	39.974
369.23	40.800
369.59	42.691
369.95	41.853
370.31	42.539
370.67	41.059
371.03	41.620
371.39	41.101
371.75	42.779
372.11	42.480
372.47	42.654
372.83	42.277
373.19	41.961
373.55	42.683
373.91	41.650
374.27	42.238
374.63	43.572
374.99	42.573
375.35	43.117
375.71	43.613
376.07	43.447
376.42	43.703
376.78	44.002
377.14	43.107
377.50	44.213
377.86	43.473
378.22	43.832
378.58	43.936
378.94	44.308
379.30	43.527
379.66	44.444
380.02	44.432
380.38	45.219
380.74	44.676
381.09	45.761
381.45	44.716
381.81	46.077
382.17	44.299
382.53	44.327
382.89	44.582
383.25	45.838
383.61	45.139
383.97	44.641
384.32	46.172
384.68	44.026
385.04	45.518
385.40	45.963
385.76	46.659
386.12	45.422
386.48	45.471
386.83	47.139
387.19	46.756
387.55	43.662
387.91	44.977
388.27	45.843
388.62	45.475
388.98	44.952
389.34	45.197
389.70	45.497
390.06	44.701
390.42	46.084
390.77	45.635
391.13	45.070
391.49	45.833
391.85	45.394
392.20	45.552
392.56	46.013
392.92	45.420
393.28	46.213
393.64	45.531
393.99	46.020
394.35	46.203
394.71	45.988
395.07	44.371
395.42	45.288
395.78	46.069
396.14	45.752
396.50	45.368
396.85	44.723
397.21	46.154
397.57	45.701
397.92	45.819
398.28	45.573
398.64	44.165
399.00	43.665
399.35	45.707
399.71	45.000
400.07	44.526
400.42	45.111
400.78	45.312
401.14	44.337
401.49	44.457
401.85	43.895
402.21	45.191
402.57	46.244
402.92	44.858
403.28	45.023
403.63	45.286
403.99	43.884
404.35	43.718
404.70	44.193
405.06	42.663
405.42	45.141
405.77	44.384
406.13	43.328
406.49	44.369
406.84	42.936
407.20	42.482
407.55	43.125
407.91	42.803
408.27	43.875
408.62	43.223
408.98	42.948
409.34	43.109
409.69	42.522
410.05	43.787
410.40	43.619
410.76	42.008
411.11	43.776
411.47	43.366
411.83	43.151
412.18	43.976
412.54	42.501
412.89	42.375
413.25	42.494
413.60	42.447
413.96	43.357
414.31	42.040
414.67	42.934
415.03	40.738
415.38	42.560
415.74	42.822
416.09	42.628
416.45	42.642
416.80	41.493
417.16	41.890
417.51	41.719
417.87	42.612
418.22	42.994
418.58	42.565
418.93	43.132
419.29	42.540
419.64	42.377
420.00	42.077
420.35	42.785
420.71	42.619
421.06	42.208
421.42	42.431
421.77	41.896
422.12	42.019
422.48	42.396
422.83	43.264
423.19	42.653
423.54	43.639
423.90	42.628
424.25	42.400
424.61	42.767
424.96	42.943
425.31	43.418
425.67	42.727
426.02	42.280
426.38	43.226
426.73	42.969
427.09	42.099
427.44	42.545
427.79	42.620
428.15	42.066
428.50	41.573
428.85	41.160
429.21	42.447
429.56	41.461
429.92	41.425
430.27	42.843
430.62	42.550
430.98	41.958
431.33	42.424
431.68	41.140
432.04	42.763
432.39	41.832
432.74	41.324
433.10	42.726
433.45	42.085
433.80	42.167
434.16	41.890
434.51	43.165
434.86	42.780
435.22	42.986
435.57	42.866
435.92	42.849
436.28	42.548
436.63	43.419
436.98	42.458
437.34	42.672
437.69	42.708
438.04	41.777
438.39	41.413
438.75	41.063
439.10	42.125
439.45	42.482
439.81	42.938
440.16	41.287
440.51	42.586
440.86	41.134
441.22	41.586
441.57	42.715
441.92	41.368
442.27	42.626
442.63	41.381
442.98	42.796
443.33	42.346
443.68	43.013
444.03	43.462
444.39	41.378
444.74	42.471
445.09	41.105
445.44	42.518
445.79	43.439
446.15	42.806
446.50	42.481
446.85	42.169
447.20	40.619
447.55	41.946
447.91	41.832
448.26	41.913
448.61	41.711
448.96	43.240
449.31	41.198
449.66	41.558
450.02	41.719
450.37	41.236
450.72	41.012
451.07	41.173
451.42	42.057
451.77	41.579
452.12	42.325
452.47	41.949
452.83	42.624
453.18	40.864
453.53	39.977
453.88	41.137
454.23	40.904
454.58	40.859
454.93	40.595
455.28	40.939
455.63	40.932
455.98	40.559
456.34	42.344
456.69	39.976
457.04	40.307
457.39	41.186
457.74	41.611
458.09	40.417
458.44	40.194
458.79	39.711
459.14	40.063
459.49	40.690
459.84	39.559
460.19	39.589
460.54	39.580
460.89	40.286
461.24	38.506
461.59	40.786
461.94	38.962
462.29	39.250
462.64	38.926
462.99	39.862
463.34	39.650
463.69	37.866
464.04	39.411
464.39	40.078
464.74	38.483
465.09	39.273
465.44	38.305
465.79	39.080
466.14	38.458
466.49	38.105
466.84	39.008
467.19	39.075
467.54	37.485
467.89	37.586
468.24	39.058
468.59	37.638
468.94	38.228
469.29	38.092
469.64	38.017
469.99	38.113
470.34	39.047
470.68	38.619
471.03	38.572
471.38	37.933
471.73	37.841
472.08	38.135
472.43	37.929
472.78	38.728
473.13	37.105
473.48	37.281
473.83	37.551
474.17	37.104
474.52	38.004
474.87	37.320
475.22	37.465
475.57	37.954
475.92	37.033
476.27	37.540
476.61	36.968
476.96	36.601
477.31	37.228
477.66	37.618
478.01	36.756
478.36	36.341
478.70	37.635
479.05	37.577
479.40	36.673
479.75	36.599
480.10	36.381
480.45	37.010
480.79	35.782
481.14	35.938
481.49	36.029
481.84	35.683
482.19	36.860
482.53	36.554
482.88	36.331
483.23	36.372
483.58	35.721
483.92	35.328
484.27	35.013
484.62	35.520
484.97	35.226
485.31	34.671
485.66	34.080
486.01	33.315
486.36	33.997
486.70	34.602
487.05	35.321
487.40	34.920
487.75	34.504
488.09	34.066
488.44	34.032
488.79	34.064
489.13	34.142
489.48	33.476
489.83	33.682
490.17	33.698
490.52	34.072
490.87	33.460
491.22	33.752
491.56	34.044
491.91	34.104
492.26	33.752
492.60	33.406
492.95	34.006
493.30	34.021
493.64	33.421
493.99	32.982
494.34	32.883
494.68	32.377
495.03	33.084
495.37	33.777
495.72	32.880
496.07	32.647
496.41	32.432
496.76	33.111
497.11	33.503
497.45	32.413
497.80	32.652
498.14	32.744
498.49	32.629
498.84	32.633
499.18	32.164
499.53	32.735
499.87	32.264
500.22	31.434
500.56	31.984
500.91	32.265
501.26	32.318
501.60	31.330
501.95	31.437
502.29	31.944
502.64	32.182
502.98	30.889
503.33	30.713
503.67	31.051
504.02	30.867
504.36	31.099
504.71	30.776
505.06	31.241
505.40	30.439
505.75	30.510
506.09	31.308
506.44	31.244
506.78	31.284
507.13	30.751
507.47	30.886
507.82	30.871
508.16	30.449
508.51	30.474
508.85	31.034
509.19	30.412
509.54	30.307
509.88	30.937
510.23	30.792
510.57	29.966
510.92	30.237
511.26	29.293
511.61	28.875
511.95	30.796
512.30	30.625
512.64	29.685
512.98	30.015
513.33	29.889
513.67	29.679
514.02	29.535
514.36	30.077
514.70	29.687
515.05	30.448
515.39	30.026
515.74	30.806
516.08	29.688
516.42	30.194
516.77	29.916
517.11	29.345
517.46	30.170
517.80	30.198
518.14	29.869
518.49	29.393
518.83	29.750
519.17	29.079
519.52	28.616
519.86	28.617
520.20	29.340
520.55	28.587
520.89	29.279
521.23	29.313
521.58	28.757
521.92	29.575
522.26	28.293
522.61	29.572
522.95	28.777
523.29	28.391
523.64	27.915
523.98	29.549
524.32	29.628
524.66	29.425
525.01	27.293
525.35	27.283
525.69	27.726
526.04	27.325
526.38	28.046
526.72	27.624
527.06	28.563
527.41	27.230
527.75	28.325
528.09	28.394
528.43	27.472
528.78	27.110
529.12	26.892
529.46	27.094
529.80	26.487
530.15	27.014
530.49	27.343
530.83	27.037
531.17	26.464
531.51	27.738
531.86	27.163
532.20	27.561
532.54	25.793
532.88	26.242
533.22	26.400
533.57	25.967
533.91	26.207
534.25	26.738
534.59	26.609
534.93	25.863
535.27	26.085
535.62	26.549
535.96	26.729
536.30	24.736
536.64	27.027
536.98	26.753
537.32	25.926
537.66	27.386
538.01	25.921
538.35	24.848
538.69	25.601
539.03	25.628
539.37	25.088
539.71	25.465
540.05	25.839
540.39	24.756
540.73	25.197
541.07	25.015
541.42	25.103
541.76	24.792
542.10	24.910
542.44	24.543
542.78	25.487
543.12	24.851
543.46	25.336
543.80	23.921
544.14	24.476
544.48	25.000
544.82	24.776
545.16	24.687
545.50	24.146
545.84	24.372
546.18	25.000
546.52	25.032
546.86	25.094
547.20	24.237
547.54	23.596
547.88	23.930
548.22	24.035
548.56	23.581
548.90	24.299
549.24	22.979
549.58	22.902
549.92	23.597
550.26	23.689
550.60	24.059
550.94	23.545
551.28	23.498
551.62	24.057
551.96	23.042
552.30	23.773
552.64	23.211
552.98	22.895
553.32	23.730
553.66	22.830
554.00	23.140
554.34	23.037
554.68	22.983
555.02	23.062
555.36	23.340
555.69	21.845
556.03	22.320
556.37	23.467
556.71	22.765
557.05	22.620
557.39	23.291
557.73	23.052
558.07	22.185
558.41	22.990
558.75	22.110
559.08	22.895
559.42	22.222
559.76	22.999
560.10	23.041
560.44	21.306
560.78	22.812
561.12	22.291
561.45	21.655
561.79	22.344
562.13	22.612
562.47	21.640
562.81	22.911
563.15	22.412
563.48	22.374
563.82	22.128
564.16	21.260
564.50	21.097
564.84	21.239
565.17	22.000
565.51	21.059
565.85	20.962
566.19	20.737
566.52	21.650
566.86	20.374
567.20	19.793
567.54	20.393
567.88	20.744
568.21	20.850
568.55	20.336
568.89	21.017
569.23	20.448
569.56	20.281
569.90	20.527
570.24	19.933
570.57	19.949
570.91	19.228
571.25	19.092
571.59	19.621
571.92	20.123
572.26	19.825
572.60	19.137
572.93	19.260
573.27	19.640
573.61	19.481
573.95	19.155
574.28	18.430
574.62	18.645
574.96	18.747
575.29	18.330
575.63	18.919
575.97	19.186
576.30	18.752
576.64	18.659
576.98	18.269
577.31	18.484
577.65	19.026
577.98	18.468
578.32	18.220
578.66	18.225
578.99	18.063
579.33	18.519
579.67	18.064
580.00	18.476
580.34	18.543
580.67	17.983
581.01	18.239
581.35	18.118
581.68	18.030
582.02	18.176
582.35	18.185
582.69	18.115
583.02	17.978
583.36	17.745
583.70	17.973
584.03	18.167
584.37	17.872
584.70	18.044
585.04	17.694
585.37	17.786
585.71	17.562
586.04	17.613
586.38	18.059
586.72	17.473
587.05	17.345
587.39	17.577
587.72	17.751
588.06	17.892
588.39	17.501
588.73	17.407
589.06	17.720
589.40	17.763
589.73	17.449
590.07	18.137
590.40	17.748
590.73	17.603
591.07	17.535
591.40	17.341
591.74	18.005
592.07	17.864
592.41	17.508
592.74	17.572
593.08	17.452
593.41	17.265
593.75	17.414
594.08	17.025
594.41	16.859
594.75	17.004
595.08	16.655
595.42	17.273
595.75	17.759
596.09	17.418
596.42	17.449
596.75	17.484
597.09	17.172
597.42	17.004
597.75	17.248
598.09	17.063
598.42	16.928
598.76	16.393
599.09	16.874
599.42	16.527
599.76	16.705
600.09	16.750
600.42	16.950
600.76	16.777
601.09	16.761
601.42	15.894
601.76	16.759
602.09	16.619
602.42	16.176
602.76	16.753
603.09	16.373
603.42	17.124
603.76	16.385
604.09	16.537
604.42	16.734
604.76	16.210
605.09	16.434
605.42	16.108
605.75	15.731
606.09	16.163
606.42	16.053
606.75	15.742
607.09	16.091
607.42	15.954
607.75	15.826
608.08	16.535
608.42	15.518
608.75	16.169
609.08	16.044
609.41	15.439
609.75	16.339
610.08	16.843
610.41	15.548
610.74	16.050
611.07	16.252
611.41	15.650
611.74	16.767
612.07	16.269
612.40	15.827
612.73	16.088
613.07	15.892
613.40	16.410
613.73	16.033
614.06	15.898
614.39	15.841
614.72	15.915
615.06	15.351
615.39	14.886
615.72	15.735
616.05	14.813
616.38	16.095
616.71	15.935
617.05	14.856
617.38	15.891
617.71	16.415
618.04	15.920
618.37	15.902
618.70	15.667
619.03	14.576
619.36	15.043
619.69	15.823
620.03	15.819
620.36	15.460
620.69	15.546
621.02	15.354
621.35	16.328
621.68	15.907
622.01	16.655
622.34	15.411
622.67	14.983
623.00	15.047
623.33	14.864
623.66	15.953
623.99	15.537
624.32	15.984
624.65	14.929
624.99	15.735
625.32	16.133
625.65	15.239
625.98	14.915
626.31	15.450
626.64	16.923
626.97	15.304
627.30	14.730
627.63	14.779
627.96	15.766
628.29	15.175
628.62	14.777
628.95	15.600
629.28	15.123
629.61	15.572
629.94	14.561
630.26	15.000
630.59	15.112
630.92	15.065
631.25	15.742
631.58	15.443
631.91	14.433
632.24	15.658
632.57	15.939
632.90	14.042
633.23	14.898
633.56	15.714
633.89	13.740
634.22	14.345
634.55	15.240
634.88	15.043
635.20	15.393
635.53	14.802
635.86	14.843
636.19	15.270
636.52	14.979
636.85	14.709
637.18	14.761
637.51	15.806
637.83	15.504
638.16	15.323
638.49	13.732
638.82	15.333
639.15	13.860
639.48	16.051
639.81	14.781
640.13	16.254
640.46	13.818
640.79	14.093
641.12	14.534
641.45	15.809
641.77	15.404
642.10	15.748
642.43	15.824
642.76	14.228
643.09	14.384
643.41	15.686
643.74	14.483
644.07	14.345
644.40	15.134
644.73	13.788
645.05	13.216
645.38	16.547
645.71	13.783
646.04	16.212
646.36	14.453
646.69	17.331
647.02	15.291
647.35	15.878
647.67	15.459
648.00	14.331
648.33	13.814
648.66	12.411
648.98	13.333
649.31	14.885
649.64	16.335
649.96	14.058
650.29	13.352
650.62	15.134
650.94	13.213
651.27	13.323
651.60	14.181
651.92	13.222
652.25	14.182
652.58	14.305
652.90	12.064
653.23	13.521
653.56	14.123
653.88	16.011
654.21	13.380
654.54	13.150
654.86	13.031
655.19	12.296
655.52	14.366
655.84	13.293
656.17	15.201
656.49	21.331
656.82	23.356
657.15	18.197
657.47	13.926
657.80	9.932
658.13	7.820
658.45	10.387
658.78	12.913
659.10	12.553
659.43	12.118
659.75	11.674
660.08	11.541
660.41	11.745
660.73	12.315
661.06	12.041
661.38	11.802
661.71	13.276
662.03	13.051
662.36	13.775
662.68	12.008
663.01	16.283
663.33	12.287
663.66	15.018
663.98	12.308
664.31	15.385
664.63	12.524
664.96	13.612
665.28	13.612
665.61	14.685
665.93	11.071
666.26	12.545
666.58	11.808
666.91	14.206
667.23	13.905
667.56	12.821
667.88	13.400
668.21	12.109
668.53	10.425
668.86	15.717
669.18	12.016
669.50	13.718
669.83	11.600
670.15	12.598
670.48	13.294
670.80	11.663
671.13	11.342
671.45	12.205
671.77	13.183
672.10	10.167
672.42	11.003
672.75	9.370
673.07	11.940
673.39	10.940
673.72	12.584
674.04	12.069
674.37	12.880
674.69	13.933
675.01	13.143
675.34	12.214
675.66	11.423
675.98	12.873
676.31	13.477
676.63	13.118
676.95	13.793
677.28	10.887
677.60	8.858
677.92	11.324
678.25	11.335
678.57	11.388
678.89	13.993
679.22	12.892
679.54	11.453
679.86	10.847
680.18	14.262
680.51	12.107
680.83	13.257
681.15	11.724
681.48	12.435
681.80	10.881
682.12	11.364
682.44	11.519
682.77	14.184
683.09	13.258
683.41	11.047
683.73	11.575
684.06	12.915
684.38	11.628
684.70	9.695
685.02	11.188
685.34	10.815
685.67	10.726
685.99	10.736
686.31	10.901
686.63	11.374
686.96	10.252
687.28	11.075
687.60	9.259
687.92	9.968
688.24	11.352
688.56	9.655
688.89	12.886
689.21	15.068
689.53	8.627
689.85	11.637
690.17	11.111
690.49	10.757
690.82	8.911
691.14	9.717
691.46	11.663
691.78	9.945
692.10	8.807
692.42	11.071
692.74	10.526
693.06	9.444
693.39	10.816
693.71	9.962
694.03	10.037
694.35	10.667
694.67	10.472
694.99	11.489
695.31	10.155
695.63	11.255
695.95	9.317
696.27	10.110
696.59	11.283
696.91	11.261
697.23	9.231
697.56	7.943
697.88	10.227
698.20	10.358
698.52	12.689
698.84	9.979
699.16	10.816
699.48	10.879
699.80	11.702
700.12	10.262
700.44	8.295
700.76	12.827
701.08	10.896
701.40	9.585
701.72	10.945
702.04	12.032
702.36	8.377
702.68	9.535
703.00	8.068
703.32	9.606
703.64	10.758
703.96	11.456
704.28	8.600
704.60	10.633
704.91	9.439
705.23	10.137
705.55	8.914
705.87	11.212
706.19	11.963
706.51	6.325
706.83	9.798
707.15	8.201
707.47	7.243
707.79	9.389
708.11	8.263
708.43	9.247
708.74	8.259
709.06	9.513
709.38	9.859
709.70	11.414
710.02	8.786
710.34	12.234
710.66	8.380
710.98	7.104
711.29	8.516
711.61	7.062
711.93	7.407
712.25	10.811
712.57	11.504
712.89	11.765
713.20	5.917
713.52	11.850
713.84	6.685
714.16	11.842
714.48	10.309
714.80	8.052
715.11	8.924
715.43	10.875
715.75	8.684
716.07	8.564
716.39	8.197
716.70	8.133
717.02	5.574
717.34	5.923
717.66	8.389
717.97	5.137
718.29	7.560
718.61	5.592
718.93	8.091
719.24	9.938
719.56	5.828
719.88	9.309
720.20	9.032
720.51	7.143
720.83	5.938
721.15	6.908
721.46	2.397
721.78	4.333
722.10	7.443
722.42	8.389
722.73	9.032
723.05	8.772
723.37	6.944
723.68	8.961
724.00	6.137
724.32	3.873
724.63	8.042
724.95	10.993
725.27	5.226
725.58	0.707
725.90	10.690
726.22	8.464
726.53	10.714
726.85	9.119
727.16	9.970
727.48	11.621
727.80	8.940
728.11	6.360
728.43	6.734
728.74	7.692
729.06	8.278
729.38	10.714
729.69	8.725
730.01	9.821
730.32	6.364
730.64	5.031
730.96	3.106
731.27	10.335
731.59	8.516
731.90	4.935
732.22	5.990
732.53	7.459
732.85	5.429
733.16	8.798
733.48	6.707
733.80	5.850
734.11	8.262
734.43	8.649
734.74	8.608
735.06	7.789
735.37	7.027
735.69	4.324
736.00	8.475
736.32	9.164
736.63	8.611
736.95	4.598
737.26	7.879
737.58	5.455
737.89	5.588
738.21	6.728
738.52	6.230
738.83	9.556
739.15	4.610
739.46	6.803
739.78	9.816
740.09	7.450
740.41	9.038
740.72	5.333
741.04	8.738
741.35	9.825
741.66	5.098
741.98	11.066
742.29	7.113
742.61	7.018
742.92	8.846
743.23	7.581
743.55	4.264
743.86	7.200
744.18	3.306
744.49	9.705
744.80	5.761
745.12	4.641
745.43	7.724
745.74	1.724
746.06	4.661
746.37	5.907
746.68	10.163
747.00	5.417
747.31	4.721
747.62	8.462
747.94	5.263
748.25	2.811
748.56	2.857
748.88	3.846
749.19	8.190
749.50	3.463
749.82	6.024
750.13	9.964
750.44	2.667
750.75	4.308
751.07	6.769
751.38	9.779
751.69	5.751
752.01	6.796
752.32	6.209
752.63	2.041
752.94	6.920
753.26	4.833
753.57	4.074
753.88	2.622
754.19	8.039
754.51	4.823
754.82	6.109
755.13	6.557
755.44	8.532
755.75	7.566
756.07	9.254
756.38	5.660
756.69	9.036
757.00	4.155
757.31	6.831
757.63	5.371
757.94	4.695
758.25	7.223
758.56	5.882
758.87	5.682
759.18	7.200
759.50	8.499
759.81	5.042
760.12	6.199
760.43	6.250
760.74	6.650
761.05	5.000
761.36	6.506
761.67	5.584
761.99	5.135
762.30	5.793
762.61	4.950
762.92	10.075
763.23	6.742
763.54	2.878
763.85	5.498
764.16	5.387
764.47	2.465
764.78	8.946
765.10	6.745
765.41	10.513
765.72	5.026
766.03	8.192
766.34	4.075
766.65	3.136
766.96	6.375
767.27	1.843
767.58	-1.493
767.89	9.615
768.20	2.817
768.51	6.019
768.82	2.410
769.13	2.652
769.44	0.769
769.75	6.859
770.06	6.538
770.37	5.512
770.68	-3.404
770.99	0.000
771.30	7.037
771.61	3.802
771.92	4.074
772.23	6.073
772.54	-1.852
772.85	10.138
773.16	9.048
773.47	-1.587
773.78	-9.189
774.09	4.545
774.39	10.000
774.70	1.093
775.01	-6.707
775.32	-1.765
775.63	3.681
775.94	-5.732
776.25	7.097
776.56	5.769
776.87	4.762
777.18	4.138
777.48	-4.895
777.79	2.027
778.10	-8.824
778.41	-4.861
778.72	0.000
779.03	1.852
779.34	2.424
779.65	-1.554
779.95	2.222
780.26	5.114
780.57	-3.871
780.88	-0.725
781.19	1.935
781.50	5.294
781.80	7.527
782.11	1.587
782.42	-3.535
782.73	-0.599
783.04	1.117
783.34	-7.879
783.65	-5.882
783.96	-1.242
784.27	-6.548
784.57	-7.947
784.88	6.429
785.19	2.362
785.50	-3.150
785.81	0.000
786.11	0.000
786.42	-5.755
786.73	-2.878
787.04	0.000
787.34	-1.639
787.65	-5.600
787.96	0.000
788.26	3.497
788.57	4.895
788.88	1.316
789.19	4.575
789.49	-1.370
789.80	-2.128
790.11	-2.362
790.41	0.000
790.72	9.322
791.03	-18.447
791.33	-4.348
791.64	-3.509
791.95	-3.571
792.25	-7.619
792.56	-0.893
792.87	-7.292
793.17	-5.357
793.48	-9.375
793.79	-13.253
794.09	-7.339
794.40	-11.927
794.70	2.041
795.01	-3.896
795.32	-0.685
795.62	2.817
795.93	-3.788
796.23	4.918
796.54	-8.929
796.85	-17.021
797.15	-10.870
797.46	-12.329
797.76	-13.750
798.07	-4.348
798.37	-16.495
798.68	-9.091
798.99	-4.598
799.29	-6.742
799.60	0.000
799.90	-9.639
800.21	-13.846
800.51	-19.403
800.82	-23.529
801.12	-36.986
801.43	-27.941
801.73	-23.729
802.04	-12.121
802.34	-28.333
802.65	-8.475
802.95	2.985
803.26	-18.644
803.56	-13.699
803.87	-11.429
804.17	-4.110
804.48	-21.053
804.78	-9.722
805.09	-31.034
805.39	-20.270
805.70	-35.211
806.00	3.659
806.30	-2.410
806.61	-10.959
806.91	-3.846
807.22	-2.222
807.52	-20.690
807.83	1.389
808.13	-3.614
808.43	-5.618
808.74	-8.750
809.04	-27.941
809.35	-12.000
809.65	-20.000
809.95	-13.699
810.26	-19.298
810.56	-22.414
810.86	-13.235
811.17	-21.053
811.47	-16.393
811.77	-31.111
812.08	-22.034
812.38	-8.333
812.69	-24.138
812.99	-32.075
813.29	-48.718
813.59	-14.000
813.90	-12.281
814.20	-20.000
814.50	2.817
814.81	-10.256
815.11	-24.590
815.41	-16.418
815.72	-1.724
816.02	-17.857
816.32	-15.556
816.62	-34.091
816.93	-31.111
817.23	-14.815
817.53	-25.532
817.84	-19.048
818.14	-26.471
818.44	-16.327
818.74	-26.667
819.04	-51.282
819.35	-51.429
819.65	-73.077
819.95	-18.868
820.25	-6.667
820.56	-42.857
820.86	-34.375
821.16	-64.103
821.46	-41.860
821.76	-36.000
822.07	-16.071
822.37	-34.783
822.67	-19.149
822.97	-56.757
823.27	-40.000
823.57	-4.082
823.88	-17.778
824.18	-27.500
824.48	-40.000
824.78	-76.000
825.08	-39.394
825.38	-8.889
825.69	-14.894
825.99	-33.333
826.29	-80.000
826.59	-53.846
826.89	-41.860
827.19	-28.000
827.49	-26.471
827.79	-8.333
828.09	-67.568
828.39	-53.333
828.70	-43.902
829.00	-39.535
829.30	-57.143
829.60	-35.294
829.90	-26.087
830.20	-34.286
830.50	-58.621
830.80	-88.889
831.10	-69.231
831.40	-38.235
831.70	-38.095
832.00	-38.710
832.30	-194.118
832.60	-16.667
832.90	-161.538
833.20	-121.053
833.50	-110.000
833.80	-78.947
834.10	-128.571
834.40	-27.778
834.70	-12.500
835.00	-54.286
835.30	-38.235
835.60	-46.667
835.90	-60.000
836.20	-140.909
836.50	-52.000
836.80	-63.636
837.10	-51.852
837.40	-55.556
837.70	-143.750
838.00	-46.429
838.30	-60.870
838.60	-44.828
838.90	-85.714
839.19	-108.696
839.49	-225.000
839.79	-69.565
840.09	-131.250
840.39	-95.000
840.69	-35.484
840.99	-82.143
841.29	-126.667
841.59	-121.053
841.88	7.692
842.18	-69.231
842.48	-240.000
842.78	-110.000
843.08	-33.333
843.38	0.000
843.68	-122.222
843.97	-35.294
844.27	-100.000
844.57	-110.526
844.87	-220.000
845.17	-106.667
845.47	-19.048
845.76	-66.667
846.06	-200.000
846.36	-111.765
846.66	-53.846
846.96	-173.333
847.25	-117.647
847.55	-60.870
847.85	-70.000
848.15	-70.588
848.44	-200.000
848.74	-28.571
849.04	-37.500
849.34	-93.750
849.63	-65.217
849.93	1500.000
850.23	-86.667
850.53	-42.308
850.82	-181.818
851.12	-45.455
851.42	-172.727
851.71	-76.923
852.01	-120.000
852.31	-138.462
852.61	-63.158
852.90	-150.000
853.20	-55.556
853.50	-177.778
853.79	-85.714
854.09	-122.727
854.39	-141.667
854.68	-32.258
854.98	-65.385
855.28	-111.111
855.57	-64.286
855.87	-72.000
856.17	-59.091
856.46	-18.519
856.76	-94.444
857.05	-91.304
857.35	-91.667
857.65	-184.615
857.94	-71.429
858.24	-22.222
858.53	-100.000
858.83	-70.588
859.13	-82.353
859.42	-82.353
859.72	-128.571
860.01	-75.000
860.31	-133.333
860.60	-160.000
860.90	-46.667
861.20	-94.444
861.49	-92.308
861.79	-26.667
862.08	-61.538
862.38	-15.625
862.67	-58.824
862.97	-81.250
863.26	-200.000
863.56	-140.000
863.85	-190.909
864.15	-116.667
864.44	-566.667
864.74	-114.286
865.03	-87.500
865.33	-280.000
865.62	-70.968
865.92	-31.818
866.21	-43.478
866.51	-164.286
866.80	-380.000
867.10	-191.667
867.39	-200.000
867.69	2100.000
867.98	-285.714
868.27	-105.882
868.57	-3100.000
868.86	-170.000
869.16	-80.952
869.45	-50.000
869.75	-127.273
870.04	-314.286
870.33	-116.667
870.63	-285.714
870.92	-200.000
871.22	-300.000
871.51	-200.000
871.80	-700.000
872.10	-950.000
>>>>>End Processed Spectral Data<<<<<
