SpectraSuite Data File
++++++++++++++++++++++++++++++++++++
Date: Thu May 14 15:58:51 PDT 2015
User: schluterlab
Dark Spectrum Present: Yes
Reference Spectrum Present: Yes
Number of Sampled Component Spectra: 1
Spectrometers: USB2E3373
Integration Time (usec): 3000 (USB2E3373)
Spectra Averaged: 3 (USB2E3373)
Boxcar Smoothing: 0 (USB2E3373)
Correct for Electrical Dark: No (USB2E3373)
Strobe/Lamp Enabled: No (USB2E3373)
Correct for Detector Non-linearity: No (USB2E3373)
Correct for Stray Light: No (USB2E3373)
Number of Pixels in Processed Spectrum: 2048
>>>>>Begin Processed Spectral Data<<<<<
178.53	0.000
178.91	271.429
179.29	-3200.000
179.67	-2300.000
180.04	242.857
180.42	250.000
180.80	440.000
181.18	-2900.000
181.56	-2000.000
181.94	525.000
182.31	-350.000
182.69	366.667
183.07	-1300.000
183.45	525.000
183.83	-333.333
184.20	-833.333
184.58	1700.000
184.96	-650.000
185.34	-277.778
185.72	-260.000
186.09	311.111
186.47	1300.000
186.85	480.000
187.23	-233.333
187.61	-2400.000
187.98	320.000
188.36	450.000
188.74	-475.000
189.12	-500.000
189.49	-75.000
189.87	-300.000
190.25	-88.889
190.63	-420.000
191.00	-322.222
191.38	0.000
191.76	-675.000
192.14	-300.000
192.51	1100.000
192.89	-283.333
193.27	0.000
193.65	-300.000
194.02	-3100.000
194.40	-257.143
194.78	285.714
195.15	0.000
195.53	-190.909
195.91	0.000
196.29	-450.000
196.66	-146.154
197.04	-3000.000
197.42	-271.429
197.79	-900.000
198.17	-250.000
198.55	-214.286
198.92	-166.667
199.30	-262.500
199.68	-172.727
200.05	-85.714
200.43	-1250.000
200.81	428.571
201.18	0.000
201.56	388.889
201.94	0.000
202.31	833.333
202.69	-266.667
203.07	2200.000
203.44	-200.000
203.82	-475.000
204.19	-108.333
204.57	-416.667
204.95	-225.000
205.32	-2100.000
205.70	500.000
206.08	-316.667
206.45	-266.667
206.83	580.000
207.20	-250.000
207.58	-540.000
207.96	-366.667
208.33	-300.000
208.71	175.000
209.08	-300.000
209.46	0.000
209.84	416.667
210.21	1100.000
210.59	1050.000
210.96	833.333
211.34	-550.000
211.71	-262.500
212.09	-1800.000
212.46	0.000
212.84	1600.000
213.22	-540.000
213.59	-725.000
213.97	-160.000
214.34	-600.000
214.72	416.667
215.09	-550.000
215.47	0.000
215.84	414.286
216.22	1050.000
216.59	-380.000
216.97	-460.000
217.34	-500.000
217.72	-250.000
218.09	-500.000
218.47	-525.000
218.84	0.000
219.22	440.000
219.59	-94.118
219.97	-65.000
220.34	1650.000
220.72	-266.667
221.09	-107.692
221.47	-966.667
221.84	-150.000
222.22	-285.714
222.59	0.000
222.97	-175.000
223.34	-360.000
223.72	-2600.000
224.09	-600.000
224.46	-800.000
224.84	-240.000
225.21	-428.571
225.59	-850.000
225.96	-625.000
226.34	-92.308
226.71	500.000
227.08	-1250.000
227.46	-153.333
227.83	-500.000
228.21	-100.000
228.58	275.000
228.95	1100.000
229.33	-83.333
229.70	-130.000
230.08	-63.158
230.45	250.000
230.82	-633.333
231.20	-128.571
231.57	-91.667
231.95	-209.091
232.32	-136.364
232.69	-80.000
233.07	-500.000
233.44	-94.118
233.81	-210.000
234.19	-72.222
234.56	-104.545
234.93	-75.862
235.31	-121.053
235.68	-111.111
236.05	-155.000
236.43	-19.231
236.80	-36.000
237.17	-59.259
237.55	-33.333
237.92	-360.000
238.29	-90.323
238.67	-27.273
239.04	-47.222
239.41	-47.619
239.79	-54.348
240.16	-31.481
240.53	-47.826
240.91	-66.667
241.28	-37.705
241.65	-7.463
242.02	-13.514
242.40	-32.308
242.77	-28.000
243.14	-17.073
243.51	-40.789
243.89	-35.897
244.26	-12.871
244.63	-19.608
245.00	-22.430
245.38	-24.561
245.75	-30.973
246.12	-15.079
246.49	-10.853
246.87	-9.286
247.24	-10.596
247.61	-14.474
247.98	-10.067
248.36	-16.667
248.73	-16.564
249.10	-8.197
249.47	-4.478
249.84	-3.141
250.22	-11.399
250.59	-11.667
250.96	0.909
251.33	-14.796
251.70	-5.128
252.08	-5.000
252.45	-6.148
252.82	-7.438
253.19	-5.078
253.56	-2.662
253.94	-5.000
254.31	-2.273
254.68	-0.350
255.05	-1.629
255.42	-5.782
255.79	-6.472
256.16	-5.960
256.54	-5.298
256.91	-5.902
257.28	-5.246
257.65	-6.369
258.02	-6.785
258.39	-2.564
258.76	-3.364
259.14	-2.011
259.51	-4.323
259.88	-5.949
260.25	-3.611
260.62	-1.918
260.99	-2.186
261.36	0.268
261.73	-5.305
262.10	-6.868
262.47	-3.485
262.85	-1.263
263.22	-3.636
263.59	-5.526
263.96	-5.115
264.33	-8.951
264.70	-4.691
265.07	-1.909
265.44	0.680
265.81	-2.778
266.18	1.587
266.55	-3.571
266.92	-3.417
267.29	0.000
267.66	0.222
268.03	-4.803
268.40	-1.461
268.77	-5.695
269.14	-2.423
269.51	-2.412
269.88	-2.049
270.25	-0.402
270.62	-1.688
270.99	0.202
271.36	0.198
271.73	-0.393
272.10	-0.601
272.47	-3.006
272.84	-1.004
273.21	0.000
273.58	-2.016
273.95	-2.308
274.32	-2.662
274.69	-3.482
275.06	0.366
275.43	-1.294
275.80	-1.058
276.17	-3.333
276.54	-1.493
276.91	-1.252
277.28	0.000
277.65	-2.154
278.02	-1.471
278.39	-1.812
278.76	-0.351
279.13	-0.709
279.50	-0.515
279.87	-3.041
280.23	-2.289
280.60	-0.508
280.97	-0.987
281.34	-2.377
281.71	-0.169
282.08	-1.163
282.45	-0.164
282.82	-0.628
283.19	-3.231
283.56	-1.803
283.92	0.300
284.29	0.948
284.66	-0.985
285.03	-1.122
285.40	1.082
285.77	0.000
286.14	1.221
286.51	-0.761
286.87	-0.790
287.24	-0.151
287.61	-1.046
287.98	-1.360
288.35	-0.444
288.72	-0.592
289.08	0.000
289.45	-0.296
289.82	-1.807
290.19	-1.149
290.56	-0.423
290.93	-1.284
291.29	-1.377
291.66	-1.102
292.03	-0.950
292.40	0.544
292.77	-1.213
293.13	-0.677
293.50	-0.788
293.87	-1.477
294.24	0.400
294.60	-0.506
294.97	-2.013
295.34	-1.024
295.71	-0.631
296.08	-1.938
296.44	-1.225
296.81	0.000
297.18	-1.370
297.55	-0.354
297.91	0.237
298.28	-1.303
298.65	-0.119
299.02	-0.590
299.38	-0.458
299.75	1.168
300.12	-1.042
300.48	-0.461
300.85	-0.225
301.22	0.000
301.59	-0.685
301.95	-0.452
302.32	0.333
302.69	0.986
303.05	1.088
303.42	-0.554
303.79	-0.417
304.15	-0.105
304.52	-0.634
304.89	0.733
305.25	0.207
305.62	-0.731
305.99	-0.206
306.35	0.605
306.72	-0.310
307.09	-0.102
307.45	0.725
307.82	0.101
308.19	0.000
308.55	1.832
308.92	0.682
309.29	0.958
309.65	0.780
310.02	-0.495
310.38	-0.394
310.75	0.291
311.12	1.726
311.48	-0.782
311.85	0.570
312.22	0.000
312.58	2.254
312.95	0.574
313.31	1.716
313.68	2.564
314.05	2.258
314.41	2.459
314.78	2.452
315.14	2.087
315.51	2.770
315.87	2.700
316.24	3.105
316.61	3.819
316.97	2.262
317.34	2.646
317.70	3.493
318.07	3.968
318.43	4.592
318.80	4.431
319.16	4.464
319.53	4.713
319.89	4.382
320.26	4.893
320.62	4.255
320.99	5.633
321.35	5.176
321.72	6.419
322.08	4.689
322.45	6.233
322.81	6.588
323.18	5.487
323.54	6.379
323.91	7.918
324.27	7.745
324.64	8.564
325.00	7.960
325.37	8.354
325.73	8.926
326.10	9.408
326.46	10.505
326.83	10.248
327.19	10.236
327.56	10.830
327.92	10.858
328.29	10.806
328.65	9.799
329.01	10.745
329.38	12.384
329.74	12.586
330.11	11.473
330.47	12.721
330.84	12.059
331.20	13.083
331.56	12.392
331.93	13.138
332.29	13.559
332.66	13.704
333.02	12.898
333.38	12.248
333.75	13.805
334.11	12.177
334.48	13.861
334.84	13.764
335.20	13.770
335.57	13.912
335.93	14.215
336.29	12.646
336.66	13.373
337.02	14.632
337.38	14.286
337.75	13.388
338.11	14.214
338.47	14.309
338.84	13.536
339.20	12.468
339.56	13.262
339.93	14.532
340.29	13.849
340.65	13.544
341.02	14.605
341.38	14.228
341.74	13.156
342.11	14.481
342.47	13.503
342.83	13.849
343.20	13.655
343.56	14.034
343.92	13.611
344.28	13.984
344.65	15.194
345.01	14.743
345.37	13.764
345.73	14.186
346.10	14.275
346.46	14.636
346.82	14.307
347.19	14.820
347.55	14.871
347.91	13.819
348.27	12.443
348.63	14.699
349.00	14.094
349.36	14.275
349.72	14.509
350.08	15.007
350.45	13.992
350.81	13.952
351.17	14.361
351.53	13.950
351.89	14.655
352.26	14.030
352.62	14.254
352.98	13.817
353.34	12.845
353.70	13.867
354.07	14.382
354.43	14.275
354.79	15.034
355.15	14.202
355.51	14.839
355.87	13.837
356.24	13.992
356.60	14.191
356.96	13.343
357.32	13.309
357.68	14.422
358.04	13.922
358.40	14.104
358.77	15.643
359.13	13.516
359.49	14.052
359.85	13.053
360.21	14.491
360.57	13.496
360.93	14.175
361.29	14.947
361.66	14.482
362.02	15.449
362.38	13.633
362.74	14.595
363.10	14.580
363.46	14.197
363.82	13.423
364.18	15.130
364.54	14.385
364.90	13.512
365.26	13.655
365.62	14.333
365.98	14.227
366.35	14.161
366.71	15.442
367.07	14.005
367.43	13.920
367.79	14.864
368.15	15.117
368.51	14.953
368.87	14.370
369.23	13.867
369.59	14.344
369.95	14.740
370.31	14.450
370.67	14.512
371.03	14.197
371.39	14.036
371.75	14.030
372.11	14.295
372.47	14.150
372.83	14.398
373.19	15.677
373.55	13.889
373.91	13.838
374.27	15.265
374.63	14.614
374.99	14.788
375.35	14.481
375.71	14.645
376.07	14.719
376.42	14.924
376.78	14.667
377.14	14.223
377.50	14.105
377.86	15.456
378.22	14.970
378.58	13.793
378.94	14.906
379.30	14.236
379.66	15.344
380.02	14.426
380.38	14.862
380.74	15.211
381.09	15.157
381.45	15.114
381.81	15.691
382.17	14.311
382.53	15.497
382.89	14.898
383.25	14.478
383.61	13.889
383.97	14.959
384.32	15.132
384.68	13.863
385.04	15.269
385.40	15.262
385.76	15.299
386.12	13.944
386.48	14.353
386.83	14.422
387.19	13.615
387.55	13.556
387.91	14.555
388.27	15.069
388.62	14.490
388.98	13.762
389.34	14.260
389.70	14.759
390.06	15.038
390.42	14.277
390.77	15.172
391.13	14.202
391.49	15.157
391.85	14.303
392.20	14.176
392.56	15.594
392.92	14.395
393.28	14.981
393.64	14.358
393.99	14.468
394.35	14.194
394.71	14.790
395.07	13.413
395.42	14.563
395.78	14.991
396.14	14.736
396.50	15.083
396.85	14.729
397.21	13.846
397.57	14.429
397.92	14.376
398.28	13.471
398.64	14.302
399.00	13.508
399.35	14.555
399.71	13.478
400.07	14.149
400.42	14.785
400.78	13.889
401.14	13.603
401.49	14.213
401.85	14.070
402.21	14.426
402.57	14.202
402.92	14.539
403.28	12.822
403.63	13.484
403.99	14.311
404.35	13.587
404.70	14.334
405.06	13.587
405.42	14.403
405.77	14.449
406.13	13.668
406.49	13.063
406.84	13.518
407.20	13.192
407.55	12.417
407.91	13.199
408.27	13.428
408.62	14.194
408.98	13.987
409.34	12.903
409.69	13.350
410.05	13.892
410.40	13.921
410.76	13.460
411.11	13.676
411.47	14.251
411.83	13.639
412.18	13.916
412.54	14.345
412.89	13.504
413.25	12.698
413.60	13.957
413.96	13.403
414.31	13.428
414.67	13.417
415.03	12.431
415.38	12.989
415.74	13.500
416.09	13.325
416.45	13.964
416.80	13.770
417.16	13.410
417.51	14.072
417.87	12.937
418.22	13.533
418.58	11.834
418.93	13.620
419.29	12.947
419.64	12.545
420.00	12.938
420.35	13.195
420.71	13.383
421.06	12.421
421.42	12.672
421.77	12.493
422.12	13.901
422.48	13.006
422.83	13.143
423.19	13.475
423.54	13.164
423.90	13.805
424.25	12.747
424.61	12.916
424.96	13.289
425.31	14.066
425.67	13.366
426.02	13.835
426.38	13.490
426.73	12.835
427.09	14.072
427.44	12.944
427.79	12.604
428.15	12.158
428.50	12.921
428.85	12.916
429.21	12.979
429.56	13.475
429.92	13.759
430.27	13.253
430.62	12.799
430.98	13.133
431.33	13.343
431.68	12.596
432.04	13.408
432.39	13.712
432.74	12.842
433.10	13.359
433.45	12.040
433.80	12.607
434.16	12.913
434.51	13.515
434.86	13.246
435.22	12.912
435.57	13.738
435.92	12.910
436.28	12.571
436.63	13.053
436.98	12.829
437.34	12.514
437.69	12.328
438.04	13.115
438.39	12.866
438.75	12.728
439.10	13.689
439.45	13.527
439.81	12.881
440.16	12.869
440.51	13.322
440.86	12.896
441.22	13.558
441.57	13.994
441.92	12.124
442.27	12.778
442.63	13.313
442.98	12.967
443.33	13.098
443.68	13.429
444.03	13.594
444.39	12.483
444.74	13.272
445.09	13.229
445.44	13.330
445.79	13.314
446.15	12.590
446.50	12.920
446.85	13.570
447.20	13.395
447.55	12.552
447.91	12.723
448.26	12.526
448.61	13.177
448.96	13.519
449.31	12.990
449.66	12.745
450.02	12.711
450.37	13.586
450.72	12.756
451.07	13.326
451.42	12.940
451.77	12.563
452.12	14.052
452.47	12.299
452.83	13.457
453.18	12.901
453.53	13.153
453.88	12.424
454.23	13.729
454.58	13.059
454.93	12.621
455.28	12.944
455.63	12.905
455.98	13.240
456.34	12.721
456.69	13.404
457.04	12.825
457.39	13.193
457.74	13.031
458.09	12.795
458.44	14.009
458.79	13.667
459.14	13.057
459.49	12.620
459.84	12.959
460.19	12.715
460.54	13.231
460.89	12.599
461.24	12.816
461.59	13.282
461.94	12.721
462.29	12.822
462.64	12.311
462.99	12.367
463.34	13.433
463.69	12.778
464.04	12.729
464.39	12.332
464.74	13.170
465.09	12.514
465.44	12.876
465.79	12.586
466.14	12.402
466.49	12.895
466.84	12.397
467.19	13.006
467.54	12.221
467.89	11.897
468.24	12.521
468.59	11.928
468.94	11.888
469.29	12.118
469.64	11.507
469.99	11.600
470.34	12.129
470.68	11.893
471.03	12.967
471.38	12.034
471.73	12.094
472.08	12.944
472.43	11.800
472.78	12.846
473.13	11.884
473.48	13.233
473.83	12.014
474.17	12.544
474.52	12.267
474.87	12.735
475.22	11.887
475.57	11.942
475.92	12.494
476.27	12.300
476.61	12.565
476.96	12.044
477.31	12.525
477.66	12.277
478.01	12.506
478.36	11.914
478.70	11.773
479.05	12.117
479.40	11.797
479.75	12.104
480.10	12.080
480.45	12.170
480.79	11.973
481.14	11.765
481.49	11.495
481.84	12.489
482.19	11.957
482.53	12.243
482.88	12.406
483.23	12.050
483.58	11.965
483.92	11.348
484.27	11.092
484.62	12.129
484.97	11.897
485.31	11.369
485.66	11.504
486.01	11.210
486.36	11.434
486.70	11.866
487.05	12.242
487.40	12.166
487.75	12.087
488.09	12.060
488.44	11.467
488.79	12.175
489.13	11.477
489.48	11.301
489.83	11.187
490.17	10.895
490.52	11.207
490.87	10.871
491.22	11.568
491.56	11.945
491.91	11.949
492.26	11.856
492.60	11.631
492.95	10.838
493.30	11.161
493.64	10.819
493.99	11.009
494.34	10.845
494.68	11.306
495.03	11.498
495.37	10.697
495.72	11.655
496.07	10.999
496.41	11.068
496.76	11.093
497.11	10.701
497.45	10.876
497.80	11.195
498.14	11.066
498.49	11.167
498.84	10.512
499.18	11.021
499.53	10.852
499.87	10.989
500.22	10.419
500.56	11.021
500.91	10.526
501.26	11.727
501.60	10.650
501.95	10.769
502.29	10.443
502.64	10.756
502.98	10.397
503.33	10.022
503.67	9.900
504.02	10.158
504.36	10.456
504.71	10.565
505.06	10.596
505.40	10.146
505.75	10.474
506.09	10.451
506.44	11.374
506.78	10.917
507.13	10.788
507.47	10.801
507.82	10.559
508.16	10.803
508.51	10.127
508.85	10.250
509.19	10.753
509.54	11.335
509.88	10.296
510.23	10.588
510.57	10.440
510.92	10.305
511.26	10.197
511.61	9.995
511.95	10.395
512.30	10.389
512.64	10.095
512.98	10.605
513.33	10.131
513.67	10.097
514.02	9.555
514.36	10.793
514.70	10.052
515.05	9.958
515.39	10.131
515.74	11.135
516.08	9.931
516.42	10.989
516.77	10.042
517.11	9.799
517.46	10.233
517.80	10.903
518.14	10.011
518.49	10.358
518.83	9.739
519.17	9.478
519.52	10.168
519.86	9.926
520.20	10.277
520.55	9.912
520.89	9.628
521.23	10.162
521.58	10.452
521.92	9.858
522.26	9.622
522.61	9.606
522.95	8.939
523.29	9.425
523.64	9.585
523.98	9.983
524.32	10.487
524.66	9.106
525.01	10.136
525.35	9.190
525.69	9.165
526.04	9.414
526.38	9.023
526.72	9.054
527.06	9.560
527.41	9.796
527.75	10.392
528.09	9.150
528.43	9.888
528.78	8.786
529.12	8.773
529.46	9.893
529.80	9.382
530.15	8.870
530.49	8.660
530.83	9.327
531.17	8.662
531.51	8.484
531.86	8.714
532.20	9.268
532.54	9.396
532.88	8.606
533.22	9.252
533.57	8.829
533.91	9.484
534.25	8.988
534.59	9.368
534.93	8.998
535.27	8.958
535.62	9.267
535.96	8.600
536.30	8.696
536.64	9.369
536.98	9.410
537.32	8.951
537.66	8.796
538.01	8.882
538.35	8.465
538.69	8.233
539.03	9.319
539.37	8.775
539.71	8.589
540.05	8.813
540.39	8.252
540.73	7.954
541.07	8.645
541.42	8.742
541.76	8.244
542.10	8.444
542.44	7.978
542.78	9.002
543.12	9.178
543.46	9.096
543.80	7.734
544.14	8.857
544.48	9.338
544.82	8.677
545.16	8.885
545.50	8.928
545.84	7.471
546.18	10.247
546.52	8.089
546.86	8.742
547.20	8.206
547.54	8.240
547.88	8.981
548.22	8.246
548.56	8.250
548.90	7.761
549.24	8.875
549.58	8.076
549.92	7.908
550.26	8.738
550.60	9.062
550.94	8.021
551.28	8.515
551.62	8.423
551.96	8.220
552.30	8.859
552.64	8.525
552.98	9.233
553.32	7.974
553.66	8.424
554.00	8.260
554.34	8.623
554.68	7.811
555.02	8.147
555.36	8.744
555.69	7.816
556.03	8.071
556.37	8.824
556.71	7.546
557.05	7.732
557.39	7.432
557.73	8.719
558.07	7.351
558.41	8.837
558.75	7.640
559.08	7.237
559.42	6.722
559.76	8.752
560.10	8.305
560.44	8.377
560.78	8.250
561.12	8.251
561.45	8.212
561.79	8.059
562.13	7.763
562.47	7.830
562.81	7.278
563.15	7.008
563.48	7.147
563.82	8.102
564.16	7.389
564.50	7.569
564.84	7.965
565.17	8.529
565.51	7.192
565.85	7.126
566.19	7.258
566.52	7.080
566.86	7.357
567.20	7.504
567.54	7.169
567.88	7.390
568.21	8.251
568.55	7.290
568.89	7.944
569.23	7.562
569.56	7.542
569.90	7.662
570.24	7.319
570.57	7.377
570.91	7.103
571.25	7.434
571.59	7.737
571.92	7.356
572.26	7.464
572.60	7.316
572.93	7.459
573.27	7.277
573.61	7.755
573.95	7.259
574.28	7.475
574.62	7.299
574.96	6.925
575.29	7.314
575.63	7.138
575.97	7.305
576.30	7.032
576.64	7.277
576.98	6.993
577.31	7.140
577.65	7.284
577.98	7.248
578.32	6.839
578.66	7.030
578.99	7.024
579.33	7.492
579.67	7.253
580.00	7.350
580.34	7.199
580.67	7.017
581.01	7.248
581.35	7.130
581.68	7.081
582.02	6.987
582.35	7.350
582.69	7.133
583.02	7.457
583.36	7.065
583.70	6.998
584.03	6.839
584.37	7.307
584.70	6.870
585.04	7.022
585.37	6.938
585.71	7.249
586.04	6.847
586.38	7.033
586.72	6.744
587.05	6.549
587.39	6.881
587.72	6.842
588.06	7.302
588.39	7.045
588.73	7.037
589.06	7.111
589.40	6.638
589.73	7.230
590.07	6.466
590.40	7.235
590.73	6.433
591.07	7.111
591.40	6.065
591.74	6.955
592.07	6.943
592.41	6.861
592.74	6.816
593.08	7.261
593.41	7.437
593.75	6.839
594.08	6.907
594.41	6.987
594.75	6.676
595.08	6.258
595.42	6.396
595.75	7.071
596.09	6.540
596.42	6.879
596.75	7.179
597.09	6.828
597.42	6.635
597.75	6.546
598.09	6.667
598.42	6.916
598.76	6.190
599.09	6.479
599.42	6.470
599.76	6.504
600.09	6.874
600.42	7.074
600.76	6.638
601.09	6.704
601.42	6.522
601.76	6.759
602.09	7.184
602.42	6.434
602.76	6.458
603.09	6.314
603.42	5.997
603.76	6.202
604.09	7.239
604.42	6.716
604.76	6.583
605.09	6.342
605.42	6.021
605.75	6.115
606.09	6.271
606.42	6.385
606.75	5.960
607.09	6.068
607.42	6.859
607.75	6.331
608.08	6.472
608.42	6.288
608.75	6.716
609.08	5.900
609.41	6.528
609.75	5.893
610.08	6.596
610.41	6.500
610.74	6.513
611.07	5.728
611.41	6.951
611.74	6.744
612.07	6.498
612.40	6.559
612.73	6.406
613.07	6.308
613.40	6.064
613.73	6.163
614.06	5.937
614.39	6.171
614.72	6.162
615.06	6.160
615.39	6.332
615.72	6.682
616.05	6.265
616.38	6.509
616.71	6.792
617.05	5.698
617.38	6.581
617.71	6.641
618.04	6.044
618.37	6.721
618.70	6.052
619.03	6.213
619.36	5.487
619.69	5.701
620.03	5.964
620.36	5.460
620.69	6.292
621.02	6.693
621.35	6.241
621.68	6.869
622.01	5.552
622.34	5.370
622.67	5.842
623.00	5.061
623.33	5.972
623.66	6.550
623.99	5.530
624.32	7.147
624.65	5.985
624.99	5.852
625.32	6.924
625.65	5.394
625.98	5.492
626.31	5.599
626.64	6.667
626.97	4.651
627.30	4.632
627.63	5.326
627.96	6.381
628.29	5.447
628.62	4.786
628.95	4.645
629.28	4.248
629.61	5.556
629.94	5.188
630.26	5.339
630.59	5.095
630.92	5.108
631.25	5.725
631.58	6.026
631.91	5.904
632.24	4.227
632.57	5.408
632.90	5.216
633.23	5.204
633.56	4.286
633.89	4.959
634.22	5.613
634.55	5.115
634.88	4.978
635.20	6.136
635.53	5.198
635.86	5.309
636.19	5.832
636.52	5.802
636.85	5.414
637.18	5.405
637.51	4.516
637.83	5.980
638.16	5.645
638.49	4.577
638.82	3.946
639.15	3.551
639.48	7.044
639.81	6.351
640.13	5.418
640.46	5.212
640.79	2.083
641.12	5.342
641.45	4.266
641.77	6.547
642.10	3.675
642.43	5.851
642.76	5.691
643.09	3.151
643.41	4.062
643.74	4.966
644.07	5.241
644.40	5.658
644.73	4.644
645.05	2.937
645.38	4.317
645.71	3.812
646.04	5.882
646.36	4.964
646.69	5.061
647.02	5.199
647.35	6.718
647.67	4.831
648.00	4.618
648.33	3.303
648.66	5.849
648.98	4.762
649.31	4.601
649.64	6.375
649.96	5.703
650.29	2.921
650.62	3.819
650.94	3.754
651.27	2.844
651.60	3.216
651.92	4.103
652.25	4.486
652.58	4.952
652.90	3.198
653.23	5.211
653.56	2.140
653.88	5.899
654.21	2.958
654.54	3.179
654.86	4.958
655.19	4.141
655.52	4.549
655.84	5.932
656.17	6.913
656.49	9.507
656.82	10.639
657.15	8.377
657.47	6.480
657.80	4.741
658.13	3.859
658.45	4.935
658.78	5.821
659.10	5.667
659.43	5.536
659.75	4.945
660.08	4.930
660.41	4.467
660.73	3.193
661.06	1.762
661.38	5.104
661.71	3.793
662.03	3.351
662.36	3.936
662.68	3.189
663.01	3.009
663.33	4.537
663.66	6.960
663.98	3.077
664.31	5.066
664.63	-0.385
664.96	3.085
665.28	1.996
665.61	5.245
665.93	2.143
666.26	1.971
666.58	1.845
666.91	4.860
667.23	3.810
667.56	2.761
667.88	3.600
668.21	0.781
668.53	2.124
668.86	2.161
669.18	0.815
669.50	5.368
669.83	3.600
670.15	4.134
670.48	4.563
670.80	3.633
671.13	3.025
671.45	4.134
671.77	4.331
672.10	2.500
672.42	4.369
672.75	3.379
673.07	2.687
673.39	1.233
673.72	4.530
674.04	3.448
674.37	3.220
674.69	4.762
675.01	1.333
675.34	1.718
675.66	3.558
675.98	4.291
676.31	2.930
676.63	2.281
676.95	2.682
677.28	4.032
677.60	1.181
677.92	2.303
678.25	4.388
678.57	2.135
678.89	5.631
679.22	5.052
679.54	1.709
679.86	1.525
680.18	2.488
680.51	2.830
680.83	4.255
681.15	1.897
681.48	2.245
681.80	3.454
682.12	3.671
682.44	3.005
682.77	3.369
683.09	2.273
683.41	3.295
683.73	5.123
684.06	3.321
684.38	1.968
684.70	2.513
685.02	2.410
685.34	1.331
685.67	1.893
685.99	3.528
686.31	3.634
686.63	2.686
686.96	3.628
687.28	4.235
687.60	0.842
687.92	2.251
688.24	4.341
688.56	2.069
688.89	3.811
689.21	2.544
689.53	0.588
689.85	0.394
690.17	4.630
690.49	3.984
690.82	0.396
691.14	1.417
691.46	0.382
691.78	3.131
692.10	1.284
692.42	1.429
692.74	1.815
693.06	-0.556
693.39	3.605
693.71	0.188
694.03	1.115
694.35	2.667
694.67	2.053
694.99	1.915
695.31	2.208
695.63	3.463
695.95	1.242
696.27	0.440
696.59	2.876
696.91	2.928
697.23	1.319
697.56	0.815
697.88	1.894
698.20	1.130
698.52	4.735
698.84	4.366
699.16	3.061
699.48	2.092
699.80	3.404
700.12	1.528
700.44	1.152
700.76	0.000
701.08	0.484
701.40	0.259
701.72	1.244
702.04	4.545
702.36	-2.094
702.68	-0.489
703.00	0.733
703.32	0.493
703.64	1.222
703.96	1.432
704.28	0.491
704.60	1.772
704.91	1.531
705.23	1.096
705.55	-3.343
705.87	1.212
706.19	-0.307
706.51	-3.916
706.83	-3.746
707.15	-2.381
707.47	0.234
707.79	0.437
708.11	-0.424
708.43	-0.430
708.74	-0.893
709.06	2.088
709.38	1.643
709.70	3.474
710.02	-1.292
710.34	1.064
710.66	-0.279
710.98	1.639
711.29	-0.275
711.61	0.847
711.93	0.285
712.25	0.000
712.57	2.655
712.89	-0.588
713.20	-0.296
713.52	0.289
713.84	-1.393
714.16	2.368
714.48	-1.031
714.80	3.377
715.11	-0.262
715.43	0.265
715.75	0.789
716.07	-1.381
716.39	1.366
716.70	-1.506
717.02	-0.328
717.34	-2.787
717.66	-0.671
717.97	-3.425
718.29	-1.375
718.61	-3.289
718.93	-1.618
719.24	0.000
719.56	0.307
719.88	1.802
720.20	-2.581
720.51	-2.795
720.83	0.313
721.15	-1.974
721.46	-4.795
721.78	-1.333
722.10	-2.589
722.42	-3.691
722.73	-2.258
723.05	-1.053
723.37	-1.042
723.68	1.792
724.00	-2.166
724.32	-5.282
724.63	-2.797
724.95	1.773
725.27	-0.697
725.58	-6.360
725.90	0.345
726.22	-0.627
726.53	-0.649
726.85	-0.629
727.16	1.208
727.48	2.446
727.80	-2.318
728.11	-0.353
728.43	-1.010
728.74	-3.344
729.06	-1.325
729.38	-0.649
729.69	-2.349
730.01	1.488
730.32	-1.818
730.64	-1.258
730.96	-3.106
731.27	2.514
731.59	1.923
731.90	-0.779
732.22	-0.521
732.53	-2.762
732.85	-0.286
733.16	-2.639
733.48	-3.659
733.80	0.557
734.11	-1.140
734.43	-0.811
734.74	2.025
735.06	0.754
735.37	-0.541
735.69	-0.541
736.00	1.977
736.32	1.348
736.63	-0.833
736.95	-2.299
737.26	0.000
737.58	-2.727
737.89	2.059
738.21	-4.281
738.52	-4.262
738.83	-0.341
739.15	-1.773
739.46	-0.680
739.78	-1.534
740.09	0.860
740.41	0.583
740.72	-0.667
741.04	2.265
741.35	1.053
741.66	-1.569
741.98	-1.230
742.29	-4.184
742.61	-5.263
742.92	-1.154
743.23	1.444
743.55	-4.264
743.86	-3.200
744.18	-6.198
744.49	-4.219
744.80	0.412
745.12	-1.688
745.43	0.407
745.74	-6.897
746.06	-5.085
746.37	-1.688
746.68	3.252
747.00	-5.417
747.31	-5.150
747.62	0.769
747.94	0.000
748.25	-2.008
748.56	-5.714
748.88	-2.564
749.19	-0.431
749.50	-6.926
749.82	1.606
750.13	-0.356
750.44	-3.333
750.75	-2.154
751.07	-1.231
751.38	-0.631
751.69	-1.917
752.01	-0.324
752.32	-1.307
752.63	-4.082
752.94	-1.038
753.26	-4.461
753.57	-1.481
753.88	-1.124
754.19	-0.643
754.51	0.000
754.82	-1.608
755.13	-0.984
755.44	-3.413
755.75	-0.987
756.07	1.194
756.38	-1.258
756.69	1.205
757.00	-2.770
757.31	-2.732
757.63	-4.859
757.94	-0.235
758.25	0.903
758.56	1.089
758.87	0.909
759.18	-1.067
759.50	1.133
759.81	0.840
760.12	0.539
760.43	-1.562
760.74	-0.493
761.05	1.500
761.36	-1.687
761.67	0.761
761.99	-2.973
762.30	0.305
762.61	-3.630
762.92	-4.851
763.23	-0.375
763.54	-0.360
763.85	-0.344
764.16	-3.367
764.47	-1.761
764.78	-2.556
765.10	-2.933
765.41	-0.256
765.72	0.000
766.03	0.565
766.34	-2.821
766.65	-5.575
766.96	-5.578
767.27	-1.843
767.58	-12.935
767.89	-2.404
768.20	-0.469
768.51	0.463
768.82	-1.205
769.13	-4.167
769.44	-6.923
769.75	1.083
770.06	-4.231
770.37	2.362
770.68	-2.553
770.99	-7.692
771.30	0.370
771.61	-1.521
771.92	-5.185
772.23	-1.619
772.54	-4.630
772.85	-0.922
773.16	0.476
773.47	-8.466
773.78	-9.189
774.09	-9.091
774.39	3.000
774.70	-4.918
775.01	-10.976
775.32	-8.824
775.63	-7.362
775.94	-15.287
776.25	-7.097
776.56	-3.846
776.87	-7.483
777.18	-7.586
777.48	-13.287
777.79	-14.189
778.10	-14.706
778.41	-8.333
778.72	-7.586
779.03	-5.556
779.34	-4.848
779.65	-2.591
779.95	-1.667
780.26	-5.114
780.57	-8.387
780.88	1.449
781.19	-1.935
781.50	-5.294
781.80	-3.763
782.11	-8.995
782.42	-9.091
782.73	-7.784
783.04	-8.939
783.34	-13.939
783.65	-8.497
783.96	-6.211
784.27	-4.762
784.57	-10.596
784.88	-9.286
785.19	-13.386
785.50	-6.299
785.81	-10.526
786.11	-5.385
786.42	-15.827
786.73	-9.353
787.04	-6.767
787.34	-13.115
787.65	-11.200
787.96	-14.179
788.26	-6.294
788.57	-10.490
788.88	-4.605
789.19	-4.575
789.49	-4.795
789.80	-3.546
790.11	-8.661
790.41	-16.406
790.72	-14.407
791.03	-21.359
791.33	-6.957
791.64	-8.772
791.95	-16.071
792.25	-18.095
792.56	-10.714
792.87	-20.833
793.17	-6.250
793.48	-22.917
793.79	-30.120
794.09	-22.018
794.40	-29.358
794.70	-10.204
795.01	-9.091
795.32	-11.644
795.62	-12.676
795.93	-12.121
796.23	-8.197
796.54	-20.536
796.85	-18.085
797.15	-19.565
797.46	-24.658
797.76	-21.250
798.07	-19.565
798.37	-24.742
798.68	-27.273
798.99	-8.046
799.29	-16.854
799.60	-12.766
799.90	-20.482
800.21	-27.692
800.51	-25.373
800.82	-32.353
801.12	-24.658
801.43	-41.176
801.73	-40.678
802.04	-28.788
802.34	-56.667
802.65	-28.814
802.95	-29.851
803.26	-40.678
803.56	-16.438
803.87	-22.857
804.17	-39.726
804.48	-49.123
804.78	-30.556
805.09	-44.828
805.39	-21.622
805.70	-33.803
806.00	-13.415
806.30	-14.458
806.61	-27.397
806.91	-7.692
807.22	-20.000
807.52	-13.793
807.83	-12.500
808.13	-16.867
808.43	-13.483
808.74	-18.750
809.04	-27.941
809.35	-30.667
809.65	-25.714
809.95	-13.699
810.26	-43.860
810.56	-32.759
810.86	-17.647
811.17	-21.053
811.47	-29.508
811.77	-48.889
812.08	-25.424
812.38	-26.667
812.69	-27.586
812.99	-41.509
813.29	-74.359
813.59	-46.000
813.90	-29.825
814.20	-36.364
814.50	-8.451
814.81	-11.538
815.11	-37.705
815.41	-14.925
815.72	-3.448
816.02	-32.143
816.32	-11.111
816.62	-52.273
816.93	-35.556
817.23	-24.074
817.53	-38.298
817.84	-14.286
818.14	-44.118
818.44	-42.857
818.74	-46.667
819.04	-58.974
819.35	-80.000
819.65	-88.462
819.95	-18.868
820.25	-42.222
820.56	-83.333
820.86	-100.000
821.16	-69.231
821.46	-44.186
821.76	-50.000
822.07	-32.143
822.37	-52.174
822.67	-42.553
822.97	-72.973
823.27	-50.000
823.57	-30.612
823.88	-48.889
824.18	-25.000
824.48	-66.667
824.78	-84.000
825.08	-48.485
825.38	-8.889
825.69	-14.894
825.99	-47.222
826.29	-82.857
826.59	-53.846
826.89	-44.186
827.19	-40.000
827.49	-55.882
827.79	-27.083
828.09	-48.649
828.39	-70.000
828.70	-56.098
829.00	-32.558
829.30	-110.714
829.60	-44.118
829.90	-45.652
830.20	-77.143
830.50	-75.862
830.80	-122.222
831.10	-92.308
831.40	-58.824
831.70	-90.476
832.00	-35.484
832.30	-217.647
832.60	-79.167
832.90	-207.692
833.20	-100.000
833.50	-100.000
833.80	-121.053
834.10	-161.905
834.40	-38.889
834.70	-53.125
835.00	-91.429
835.30	-61.765
835.60	-30.000
835.90	-64.000
836.20	-118.182
836.50	-80.000
836.80	-60.606
837.10	-81.481
837.40	-66.667
837.70	-200.000
838.00	-53.571
838.30	-91.304
838.60	-44.828
838.90	-192.857
839.19	-139.130
839.49	-183.333
839.79	-91.304
840.09	-181.250
840.39	-105.000
840.69	-41.935
840.99	-85.714
841.29	-133.333
841.59	-105.263
841.88	-7.692
842.18	-57.692
842.48	-270.000
842.78	-70.000
843.08	-30.000
843.38	-38.710
843.68	-188.889
843.97	-23.529
844.27	-93.750
844.57	-142.105
844.87	-330.000
845.17	-193.333
845.47	-90.476
845.76	-95.238
846.06	-344.444
846.36	-105.882
846.66	-88.462
846.96	-233.333
847.25	-170.588
847.55	-56.522
847.85	-90.000
848.15	-100.000
848.44	-209.091
848.74	-85.714
849.04	-83.333
849.34	-137.500
849.63	-52.174
849.93	1050.000
850.23	-140.000
850.53	-11.538
850.82	-145.455
851.12	-54.545
851.42	-200.000
851.71	-53.846
852.01	-150.000
852.31	-123.077
852.61	-100.000
852.90	-200.000
853.20	-66.667
853.50	-277.778
853.79	-71.429
854.09	-95.455
854.39	-250.000
854.68	-80.645
854.98	-53.846
855.28	-77.778
855.57	-78.571
855.87	-112.000
856.17	-104.545
856.46	-70.370
856.76	-116.667
857.05	-69.565
857.35	-91.667
857.65	-161.538
857.94	-71.429
858.24	-55.556
858.53	-60.870
858.83	-94.118
859.13	-111.765
859.42	-82.353
859.72	-114.286
860.01	-110.000
860.31	-266.667
860.60	-230.000
860.90	-140.000
861.20	-105.556
861.49	-92.308
861.79	-56.667
862.08	-207.692
862.38	-34.375
862.67	-117.647
862.97	-118.750
863.26	-300.000
863.56	-120.000
863.85	-181.818
864.15	-55.556
864.44	-666.667
864.74	-171.429
865.03	-125.000
865.33	-270.000
865.62	-41.935
865.92	-90.909
866.21	-60.870
866.51	-135.714
866.80	-500.000
867.10	-166.667
867.39	-216.667
867.69	3300.000
867.98	-428.571
868.27	-70.588
868.57	-3100.000
868.86	-160.000
869.16	-76.190
869.45	-62.500
869.75	-181.818
870.04	-314.286
870.33	-200.000
870.63	-514.286
870.92	-400.000
871.22	-337.500
871.51	-254.545
871.80	-1133.333
872.10	-1150.000
>>>>>End Processed Spectral Data<<<<<
