SpectraSuite Data File
++++++++++++++++++++++++++++++++++++
Date: Thu May 14 15:50:34 PDT 2015
User: schluterlab
Dark Spectrum Present: Yes
Reference Spectrum Present: Yes
Number of Sampled Component Spectra: 1
Spectrometers: USB2E3373
Integration Time (usec): 3000 (USB2E3373)
Spectra Averaged: 3 (USB2E3373)
Boxcar Smoothing: 0 (USB2E3373)
Correct for Electrical Dark: No (USB2E3373)
Strobe/Lamp Enabled: No (USB2E3373)
Correct for Detector Non-linearity: No (USB2E3373)
Correct for Stray Light: No (USB2E3373)
Number of Pixels in Processed Spectrum: 2048
>>>>>Begin Processed Spectral Data<<<<<
178.53	0.000
178.91	700.000
179.29	-4900.000
179.67	-5500.000
180.04	428.571
180.42	380.000
180.80	920.000
181.18	-5100.000
181.56	-3600.000
181.94	1175.000
182.31	-1225.000
182.69	1466.667
183.07	-2700.000
183.45	1275.000
183.83	-683.333
184.20	-1466.667
184.58	4900.000
184.96	-1125.000
185.34	-477.778
185.72	-580.000
186.09	566.667
186.47	2000.000
186.85	1040.000
187.23	-566.667
187.61	-5100.000
187.98	720.000
188.36	1075.000
188.74	-1150.000
189.12	-1300.000
189.49	-231.250
189.87	-537.500
190.25	-433.333
190.63	-760.000
191.00	-555.556
191.38	0.000
191.76	-1225.000
192.14	-650.000
192.51	2350.000
192.89	-616.667
193.27	0.000
193.65	-585.714
194.02	-4900.000
194.40	-500.000
194.78	528.571
195.15	0.000
195.53	-381.818
195.91	0.000
196.29	-1025.000
196.66	-338.462
197.04	-4800.000
197.42	-585.714
197.79	-1950.000
198.17	-550.000
198.55	-614.286
198.92	-366.667
199.30	-525.000
199.68	-363.636
200.05	-300.000
200.43	-2250.000
200.81	657.143
201.18	0.000
201.56	600.000
201.94	0.000
202.31	1600.000
202.69	-533.333
203.07	4200.000
203.44	-466.667
203.82	-1150.000
204.19	-300.000
204.57	-633.333
204.95	-450.000
205.32	-4500.000
205.70	1000.000
206.08	-766.667
206.45	-650.000
206.83	1020.000
207.20	-633.333
207.58	-900.000
207.96	-816.667
208.33	-533.333
208.71	425.000
209.08	-616.667
209.46	0.000
209.84	800.000
210.21	2000.000
210.59	1950.000
210.96	1633.333
211.34	-1050.000
211.71	-487.500
212.09	-4400.000
212.46	0.000
212.84	2700.000
213.22	-880.000
213.59	-1150.000
213.97	-360.000
214.34	-1600.000
214.72	733.333
215.09	-1150.000
215.47	0.000
215.84	642.857
216.22	2300.000
216.59	-860.000
216.97	-900.000
217.34	-1050.000
217.72	-487.500
218.09	-1225.000
218.47	-1175.000
218.84	0.000
219.22	860.000
219.59	-258.824
219.97	-195.000
220.34	2750.000
220.72	-577.778
221.09	-315.385
221.47	-1733.333
221.84	-480.000
222.22	-671.429
222.59	0.000
222.97	-487.500
223.34	-860.000
223.72	-4900.000
224.09	-1075.000
224.46	-1075.000
224.84	-640.000
225.21	-700.000
225.59	-1075.000
225.96	-1300.000
226.34	-123.077
226.71	800.000
227.08	-2250.000
227.46	-273.333
227.83	-1175.000
228.21	-157.895
228.58	612.500
228.95	2000.000
229.33	-350.000
229.70	-380.000
230.08	-142.105
230.45	380.000
230.82	-1166.667
231.20	-264.286
231.57	-258.333
231.95	-263.636
232.32	-281.818
232.69	-120.000
233.07	-1000.000
233.44	-252.941
233.81	-350.000
234.19	-172.222
234.56	-168.182
234.93	-127.586
235.31	-184.211
235.68	-200.000
236.05	-215.000
236.43	-88.462
236.80	-108.000
237.17	-125.926
237.55	-96.970
237.92	-430.000
238.29	-129.032
238.67	-93.182
239.04	-94.444
239.41	-64.286
239.79	-54.348
240.16	-55.556
240.53	-54.348
240.91	-68.627
241.28	-49.180
241.65	-26.866
242.02	-28.378
242.40	-55.385
242.77	-37.333
243.14	-35.366
243.51	-28.947
243.89	-20.513
244.26	-10.891
244.63	-18.627
245.00	-20.561
245.38	-15.789
245.75	-24.779
246.12	-6.349
246.49	-10.853
246.87	2.143
247.24	-3.311
247.61	1.974
247.98	-4.027
248.36	3.086
248.73	-9.816
249.10	1.639
249.47	3.980
249.84	8.377
250.22	4.145
250.59	5.000
250.96	10.000
251.33	-2.041
251.70	5.128
252.08	9.167
252.45	7.787
252.82	6.612
253.19	7.422
253.56	10.266
253.94	3.077
254.31	9.470
254.68	12.587
255.05	12.052
255.42	9.184
255.79	5.825
256.16	9.272
256.54	11.921
256.91	10.492
257.28	12.131
257.65	6.369
258.02	10.324
258.39	11.681
258.76	17.125
259.14	14.655
259.51	13.256
259.88	11.048
260.25	15.556
260.62	17.260
260.99	17.760
261.36	14.477
261.73	16.711
262.10	14.835
262.47	15.550
262.85	16.162
263.22	14.026
263.59	12.105
263.96	12.788
264.33	12.020
264.70	16.049
265.07	16.229
265.44	18.367
265.81	13.194
266.18	16.553
266.55	16.741
266.92	12.984
267.29	16.849
267.66	18.182
268.03	15.066
268.40	17.954
268.77	12.756
269.14	14.978
269.51	16.447
269.88	18.648
270.25	14.085
270.62	19.409
270.99	17.980
271.36	16.238
271.73	16.306
272.10	17.635
272.47	15.631
272.84	18.273
273.21	17.435
273.58	18.347
273.95	17.308
274.32	14.639
274.69	16.828
275.06	16.667
275.43	13.678
275.80	17.813
276.17	16.852
276.54	17.537
276.91	16.279
277.28	16.456
277.65	16.158
278.02	19.301
278.39	17.572
278.76	17.047
279.13	18.440
279.50	19.588
279.87	16.637
280.23	13.380
280.60	17.119
280.97	19.243
281.34	17.317
281.71	19.966
282.08	16.944
282.45	15.221
282.82	16.327
283.19	16.317
283.56	17.541
283.92	18.168
284.29	18.325
284.66	18.227
285.03	16.026
285.40	18.083
285.77	17.028
286.14	17.099
286.51	18.874
286.87	15.956
287.24	20.030
287.61	17.937
287.98	16.616
288.35	14.941
288.72	16.864
289.08	16.545
289.45	17.012
289.82	15.512
290.19	16.379
290.56	16.620
290.93	16.262
291.29	15.840
291.66	16.529
292.03	16.961
292.40	17.143
292.77	16.173
293.13	15.562
293.50	14.980
293.87	15.168
294.24	16.000
294.60	15.044
294.97	13.960
295.34	16.901
295.71	13.619
296.08	16.408
296.44	15.809
296.81	15.591
297.18	13.699
297.55	14.976
297.91	13.642
298.28	13.389
298.65	13.793
299.02	14.640
299.38	14.188
299.75	14.603
300.12	14.352
300.48	13.364
300.85	14.398
301.22	14.653
301.59	14.155
301.95	14.350
302.32	15.889
302.69	14.896
303.05	16.213
303.42	13.969
303.79	14.688
304.15	13.775
304.52	13.636
304.89	14.764
305.25	15.217
305.62	14.002
305.99	15.567
306.35	13.710
306.72	16.649
307.09	14.822
307.45	15.735
307.82	14.632
308.19	15.439
308.55	15.043
308.92	15.093
309.29	15.996
309.65	13.938
310.02	14.554
310.38	15.157
310.75	16.019
311.12	15.532
311.48	15.934
311.85	15.100
312.22	15.180
312.58	15.305
312.95	14.627
313.31	15.537
313.68	16.484
314.05	18.248
314.41	17.668
314.78	17.802
315.14	17.423
315.51	17.636
315.87	17.732
316.24	17.808
316.61	19.094
316.97	17.466
317.34	19.048
317.70	20.611
318.07	20.547
318.43	20.153
318.80	21.154
319.16	20.343
319.53	19.452
319.89	20.508
320.26	21.441
320.62	20.390
320.99	23.084
321.35	22.274
321.72	24.093
322.08	22.362
322.45	25.294
322.81	25.812
323.18	25.929
323.54	25.862
323.91	26.157
324.27	26.936
324.64	28.547
325.00	27.861
325.37	29.075
325.73	30.165
326.10	31.549
326.46	32.410
326.83	32.586
327.19	32.126
327.56	32.806
327.92	31.943
328.29	33.387
328.65	33.668
329.01	35.702
329.38	36.479
329.74	36.045
330.11	37.072
330.47	36.394
330.84	39.104
331.20	38.083
331.56	37.695
331.93	39.079
332.29	38.983
332.66	38.289
333.02	38.610
333.38	40.436
333.75	38.215
334.11	39.950
334.48	39.026
334.84	40.867
335.20	38.455
335.57	41.147
335.93	39.256
336.29	39.933
336.66	40.118
337.02	40.552
337.38	40.731
337.75	40.826
338.11	41.884
338.47	40.695
338.84	40.609
339.20	40.017
339.56	40.033
339.93	41.626
340.29	40.177
340.65	39.092
341.02	41.341
341.38	43.088
341.74	40.355
342.11	40.788
342.47	40.349
342.83	43.559
343.20	42.518
343.56	41.780
343.92	41.713
344.28	42.734
344.65	41.473
345.01	42.200
345.37	41.602
345.73	42.089
346.10	42.278
346.46	41.851
346.82	41.798
347.19	42.322
347.55	41.730
347.91	42.571
348.27	41.730
348.63	42.574
349.00	42.431
349.36	42.602
349.72	41.815
350.08	41.605
350.45	42.433
350.81	41.704
351.17	43.158
351.53	41.774
351.89	42.369
352.26	40.075
352.62	43.433
352.98	42.901
353.34	41.673
353.70	42.835
354.07	41.505
354.43	42.293
354.79	42.259
355.15	42.605
355.51	41.959
355.87	42.259
356.24	42.281
356.60	41.611
356.96	42.402
357.32	40.892
357.68	42.387
358.04	42.066
358.40	42.015
358.77	43.056
359.13	42.024
359.49	41.190
359.85	44.235
360.21	40.603
360.57	42.498
360.93	41.890
361.29	42.947
361.66	41.781
362.02	43.702
362.38	42.797
362.74	41.620
363.10	43.054
363.46	43.490
363.82	44.105
364.18	42.646
364.54	42.185
364.90	42.876
365.26	42.759
365.62	42.800
365.98	43.499
366.35	43.087
366.71	42.177
367.07	43.099
367.43	42.022
367.79	43.597
368.15	43.478
368.51	43.708
368.87	43.109
369.23	42.867
369.59	43.511
369.95	41.312
370.31	43.349
370.67	43.398
371.03	42.382
371.39	42.512
371.75	43.260
372.11	44.038
372.47	43.737
372.83	44.895
373.19	41.828
373.55	43.767
373.91	41.581
374.27	43.596
374.63	43.708
374.99	42.905
375.35	43.636
375.71	44.258
376.07	43.318
376.42	43.388
376.78	43.008
377.14	43.044
377.50	44.529
377.86	44.951
378.22	43.772
378.58	44.828
378.94	43.134
379.30	43.527
379.66	43.327
380.02	43.335
380.38	44.355
380.74	44.282
381.09	44.715
381.45	44.205
381.81	44.848
382.17	45.071
382.53	44.269
382.89	43.510
383.25	43.728
383.61	44.039
383.97	44.229
384.32	43.900
384.68	42.575
385.04	44.245
385.40	44.549
385.76	44.373
386.12	42.849
386.48	43.471
386.83	44.636
387.19	43.917
387.55	43.838
387.91	42.352
388.27	43.418
388.62	43.299
388.98	44.501
389.34	45.787
389.70	44.683
390.06	44.819
390.42	44.518
390.77	44.612
391.13	44.073
391.49	43.780
391.85	44.061
392.20	44.247
392.56	43.237
392.92	42.748
393.28	43.449
393.64	43.408
393.99	43.521
394.35	43.984
394.71	44.551
395.07	43.353
395.42	43.347
395.78	43.388
396.14	43.969
396.50	43.587
396.85	43.769
397.21	42.426
397.57	42.285
397.92	42.898
398.28	43.074
398.64	42.792
399.00	42.670
399.35	43.037
399.71	43.152
400.07	43.290
400.42	42.899
400.78	43.750
401.14	41.776
401.49	41.899
401.85	44.012
402.21	43.917
402.57	44.484
402.92	42.376
403.28	41.452
403.63	42.601
403.99	41.746
404.35	42.695
404.70	42.946
405.06	41.685
405.42	42.330
405.77	43.948
406.13	43.166
406.49	42.793
406.84	42.327
407.20	42.314
407.55	41.914
407.91	42.740
408.27	42.108
408.62	42.641
408.98	42.426
409.34	41.232
409.69	42.769
410.05	43.025
410.40	41.473
410.76	41.054
411.11	42.607
411.47	42.813
411.83	41.799
412.18	42.590
412.54	41.257
412.89	42.549
413.25	42.156
413.60	42.160
413.96	43.357
414.31	41.983
414.67	41.860
415.03	40.862
415.38	41.866
415.74	40.867
416.09	41.456
416.45	41.578
416.80	41.922
417.16	41.954
417.51	42.279
417.87	42.060
418.22	41.317
418.58	42.441
418.93	42.026
419.29	42.232
419.64	41.417
420.00	42.196
420.35	42.111
420.71	40.839
421.06	41.001
421.42	41.858
421.77	41.195
422.12	42.442
422.48	41.475
422.83	42.716
423.19	42.016
423.54	43.086
423.90	41.469
424.25	42.720
424.61	41.676
424.96	42.284
425.31	42.197
425.67	41.116
426.02	42.612
426.38	42.193
426.73	41.685
427.09	43.022
427.44	41.999
427.79	41.846
428.15	40.753
428.50	42.079
428.85	42.021
429.21	42.553
429.56	42.201
429.92	41.720
430.27	42.699
430.62	42.013
430.98	42.450
431.33	42.082
431.68	42.577
432.04	42.357
432.39	42.903
432.74	42.237
433.10	42.672
433.45	41.583
433.80	40.826
434.16	42.355
434.51	43.217
434.86	43.214
435.22	43.518
435.57	42.866
435.92	42.460
436.28	43.345
436.63	43.583
436.98	43.317
437.34	44.194
437.69	44.029
438.04	42.676
438.39	42.102
438.75	43.498
439.10	43.922
439.45	43.712
439.81	43.446
440.16	43.432
440.51	42.586
440.86	42.412
441.22	42.283
441.57	42.715
441.92	43.162
442.27	44.040
442.63	43.766
442.98	44.557
443.33	43.451
443.68	44.301
444.03	45.014
444.39	44.105
444.74	44.461
445.09	43.842
445.44	44.204
445.79	43.918
446.15	44.656
446.50	45.065
446.85	44.455
447.20	44.681
447.55	43.672
447.91	44.817
448.26	44.292
448.61	44.952
448.96	46.513
449.31	44.274
449.66	44.063
450.02	45.306
450.37	44.219
450.72	45.910
451.07	45.444
451.42	44.425
451.77	44.080
452.12	44.526
452.47	45.217
452.83	45.664
453.18	44.075
453.53	44.630
453.88	44.948
454.23	45.311
454.58	45.560
454.93	45.934
455.28	46.237
455.63	45.765
455.98	45.642
456.34	45.465
456.69	45.620
457.04	46.158
457.39	45.122
457.74	45.190
458.09	44.426
458.44	45.205
458.79	45.075
459.14	44.573
459.49	44.822
459.84	45.803
460.19	45.253
460.54	46.451
460.89	45.474
461.24	44.425
461.59	45.822
461.94	44.552
462.29	45.465
462.64	46.470
462.99	44.821
463.34	45.750
463.69	44.138
464.04	45.359
464.39	45.123
464.74	45.553
465.09	44.752
465.44	45.440
465.79	45.108
466.14	45.232
466.49	46.000
466.84	45.565
467.19	45.665
467.54	44.771
467.89	44.425
468.24	45.429
468.59	43.949
468.94	44.697
469.29	45.771
469.64	44.056
469.99	46.526
470.34	45.297
470.68	46.070
471.03	46.038
471.38	44.866
471.73	46.554
472.08	45.051
472.43	45.876
472.78	45.151
473.13	45.638
473.48	45.982
473.83	45.212
474.17	45.076
474.52	45.640
474.87	45.183
475.22	44.789
475.57	44.964
475.92	45.197
476.27	44.409
476.61	45.587
476.96	45.568
477.31	45.941
477.66	45.645
478.01	45.145
478.36	45.015
478.70	45.025
479.05	46.575
479.40	46.051
479.75	45.773
480.10	44.908
480.45	44.667
480.79	45.714
481.14	44.991
481.49	45.252
481.84	45.431
482.19	45.376
482.53	45.212
482.88	45.016
483.23	46.020
483.58	46.026
483.92	44.548
484.27	45.174
484.62	44.224
484.97	44.479
485.31	44.421
485.66	40.751
486.01	40.979
486.36	41.956
486.70	44.428
487.05	45.582
487.40	45.229
487.75	44.555
488.09	44.435
488.44	43.218
488.79	44.519
489.13	44.678
489.48	43.883
489.83	44.225
490.17	44.552
490.52	44.376
490.87	44.543
491.22	45.147
491.56	44.625
491.91	45.050
492.26	44.829
492.60	46.043
492.95	44.976
493.30	46.078
493.64	44.897
493.99	44.518
494.34	45.078
494.68	45.310
495.03	44.273
495.37	45.362
495.72	44.943
496.07	45.399
496.41	44.573
496.76	45.455
497.11	45.605
497.45	45.058
497.80	45.269
498.14	44.490
498.49	45.312
498.84	45.521
499.18	44.354
499.53	45.426
499.87	45.011
500.22	44.078
500.56	44.759
500.91	45.446
501.26	45.136
501.60	44.675
501.95	44.247
502.29	44.844
502.64	45.081
502.98	43.572
503.33	43.629
503.67	43.785
504.02	44.483
504.36	45.264
504.71	45.200
505.06	44.247
505.40	44.653
505.75	44.536
506.09	44.936
506.44	45.032
506.78	45.367
507.13	44.767
507.47	45.760
507.82	44.650
508.16	45.029
508.51	43.694
508.85	44.544
509.19	44.860
509.54	44.188
509.88	44.002
510.23	44.828
510.57	44.901
510.92	45.138
511.26	44.541
511.61	44.085
511.95	45.144
512.30	45.446
512.64	44.678
512.98	44.722
513.33	44.657
513.67	44.875
514.02	45.580
514.36	45.422
514.70	45.729
515.05	45.933
515.39	46.194
515.74	45.546
516.08	45.061
516.42	44.793
516.77	44.269
517.11	43.889
517.46	44.486
517.80	45.591
518.14	46.355
518.49	45.499
518.83	45.077
519.17	44.426
519.52	45.388
519.86	44.351
520.20	45.421
520.55	45.181
520.89	45.101
521.23	45.729
521.58	46.045
521.92	45.496
522.26	45.762
522.61	46.354
522.95	44.925
523.29	46.322
523.64	44.170
523.98	45.123
524.32	47.049
524.66	45.077
525.01	44.394
525.35	44.630
525.69	45.244
526.04	44.891
526.38	45.862
526.72	45.098
527.06	45.865
527.41	44.140
527.75	45.190
528.09	44.569
528.43	45.175
528.78	43.237
529.12	44.323
529.46	43.508
529.80	44.908
530.15	45.333
530.49	44.899
530.83	44.451
531.17	44.504
531.51	43.562
531.86	45.192
532.20	44.939
532.54	44.165
532.88	44.061
533.22	44.372
533.57	44.605
533.91	43.154
534.25	42.793
534.59	44.713
534.93	43.746
535.27	43.493
535.62	43.832
535.96	43.579
536.30	43.361
536.64	44.384
536.98	44.465
537.32	42.840
537.66	43.793
538.01	42.900
538.35	42.387
538.69	43.570
539.03	43.286
539.37	43.345
539.71	43.243
540.05	42.446
540.39	41.443
540.73	42.987
541.07	42.121
541.42	42.351
541.76	40.747
542.10	42.099
542.44	41.717
542.78	42.457
543.12	42.133
543.46	41.270
543.80	42.446
544.14	42.430
544.48	42.317
544.82	43.507
545.16	42.636
545.50	43.439
545.84	41.212
546.18	43.951
546.52	41.975
546.86	40.943
547.20	42.812
547.54	42.010
547.88	41.471
548.22	41.345
548.56	40.901
548.90	41.552
549.24	41.702
549.58	41.703
549.92	42.666
550.26	42.136
550.60	41.800
550.94	42.173
551.28	41.716
551.62	42.520
551.96	42.006
552.30	42.001
552.64	42.128
552.98	41.048
553.32	42.251
553.66	41.865
554.00	43.064
554.34	42.986
554.68	41.640
555.02	41.524
555.36	42.209
555.69	40.871
556.03	40.794
556.37	40.551
556.71	42.930
557.05	42.045
557.39	42.933
557.73	42.272
558.07	42.053
558.41	41.462
558.75	41.920
559.08	42.450
559.42	41.221
559.76	42.334
560.10	41.259
560.44	41.161
560.78	40.625
561.12	40.702
561.45	41.180
561.79	40.171
562.13	40.974
562.47	40.691
562.81	41.835
563.15	41.288
563.48	40.522
563.82	41.294
564.16	40.581
564.50	39.750
564.84	39.882
565.17	41.059
565.51	39.643
565.85	39.667
566.19	39.401
566.52	39.438
566.86	39.615
567.20	38.608
567.54	38.715
567.88	39.246
568.21	38.785
568.55	38.705
568.89	37.358
569.23	38.530
569.56	37.046
569.90	36.778
570.24	36.897
570.57	36.209
570.91	36.191
571.25	35.464
571.59	35.931
571.92	34.968
572.26	34.913
572.60	34.971
572.93	35.207
573.27	34.645
573.61	34.542
573.95	34.644
574.28	34.478
574.62	34.334
574.96	33.635
575.29	34.038
575.63	34.073
575.97	34.515
576.30	33.703
576.64	33.811
576.98	33.759
577.31	33.552
577.65	33.842
577.98	33.697
578.32	33.002
578.66	33.038
578.99	33.381
579.33	34.326
579.67	33.364
580.00	33.333
580.34	33.704
580.67	33.230
581.01	33.362
581.35	33.294
581.68	32.972
582.02	32.264
582.35	32.835
582.69	33.613
583.02	33.377
583.36	33.128
583.70	33.810
584.03	33.141
584.37	33.325
584.70	32.958
585.04	32.760
585.37	32.921
585.71	32.772
586.04	33.025
586.38	33.008
586.72	32.916
587.05	33.205
587.39	32.860
587.72	32.823
588.06	32.906
588.39	33.408
588.73	33.307
589.06	33.296
589.40	33.712
589.73	34.094
590.07	33.588
590.40	34.922
590.73	33.687
591.07	34.773
591.40	33.398
591.74	34.539
592.07	34.673
592.41	34.267
592.74	33.511
593.08	33.599
593.41	33.333
593.75	33.563
594.08	33.687
594.41	33.750
594.75	33.079
595.08	33.277
595.42	33.149
595.75	34.033
596.09	33.446
596.42	33.465
596.75	34.002
597.09	34.788
597.42	33.810
597.75	34.535
598.09	34.048
598.42	34.298
598.76	33.435
599.09	33.499
599.42	32.518
599.76	32.255
600.09	33.166
600.42	33.467
600.76	33.025
601.09	32.227
601.42	32.166
601.76	32.207
602.09	32.738
602.42	32.570
602.76	33.579
603.09	33.223
603.42	33.345
603.76	33.545
604.09	33.747
604.42	32.881
604.76	33.333
605.09	33.586
605.42	33.533
605.75	33.000
606.09	32.512
606.42	32.105
606.75	32.009
607.09	32.028
607.42	32.717
607.75	33.802
608.08	33.149
608.42	32.487
608.75	33.375
609.08	32.513
609.41	33.392
609.75	33.705
610.08	33.289
610.41	32.243
610.74	33.235
611.07	32.504
611.41	33.767
611.74	33.949
612.07	33.193
612.40	33.555
612.73	33.936
613.07	33.790
613.40	33.349
613.73	33.462
614.06	33.513
614.39	33.771
614.72	33.042
615.06	32.820
615.39	32.914
615.72	32.986
616.05	33.366
616.38	33.401
616.71	32.811
617.05	32.961
617.38	33.280
617.71	34.179
618.04	34.539
618.37	32.514
618.70	33.710
619.03	34.648
619.36	34.217
619.69	34.849
620.03	34.903
620.36	34.663
620.69	35.287
621.02	34.514
621.35	35.922
621.68	36.298
622.01	35.587
622.34	34.240
622.67	34.914
623.00	33.873
623.33	35.169
623.66	35.473
623.99	34.694
624.32	35.348
624.65	33.977
624.99	36.216
625.32	36.055
625.65	35.604
625.98	34.712
626.31	34.515
626.64	35.238
626.97	35.259
627.30	34.548
627.63	36.459
627.96	36.261
628.29	35.409
628.62	34.761
628.95	37.073
629.28	36.449
629.61	36.279
629.94	35.230
630.26	34.831
630.59	35.320
630.92	37.316
631.25	37.478
631.58	38.230
631.91	36.832
632.24	37.752
632.57	36.622
632.90	36.409
633.23	36.837
633.56	36.531
633.89	36.674
634.22	38.565
634.55	38.727
634.88	37.229
635.20	39.397
635.53	37.853
635.86	37.811
636.19	37.964
636.52	38.080
636.85	36.568
637.18	36.694
637.51	36.452
637.83	38.317
638.16	38.364
638.49	37.324
638.82	36.302
639.15	37.686
639.48	38.222
639.81	37.529
640.13	38.634
640.46	37.212
640.79	36.152
641.12	37.516
641.45	38.896
641.77	40.822
642.10	38.189
642.43	38.830
642.76	39.295
643.09	36.849
643.41	37.535
643.74	38.621
644.07	36.690
644.40	39.604
644.73	38.897
645.05	40.529
645.38	37.986
645.71	40.762
646.04	38.594
646.36	38.540
646.69	38.190
647.02	38.073
647.35	39.084
647.67	40.580
648.00	38.376
648.33	39.489
648.66	38.374
648.98	36.871
649.31	37.348
649.64	37.185
649.96	37.401
650.29	33.658
650.62	36.775
650.94	36.336
651.27	35.629
651.60	35.819
651.92	37.842
652.25	38.495
652.58	35.213
652.90	34.884
653.23	37.465
653.56	35.521
653.88	38.483
654.21	34.366
654.54	35.549
654.86	34.703
655.19	34.504
655.52	34.477
655.84	30.381
656.17	32.921
656.49	44.860
656.82	47.213
657.15	36.709
657.47	28.225
657.80	20.958
658.13	16.428
658.45	21.592
658.78	26.353
659.10	25.012
659.43	25.105
659.75	24.767
660.08	24.146
660.41	26.634
660.73	27.708
661.06	33.040
661.38	35.885
661.71	34.138
662.03	35.979
662.36	37.746
662.68	37.148
663.01	39.292
663.33	40.265
663.66	39.927
663.98	36.923
664.31	36.961
664.63	36.224
664.96	40.835
665.28	36.661
665.61	35.664
665.93	36.964
666.26	34.946
666.58	35.240
666.91	35.514
667.23	35.810
667.56	35.108
667.88	37.800
668.21	33.398
668.53	33.398
668.86	38.310
669.18	36.864
669.50	37.575
669.83	37.000
670.15	34.646
670.48	38.492
670.80	34.034
671.13	33.081
671.45	36.417
671.77	36.723
672.10	35.333
672.42	32.848
672.75	31.797
673.07	31.343
673.39	32.357
673.72	35.570
674.04	33.448
674.37	34.705
674.69	36.861
675.01	35.238
675.34	31.298
675.66	34.644
675.98	36.007
676.31	34.766
676.63	35.932
676.95	36.782
677.28	33.065
677.60	33.858
677.92	37.812
678.25	35.283
678.57	35.765
678.89	32.765
679.22	32.578
679.54	34.188
679.86	32.881
680.18	32.007
680.51	32.075
680.83	30.769
681.15	33.966
681.48	32.642
681.80	32.470
682.12	33.566
682.44	32.220
682.77	32.092
683.09	35.038
683.41	33.527
683.73	31.879
684.06	33.395
684.38	31.306
684.70	33.573
685.02	31.497
685.34	30.116
685.67	31.230
685.99	31.288
686.31	30.233
686.63	30.174
686.96	32.808
687.28	29.805
687.60	29.798
687.92	29.904
688.24	31.720
688.56	30.690
688.89	34.664
689.21	32.290
689.53	31.765
689.85	32.347
690.17	33.889
690.49	31.673
690.82	32.871
691.14	32.591
691.46	30.784
691.78	34.622
692.10	31.376
692.42	29.464
692.74	28.857
693.06	29.074
693.39	32.638
693.71	30.639
694.03	30.112
694.35	31.810
694.67	28.542
694.99	32.766
695.31	30.905
695.63	30.519
695.95	31.263
696.27	29.670
696.59	32.080
696.91	29.730
697.23	32.967
697.56	30.143
697.88	30.682
698.20	28.625
698.52	31.629
698.84	30.977
699.16	31.020
699.48	30.544
699.80	29.787
700.12	29.039
700.44	29.954
700.76	31.591
701.08	29.056
701.40	31.347
701.72	29.602
702.04	30.214
702.36	28.796
702.68	28.606
703.00	30.807
703.32	30.049
703.64	29.829
703.96	30.072
704.28	28.010
704.60	28.101
704.91	29.847
705.23	30.137
705.55	30.362
705.87	28.788
706.19	32.209
706.51	31.627
706.83	25.072
707.15	26.190
707.47	28.505
707.79	26.856
708.11	25.212
708.43	29.032
708.74	25.446
709.06	26.914
709.38	30.986
709.70	29.777
710.02	24.806
710.34	29.521
710.66	27.095
710.98	26.776
711.29	26.648
711.61	27.119
711.93	29.345
712.25	27.838
712.57	33.333
712.89	28.824
713.20	25.740
713.52	28.902
713.84	31.198
714.16	27.632
714.48	25.515
714.80	28.571
715.11	23.360
715.43	25.464
715.75	25.789
716.07	24.862
716.39	28.689
716.70	27.108
717.02	27.213
717.34	24.390
717.66	28.859
717.97	22.260
718.29	22.680
718.61	26.974
718.93	27.508
719.24	26.087
719.56	25.767
719.88	24.625
720.20	26.774
720.51	27.950
720.83	26.250
721.15	25.329
721.46	23.973
721.78	24.000
722.10	24.272
722.42	25.168
722.73	23.226
723.05	29.825
723.37	23.264
723.68	29.391
724.00	28.520
724.32	23.239
724.63	24.126
724.95	24.468
725.27	27.526
725.58	22.615
725.90	28.276
726.22	22.257
726.53	24.675
726.85	25.786
727.16	25.076
727.48	24.159
727.80	22.848
728.11	26.148
728.43	26.599
728.74	22.074
729.06	21.854
729.38	25.649
729.69	23.826
730.01	20.833
730.32	21.818
730.64	24.843
730.96	22.671
731.27	22.626
731.59	25.275
731.90	20.000
732.22	21.354
732.53	18.785
732.85	24.857
733.16	24.340
733.48	22.256
733.80	23.677
734.11	23.647
734.43	22.432
734.74	25.570
735.06	21.608
735.37	21.081
735.69	21.081
736.00	23.729
736.32	21.833
736.63	20.833
736.95	21.839
737.26	19.394
737.58	18.788
737.89	24.118
738.21	17.431
738.52	18.689
738.83	17.747
739.15	19.504
739.46	22.449
739.78	18.712
740.09	22.350
740.41	24.490
740.72	19.667
741.04	22.006
741.35	23.509
741.66	20.784
741.98	22.131
742.29	23.431
742.61	22.807
742.92	23.846
743.23	22.022
743.55	20.543
743.86	20.000
744.18	16.116
744.49	20.675
744.80	22.222
745.12	19.831
745.43	27.642
745.74	21.552
746.06	21.186
746.37	19.409
746.68	26.423
747.00	20.000
747.31	20.172
747.62	23.077
747.94	22.672
748.25	22.490
748.56	21.633
748.88	17.094
749.19	25.000
749.50	17.749
749.82	21.285
750.13	22.064
750.44	18.333
750.75	21.231
751.07	22.154
751.38	17.666
751.69	18.850
752.01	17.799
752.32	25.490
752.63	18.367
752.94	19.377
753.26	20.074
753.57	22.222
753.88	17.228
754.19	21.865
754.51	20.900
754.82	22.186
755.13	20.328
755.44	18.430
755.75	19.737
756.07	22.687
756.38	18.868
756.69	21.988
757.00	16.898
757.31	17.486
757.63	18.926
757.94	18.310
758.25	18.510
758.56	19.608
758.87	19.773
759.18	17.867
759.50	20.397
759.81	22.129
760.12	19.137
760.43	23.177
760.74	17.980
761.05	18.750
761.36	19.518
761.67	18.020
761.99	18.919
762.30	17.683
762.61	17.162
762.92	20.522
763.23	18.727
763.54	19.424
763.85	17.869
764.16	20.875
764.47	16.901
764.78	20.447
765.10	17.302
765.41	20.513
765.72	17.725
766.03	19.209
766.34	14.734
766.65	13.937
766.96	17.928
767.27	17.051
767.58	13.433
767.89	22.596
768.20	16.901
768.51	17.593
768.82	17.671
769.13	17.045
769.44	11.923
769.75	16.245
770.06	15.769
770.37	17.323
770.68	12.340
770.99	9.312
771.30	22.963
771.61	14.449
771.92	12.593
772.23	18.623
772.54	10.648
772.85	18.894
773.16	13.810
773.47	5.291
773.78	7.568
774.09	17.045
774.39	14.000
774.70	18.033
775.01	10.976
775.32	3.529
775.63	8.589
775.94	1.911
776.25	12.258
776.56	17.308
776.87	7.483
777.18	5.517
777.48	6.294
777.79	8.784
778.10	6.618
778.41	16.667
778.72	9.655
779.03	10.494
779.34	12.727
779.65	9.845
779.95	10.556
780.26	10.795
780.57	7.097
780.88	6.522
781.19	12.258
781.50	14.118
781.80	12.903
782.11	14.815
782.42	3.030
782.73	0.599
783.04	8.939
783.34	1.212
783.65	0.000
783.96	7.453
784.27	6.548
784.57	-0.662
784.88	0.714
785.19	7.874
785.50	6.299
785.81	5.263
786.11	10.000
786.42	1.439
786.73	-5.755
787.04	7.519
787.34	3.279
787.65	7.200
787.96	5.970
788.26	7.692
788.57	4.196
788.88	3.947
789.19	11.111
789.49	4.110
789.80	1.418
790.11	3.150
790.41	-3.906
790.72	-12.712
791.03	-19.417
791.33	-4.348
791.64	-0.877
791.95	0.000
792.25	0.952
792.56	-3.571
792.87	-17.708
793.17	3.571
793.48	-13.542
793.79	-12.048
794.09	-8.257
794.40	-5.505
794.70	-3.401
795.01	-3.896
795.32	2.740
795.62	2.817
795.93	-2.273
796.23	1.639
796.54	-11.607
796.85	-24.468
797.15	-16.304
797.46	-13.699
797.76	-21.250
798.07	-17.391
798.37	-15.464
798.68	-25.974
798.99	-12.644
799.29	-8.989
799.60	3.191
799.90	-9.639
800.21	-30.769
800.51	-34.328
800.82	-27.941
801.12	-28.767
801.43	-29.412
801.73	-27.119
802.04	-30.303
802.34	-46.667
802.65	-35.593
802.95	-29.851
803.26	-33.898
803.56	-23.288
803.87	-18.571
804.17	-6.849
804.48	-49.123
804.78	-23.611
805.09	-44.828
805.39	-10.811
805.70	-35.211
806.00	-10.976
806.30	-22.892
806.61	-36.986
806.91	-15.385
807.22	-11.111
807.52	-27.586
807.83	-16.667
808.13	-3.614
808.43	-22.472
808.74	-12.500
809.04	-30.882
809.35	-10.667
809.65	-31.429
809.95	-12.329
810.26	-43.860
810.56	-31.034
810.86	-19.118
811.17	-38.596
811.47	-54.098
811.77	-73.333
812.08	-32.203
812.38	-36.667
812.69	-25.862
812.99	-41.509
813.29	-79.487
813.59	-36.000
813.90	-38.596
814.20	-52.727
814.50	-19.718
814.81	-37.179
815.11	-42.623
815.41	-29.851
815.72	-25.862
816.02	-35.714
816.32	-33.333
816.62	-59.091
816.93	-53.333
817.23	-33.333
817.53	-40.426
817.84	-28.571
818.14	-100.000
818.44	-69.388
818.74	-68.889
819.04	-89.744
819.35	-97.143
819.65	-126.923
819.95	-26.415
820.25	-53.333
820.56	-66.667
820.86	-75.000
821.16	-76.923
821.46	-65.116
821.76	-68.000
822.07	-41.071
822.37	-69.565
822.67	-65.957
822.97	-89.189
823.27	-77.500
823.57	-30.612
823.88	-35.556
824.18	-62.500
824.48	-100.000
824.78	-120.000
825.08	-84.848
825.38	-62.222
825.69	-53.191
825.99	-75.000
826.29	-82.857
826.59	-64.103
826.89	-62.791
827.19	-54.000
827.49	-85.294
827.79	-50.000
828.09	-118.919
828.39	-113.333
828.70	-63.415
829.00	-86.047
829.30	-135.714
829.60	-70.588
829.90	-63.043
830.20	-80.000
830.50	-106.897
830.80	-150.000
831.10	-138.462
831.40	-102.941
831.70	-138.095
832.00	-83.871
832.30	-270.588
832.60	-175.000
832.90	-307.692
833.20	-236.842
833.50	-190.000
833.80	-157.895
834.10	-252.381
834.40	-80.556
834.70	-68.750
835.00	-114.286
835.30	-91.176
835.60	-126.667
835.90	-144.000
836.20	-218.182
836.50	-124.000
836.80	-121.212
837.10	-137.037
837.40	-114.815
837.70	-256.250
838.00	-125.000
838.30	-191.304
838.60	-117.241
838.90	-300.000
839.19	-226.087
839.49	-325.000
839.79	-178.261
840.09	-275.000
840.39	-185.000
840.69	-106.452
840.99	-128.571
841.29	-206.667
841.59	-205.263
841.88	-51.282
842.18	-111.538
842.48	-390.000
842.78	-195.000
843.08	-100.000
843.38	-93.548
843.68	-233.333
843.97	-102.941
844.27	-168.750
844.57	-210.526
844.87	-350.000
845.17	-260.000
845.47	-166.667
845.76	-209.524
846.06	-477.778
846.36	-288.235
846.66	-107.692
846.96	-260.000
847.25	-276.471
847.55	-130.435
847.85	-180.000
848.15	-176.471
848.44	-327.273
848.74	-142.857
849.04	-154.167
849.34	-212.500
849.63	-147.826
849.93	1950.000
850.23	-233.333
850.53	-107.692
850.82	-318.182
851.12	-104.545
851.42	-327.273
851.71	-284.615
852.01	-220.000
852.31	-323.077
852.61	-247.368
852.90	-316.667
853.20	-188.889
853.50	-533.333
853.79	-223.810
854.09	-159.091
854.39	-300.000
854.68	-77.419
854.98	-161.538
855.28	-211.111
855.57	-128.571
855.87	-104.000
856.17	-181.818
856.46	-92.593
856.76	-227.778
857.05	-178.261
857.35	-166.667
857.65	-338.462
857.94	-171.429
858.24	-88.889
858.53	-169.565
858.83	-176.471
859.13	-223.529
859.42	-123.529
859.72	-207.143
860.01	-165.000
860.31	-477.778
860.60	-420.000
860.90	-233.333
861.20	-161.111
861.49	-284.615
861.79	-83.333
862.08	-292.308
862.38	-87.500
862.67	-170.588
862.97	-243.750
863.26	-511.111
863.56	-470.000
863.85	-363.636
864.15	-211.111
864.44	-1200.000
864.74	-257.143
865.03	-237.500
865.33	-430.000
865.62	-129.032
865.92	-154.545
866.21	-126.087
866.51	-278.571
866.80	-720.000
867.10	-383.333
867.39	-433.333
867.69	4800.000
867.98	-571.429
868.27	-188.235
868.57	-4900.000
868.86	-510.000
869.16	-185.714
869.45	-158.333
869.75	-318.182
870.04	-571.429
870.33	-341.667
870.63	-700.000
870.92	-950.000
871.22	-625.000
871.51	-427.273
871.80	-1833.333
872.10	-2150.000
>>>>>End Processed Spectral Data<<<<<
