SpectraSuite Data File
++++++++++++++++++++++++++++++++++++
Date: Thu May 14 16:00:26 PDT 2015
User: schluterlab
Dark Spectrum Present: Yes
Reference Spectrum Present: Yes
Number of Sampled Component Spectra: 1
Spectrometers: USB2E3373
Integration Time (usec): 3000 (USB2E3373)
Spectra Averaged: 3 (USB2E3373)
Boxcar Smoothing: 0 (USB2E3373)
Correct for Electrical Dark: No (USB2E3373)
Strobe/Lamp Enabled: No (USB2E3373)
Correct for Detector Non-linearity: No (USB2E3373)
Correct for Stray Light: No (USB2E3373)
Number of Pixels in Processed Spectrum: 2048
>>>>>Begin Processed Spectral Data<<<<<
178.53	0.000
178.91	228.571
179.29	-2900.000
179.67	-1500.000
180.04	250.000
180.42	170.000
180.80	480.000
181.18	-1600.000
181.56	-1000.000
181.94	275.000
182.31	-275.000
182.69	433.333
183.07	-400.000
183.45	600.000
183.83	-266.667
184.20	-266.667
184.58	1100.000
184.96	-475.000
185.34	-200.000
185.72	-500.000
186.09	255.556
186.47	1250.000
186.85	540.000
187.23	-233.333
187.61	-2300.000
187.98	380.000
188.36	400.000
188.74	-500.000
189.12	-433.333
189.49	-43.750
189.87	-287.500
190.25	-177.778
190.63	-220.000
191.00	-255.556
191.38	0.000
191.76	-700.000
192.14	-300.000
192.51	500.000
192.89	0.000
193.27	0.000
193.65	-214.286
194.02	-2900.000
194.40	-271.429
194.78	342.857
195.15	0.000
195.53	-118.182
195.91	0.000
196.29	-400.000
196.66	-84.615
197.04	-2900.000
197.42	-342.857
197.79	-1100.000
198.17	-337.500
198.55	-328.571
198.92	-100.000
199.30	-187.500
199.68	-63.636
200.05	-50.000
200.43	-850.000
200.81	357.143
201.18	0.000
201.56	255.556
201.94	0.000
202.31	833.333
202.69	-144.444
203.07	1700.000
203.44	-222.222
203.82	-400.000
204.19	-66.667
204.57	-233.333
204.95	-287.500
205.32	-1200.000
205.70	400.000
206.08	-266.667
206.45	-250.000
206.83	380.000
207.20	-316.667
207.58	-520.000
207.96	-250.000
208.33	-183.333
208.71	100.000
209.08	-133.333
209.46	0.000
209.84	350.000
210.21	500.000
210.59	500.000
210.96	533.333
211.34	-425.000
211.71	-187.500
212.09	-1500.000
212.46	0.000
212.84	1250.000
213.22	-320.000
213.59	-325.000
213.97	-170.000
214.34	-800.000
214.72	316.667
215.09	-525.000
215.47	0.000
215.84	342.857
216.22	1250.000
216.59	-300.000
216.97	-400.000
217.34	-375.000
217.72	-137.500
218.09	-400.000
218.47	-500.000
218.84	0.000
219.22	360.000
219.59	-76.471
219.97	-35.000
220.34	950.000
220.72	-155.556
221.09	-115.385
221.47	-633.333
221.84	-210.000
222.22	-257.143
222.59	0.000
222.97	-237.500
223.34	-520.000
223.72	-2100.000
224.09	-425.000
224.46	-550.000
224.84	-420.000
225.21	-300.000
225.59	-525.000
225.96	-500.000
226.34	-23.077
226.71	166.667
227.08	-950.000
227.46	-120.000
227.83	-500.000
228.21	-47.368
228.58	150.000
228.95	1050.000
229.33	-158.333
229.70	-200.000
230.08	-52.632
230.45	220.000
230.82	-600.000
231.20	-121.429
231.57	-50.000
231.95	-81.818
232.32	-63.636
232.69	-45.000
233.07	-275.000
233.44	-82.353
233.81	-150.000
234.19	-55.556
234.56	-50.000
234.93	-48.276
235.31	-100.000
235.68	-100.000
236.05	-140.000
236.43	-15.385
236.80	-32.000
237.17	-88.889
237.55	-39.394
237.92	-210.000
238.29	-38.710
238.67	-18.182
239.04	-22.222
239.41	-38.095
239.79	-28.261
240.16	-11.111
240.53	-2.174
240.91	-29.412
241.28	-6.557
241.65	4.478
242.02	6.757
242.40	-6.154
242.77	2.667
243.14	-13.415
243.51	-11.842
243.89	-1.282
244.26	5.941
244.63	14.706
245.00	4.673
245.38	5.263
245.75	5.310
246.12	14.286
246.49	2.326
246.87	10.714
247.24	14.570
247.61	9.868
247.98	12.081
248.36	14.198
248.73	8.589
249.10	18.033
249.47	22.886
249.84	19.895
250.22	12.953
250.59	15.556
250.96	21.364
251.33	9.694
251.70	17.949
252.08	11.250
252.45	17.623
252.82	19.008
253.19	12.109
253.56	19.772
253.94	15.000
254.31	17.803
254.68	19.580
255.05	17.590
255.42	14.626
255.79	17.152
256.16	19.205
256.54	15.563
256.91	17.049
257.28	17.049
257.65	18.153
258.02	17.994
258.39	15.385
258.76	23.853
259.14	22.126
259.51	19.020
259.88	20.963
260.25	20.556
260.62	22.740
260.99	19.945
261.36	20.107
261.73	18.302
262.10	17.582
262.47	22.252
262.85	22.222
263.22	17.403
263.59	14.211
263.96	19.949
264.33	16.880
264.70	24.444
265.07	19.093
265.44	22.902
265.81	17.824
266.18	19.955
266.55	19.196
266.92	18.907
267.29	21.882
267.66	20.621
268.03	23.362
268.40	19.207
268.77	18.679
269.14	19.604
269.51	23.904
269.88	20.902
270.25	19.517
270.62	20.886
270.99	22.626
271.36	21.782
271.73	19.646
272.10	20.240
272.47	20.040
272.84	20.281
273.21	20.040
273.58	18.548
273.95	17.885
274.32	18.821
274.69	21.470
275.06	20.696
275.43	18.669
275.80	19.753
276.17	19.444
276.54	17.351
276.91	21.109
277.28	19.892
277.65	20.287
278.02	20.037
278.39	17.572
278.76	18.805
279.13	20.390
279.50	20.275
279.87	20.036
280.23	15.669
280.60	18.644
280.97	20.066
281.34	18.336
281.71	20.474
282.08	16.777
282.45	19.640
282.82	20.408
283.19	18.417
283.56	17.705
283.92	21.171
284.29	20.221
284.66	18.883
285.03	17.788
285.40	19.938
285.77	16.563
286.14	21.985
286.51	18.569
286.87	19.905
287.24	21.536
287.61	18.535
287.98	19.184
288.35	17.899
288.72	18.343
289.08	20.205
289.45	19.083
289.82	18.373
290.19	17.960
290.56	18.310
290.93	17.689
291.29	16.529
291.66	18.871
292.03	18.318
292.40	18.231
292.77	16.038
293.13	17.321
293.50	16.426
293.87	18.255
294.24	18.267
294.60	19.090
294.97	16.644
295.34	17.926
295.71	17.276
296.08	15.633
296.44	18.750
296.81	15.469
297.18	17.435
297.55	15.094
297.91	16.489
298.28	15.640
298.65	16.171
299.02	14.522
299.38	17.277
299.75	15.771
300.12	16.782
300.48	15.668
300.85	16.085
301.22	16.219
301.59	16.553
301.95	17.288
302.32	16.111
302.69	16.320
303.05	17.084
303.42	15.188
303.79	16.250
304.15	15.773
304.52	16.490
304.89	16.754
305.25	16.563
305.62	16.405
305.99	16.804
306.35	16.028
306.72	16.856
307.09	16.041
307.45	16.356
307.82	17.154
308.19	15.943
308.55	16.297
308.92	16.164
309.29	15.709
309.65	16.179
310.02	15.941
310.38	16.437
310.75	18.252
311.12	16.491
311.48	15.934
311.85	16.429
312.22	16.224
312.58	17.183
312.95	16.252
313.31	16.712
313.68	16.850
314.05	18.338
314.41	16.576
314.78	16.440
315.14	17.060
315.51	16.436
315.87	17.012
316.24	16.621
316.61	17.940
316.97	17.738
317.34	17.019
317.70	17.031
318.07	16.755
318.43	18.197
318.80	18.227
319.16	15.451
319.53	15.681
319.89	16.477
320.26	17.171
320.62	16.667
320.99	18.929
321.35	18.392
321.72	19.070
322.08	17.042
322.45	17.886
322.81	16.877
323.18	17.522
323.54	18.793
323.91	18.950
324.27	17.556
324.64	17.716
325.00	17.164
325.37	17.363
325.73	18.512
326.10	18.410
326.46	18.974
326.83	19.295
327.19	18.504
327.56	19.209
327.92	18.489
328.29	17.823
328.65	19.012
329.01	18.105
329.38	17.270
329.74	18.750
330.11	19.007
330.47	17.860
330.84	18.174
331.20	17.500
331.56	18.024
331.93	18.326
332.29	18.475
332.66	17.608
333.02	16.583
333.38	16.695
333.75	18.519
334.11	18.182
334.48	17.657
334.84	18.607
335.20	17.884
335.57	17.454
335.93	17.686
336.29	17.304
336.66	17.662
337.02	17.391
337.38	17.857
337.75	16.860
338.11	17.746
338.47	18.445
338.84	17.259
339.20	16.765
339.56	17.298
339.93	17.816
340.29	17.794
340.65	17.356
341.02	18.516
341.38	18.593
341.74	17.272
342.11	18.825
342.47	16.839
342.83	17.633
343.20	18.070
343.56	18.123
343.92	17.614
344.28	17.422
344.65	17.519
345.01	17.161
345.37	17.185
345.73	16.056
346.10	17.785
346.46	17.009
346.82	17.453
347.19	17.571
347.55	17.678
347.91	16.419
348.27	16.995
348.63	16.984
349.00	16.555
349.36	17.175
349.72	16.964
350.08	16.939
350.45	16.046
350.81	17.496
351.17	16.541
351.53	16.376
351.89	17.692
352.26	16.940
352.62	17.090
352.98	16.565
353.34	16.206
353.70	17.488
354.07	17.437
354.43	16.477
354.79	16.380
355.15	16.777
355.51	16.740
355.87	16.156
356.24	16.502
356.60	16.112
356.96	16.457
357.32	16.580
357.68	16.179
358.04	16.841
358.40	15.970
358.77	16.447
359.13	16.913
359.49	14.870
359.85	16.389
360.21	16.643
360.57	16.296
360.93	15.797
361.29	16.982
361.66	16.220
362.02	16.423
362.38	16.093
362.74	16.201
363.10	15.750
363.46	16.828
363.82	16.690
364.18	16.327
364.54	17.012
364.90	16.856
365.26	15.655
365.62	16.667
365.98	17.427
366.35	16.846
366.71	16.122
367.07	17.050
367.43	16.678
367.79	16.855
368.15	16.856
368.51	15.900
368.87	15.872
369.23	15.933
369.59	16.120
369.95	16.768
370.31	16.745
370.67	16.575
371.03	17.729
371.39	16.185
371.75	16.162
372.11	16.328
372.47	17.739
372.83	16.558
373.19	16.411
373.55	16.057
373.91	16.633
374.27	15.653
374.63	16.779
374.99	16.180
375.35	17.078
375.71	16.194
376.07	16.139
376.42	16.436
376.78	16.532
377.14	16.095
377.50	15.750
377.86	16.318
378.22	16.527
378.58	16.825
378.94	15.610
379.30	16.696
379.66	15.932
380.02	16.445
380.38	15.841
380.74	16.282
381.09	16.551
381.45	16.534
381.81	17.213
382.17	17.399
382.53	16.842
382.89	16.648
383.25	15.944
383.61	16.435
383.97	16.726
384.32	17.045
384.68	15.661
385.04	16.136
385.40	16.735
385.76	16.940
386.12	17.355
386.48	16.941
386.83	16.925
387.19	16.222
387.55	16.725
387.91	16.438
388.27	17.898
388.62	16.953
388.98	16.638
389.34	16.853
389.70	16.153
390.06	16.696
390.42	16.325
390.77	16.918
391.13	16.491
391.49	17.512
391.85	15.939
392.20	15.777
392.56	17.661
392.92	17.285
393.28	16.694
393.64	16.313
393.99	16.909
394.35	17.231
394.71	16.766
395.07	16.467
395.42	17.019
395.78	17.489
396.14	17.291
396.50	16.805
396.85	16.219
397.21	16.213
397.57	16.137
397.92	17.698
398.28	15.915
398.64	15.847
399.00	16.230
399.35	17.330
399.71	16.522
400.07	17.631
400.42	16.997
400.78	16.898
401.14	16.221
401.49	16.941
401.85	16.279
402.21	16.280
402.57	17.077
402.92	16.785
403.28	16.628
403.63	16.169
403.99	16.686
404.35	16.998
404.70	16.714
405.06	16.467
405.42	16.569
405.77	17.012
406.13	16.856
406.49	17.061
406.84	16.787
407.20	17.328
407.55	16.778
407.91	17.285
408.27	17.079
408.62	17.277
408.98	17.411
409.34	16.657
409.69	17.058
410.05	16.647
410.40	17.691
410.76	17.162
411.11	16.657
411.47	16.830
411.83	17.343
412.18	17.651
412.54	17.546
412.89	17.229
413.25	16.366
413.60	17.002
413.96	16.725
414.31	16.317
414.67	17.293
415.03	16.615
415.38	17.844
415.74	16.616
416.09	16.841
416.45	17.345
416.80	17.319
417.16	16.731
417.51	16.999
417.87	17.535
418.22	17.725
418.58	16.729
418.93	18.044
419.29	17.324
419.64	16.807
420.00	17.567
420.35	17.181
420.71	17.231
421.06	17.769
421.42	17.202
421.77	16.586
422.12	17.072
422.48	17.307
422.83	17.360
423.19	17.294
423.54	16.869
423.90	17.228
424.25	17.600
424.61	17.164
424.96	17.902
425.31	17.675
425.67	17.767
426.02	17.432
426.38	17.336
426.73	17.801
427.09	17.301
427.44	17.149
427.79	17.137
428.15	17.637
428.50	17.303
428.85	17.394
429.21	17.553
429.56	17.029
429.92	17.789
430.27	16.771
430.62	17.294
430.98	17.462
431.33	17.253
431.68	17.098
432.04	17.826
432.39	17.193
432.74	17.637
433.10	17.739
433.45	16.834
433.80	17.650
434.16	17.769
434.51	16.752
434.86	17.915
435.22	18.013
435.57	17.453
435.92	17.362
436.28	17.520
436.63	17.914
436.98	17.445
437.34	17.418
437.69	17.501
438.04	17.187
438.39	17.748
438.75	16.491
439.10	17.970
439.45	17.552
439.81	17.910
440.16	17.962
440.51	18.283
440.86	16.732
441.22	18.006
441.57	17.767
441.92	17.119
442.27	17.222
442.63	17.933
442.98	17.663
443.33	18.096
443.68	17.790
444.03	18.627
444.39	19.279
444.74	17.815
445.09	16.929
445.44	17.703
445.79	18.151
446.15	17.934
446.50	18.295
446.85	17.996
447.20	18.424
447.55	17.521
447.91	17.120
448.26	17.389
448.61	17.375
448.96	18.455
449.31	18.293
449.66	17.429
450.02	17.563
450.37	18.380
450.72	17.653
451.07	17.654
451.42	17.851
451.77	17.565
452.12	17.551
452.47	17.885
452.83	17.905
453.18	17.513
453.53	17.002
453.88	17.559
454.23	18.588
454.58	18.108
454.93	17.233
455.28	18.302
455.63	17.737
455.98	18.045
456.34	18.316
456.69	18.225
457.04	17.908
457.39	17.683
457.74	18.009
458.09	16.804
458.44	18.050
458.79	17.947
459.14	17.934
459.49	17.431
459.84	18.363
460.19	17.102
460.54	17.717
460.89	17.893
461.24	17.874
461.59	18.207
461.94	16.543
462.29	17.581
462.64	17.622
462.99	17.828
463.34	17.975
463.69	17.585
464.04	18.344
464.39	18.722
464.74	17.845
465.09	17.705
465.44	17.597
465.79	18.244
466.14	17.770
466.49	17.421
466.84	18.182
467.19	18.671
467.54	16.686
467.89	17.759
468.24	17.839
468.59	17.603
468.94	16.900
469.29	17.157
469.64	17.673
469.99	16.890
470.34	17.884
470.68	17.088
471.03	18.468
471.38	18.182
471.73	18.336
472.08	18.020
472.43	17.760
472.78	18.703
473.13	18.584
473.48	18.248
473.83	19.037
474.17	17.878
474.52	18.761
474.87	18.051
475.22	18.141
475.57	17.965
475.92	18.218
476.27	18.584
476.61	18.120
476.96	16.893
477.31	18.168
477.66	18.206
478.01	18.048
478.36	18.245
478.70	17.931
479.05	18.252
479.40	18.164
479.75	19.164
480.10	18.143
480.45	18.004
480.79	18.639
481.14	17.877
481.49	17.856
481.84	18.233
482.19	18.323
482.53	17.665
482.88	18.742
483.23	18.319
483.58	18.079
483.92	17.287
484.27	18.078
484.62	17.863
484.97	18.468
485.31	17.036
485.66	16.716
486.01	16.990
486.36	17.067
486.70	17.421
487.05	18.225
487.40	17.855
487.75	18.601
488.09	18.174
488.44	18.372
488.79	18.044
489.13	18.103
489.48	16.932
489.83	18.068
490.17	17.254
490.52	17.652
490.87	18.232
491.22	18.371
491.56	18.302
491.91	18.317
492.26	18.131
492.60	18.671
492.95	18.078
493.30	17.974
493.64	18.353
493.99	17.325
494.34	18.118
494.68	17.645
495.03	18.414
495.37	18.154
495.72	18.413
496.07	17.835
496.41	17.932
496.76	18.224
497.11	18.047
497.45	17.264
497.80	17.326
498.14	18.186
498.49	18.336
498.84	17.962
499.18	18.174
499.53	18.610
499.87	18.110
500.22	18.166
500.56	18.578
500.91	18.078
501.26	18.318
501.60	18.118
501.95	18.498
502.29	18.561
502.64	18.714
502.98	18.507
503.33	18.186
503.67	17.837
504.02	18.257
504.36	18.677
504.71	18.006
505.06	18.190
505.40	17.733
505.75	18.488
506.09	18.094
506.44	18.152
506.78	18.624
507.13	18.396
507.47	18.285
507.82	18.040
508.16	17.400
508.51	18.143
508.85	17.997
509.19	18.427
509.54	18.540
509.88	17.727
510.23	18.844
510.57	18.656
510.92	18.336
511.26	18.567
511.61	17.286
511.95	18.692
512.30	19.449
512.64	18.191
512.98	18.709
513.33	19.052
513.67	18.307
514.02	18.498
514.36	19.642
514.70	18.854
515.05	19.187
515.39	19.055
515.74	18.823
516.08	18.225
516.42	19.205
516.77	18.980
517.11	18.618
517.46	19.141
517.80	18.867
518.14	19.206
518.49	18.980
518.83	18.787
519.17	19.225
519.52	18.816
519.86	18.902
520.20	20.128
520.55	18.620
520.89	19.426
521.23	19.989
521.58	19.548
521.92	19.093
522.26	19.015
522.61	19.271
522.95	19.377
523.29	19.425
523.64	18.890
523.98	19.852
524.32	19.713
524.66	19.351
525.01	19.479
525.35	18.208
525.69	18.619
526.04	18.886
526.38	19.080
526.72	19.493
527.06	19.531
527.41	18.892
527.75	19.537
528.09	19.717
528.43	18.946
528.78	19.017
529.12	18.979
529.46	19.112
529.80	19.165
530.15	19.130
530.49	18.980
530.83	19.776
531.17	19.833
531.51	19.495
531.86	19.712
532.20	19.329
532.54	19.210
532.88	18.667
533.22	19.741
533.57	19.908
533.91	19.585
534.25	19.559
534.59	19.655
534.93	19.015
535.27	19.211
535.62	19.500
535.96	19.175
536.30	19.918
536.64	19.099
536.98	19.988
537.32	19.259
537.66	19.775
538.01	18.973
538.35	19.062
538.69	19.712
539.03	19.252
539.37	19.670
539.71	18.799
540.05	19.844
540.39	19.071
540.73	18.761
541.07	19.313
541.42	19.138
541.76	19.098
542.10	19.059
542.44	18.940
542.78	19.161
543.12	18.772
543.46	18.681
543.80	18.705
544.14	18.671
544.48	18.913
544.82	19.150
545.16	18.843
545.50	18.754
545.84	18.983
546.18	19.877
546.52	18.790
546.86	19.245
547.20	18.511
547.54	18.602
547.88	18.746
548.22	18.421
548.56	18.315
548.90	18.030
549.24	18.784
549.58	18.612
549.92	18.878
550.26	18.835
550.60	19.017
550.94	18.952
551.28	19.604
551.62	19.609
551.96	18.835
552.30	19.567
552.64	19.353
552.98	18.653
553.32	19.421
553.66	19.614
554.00	18.663
554.34	19.048
554.68	18.915
555.02	18.660
555.36	19.855
555.69	18.706
556.03	18.537
556.37	19.587
556.71	18.389
557.05	18.786
557.39	18.646
557.73	18.890
558.07	19.272
558.41	18.272
558.75	19.135
559.08	19.415
559.42	18.656
559.76	19.674
560.10	18.017
560.44	18.470
560.78	19.250
561.12	17.672
561.45	18.552
561.79	18.559
562.13	18.792
562.47	18.187
562.81	18.924
563.15	18.308
563.48	19.267
563.82	18.984
564.16	18.171
564.50	18.117
564.84	17.404
565.17	18.353
565.51	18.067
565.85	17.993
566.19	17.454
566.52	18.432
566.86	19.185
567.20	17.999
567.54	18.163
567.88	18.400
568.21	17.787
568.55	17.890
568.89	18.384
569.23	17.617
569.56	17.272
569.90	17.748
570.24	17.234
570.57	17.030
570.91	16.565
571.25	16.691
571.59	17.618
571.92	16.578
572.26	17.020
572.60	16.981
572.93	17.311
573.27	17.224
573.61	16.914
573.95	16.897
574.28	16.702
574.62	16.689
574.96	16.520
575.29	16.369
575.63	16.332
575.97	17.102
576.30	16.580
576.64	16.607
576.98	16.355
577.31	16.448
577.65	16.880
577.98	16.416
578.32	16.253
578.66	16.604
578.99	16.301
579.33	16.919
579.67	16.682
580.00	16.026
580.34	16.732
580.67	16.615
581.01	16.595
581.35	16.365
581.68	16.273
582.02	16.059
582.35	16.409
582.69	16.507
583.02	16.203
583.36	16.718
583.70	16.655
584.03	16.655
584.37	16.860
584.70	16.626
585.04	16.322
585.37	15.996
585.71	16.354
586.04	16.292
586.38	15.994
586.72	16.044
587.05	16.577
587.39	16.106
587.72	16.555
588.06	16.804
588.39	16.306
588.73	16.534
589.06	16.337
589.40	16.380
589.73	16.806
590.07	16.810
590.40	17.039
590.73	16.331
591.07	16.902
591.40	16.641
591.74	16.296
592.07	16.728
592.41	16.916
592.74	16.684
593.08	16.529
593.41	17.002
593.75	16.293
594.08	16.722
594.41	16.891
594.75	16.539
595.08	16.117
595.42	16.494
595.75	16.371
596.09	17.079
596.42	16.482
596.75	16.712
597.09	16.970
597.42	16.408
597.75	16.464
598.09	16.667
598.42	17.049
598.76	16.813
599.09	16.234
599.42	16.091
599.76	16.111
600.09	16.149
600.42	16.250
600.76	16.413
601.09	16.031
601.42	16.547
601.76	16.828
602.09	16.512
602.42	16.067
602.76	15.978
603.09	15.969
603.42	16.113
603.76	16.279
604.09	16.962
604.42	16.073
604.76	16.400
605.09	16.753
605.42	16.268
605.75	16.308
606.09	15.939
606.42	16.053
606.75	15.742
607.09	15.783
607.42	16.532
607.75	16.335
608.08	16.140
608.42	16.082
608.75	16.584
609.08	15.917
609.41	16.101
609.75	16.295
610.08	16.315
610.41	16.313
610.74	16.429
611.07	16.119
611.41	16.009
611.74	16.952
612.07	16.176
612.40	16.635
612.73	17.017
613.07	16.235
613.40	16.506
613.73	16.177
614.06	16.241
614.39	15.403
614.72	16.836
615.06	15.784
615.39	15.901
615.72	16.445
616.05	15.736
616.38	16.650
616.71	16.510
617.05	16.134
617.38	16.907
617.71	17.171
618.04	16.352
618.37	16.885
618.70	15.781
619.03	16.607
619.36	16.461
619.69	16.464
620.03	16.133
620.36	16.871
620.69	16.471
621.02	17.192
621.35	17.126
621.68	18.004
622.01	16.584
622.34	16.248
622.67	16.014
623.00	15.924
623.33	16.788
623.66	16.991
623.99	16.063
624.32	17.154
624.65	16.795
624.99	16.450
625.32	17.113
625.65	16.723
625.98	16.203
626.31	16.513
626.64	16.923
626.97	16.279
627.30	15.262
627.63	16.129
627.96	17.868
628.29	17.043
628.62	15.953
628.95	17.266
629.28	15.888
629.61	17.340
629.94	16.402
630.26	16.441
630.59	17.012
630.92	17.749
631.25	17.979
631.58	17.137
631.91	17.245
632.24	17.675
632.57	17.552
632.90	18.455
633.23	18.673
633.56	16.122
633.89	16.322
634.22	16.944
634.55	17.432
634.88	17.641
635.20	17.438
635.53	18.418
635.86	17.660
636.19	18.346
636.52	17.932
636.85	16.445
637.18	16.944
637.51	18.280
637.83	17.165
638.16	18.548
638.49	17.019
638.82	17.249
639.15	16.495
639.48	18.707
639.81	17.898
640.13	17.079
640.46	15.394
640.79	15.931
641.12	17.019
641.45	16.437
641.77	20.154
642.10	17.060
642.43	19.016
642.76	17.615
643.09	18.904
643.41	16.527
643.74	17.379
644.07	19.862
644.40	16.690
644.73	16.836
645.05	17.474
645.38	17.698
645.71	18.328
646.04	18.364
646.36	16.204
646.69	17.945
647.02	19.266
647.35	18.321
647.67	17.552
648.00	18.631
648.33	17.868
648.66	18.545
648.98	16.735
649.31	17.185
649.64	17.131
649.96	15.915
650.29	15.160
650.62	17.539
650.94	16.967
651.27	17.216
651.60	17.251
651.92	16.565
652.25	16.932
652.58	16.644
652.90	15.698
653.23	15.915
653.56	16.976
653.88	17.837
654.21	16.620
654.54	18.353
654.86	17.847
655.19	16.562
655.52	15.722
655.84	14.919
656.17	17.024
656.49	23.767
656.82	26.105
657.15	20.497
657.47	15.783
657.80	11.807
658.13	9.338
658.45	12.255
658.78	14.847
659.10	14.333
659.43	14.811
659.75	13.944
660.08	13.725
660.41	12.986
660.73	14.709
661.06	15.125
661.38	15.949
661.71	17.241
662.03	16.402
662.36	16.995
662.68	15.197
663.01	17.345
663.33	20.416
663.66	18.315
663.98	15.577
664.31	16.135
664.63	16.378
664.96	19.419
665.28	16.152
665.61	16.958
665.93	14.821
666.26	17.025
666.58	15.129
666.91	16.636
667.23	16.190
667.56	16.963
667.88	18.800
668.21	14.258
668.53	16.409
668.86	16.896
669.18	16.904
669.50	16.302
669.83	15.600
670.15	15.945
670.48	18.254
670.80	15.488
671.13	14.745
671.45	15.748
671.77	19.209
672.10	15.500
672.42	15.372
672.75	15.207
673.07	13.881
673.39	14.484
673.72	16.275
674.04	15.345
674.37	16.279
674.69	17.989
675.01	16.190
675.34	15.076
675.66	17.228
675.98	18.843
676.31	17.578
676.63	17.300
676.95	18.008
677.28	17.540
677.60	14.764
677.92	17.850
678.25	16.271
678.57	15.302
678.89	16.212
679.22	14.808
679.54	16.068
679.86	14.237
680.18	14.428
680.51	17.767
680.83	16.530
681.15	16.552
681.48	16.753
681.80	15.199
682.12	14.336
682.44	16.194
682.77	15.248
683.09	15.530
683.41	16.860
683.73	17.078
684.06	14.391
684.38	14.311
684.70	15.440
685.02	14.630
685.34	14.809
685.67	15.300
685.99	14.264
686.31	13.227
686.63	13.744
686.96	15.457
687.28	15.147
687.60	13.468
687.92	13.505
688.24	16.528
688.56	12.586
688.89	15.426
689.21	15.264
689.53	16.078
689.85	15.187
690.17	14.630
690.49	14.343
690.82	13.069
691.14	11.741
691.46	16.635
691.78	15.838
692.10	12.661
692.42	12.321
692.74	13.975
693.06	12.222
693.39	16.698
693.71	13.158
694.03	14.870
694.35	15.429
694.67	15.811
694.99	15.532
695.31	16.115
695.63	14.502
695.95	13.458
696.27	14.505
696.59	17.035
696.91	14.189
697.23	16.923
697.56	13.646
697.88	14.962
698.20	13.559
698.52	17.992
698.84	16.424
699.16	16.122
699.48	12.134
699.80	13.191
700.12	15.066
700.44	14.747
700.76	14.014
701.08	14.528
701.40	16.062
701.72	15.920
702.04	15.508
702.36	14.660
702.68	13.447
703.00	10.758
703.32	11.823
703.64	15.403
703.96	10.501
704.28	11.057
704.60	15.696
704.91	15.051
705.23	15.342
705.55	11.699
705.87	14.242
706.19	14.417
706.51	10.542
706.83	11.239
707.15	12.963
707.47	9.579
707.79	12.445
708.11	11.229
708.43	10.968
708.74	8.259
709.06	12.761
709.38	13.850
709.70	15.385
710.02	12.403
710.34	13.564
710.66	10.894
710.98	13.934
711.29	11.813
711.61	14.689
711.93	13.390
712.25	15.135
712.57	12.684
712.89	16.471
713.20	12.130
713.52	13.873
713.84	13.649
714.16	14.474
714.48	15.206
714.80	14.286
715.11	11.286
715.43	14.058
715.75	15.526
716.07	12.707
716.39	17.213
716.70	9.940
717.02	11.475
717.34	6.272
717.66	13.087
717.97	8.904
718.29	10.997
718.61	14.145
718.93	12.945
719.24	12.112
719.56	12.270
719.88	11.712
720.20	13.548
720.51	12.112
720.83	13.125
721.15	11.184
721.46	9.247
721.78	9.333
722.10	9.061
722.42	14.094
722.73	14.516
723.05	15.088
723.37	13.542
723.68	15.771
724.00	13.357
724.32	11.620
724.63	10.839
724.95	14.184
725.27	8.014
725.58	9.894
725.90	13.793
726.22	12.226
726.53	14.935
726.85	12.579
727.16	11.782
727.48	10.092
727.80	10.596
728.11	12.721
728.43	13.468
728.74	8.027
729.06	8.940
729.38	13.636
729.69	13.758
730.01	13.988
730.32	9.091
730.64	10.377
730.96	11.801
731.27	9.777
731.59	12.637
731.90	10.649
732.22	10.937
732.53	10.497
732.85	12.286
733.16	14.956
733.48	8.232
733.80	11.142
734.11	13.390
734.43	13.243
734.74	14.684
735.06	7.789
735.37	12.162
735.69	14.324
736.00	10.169
736.32	9.973
736.63	9.722
736.95	8.908
737.26	11.212
737.58	9.091
737.89	12.353
738.21	12.232
738.52	9.508
738.83	12.628
739.15	11.702
739.46	10.884
739.78	14.417
740.09	12.034
740.41	11.662
740.72	10.000
741.04	14.563
741.35	11.228
741.66	12.549
741.98	13.525
742.29	7.950
742.61	12.281
742.92	8.846
743.23	11.913
743.55	9.302
743.86	9.200
744.18	7.438
744.49	10.127
744.80	11.934
745.12	13.080
745.43	11.382
745.74	10.345
746.06	12.712
746.37	12.236
746.68	17.480
747.00	8.750
747.31	6.009
747.62	10.000
747.94	8.097
748.25	10.843
748.56	7.347
748.88	8.547
749.19	16.810
749.50	9.091
749.82	11.245
750.13	13.879
750.44	6.333
750.75	9.846
751.07	11.385
751.38	12.618
751.69	9.265
752.01	10.032
752.32	10.784
752.63	10.204
752.94	13.149
753.26	11.152
753.57	8.148
753.88	8.614
754.19	12.219
754.51	8.039
754.82	11.254
755.13	13.115
755.44	8.874
755.75	12.171
756.07	14.030
756.38	10.377
756.69	12.048
757.00	11.634
757.31	13.115
757.63	10.742
757.94	12.207
758.25	12.190
758.56	10.240
758.87	11.591
759.18	8.267
759.50	11.615
759.81	8.964
760.12	7.547
760.43	10.937
760.74	9.852
761.05	12.250
761.36	12.771
761.67	11.421
761.99	11.351
762.30	7.317
762.61	6.601
762.92	10.075
763.23	11.610
763.54	10.072
763.85	10.309
764.16	9.091
764.47	10.211
764.78	12.460
765.10	11.144
765.41	10.769
765.72	6.614
766.03	10.734
766.34	4.702
766.65	6.620
766.96	6.375
767.27	7.834
767.58	1.990
767.89	10.577
768.20	8.920
768.51	8.796
768.82	13.253
769.13	9.091
769.44	5.769
769.75	13.718
770.06	8.846
770.37	9.055
770.68	5.957
770.99	3.644
771.30	16.667
771.61	6.464
771.92	8.148
772.23	10.526
772.54	3.241
772.85	11.982
773.16	8.571
773.47	2.116
773.78	2.703
774.09	13.068
774.39	11.000
774.70	10.383
775.01	6.098
775.32	5.882
775.63	7.362
775.94	3.185
776.25	5.806
776.56	8.333
776.87	12.245
777.18	7.586
777.48	-0.699
777.79	8.784
778.10	0.735
778.41	0.694
778.72	-0.690
779.03	10.494
779.34	3.030
779.65	5.699
779.95	5.000
780.26	5.114
780.57	9.032
780.88	15.217
781.19	16.774
781.50	10.588
781.80	14.516
782.11	12.698
782.42	8.586
782.73	2.395
783.04	0.000
783.34	5.455
783.65	-1.961
783.96	9.317
784.27	8.929
784.57	2.649
784.88	5.714
785.19	-3.150
785.50	6.299
785.81	12.030
786.11	6.154
786.42	4.317
786.73	4.317
787.04	7.519
787.34	-4.918
787.65	4.800
787.96	11.194
788.26	8.392
788.57	14.685
788.88	1.974
789.19	10.458
789.49	-0.685
789.80	9.929
790.11	8.661
790.41	8.594
790.72	7.627
791.03	-15.534
791.33	3.478
791.64	5.263
791.95	-3.571
792.25	-3.810
792.56	5.357
792.87	-13.542
793.17	4.464
793.48	-6.250
793.79	-7.229
794.09	0.917
794.40	-2.752
794.70	5.442
795.01	3.247
795.32	2.055
795.62	4.930
795.93	0.000
796.23	3.279
796.54	4.464
796.85	-4.255
797.15	-13.043
797.46	-23.288
797.76	-8.750
798.07	2.174
798.37	-9.278
798.68	-15.584
798.99	-3.448
799.29	3.371
799.60	-3.191
799.90	-8.434
800.21	3.077
800.51	-13.433
800.82	-11.765
801.12	-26.027
801.43	-20.588
801.73	-15.254
802.04	-13.636
802.34	-18.333
802.65	-8.475
802.95	-8.955
803.26	-16.949
803.56	-6.849
803.87	-1.429
804.17	-10.959
804.48	-14.035
804.78	-13.889
805.09	-20.690
805.39	-5.405
805.70	-9.859
806.00	-9.756
806.30	-9.639
806.61	-13.699
806.91	-5.769
807.22	-3.333
807.52	-17.241
807.83	-5.556
808.13	3.614
808.43	-7.865
808.74	-5.000
809.04	-23.529
809.35	-2.667
809.65	-10.000
809.95	1.370
810.26	-21.053
810.56	-10.345
810.86	-5.882
811.17	-29.825
811.47	-34.426
811.77	-28.889
812.08	-11.864
812.38	-6.667
812.69	1.724
812.99	-30.189
813.29	-23.077
813.59	-20.000
813.90	-14.035
814.20	-12.727
814.50	1.408
814.81	6.410
815.11	-4.918
815.41	-19.403
815.72	1.724
816.02	-10.714
816.32	6.667
816.62	-13.636
816.93	-20.000
817.23	-7.407
817.53	-36.170
817.84	-23.810
818.14	-44.118
818.44	-16.327
818.74	-31.111
819.04	-48.718
819.35	-65.714
819.65	-96.154
819.95	-16.981
820.25	-28.889
820.56	-33.333
820.86	-50.000
821.16	-28.205
821.46	-37.209
821.76	-36.000
822.07	-19.643
822.37	-23.913
822.67	-23.404
822.97	-56.757
823.27	-30.000
823.57	8.163
823.88	-2.222
824.18	-35.000
824.48	-60.000
824.78	-32.000
825.08	-42.424
825.38	4.444
825.69	-6.383
825.99	-11.111
826.29	-80.000
826.59	-41.026
826.89	-39.535
827.19	-8.000
827.49	-26.471
827.79	-16.667
828.09	-24.324
828.39	-53.333
828.70	-43.902
829.00	-27.907
829.30	-92.857
829.60	-26.471
829.90	-13.043
830.20	-45.714
830.50	-72.414
830.80	-105.556
831.10	-38.462
831.40	-61.765
831.70	-47.619
832.00	-19.355
832.30	-205.882
832.60	-87.500
832.90	-207.692
833.20	-110.526
833.50	-60.000
833.80	-68.421
834.10	-128.571
834.40	-27.778
834.70	-28.125
835.00	-51.429
835.30	-32.353
835.60	-50.000
835.90	-40.000
836.20	-109.091
836.50	-56.000
836.80	-63.636
837.10	-59.259
837.40	-22.222
837.70	-112.500
838.00	-17.857
838.30	-52.174
838.60	-41.379
838.90	-142.857
839.19	-82.609
839.49	-233.333
839.79	-69.565
840.09	-150.000
840.39	-60.000
840.69	-22.581
840.99	-42.857
841.29	-100.000
841.59	-100.000
841.88	-30.769
842.18	-96.154
842.48	-200.000
842.78	-30.000
843.08	-53.333
843.38	-3.226
843.68	-122.222
843.97	-26.471
844.27	-62.500
844.57	-57.895
844.87	-190.000
845.17	-93.333
845.47	-38.095
845.76	-95.238
846.06	-222.222
846.36	-76.471
846.66	-53.846
846.96	-166.667
847.25	-111.765
847.55	-34.783
847.85	-55.000
848.15	-82.353
848.44	-63.636
848.74	-47.619
849.04	-75.000
849.34	-37.500
849.63	-21.739
849.93	750.000
850.23	-100.000
850.53	-15.385
850.82	-154.545
851.12	-36.364
851.42	-209.091
851.71	-46.154
852.01	-30.000
852.31	-123.077
852.61	-131.579
852.90	-100.000
853.20	-105.556
853.50	-322.222
853.79	-114.286
854.09	-109.091
854.39	-208.333
854.68	-41.935
854.98	-65.385
855.28	-77.778
855.57	-71.429
855.87	-8.000
856.17	-68.182
856.46	-51.852
856.76	-105.556
857.05	-43.478
857.35	-87.500
857.65	-184.615
857.94	-76.190
858.24	-37.037
858.53	-17.391
858.83	-123.529
859.13	-111.765
859.42	-64.706
859.72	-121.429
860.01	-95.000
860.31	-233.333
860.60	-100.000
860.90	-33.333
861.20	-50.000
861.49	-61.538
861.79	-63.333
862.08	-184.615
862.38	3.125
862.67	-70.588
862.97	-68.750
863.26	-166.667
863.56	-160.000
863.85	-254.545
864.15	-72.222
864.44	-400.000
864.74	-107.143
865.03	-62.500
865.33	-190.000
865.62	-77.419
865.92	-13.636
866.21	-39.130
866.51	-100.000
866.80	-480.000
867.10	-225.000
867.39	-208.333
867.69	2500.000
867.98	-228.571
868.27	-58.824
868.57	-2600.000
868.86	-230.000
869.16	-100.000
869.45	0.000
869.75	-81.818
870.04	-200.000
870.33	-100.000
870.63	-414.286
870.92	-475.000
871.22	-225.000
871.51	-172.727
871.80	-633.333
872.10	-600.000
>>>>>End Processed Spectral Data<<<<<
