SpectraSuite Data File
++++++++++++++++++++++++++++++++++++
Date: Thu May 14 16:00:44 PDT 2015
User: schluterlab
Dark Spectrum Present: Yes
Reference Spectrum Present: Yes
Number of Sampled Component Spectra: 1
Spectrometers: USB2E3373
Integration Time (usec): 3000 (USB2E3373)
Spectra Averaged: 3 (USB2E3373)
Boxcar Smoothing: 0 (USB2E3373)
Correct for Electrical Dark: No (USB2E3373)
Strobe/Lamp Enabled: No (USB2E3373)
Correct for Detector Non-linearity: No (USB2E3373)
Correct for Stray Light: No (USB2E3373)
Number of Pixels in Processed Spectrum: 2048
>>>>>Begin Processed Spectral Data<<<<<
178.53	0.000
178.91	200.000
179.29	-2400.000
179.67	-2100.000
180.04	264.286
180.42	160.000
180.80	360.000
181.18	-2200.000
181.56	-1800.000
181.94	625.000
182.31	-425.000
182.69	700.000
183.07	-900.000
183.45	475.000
183.83	-216.667
184.20	-766.667
184.58	2400.000
184.96	-425.000
185.34	-100.000
185.72	-320.000
186.09	333.333
186.47	1000.000
186.85	420.000
187.23	-244.444
187.61	-2300.000
187.98	260.000
188.36	525.000
188.74	-500.000
189.12	-566.667
189.49	-56.250
189.87	-262.500
190.25	-188.889
190.63	-420.000
191.00	-200.000
191.38	0.000
191.76	-450.000
192.14	-300.000
192.51	1050.000
192.89	-150.000
193.27	0.000
193.65	-228.571
194.02	-2500.000
194.40	-342.857
194.78	285.714
195.15	0.000
195.53	-100.000
195.91	0.000
196.29	-150.000
196.66	-138.462
197.04	-2500.000
197.42	-457.143
197.79	-850.000
198.17	-212.500
198.55	-300.000
198.92	-88.889
199.30	-250.000
199.68	-145.455
200.05	-42.857
200.43	-750.000
200.81	400.000
201.18	0.000
201.56	333.333
201.94	0.000
202.31	633.333
202.69	-188.889
203.07	1700.000
203.44	-166.667
203.82	-350.000
204.19	-91.667
204.57	-233.333
204.95	-187.500
205.32	-1200.000
205.70	400.000
206.08	-233.333
206.45	-100.000
206.83	440.000
207.20	-283.333
207.58	-460.000
207.96	-433.333
208.33	-150.000
208.71	150.000
209.08	-250.000
209.46	0.000
209.84	433.333
210.21	1100.000
210.59	1150.000
210.96	433.333
211.34	-350.000
211.71	-200.000
212.09	-1800.000
212.46	0.000
212.84	1350.000
213.22	-280.000
213.59	-375.000
213.97	-90.000
214.34	-366.667
214.72	400.000
215.09	-475.000
215.47	0.000
215.84	42.857
216.22	1000.000
216.59	-240.000
216.97	-180.000
217.34	-350.000
217.72	-87.500
218.09	-425.000
218.47	-350.000
218.84	0.000
219.22	420.000
219.59	-47.059
219.97	-75.000
220.34	850.000
220.72	-288.889
221.09	-7.692
221.47	-600.000
221.84	-120.000
222.22	-300.000
222.59	0.000
222.97	-87.500
223.34	-460.000
223.72	-1900.000
224.09	-525.000
224.46	-500.000
224.84	-140.000
225.21	-371.429
225.59	-550.000
225.96	-400.000
226.34	-38.462
226.71	366.667
227.08	-650.000
227.46	-60.000
227.83	-375.000
228.21	-36.842
228.58	237.500
228.95	850.000
229.33	-25.000
229.70	-110.000
230.08	-15.789
230.45	260.000
230.82	-500.000
231.20	-150.000
231.57	-91.667
231.95	-136.364
232.32	-136.364
232.69	-35.000
233.07	-475.000
233.44	-88.235
233.81	-150.000
234.19	-22.222
234.56	-63.636
234.93	0.000
235.31	-42.105
235.68	-38.889
236.05	-90.000
236.43	-7.692
236.80	28.000
237.17	-25.926
237.55	-36.364
237.92	-140.000
238.29	-25.806
238.67	-34.091
239.04	0.000
239.41	-21.429
239.79	4.348
240.16	-18.519
240.53	-23.913
240.91	-3.922
241.28	3.279
241.65	19.403
242.02	21.622
242.40	1.538
242.77	-2.667
243.14	-7.317
243.51	-6.579
243.89	7.692
244.26	7.921
244.63	12.745
245.00	22.430
245.38	14.912
245.75	7.080
246.12	15.079
246.49	6.977
246.87	20.000
247.24	15.232
247.61	19.079
247.98	18.792
248.36	17.901
248.73	24.540
249.10	13.661
249.47	18.408
249.84	26.178
250.22	16.062
250.59	19.444
250.96	21.364
251.33	16.327
251.70	22.222
252.08	20.000
252.45	27.049
252.82	19.008
253.19	22.266
253.56	22.814
253.94	23.077
254.31	25.758
254.68	21.329
255.05	24.104
255.42	22.789
255.79	19.094
256.16	23.510
256.54	27.152
256.91	22.295
257.28	21.639
257.65	18.471
258.02	23.009
258.39	21.652
258.76	27.523
259.14	24.713
259.51	26.225
259.88	19.263
260.25	23.889
260.62	23.562
260.99	25.956
261.36	23.861
261.73	25.199
262.10	26.374
262.47	24.129
262.85	27.778
263.22	23.896
263.59	21.842
263.96	25.575
264.33	23.274
264.70	24.444
265.07	26.492
265.44	26.531
265.81	22.917
266.18	28.345
266.55	25.223
266.92	23.690
267.29	26.258
267.66	24.612
268.03	25.109
268.40	24.008
268.77	24.146
269.14	22.907
269.51	24.781
269.88	26.025
270.25	25.352
270.62	25.105
270.99	27.071
271.36	25.743
271.73	25.344
272.10	27.255
272.47	26.854
272.84	26.104
273.21	23.647
273.58	25.403
273.95	26.538
274.32	24.335
274.69	23.985
275.06	25.092
275.43	23.475
275.80	25.220
276.17	23.704
276.54	23.881
276.91	22.719
277.28	25.497
277.65	24.776
278.02	26.471
278.39	24.457
278.76	22.320
279.13	23.227
279.50	25.086
279.87	27.013
280.23	20.599
280.60	25.424
280.97	25.493
281.34	24.618
281.71	25.550
282.08	23.256
282.45	23.241
282.82	22.449
283.19	22.617
283.56	23.115
283.92	25.676
284.29	23.381
284.66	24.466
285.03	21.955
285.40	24.420
285.77	24.458
286.14	26.107
286.51	22.527
286.87	22.591
287.24	24.096
287.61	22.571
287.98	21.299
288.35	22.337
288.72	24.112
289.08	24.012
289.45	21.450
289.82	22.741
290.19	23.563
290.56	22.958
290.93	22.682
291.29	22.865
291.66	22.727
292.03	20.488
292.40	24.218
292.77	19.946
293.13	20.568
293.50	20.499
293.87	19.463
294.24	21.867
294.60	18.963
294.97	18.389
295.34	20.871
295.71	19.546
296.08	19.380
296.44	19.730
296.81	19.976
297.18	19.178
297.55	19.811
297.91	18.980
298.28	19.194
298.65	19.025
299.02	19.717
299.38	20.595
299.75	18.575
300.12	18.287
300.48	18.664
300.85	19.460
301.22	19.239
301.59	18.379
301.95	19.322
302.32	19.778
302.69	17.744
303.05	19.151
303.42	19.512
303.79	18.021
304.15	19.453
304.52	18.816
304.89	18.534
305.25	17.288
305.62	18.704
305.99	18.351
306.35	18.649
306.72	19.235
307.09	17.868
307.45	19.462
307.82	18.567
308.19	19.173
308.55	19.961
308.92	18.598
309.29	17.816
309.65	18.129
310.02	19.406
310.38	18.898
310.75	19.029
311.12	20.422
311.48	19.257
311.85	19.373
312.22	19.924
312.58	19.531
312.95	19.216
313.31	20.506
313.68	20.330
314.05	21.138
314.41	19.854
314.78	20.890
315.14	21.416
315.51	21.699
315.87	20.882
316.24	22.557
316.61	22.025
316.97	20.724
317.34	22.046
317.70	22.707
318.07	22.399
318.43	22.364
318.80	23.579
319.16	22.146
319.53	22.879
319.89	23.663
320.26	24.377
320.62	23.227
320.99	23.269
321.35	22.921
321.72	25.581
322.08	25.609
322.45	25.384
322.81	25.812
323.18	26.018
323.54	26.121
323.91	26.423
324.27	26.506
324.64	26.952
325.00	26.866
325.37	26.454
325.73	26.942
326.10	27.818
326.46	27.932
326.83	29.303
327.19	28.110
327.56	28.458
327.92	28.718
328.29	28.468
328.65	28.141
329.01	28.934
329.38	27.885
329.74	29.452
330.11	29.795
330.47	29.570
330.84	29.630
331.20	29.083
331.56	30.416
331.93	29.874
332.29	30.593
332.66	30.233
333.02	30.151
333.38	30.537
333.75	31.397
334.11	29.608
334.48	30.776
334.84	30.501
335.20	31.150
335.57	30.860
335.93	31.240
336.29	30.200
336.66	30.698
337.02	31.104
337.38	32.483
337.75	29.669
338.11	31.119
338.47	30.190
338.84	30.795
339.20	29.907
339.56	31.466
339.93	30.131
340.29	30.274
340.65	30.333
341.02	31.045
341.38	31.528
341.74	29.701
342.11	31.617
342.47	30.421
342.83	31.401
343.20	31.480
343.56	31.435
343.92	30.745
344.28	30.937
344.65	31.318
345.01	31.201
345.37	31.493
345.73	30.553
346.10	30.655
346.46	30.538
346.82	31.011
347.19	31.551
347.55	31.108
347.91	30.163
348.27	31.942
348.63	31.607
349.00	31.171
349.36	31.896
349.72	30.729
350.08	31.426
350.45	31.483
350.81	32.278
351.17	32.256
351.53	31.084
351.89	32.802
352.26	31.194
352.62	32.164
352.98	32.137
353.34	30.919
353.70	32.280
354.07	32.936
354.43	31.967
354.79	32.311
355.15	31.567
355.51	32.529
355.87	31.339
356.24	31.103
356.60	32.077
356.96	31.950
357.32	31.078
357.68	30.966
358.04	32.036
358.40	32.239
358.77	32.968
359.13	31.979
359.49	31.599
359.85	32.270
360.21	32.496
360.57	32.879
360.93	30.818
361.29	33.544
361.66	33.237
362.02	32.846
362.38	33.942
362.74	32.472
363.10	32.531
363.46	33.241
363.82	33.949
364.18	33.779
364.54	33.956
364.90	34.181
365.26	33.586
365.62	33.667
365.98	33.833
366.35	33.758
366.71	34.354
367.07	34.371
367.43	34.143
367.79	34.506
368.15	34.314
368.51	34.641
368.87	33.573
369.23	34.133
369.59	34.699
369.95	32.995
370.31	34.099
370.67	33.425
371.03	34.072
371.39	34.654
371.75	34.594
372.11	34.282
372.47	35.003
372.83	35.079
373.19	33.956
373.55	34.688
373.91	34.151
374.27	34.864
374.63	34.641
374.99	34.284
375.35	35.260
375.71	35.226
376.07	34.668
376.42	35.390
376.78	35.550
377.14	34.623
377.50	35.674
377.86	35.776
378.22	36.228
378.58	35.969
378.94	35.505
379.30	35.911
379.66	34.744
380.02	36.007
380.38	36.060
380.74	35.944
381.09	36.237
381.45	36.364
381.81	37.939
382.17	36.639
382.53	35.731
382.89	36.625
383.25	37.222
383.61	35.764
383.97	36.337
384.32	36.842
384.68	35.499
385.04	37.016
385.40	38.126
385.76	37.632
386.12	36.804
386.48	38.353
386.83	37.902
387.19	36.790
387.55	37.559
387.91	37.329
388.27	38.279
388.62	37.285
388.98	37.225
389.34	37.890
389.70	37.188
390.06	37.241
390.42	37.349
390.77	38.471
391.13	36.796
391.49	37.560
391.85	36.970
392.20	38.612
392.56	38.571
392.92	38.004
393.28	38.087
393.64	38.101
393.99	39.163
394.35	39.019
394.71	37.365
395.07	38.263
395.42	37.693
395.78	38.818
396.14	39.216
396.50	39.311
396.85	37.806
397.21	38.462
397.57	37.691
397.92	39.290
398.28	39.218
398.64	38.501
399.00	37.068
399.35	38.743
399.71	38.696
400.07	39.191
400.42	38.533
400.78	38.889
401.14	39.215
401.49	38.601
401.85	38.721
402.21	38.992
402.57	38.732
402.92	38.889
403.28	38.583
403.63	38.305
403.99	38.539
404.35	39.113
404.70	39.433
405.06	38.913
405.42	39.520
405.77	39.368
406.13	38.790
406.49	39.527
406.84	39.114
407.20	38.569
407.55	38.583
407.91	38.781
408.27	38.457
408.62	38.918
408.98	38.247
409.34	38.475
409.69	39.431
410.05	39.566
410.40	38.805
410.76	38.867
411.11	38.808
411.47	39.373
411.83	38.977
412.18	39.398
412.54	38.589
412.89	38.708
413.25	38.995
413.60	38.656
413.96	38.695
414.31	38.300
414.67	37.746
415.03	38.215
415.38	39.533
415.74	38.607
416.09	39.543
416.45	38.259
416.80	37.944
417.16	39.017
417.51	38.232
417.87	39.117
418.22	39.461
418.58	39.095
418.93	40.279
419.29	39.273
419.64	39.196
420.00	38.932
420.35	38.630
420.71	39.230
421.06	38.470
421.42	39.794
421.77	38.072
422.12	38.689
422.48	39.427
422.83	40.252
423.19	38.992
423.54	40.155
423.90	38.984
424.25	39.840
424.61	39.724
424.96	39.264
425.31	39.225
425.67	39.023
426.02	41.063
426.38	40.413
426.73	39.007
427.09	40.311
427.44	39.323
427.79	40.520
428.15	38.699
428.50	40.281
428.85	38.576
429.21	39.628
429.56	39.191
429.92	39.754
430.27	40.000
430.62	39.912
430.98	38.515
431.33	39.198
431.68	39.416
432.04	40.274
432.39	38.672
432.74	39.897
433.10	41.103
433.45	39.298
433.80	40.343
434.16	40.599
434.51	40.082
434.86	40.988
435.22	40.701
435.57	41.568
435.92	40.122
436.28	40.273
436.63	41.344
436.98	38.916
437.34	40.643
437.69	40.286
438.04	39.873
438.39	40.609
438.75	39.679
439.10	41.385
439.45	40.470
439.81	40.169
440.16	39.464
440.51	40.412
440.86	39.800
441.22	40.407
441.57	40.776
441.92	39.428
442.27	41.162
442.63	40.338
442.98	40.715
443.33	40.347
443.68	40.585
444.03	41.063
444.39	40.499
444.74	41.654
445.09	40.091
445.44	40.674
445.79	40.517
446.15	40.288
446.50	40.517
446.85	40.759
447.20	40.280
447.55	40.900
447.91	40.366
448.26	39.641
448.61	40.436
448.96	41.041
449.31	39.555
449.66	40.305
450.02	40.137
450.37	40.810
450.72	39.828
451.07	39.977
451.42	40.266
451.77	39.466
452.12	41.704
452.47	39.335
452.83	40.315
453.18	39.463
453.53	38.828
453.88	38.984
454.23	40.339
454.58	40.685
454.93	39.320
455.28	40.397
455.63	40.023
455.98	40.335
456.34	38.516
456.69	39.800
457.04	39.539
457.39	40.687
457.74	40.101
458.09	39.264
458.44	39.925
458.79	37.906
459.14	39.224
459.49	39.842
459.84	40.189
460.19	38.590
460.54	39.864
460.89	39.598
461.24	39.368
461.59	39.458
461.94	38.391
462.29	40.090
462.64	38.865
462.99	39.422
463.34	38.871
463.69	37.866
464.04	39.633
464.39	38.677
464.74	38.141
465.09	38.120
465.44	39.056
465.79	38.287
466.14	38.197
466.49	38.263
466.84	37.521
467.19	37.803
467.54	37.074
467.89	37.241
468.24	37.950
468.59	37.464
468.94	36.946
469.29	37.313
469.64	37.127
469.99	37.795
470.34	38.243
470.68	38.209
471.03	37.917
471.38	38.064
471.73	36.346
472.08	36.421
472.43	36.364
472.78	37.406
473.13	37.295
473.48	36.737
473.83	37.028
474.17	36.108
474.52	38.244
474.87	36.545
475.22	36.901
475.57	36.345
475.92	37.432
476.27	37.327
476.61	36.501
476.96	36.131
477.31	36.436
477.66	37.408
478.01	37.062
478.36	35.793
478.70	36.305
479.05	36.810
479.40	37.019
479.75	36.840
480.10	36.333
480.45	35.369
480.79	35.692
481.14	35.983
481.49	35.484
481.84	36.466
482.19	36.129
482.53	36.773
482.88	35.933
483.23	36.194
483.58	35.721
483.92	34.353
484.27	35.309
484.62	35.066
484.97	35.653
485.31	34.636
485.66	33.135
486.01	33.795
486.36	34.793
486.70	35.710
487.05	36.232
487.40	36.081
487.75	35.522
488.09	34.827
488.44	34.803
488.79	34.570
489.13	33.997
489.48	34.524
489.83	34.085
490.17	34.710
490.52	34.442
490.87	34.729
491.22	34.272
491.56	33.618
491.91	34.976
492.26	33.752
492.60	33.406
492.95	34.577
493.30	33.797
493.64	33.246
493.99	33.640
494.34	32.622
494.68	32.934
495.03	33.833
495.37	33.600
495.72	33.333
496.07	33.392
496.41	32.819
496.76	33.778
497.11	33.800
497.45	33.578
497.80	33.940
498.14	33.288
498.49	33.318
498.84	32.998
499.18	33.108
499.53	32.601
499.87	32.879
500.22	32.591
500.56	33.198
500.91	33.181
501.26	33.409
501.60	32.346
501.95	32.306
502.29	32.646
502.64	33.450
502.98	32.097
503.33	32.484
503.67	31.531
504.02	31.918
504.36	32.350
504.71	31.879
505.06	32.196
505.40	31.993
505.75	32.741
506.09	32.781
506.44	32.730
506.78	31.789
507.13	32.596
507.47	33.018
507.82	31.487
508.16	31.788
508.51	31.974
508.85	31.176
509.19	31.454
509.54	31.412
509.88	31.034
510.23	31.812
510.57	32.093
510.92	31.011
511.26	30.832
511.61	30.227
511.95	31.235
512.30	31.905
512.64	31.684
512.98	30.715
513.33	31.452
513.67	31.158
514.02	31.528
514.36	31.202
514.70	30.417
515.05	31.335
515.39	31.286
515.74	31.654
516.08	31.590
516.42	31.554
516.77	31.178
517.11	30.892
517.46	31.442
517.80	31.267
518.14	31.066
518.49	30.911
518.83	30.921
519.17	29.618
519.52	30.818
519.86	30.676
520.20	31.470
520.55	31.544
520.89	30.743
521.23	30.486
521.58	30.734
521.92	30.878
522.26	30.011
522.61	30.382
522.95	30.219
523.29	30.115
523.64	28.868
523.98	30.234
524.32	31.117
524.66	30.222
525.01	30.294
525.35	29.351
525.69	30.104
526.04	28.932
526.38	30.115
526.72	30.046
527.06	29.677
527.41	30.262
527.75	29.572
528.09	29.811
528.43	30.136
528.78	29.306
529.12	29.472
529.46	29.230
529.80	29.348
530.15	30.029
530.49	30.130
530.83	29.693
531.17	30.227
531.51	30.024
531.86	29.147
532.20	29.634
532.54	29.264
532.88	28.788
533.22	28.226
533.57	29.544
533.91	29.237
534.25	28.378
534.59	29.138
534.93	30.221
535.27	28.169
535.62	28.766
535.96	28.762
536.30	28.143
536.64	29.670
536.98	29.151
537.32	28.519
537.66	29.008
538.01	27.674
538.35	28.319
538.69	28.606
539.03	28.571
539.37	27.267
539.71	28.649
540.05	28.118
540.39	27.995
540.73	26.958
541.07	27.713
541.42	27.820
541.76	27.046
542.10	27.081
542.44	26.736
542.78	29.075
543.12	27.414
543.46	26.923
543.80	26.859
544.14	27.289
544.48	27.660
544.82	27.768
545.16	27.311
545.50	27.262
545.84	27.434
546.18	28.025
546.52	27.070
546.86	27.421
547.20	27.226
547.54	26.654
547.88	26.703
548.22	26.374
548.56	26.331
548.90	27.104
549.24	27.173
549.58	26.814
549.92	27.870
550.26	26.861
550.60	26.930
550.94	26.973
551.28	26.997
551.62	26.280
551.96	25.890
552.30	26.577
552.64	26.260
552.98	27.199
553.32	27.331
553.66	26.881
554.00	26.356
554.34	26.255
554.68	26.404
555.02	26.347
555.36	26.890
555.69	25.112
556.03	25.788
556.37	26.658
556.71	26.443
557.05	26.390
557.39	25.946
557.73	25.694
558.07	26.291
558.41	27.110
558.75	26.504
559.08	26.931
559.42	26.132
559.76	26.594
560.10	26.256
560.44	26.979
560.78	25.812
561.12	26.293
561.45	26.217
561.79	26.252
562.13	25.755
562.47	25.586
562.81	24.873
563.15	25.758
563.48	26.600
563.82	25.937
564.16	25.803
564.50	25.387
564.84	25.428
565.17	26.000
565.51	24.453
565.85	26.069
566.19	24.712
566.52	25.746
566.86	25.410
567.20	25.394
567.54	25.066
567.88	25.178
568.21	25.247
568.55	25.899
568.89	25.874
569.23	25.391
569.56	25.909
569.90	26.301
570.24	25.868
570.57	25.850
570.91	25.475
571.25	24.819
571.59	25.605
571.92	25.293
572.26	25.463
572.60	25.553
572.93	25.188
573.27	25.035
573.61	25.251
573.95	25.030
574.28	25.251
574.62	25.148
574.96	24.526
575.29	24.411
575.63	24.694
575.97	24.719
576.30	24.402
576.64	24.767
576.98	24.556
577.31	24.573
577.65	25.361
577.98	24.661
578.32	24.674
578.66	24.953
578.99	24.432
579.33	24.189
579.67	24.728
580.00	24.432
580.34	24.564
580.67	24.890
581.01	24.427
581.35	24.216
581.68	24.241
582.02	24.365
582.35	24.877
582.69	24.803
583.02	25.304
583.36	24.933
583.70	24.449
584.03	24.406
584.37	24.661
584.70	24.132
585.04	23.925
585.37	23.531
585.71	24.056
586.04	24.064
586.38	24.095
586.72	23.891
587.05	24.303
587.39	24.109
587.72	24.354
588.06	24.371
588.39	23.998
588.73	24.021
589.06	23.928
589.40	24.401
589.73	23.586
590.07	24.503
590.40	23.732
590.73	23.789
591.07	24.535
591.40	23.367
591.74	23.609
592.07	23.995
592.41	23.423
592.74	24.175
593.08	24.268
593.41	24.322
593.75	23.707
594.08	24.084
594.41	23.622
594.75	23.613
595.08	23.385
595.42	23.831
595.75	24.120
596.09	23.484
596.42	23.719
596.75	23.234
597.09	23.394
597.42	23.520
597.75	23.246
598.09	23.810
598.42	24.045
598.76	22.927
599.09	23.389
599.42	22.997
599.76	23.341
600.09	23.490
600.42	23.223
600.76	23.118
601.09	23.166
601.42	23.138
601.76	23.241
602.09	23.016
602.42	23.083
602.76	23.137
603.09	22.577
603.42	22.760
603.76	22.833
604.09	23.669
604.42	24.037
604.76	23.097
605.09	23.055
605.42	22.727
605.75	23.038
606.09	22.396
606.42	22.072
606.75	22.489
607.09	22.389
607.42	22.736
607.75	22.313
608.08	22.810
608.42	22.289
608.75	22.098
609.08	21.859
609.41	22.364
609.75	22.768
610.08	23.175
610.41	21.963
610.74	22.059
611.07	22.647
611.41	23.184
611.74	23.372
612.07	22.768
612.40	21.911
612.73	22.200
613.07	22.054
613.40	22.762
613.73	22.773
614.06	22.326
614.39	22.109
614.72	22.028
615.06	21.367
615.39	22.523
615.72	21.517
616.05	22.292
616.38	22.704
616.71	21.996
617.05	22.258
617.38	21.830
617.71	22.840
618.04	21.856
618.37	23.005
618.70	22.568
619.03	21.983
619.36	21.208
619.69	21.589
620.03	22.473
620.36	21.534
620.69	20.975
621.02	21.588
621.35	22.424
621.68	22.198
622.01	21.210
622.34	21.199
622.67	21.031
623.00	19.838
623.33	21.632
623.66	22.049
623.99	21.461
624.32	23.002
624.65	20.849
624.99	22.042
625.32	22.404
625.65	22.185
625.98	21.220
626.31	20.978
626.64	21.905
626.97	21.455
627.30	21.868
627.63	21.980
627.96	21.922
628.29	21.479
628.62	20.655
628.95	19.281
629.28	20.391
629.61	21.128
629.94	19.582
630.26	20.508
630.59	20.725
630.92	19.913
631.25	21.735
631.58	21.092
631.91	21.556
632.24	21.134
632.57	21.063
632.90	21.264
633.23	20.102
633.56	19.592
633.89	20.248
634.22	21.830
634.55	19.937
634.88	19.156
635.20	20.344
635.53	21.017
635.86	20.260
636.19	21.209
636.52	21.097
636.85	19.918
637.18	18.295
637.51	20.645
637.83	20.819
638.16	19.700
638.49	18.897
638.82	20.631
639.15	20.275
639.48	21.247
639.81	19.400
640.13	19.081
640.46	19.515
640.79	18.750
641.12	19.627
641.45	19.322
641.77	21.053
642.10	19.554
642.43	19.681
642.76	20.461
643.09	19.452
643.41	21.008
643.74	20.138
644.07	20.552
644.40	18.812
644.73	19.158
645.05	18.062
645.38	19.137
645.71	19.648
646.04	18.221
646.36	18.248
646.69	19.939
647.02	20.489
647.35	19.237
647.67	16.908
648.00	20.701
648.33	20.120
648.66	19.544
648.98	18.367
649.31	19.350
649.64	19.256
649.96	20.690
650.29	16.690
650.62	19.661
650.94	19.520
651.27	17.365
651.60	20.175
651.92	18.693
652.25	20.116
652.58	17.607
652.90	19.186
653.23	20.141
653.56	18.973
653.88	21.348
654.21	19.155
654.54	16.908
654.86	20.680
655.19	18.695
655.52	21.229
655.84	21.656
656.17	25.414
656.49	35.803
656.82	39.128
657.15	30.589
657.47	23.077
657.80	17.023
658.13	13.239
658.45	17.271
658.78	20.688
659.10	19.859
659.43	20.257
659.75	19.822
660.08	18.599
660.41	17.287
660.73	15.735
661.06	16.446
661.38	16.108
661.71	19.310
662.03	16.755
662.36	19.141
662.68	17.261
663.01	17.699
663.33	18.336
663.66	19.231
663.98	17.308
664.31	19.137
664.63	17.148
664.96	17.423
665.28	18.149
665.61	18.357
665.93	17.679
666.26	18.100
666.58	16.790
666.91	17.570
667.23	20.762
667.56	18.738
667.88	18.800
668.21	16.602
668.53	16.023
668.86	17.682
669.18	18.534
669.50	14.911
669.83	16.800
670.15	16.535
670.48	18.056
670.80	17.017
671.13	18.904
671.45	16.732
671.77	16.196
672.10	17.667
672.42	16.181
672.75	16.590
673.07	17.463
673.39	17.257
673.72	19.295
674.04	17.414
674.37	16.995
674.69	19.224
675.01	18.095
675.34	17.176
675.66	18.165
675.98	17.164
676.31	15.234
676.63	18.441
676.95	19.349
677.28	14.718
677.60	14.370
677.92	15.739
678.25	19.378
678.57	18.149
678.89	18.259
679.22	16.202
679.54	16.752
679.86	16.780
680.18	16.418
680.51	19.497
680.83	17.021
681.15	16.552
681.48	16.753
681.80	17.789
682.12	17.832
682.44	18.531
682.77	17.908
683.09	18.182
683.41	17.054
683.73	16.888
684.06	15.314
684.38	13.775
684.70	19.031
685.02	17.384
685.34	16.972
685.67	17.981
685.99	16.258
686.31	16.134
686.63	18.641
686.96	15.931
687.28	17.264
687.60	16.330
687.92	15.113
688.24	19.866
688.56	15.345
688.89	17.060
689.21	16.830
689.53	14.706
689.85	14.398
690.17	16.481
690.49	16.733
690.82	15.248
691.14	14.980
691.46	17.400
691.78	18.232
692.10	16.330
692.42	15.893
692.74	15.608
693.06	14.444
693.39	17.268
693.71	16.165
694.03	16.914
694.35	16.571
694.67	17.659
694.99	15.319
695.31	18.102
695.63	15.801
695.95	14.079
696.27	14.725
696.59	16.593
696.91	15.766
697.23	16.264
697.56	16.293
697.88	15.530
698.20	15.819
698.52	18.182
698.84	16.216
699.16	15.510
699.48	15.272
699.80	14.255
700.12	15.502
700.44	16.359
700.76	17.815
701.08	14.044
701.40	15.544
701.72	16.418
702.04	16.043
702.36	14.398
702.68	17.115
703.00	14.425
703.32	15.764
703.64	14.914
703.96	14.558
704.28	13.268
704.60	15.190
704.91	17.857
705.23	17.260
705.55	15.320
705.87	11.818
706.19	15.031
706.51	11.145
706.83	14.986
707.15	14.021
707.47	15.421
707.79	19.651
708.11	11.229
708.43	13.978
708.74	12.946
709.06	16.009
709.38	15.962
709.70	17.370
710.02	14.470
710.34	14.894
710.66	14.246
710.98	12.295
711.29	11.813
711.61	14.689
711.93	14.815
712.25	13.243
712.57	15.634
712.89	15.000
713.20	12.130
713.52	16.185
713.84	13.370
714.16	16.579
714.48	15.722
714.80	14.026
715.11	11.811
715.43	16.446
715.75	14.737
716.07	14.917
716.39	13.388
716.70	9.036
717.02	11.803
717.34	9.059
717.66	12.081
717.97	13.014
718.29	11.684
718.61	11.842
718.93	13.269
719.24	16.460
719.56	14.724
719.88	13.814
720.20	11.935
720.51	14.907
720.83	10.938
721.15	13.487
721.46	10.616
721.78	12.000
722.10	12.945
722.42	13.758
722.73	16.452
723.05	16.140
723.37	13.194
723.68	12.903
724.00	16.606
724.32	11.268
724.63	10.490
724.95	14.539
725.27	12.544
725.58	8.481
725.90	14.828
726.22	11.599
726.53	15.260
726.85	14.151
727.16	13.595
727.48	13.761
727.80	12.914
728.11	8.834
728.43	14.141
728.74	13.378
729.06	10.265
729.38	13.312
729.69	13.758
730.01	13.988
730.32	10.303
730.64	12.264
730.96	12.733
731.27	14.246
731.59	12.912
731.90	15.844
732.22	11.198
732.53	13.536
732.85	15.143
733.16	10.557
733.48	12.805
733.80	17.827
734.11	8.832
734.43	14.054
734.74	16.709
735.06	11.809
735.37	14.324
735.69	13.243
736.00	16.102
736.32	15.903
736.63	14.167
736.95	12.931
737.26	16.061
737.58	14.545
737.89	13.529
738.21	11.315
738.52	11.475
738.83	12.628
739.15	13.475
739.46	15.306
739.78	12.883
740.09	10.602
740.41	14.577
740.72	14.000
741.04	14.887
741.35	14.035
741.66	11.373
741.98	15.164
742.29	11.297
742.61	9.649
742.92	11.538
743.23	11.191
743.55	12.016
743.86	10.800
744.18	7.851
744.49	12.236
744.80	14.815
745.12	13.502
745.43	13.415
745.74	10.776
746.06	13.983
746.37	15.190
746.68	10.976
747.00	12.917
747.31	10.300
747.62	12.308
747.94	6.073
748.25	10.442
748.56	8.980
748.88	16.667
749.19	12.069
749.50	6.926
749.82	15.261
750.13	10.676
750.44	8.667
750.75	11.385
751.07	12.000
751.38	14.196
751.69	13.419
752.01	11.650
752.32	11.765
752.63	11.224
752.94	12.111
753.26	7.063
753.57	5.556
753.88	10.861
754.19	12.862
754.51	9.646
754.82	15.434
755.13	15.082
755.44	13.652
755.75	13.487
756.07	15.821
756.38	14.465
756.69	12.048
757.00	8.310
757.31	13.115
757.63	10.997
757.94	11.502
758.25	14.673
758.56	14.597
758.87	14.545
759.18	12.000
759.50	16.147
759.81	15.126
760.12	14.825
760.43	13.021
760.74	15.025
761.05	11.750
761.36	13.253
761.67	11.675
761.99	14.595
762.30	13.110
762.61	12.871
762.92	11.567
763.23	10.861
763.54	11.511
763.85	11.340
764.16	11.111
764.47	11.620
764.78	12.460
765.10	13.196
765.41	15.897
765.72	13.228
766.03	14.124
766.34	10.972
766.65	13.937
766.96	12.351
767.27	8.756
767.58	7.463
767.89	12.500
768.20	10.798
768.51	9.722
768.82	11.647
769.13	13.258
769.44	8.846
769.75	14.079
770.06	13.462
770.37	10.630
770.68	9.362
770.99	6.883
771.30	14.815
771.61	11.407
771.92	8.148
772.23	8.907
772.54	4.630
772.85	12.442
773.16	10.476
773.47	5.820
773.78	6.486
774.09	10.227
774.39	18.500
774.70	10.929
775.01	1.829
775.32	4.706
775.63	1.227
775.94	-0.637
776.25	7.097
776.56	12.821
776.87	7.483
777.18	6.207
777.48	-1.399
777.79	2.703
778.10	9.559
778.41	6.944
778.72	2.069
779.03	1.235
779.34	7.879
779.65	6.218
779.95	12.222
780.26	10.795
780.57	4.516
780.88	15.942
781.19	10.968
781.50	15.882
781.80	17.204
782.11	7.937
782.42	9.091
782.73	1.796
783.04	7.821
783.34	3.636
783.65	0.000
783.96	15.528
784.27	5.357
784.57	11.258
784.88	4.286
785.19	8.661
785.50	5.512
785.81	-2.256
786.11	9.231
786.42	2.158
786.73	6.475
787.04	1.504
787.34	-7.377
787.65	3.200
787.96	5.970
788.26	11.189
788.57	6.993
788.88	2.632
789.19	10.458
789.49	6.849
789.80	7.092
790.11	2.362
790.41	0.781
790.72	-1.695
791.03	-6.796
791.33	-7.826
791.64	-1.754
791.95	-8.036
792.25	3.810
792.56	2.679
792.87	-6.250
793.17	6.250
793.48	4.167
793.79	-9.639
794.09	-10.092
794.40	-3.670
794.70	11.565
795.01	9.091
795.32	9.589
795.62	6.338
795.93	7.576
796.23	4.098
796.54	5.357
796.85	-3.191
797.15	-8.696
797.46	-5.479
797.76	0.000
798.07	0.000
798.37	-13.402
798.68	-11.688
798.99	-5.747
799.29	-1.124
799.60	2.128
799.90	-1.205
800.21	6.154
800.51	0.000
800.82	-11.765
801.12	-19.178
801.43	-30.882
801.73	-28.814
802.04	-13.636
802.34	-16.667
802.65	-13.559
802.95	-4.478
803.26	-18.644
803.56	-1.370
803.87	8.571
804.17	1.370
804.48	-21.053
804.78	-5.556
805.09	-32.759
805.39	-6.757
805.70	-35.211
806.00	-2.439
806.30	-6.024
806.61	-2.740
806.91	0.000
807.22	0.000
807.52	-9.195
807.83	0.000
808.13	0.000
808.43	1.124
808.74	-17.500
809.04	-19.118
809.35	-17.333
809.65	-10.000
809.95	9.589
810.26	-21.053
810.56	5.172
810.86	-2.941
811.17	-14.035
811.47	-18.033
811.77	-53.333
812.08	-20.339
812.38	5.000
812.69	-3.448
812.99	-33.962
813.29	-58.974
813.59	2.000
813.90	-22.807
814.20	-16.364
814.50	4.225
814.81	-10.256
815.11	-18.033
815.41	-5.970
815.72	12.069
816.02	0.000
816.32	0.000
816.62	-29.545
816.93	-37.778
817.23	-20.370
817.53	-23.404
817.84	-23.810
818.14	-29.412
818.44	16.327
818.74	-51.111
819.04	-71.795
819.35	-60.000
819.65	-96.154
819.95	-1.887
820.25	-20.000
820.56	-47.619
820.86	-71.875
821.16	-33.333
821.46	-34.884
821.76	-28.000
822.07	-17.857
822.37	2.174
822.67	-36.170
822.97	-24.324
823.27	-27.500
823.57	2.041
823.88	-11.111
824.18	-17.500
824.48	-56.667
824.78	-44.000
825.08	-48.485
825.38	-15.556
825.69	-29.787
825.99	-27.778
826.29	-85.714
826.59	-20.513
826.89	-34.884
827.19	-26.000
827.49	-23.529
827.79	-16.667
828.09	-54.054
828.39	-33.333
828.70	-34.146
829.00	-20.930
829.30	-39.286
829.60	-5.882
829.90	-21.739
830.20	-37.143
830.50	-24.138
830.80	-27.778
831.10	-38.462
831.40	-23.529
831.70	-52.381
832.00	16.129
832.30	-158.824
832.60	-45.833
832.90	-130.769
833.20	-73.684
833.50	-115.000
833.80	-126.316
834.10	-90.476
834.40	-8.333
834.70	-18.750
835.00	-65.714
835.30	-47.059
835.60	-60.000
835.90	-56.000
836.20	-90.909
836.50	-72.000
836.80	-51.515
837.10	-74.074
837.40	-44.444
837.70	-118.750
838.00	-28.571
838.30	-104.348
838.60	-27.586
838.90	-121.429
839.19	-82.609
839.49	-225.000
839.79	-65.217
840.09	-143.750
840.39	-80.000
840.69	-19.355
840.99	-28.571
841.29	-140.000
841.59	-110.526
841.88	-23.077
842.18	-46.154
842.48	-150.000
842.78	-85.000
843.08	-30.000
843.38	9.677
843.68	-150.000
843.97	-38.235
844.27	-81.250
844.57	-131.579
844.87	-220.000
845.17	-146.667
845.47	-28.571
845.76	-71.429
846.06	-200.000
846.36	-88.235
846.66	-53.846
846.96	-166.667
847.25	-82.353
847.55	-43.478
847.85	-60.000
848.15	-64.706
848.44	-136.364
848.74	-47.619
849.04	-87.500
849.34	-81.250
849.63	-47.826
849.93	1550.000
850.23	-80.000
850.53	7.692
850.82	-90.909
851.12	-54.545
851.42	-181.818
851.71	-100.000
852.01	-75.000
852.31	-115.385
852.61	-68.421
852.90	-141.667
853.20	-116.667
853.50	-233.333
853.79	-71.429
854.09	-72.727
854.39	-175.000
854.68	-22.581
854.98	-23.077
855.28	-61.111
855.57	-46.429
855.87	-64.000
856.17	-59.091
856.46	-51.852
856.76	-122.222
857.05	-121.739
857.35	-79.167
857.65	-153.846
857.94	-76.190
858.24	-18.519
858.53	-39.130
858.83	-100.000
859.13	-105.882
859.42	-35.294
859.72	-114.286
860.01	-35.000
860.31	-211.111
860.60	-90.000
860.90	-80.000
861.20	-77.778
861.49	-100.000
861.79	-56.667
862.08	-169.231
862.38	-21.875
862.67	-52.941
862.97	-68.750
863.26	-244.444
863.56	-230.000
863.85	-245.455
864.15	-44.444
864.44	-533.333
864.74	-71.429
865.03	-125.000
865.33	-220.000
865.62	-38.710
865.92	-40.909
866.21	-43.478
866.51	-114.286
866.80	-460.000
867.10	-216.667
867.39	-158.333
867.69	3700.000
867.98	-271.429
868.27	-70.588
868.57	-2700.000
868.86	-260.000
869.16	-57.143
869.45	-29.167
869.75	-81.818
870.04	-185.714
870.33	-83.333
870.63	-400.000
870.92	-225.000
871.22	-325.000
871.51	-109.091
871.80	-933.333
872.10	-1150.000
>>>>>End Processed Spectral Data<<<<<
