SpectraSuite Data File
++++++++++++++++++++++++++++++++++++
Date: Thu May 14 16:03:03 PDT 2015
User: schluterlab
Dark Spectrum Present: Yes
Reference Spectrum Present: Yes
Number of Sampled Component Spectra: 1
Spectrometers: USB2E3373
Integration Time (usec): 3000 (USB2E3373)
Spectra Averaged: 3 (USB2E3373)
Boxcar Smoothing: 0 (USB2E3373)
Correct for Electrical Dark: No (USB2E3373)
Strobe/Lamp Enabled: No (USB2E3373)
Correct for Detector Non-linearity: No (USB2E3373)
Correct for Stray Light: No (USB2E3373)
Number of Pixels in Processed Spectrum: 2048
>>>>>Begin Processed Spectral Data<<<<<
178.53	0.000
178.91	228.571
179.29	-2200.000
179.67	-1200.000
180.04	157.143
180.42	260.000
180.80	460.000
181.18	-1900.000
181.56	-1300.000
181.94	375.000
182.31	-175.000
182.69	466.667
183.07	-650.000
183.45	450.000
183.83	-100.000
184.20	-500.000
184.58	1400.000
184.96	-350.000
185.34	-122.222
185.72	-360.000
186.09	333.333
186.47	1200.000
186.85	560.000
187.23	-211.111
187.61	-2400.000
187.98	340.000
188.36	600.000
188.74	-500.000
189.12	-200.000
189.49	-87.500
189.87	-300.000
190.25	-233.333
190.63	-300.000
191.00	-277.778
191.38	0.000
191.76	-600.000
192.14	-183.333
192.51	800.000
192.89	-166.667
193.27	0.000
193.65	-185.714
194.02	-2300.000
194.40	-71.429
194.78	185.714
195.15	0.000
195.53	-209.091
195.91	0.000
196.29	-200.000
196.66	-130.769
197.04	-2000.000
197.42	-185.714
197.79	-600.000
198.17	-125.000
198.55	-257.143
198.92	-55.556
199.30	-300.000
199.68	-136.364
200.05	-85.714
200.43	-1000.000
200.81	385.714
201.18	0.000
201.56	344.444
201.94	0.000
202.31	433.333
202.69	-288.889
203.07	900.000
203.44	-33.333
203.82	-375.000
204.19	-83.333
204.57	-250.000
204.95	-87.500
205.32	-2100.000
205.70	225.000
206.08	-150.000
206.45	-316.667
206.83	580.000
207.20	-300.000
207.58	-480.000
207.96	-300.000
208.33	-50.000
208.71	133.333
209.08	-166.667
209.46	0.000
209.84	366.667
210.21	1000.000
210.59	550.000
210.96	466.667
211.34	-400.000
211.71	-212.500
212.09	-2100.000
212.46	0.000
212.84	1150.000
213.22	-420.000
213.59	-475.000
213.97	-110.000
214.34	-466.667
214.72	300.000
215.09	-400.000
215.47	0.000
215.84	200.000
216.22	1250.000
216.59	-340.000
216.97	-300.000
217.34	-275.000
217.72	-137.500
218.09	-450.000
218.47	-550.000
218.84	0.000
219.22	400.000
219.59	-88.235
219.97	-60.000
220.34	1000.000
220.72	-188.889
221.09	-61.538
221.47	-433.333
221.84	-110.000
222.22	-157.143
222.59	0.000
222.97	-175.000
223.34	-440.000
223.72	-1000.000
224.09	-350.000
224.46	-525.000
224.84	-120.000
225.21	-342.857
225.59	-475.000
225.96	-500.000
226.34	-46.154
226.71	433.333
227.08	-950.000
227.46	-33.333
227.83	-350.000
228.21	-36.842
228.58	212.500
228.95	1200.000
229.33	-66.667
229.70	-60.000
230.08	-52.632
230.45	260.000
230.82	-566.667
231.20	-150.000
231.57	-141.667
231.95	-181.818
232.32	-145.455
232.69	-70.000
233.07	-425.000
233.44	-70.588
233.81	-170.000
234.19	-61.111
234.56	-77.273
234.93	-27.586
235.31	-21.053
235.68	-11.111
236.05	-100.000
236.43	-30.769
236.80	-28.000
237.17	-25.926
237.55	-27.273
237.92	-190.000
238.29	-35.484
238.67	-29.545
239.04	-22.222
239.41	-21.429
239.79	-21.739
240.16	-7.407
240.53	-17.391
240.91	-31.373
241.28	1.639
241.65	11.940
242.02	1.351
242.40	-13.846
242.77	-4.000
243.14	-14.634
243.51	-32.895
243.89	-14.103
244.26	4.950
244.63	-6.863
245.00	-6.542
245.38	0.000
245.75	-21.239
246.12	6.349
246.49	-3.101
246.87	8.571
247.24	7.285
247.61	5.263
247.98	-4.027
248.36	-0.617
248.73	-4.294
249.10	-1.093
249.47	9.453
249.84	8.901
250.22	5.181
250.59	5.000
250.96	5.909
251.33	-1.020
251.70	6.410
252.08	4.167
252.45	6.967
252.82	2.066
253.19	5.469
253.56	6.464
253.94	5.385
254.31	7.955
254.68	6.993
255.05	3.909
255.42	6.803
255.79	5.825
256.16	4.636
256.54	4.305
256.91	6.557
257.28	5.902
257.65	3.822
258.02	8.555
258.39	7.692
258.76	8.563
259.14	8.908
259.51	7.781
259.88	4.533
260.25	6.944
260.62	8.493
260.99	8.470
261.36	6.702
261.73	8.223
262.10	8.516
262.47	5.094
262.85	8.838
263.22	6.494
263.59	5.000
263.96	8.184
264.33	7.417
264.70	8.148
265.07	10.979
265.44	10.658
265.81	6.713
266.18	12.245
266.55	10.714
266.92	6.150
267.29	9.847
267.66	7.539
268.03	8.515
268.40	8.351
268.77	5.239
269.14	6.167
269.51	11.404
269.88	10.246
270.25	10.463
270.62	9.283
270.99	10.303
271.36	7.525
271.73	9.234
272.10	10.220
272.47	5.611
272.84	6.024
273.21	9.218
273.58	9.073
273.95	7.115
274.32	7.034
274.69	7.737
275.06	8.059
275.43	6.470
275.80	9.700
276.17	7.963
276.54	8.209
276.91	7.871
277.28	7.595
277.65	7.181
278.02	8.088
278.39	7.428
278.76	8.787
279.13	8.688
279.50	8.419
279.87	9.660
280.23	5.458
280.60	9.322
280.97	9.375
281.34	7.810
281.71	10.660
282.08	9.302
282.45	7.529
282.82	8.791
283.19	5.331
283.56	6.557
283.92	9.910
284.29	11.690
284.66	8.703
285.03	6.410
285.40	8.346
285.77	6.656
286.14	10.687
286.51	8.524
286.87	7.741
287.24	8.133
287.61	10.314
287.98	8.157
288.35	6.657
288.72	8.284
289.08	6.589
289.45	6.953
289.82	6.777
290.19	6.753
290.56	8.028
290.93	6.277
291.29	9.366
291.66	7.025
292.03	6.106
292.40	9.252
292.77	6.604
293.13	7.713
293.50	6.307
293.87	5.638
294.24	8.800
294.60	7.712
294.97	6.040
295.34	9.347
295.71	7.314
296.08	7.881
296.44	7.230
296.81	7.674
297.18	6.351
297.55	6.486
297.91	6.524
298.28	6.635
298.65	8.442
299.02	7.438
299.38	7.666
299.75	7.593
300.12	7.060
300.48	6.336
300.85	6.524
301.22	7.494
301.59	5.594
301.95	6.328
302.32	6.556
302.69	5.367
303.05	6.964
303.42	7.206
303.79	6.771
304.15	5.678
304.52	5.814
304.89	7.016
305.25	6.729
305.62	7.941
305.99	7.113
306.35	5.444
306.72	6.825
307.09	7.107
307.45	6.315
307.82	6.054
308.19	6.458
308.55	7.040
308.92	5.940
309.29	6.322
309.65	5.750
310.02	5.149
310.38	6.594
310.75	6.893
311.12	6.520
311.48	5.572
311.85	6.838
312.22	6.262
312.58	5.822
312.95	5.832
313.31	6.233
313.68	7.875
314.05	6.865
314.41	7.468
314.78	6.721
315.14	7.078
315.51	7.110
315.87	6.391
316.24	7.671
316.61	6.661
316.97	6.063
317.34	5.644
317.70	6.900
318.07	5.908
318.43	6.888
318.80	8.278
319.16	6.524
319.53	5.827
319.89	5.960
320.26	6.940
320.62	6.383
320.99	6.925
321.35	6.007
321.72	7.256
322.08	6.492
322.45	6.594
322.81	7.040
323.18	5.752
323.54	5.345
323.91	6.495
324.27	6.196
324.64	7.053
325.00	5.970
325.37	7.289
325.73	7.107
326.10	7.786
326.46	7.329
326.83	8.167
327.19	7.008
327.56	6.640
327.92	6.216
328.29	6.129
328.65	6.198
329.01	6.599
329.38	6.908
329.74	6.507
330.11	7.192
330.47	6.655
330.84	5.426
331.20	7.583
331.56	6.932
331.93	6.360
332.29	7.373
332.66	6.811
333.02	6.281
333.38	6.124
333.75	5.724
334.11	6.088
334.48	6.353
334.84	6.797
335.20	5.877
335.57	7.167
335.93	7.603
336.29	6.240
336.66	6.224
337.02	6.940
337.38	6.548
337.75	5.785
338.11	6.644
338.47	6.286
338.84	7.614
339.20	5.560
339.56	6.013
339.93	7.143
340.29	7.246
340.65	7.056
341.02	6.624
341.38	6.386
341.74	6.941
342.11	7.562
342.47	5.719
342.83	6.280
343.20	6.623
343.56	6.335
343.92	6.886
344.28	6.719
344.65	7.829
345.01	6.162
345.37	6.921
345.73	5.690
346.10	6.630
346.46	5.459
346.82	6.592
347.19	6.035
347.55	7.663
347.91	6.315
348.27	6.373
348.63	6.931
349.00	6.115
349.36	6.914
349.72	6.696
350.08	6.984
350.45	6.008
350.81	6.410
351.17	6.241
351.53	6.368
351.89	5.923
352.26	6.866
352.62	6.493
352.98	6.107
353.34	5.452
353.70	6.317
354.07	6.855
354.43	5.847
354.79	6.582
355.15	6.843
355.51	6.652
355.87	5.310
356.24	6.236
356.60	5.765
356.96	6.079
357.32	6.097
357.68	6.296
358.04	5.988
358.40	6.866
358.77	5.482
359.13	5.835
359.49	4.758
359.85	6.091
360.21	6.671
360.57	5.456
360.93	5.853
361.29	6.526
361.66	6.300
362.02	6.472
362.38	5.762
362.74	5.936
363.10	6.809
363.46	5.471
363.82	5.611
364.18	5.771
364.54	6.501
364.90	6.488
365.26	5.586
365.62	6.933
365.98	5.854
366.35	6.107
366.71	5.850
367.07	5.819
367.43	6.041
367.79	6.370
368.15	6.154
368.51	6.698
368.87	5.748
369.23	5.667
369.59	5.738
369.95	5.747
370.31	6.280
370.67	5.571
371.03	6.440
371.39	5.373
371.75	5.708
372.11	6.233
372.47	5.687
372.83	6.348
373.19	6.538
373.55	6.165
373.91	5.317
374.27	6.533
374.63	5.616
374.99	5.570
375.35	6.169
375.71	6.194
376.07	6.068
376.42	6.045
376.78	6.091
377.14	6.176
377.50	5.819
377.86	5.850
378.22	5.928
378.58	6.361
378.94	6.514
379.30	5.917
379.66	5.820
380.02	6.290
380.38	6.509
380.74	6.141
381.09	5.981
381.45	5.966
381.81	6.499
382.17	6.413
382.53	5.263
382.89	6.321
383.25	6.331
383.61	5.208
383.97	6.007
384.32	5.622
384.68	5.452
385.04	6.015
385.40	6.600
385.76	6.448
386.12	6.044
386.48	5.588
386.83	5.721
387.19	5.446
387.55	6.514
387.91	5.651
388.27	5.889
388.62	5.842
388.98	4.851
389.34	6.070
389.70	6.392
390.06	6.335
390.42	5.783
390.77	5.960
391.13	6.279
391.49	6.401
391.85	5.758
392.20	5.457
392.56	6.261
392.92	6.107
393.28	5.915
393.64	5.587
393.99	5.578
394.35	6.367
394.71	6.228
395.07	5.150
395.42	6.168
395.78	6.155
396.14	6.001
396.50	5.404
396.85	6.440
397.21	5.148
397.57	6.655
397.92	6.529
398.28	6.192
398.64	5.950
399.00	5.497
399.35	6.649
399.71	5.326
400.07	6.120
400.42	5.995
400.78	5.729
401.14	6.033
401.49	6.595
401.85	5.407
402.21	5.736
402.57	5.575
402.92	6.028
403.28	4.684
403.63	5.549
403.99	6.116
404.35	5.856
404.70	6.459
405.06	5.489
405.42	6.265
405.77	5.453
406.13	6.213
406.49	6.081
406.84	6.039
407.20	5.869
407.55	5.209
407.91	4.903
408.27	6.773
408.62	5.643
408.98	5.514
409.34	5.044
409.69	6.613
410.05	6.506
410.40	6.439
410.76	5.945
411.11	6.312
411.47	6.450
411.83	6.526
412.18	6.325
412.54	6.343
412.89	6.054
413.25	6.377
413.60	6.433
413.96	6.002
414.31	6.119
414.67	6.559
415.03	6.462
415.38	5.738
415.74	6.109
416.09	6.477
416.45	5.823
416.80	5.447
417.16	5.747
417.51	6.413
417.87	5.886
418.22	5.868
418.58	4.957
418.93	6.519
419.29	5.179
419.64	5.042
420.00	5.638
420.35	6.232
420.71	5.801
421.06	6.268
421.42	5.275
421.77	5.600
422.12	6.184
422.48	6.400
422.83	5.915
423.19	5.517
423.54	5.697
423.90	6.350
424.25	6.240
424.61	5.396
424.96	6.150
425.31	6.794
425.67	5.743
426.02	5.921
426.38	5.626
426.73	5.859
427.09	6.574
427.44	5.516
427.79	5.196
428.15	5.194
428.50	5.674
428.85	6.028
429.21	6.702
429.56	5.676
429.92	5.553
430.27	5.880
430.62	6.351
430.98	5.460
431.33	5.670
431.68	6.322
432.04	5.891
432.39	5.570
432.74	5.537
433.10	6.760
433.45	5.853
433.80	5.740
434.16	5.888
434.51	5.910
434.86	6.406
435.22	6.376
435.57	6.191
435.92	5.342
436.28	5.347
436.63	5.789
436.98	6.227
437.34	5.524
437.69	5.173
438.04	6.346
438.39	5.744
438.75	5.589
439.10	6.607
439.45	5.590
439.81	6.441
440.16	6.005
440.51	5.630
440.86	5.114
441.22	6.217
441.57	5.870
441.92	6.353
442.27	6.515
442.63	6.210
442.98	6.243
443.33	5.892
443.68	6.343
444.03	6.914
444.39	5.918
444.74	6.023
445.09	5.575
445.44	6.270
445.79	6.561
446.15	6.012
446.50	6.098
446.85	6.031
447.20	6.576
447.55	6.119
447.91	5.497
448.26	5.867
448.61	6.323
448.96	6.652
449.31	6.204
449.66	6.100
450.02	6.224
450.37	6.873
450.72	6.351
451.07	6.207
451.42	6.008
451.77	5.892
452.12	5.643
452.47	5.288
452.83	6.419
453.18	5.896
453.53	6.203
453.88	5.687
454.23	5.706
454.58	5.514
454.93	5.765
455.28	5.960
455.63	6.538
455.98	5.866
456.34	5.889
456.69	6.526
457.04	5.615
457.39	5.876
457.74	6.208
458.09	5.766
458.44	6.681
458.79	5.931
459.14	6.345
459.49	5.716
459.84	6.663
460.19	5.719
460.54	6.019
460.89	6.088
461.24	5.805
461.59	6.032
461.94	5.647
462.29	6.047
462.64	5.794
462.99	6.591
463.34	5.711
463.69	6.917
464.04	6.448
464.39	6.334
464.74	6.043
465.09	6.632
465.44	6.223
465.79	6.187
466.14	6.305
466.49	6.316
466.84	5.565
467.19	5.954
467.54	5.699
467.89	5.690
468.24	6.316
468.59	5.211
468.94	6.177
469.29	5.699
469.64	5.785
469.99	5.545
470.34	5.507
470.68	6.083
471.03	5.632
471.38	5.036
471.73	5.787
472.08	6.028
472.43	5.900
472.78	5.730
473.13	5.689
473.48	5.921
473.83	6.384
474.17	6.917
474.52	5.292
474.87	6.755
475.22	6.197
475.57	6.282
475.92	6.421
476.27	6.390
476.61	5.919
476.96	5.735
477.31	6.535
477.66	6.139
478.01	6.151
478.36	6.431
478.70	6.158
479.05	5.982
479.40	6.219
479.75	6.484
480.10	5.685
480.45	7.019
480.79	6.485
481.14	6.204
481.49	6.679
481.84	6.963
482.19	6.710
482.53	6.515
482.88	6.292
483.23	6.492
483.58	6.419
483.92	6.605
484.27	6.351
484.62	6.601
484.97	6.376
485.31	6.512
485.66	6.265
486.01	6.999
486.36	7.179
486.70	7.225
487.05	6.953
487.40	6.315
487.75	6.005
488.09	5.692
488.44	6.104
488.79	6.374
489.13	6.155
489.48	5.942
489.83	5.714
490.17	5.751
490.52	6.034
490.87	6.557
491.22	6.023
491.56	6.399
491.91	6.280
492.26	6.318
492.60	6.165
492.95	6.494
493.30	5.782
493.64	6.527
493.99	6.360
494.34	6.446
494.68	5.824
495.03	6.123
495.37	6.480
495.72	6.757
496.07	6.792
496.41	5.834
496.76	6.130
497.11	6.582
497.45	6.042
497.80	6.264
498.14	5.896
498.49	6.020
498.84	6.307
499.18	6.703
499.53	5.874
499.87	6.725
500.22	5.387
500.56	6.118
500.91	5.858
501.26	6.682
501.60	5.833
501.95	6.166
502.29	6.713
502.64	6.340
502.98	7.248
503.33	5.961
503.67	6.062
504.02	6.261
504.36	6.702
504.71	6.201
505.06	5.866
505.40	6.216
505.75	6.466
506.09	6.998
506.44	6.592
506.78	6.881
507.13	6.316
507.47	6.585
507.82	6.771
508.16	6.405
508.51	6.095
508.85	6.141
509.19	6.300
509.54	6.388
509.88	5.780
510.23	6.799
510.57	6.428
510.92	6.580
511.26	6.975
511.61	5.843
511.95	6.296
512.30	6.401
512.64	6.297
512.98	6.203
513.33	6.804
513.67	6.782
514.02	5.825
514.36	6.752
514.70	6.615
515.05	6.204
515.39	6.247
515.74	6.734
516.08	6.286
516.42	6.907
516.77	5.941
517.11	6.498
517.46	7.264
517.80	6.627
518.14	7.018
518.49	6.779
518.83	6.227
519.17	6.031
519.52	6.499
519.86	7.445
520.20	7.455
520.55	6.188
520.89	6.813
521.23	6.253
521.58	7.345
521.92	6.912
522.26	6.472
522.61	6.424
522.95	6.401
523.29	6.839
523.64	6.951
523.98	7.758
524.32	7.049
524.66	6.431
525.01	7.305
525.35	6.318
525.69	7.019
526.04	6.315
526.38	6.839
526.72	6.920
527.06	7.449
527.41	7.289
527.75	7.007
528.09	6.848
528.43	5.980
528.78	5.607
529.12	6.938
529.46	6.745
529.80	6.579
530.15	6.899
530.49	6.228
530.83	7.025
531.17	6.989
531.51	6.919
531.86	7.151
532.20	7.195
532.54	6.224
532.88	6.667
533.22	6.600
533.57	6.867
533.91	7.576
534.25	7.066
534.59	6.034
534.93	6.904
535.27	7.155
535.62	7.334
535.96	6.624
536.30	6.345
536.64	6.847
536.98	7.073
537.32	7.593
537.66	7.860
538.01	6.647
538.35	6.577
538.69	6.611
539.03	6.990
539.37	6.949
539.71	6.847
540.05	7.314
540.39	6.724
540.73	6.618
541.07	6.806
541.42	6.852
541.76	7.117
542.10	7.057
542.44	6.334
542.78	6.873
543.12	7.271
543.46	7.021
543.80	6.175
544.14	7.062
544.48	7.388
544.82	7.540
545.16	7.096
545.50	6.890
545.84	7.348
546.18	7.469
546.52	6.879
546.86	7.170
547.20	6.997
547.54	6.554
547.88	6.209
548.22	6.667
548.56	7.197
548.90	6.149
549.24	7.599
549.58	6.120
549.92	6.505
550.26	6.796
550.60	7.913
550.94	6.986
551.28	6.667
551.62	7.615
551.96	7.249
552.30	8.031
552.64	6.970
552.98	7.361
553.32	6.945
553.66	6.238
554.00	7.377
554.34	7.207
554.68	7.424
555.02	6.833
555.36	7.429
555.69	6.983
556.03	6.873
556.37	7.635
556.71	7.546
557.05	6.965
557.39	6.768
557.73	6.869
558.07	7.152
558.41	7.043
558.75	6.423
559.08	6.333
559.42	6.927
559.76	7.395
560.10	6.899
560.44	6.398
560.78	7.875
561.12	6.897
561.45	6.873
561.79	6.838
562.13	7.763
562.47	7.337
562.81	6.835
563.15	7.513
563.48	7.334
563.82	7.437
564.16	6.057
564.50	7.449
564.84	7.080
565.17	7.529
565.51	7.307
565.85	7.542
566.19	5.645
566.52	6.963
566.86	6.621
567.20	6.852
567.54	7.541
567.88	7.492
568.21	6.966
568.55	7.482
568.89	7.399
569.23	7.900
569.56	7.112
569.90	7.912
570.24	7.960
570.57	7.473
570.91	7.348
571.25	7.434
571.59	7.654
571.92	7.756
572.26	7.200
572.60	7.371
572.93	7.542
573.27	6.828
573.61	7.835
573.95	7.696
574.28	7.662
574.62	7.594
574.96	7.234
575.29	7.425
575.63	7.669
575.97	7.425
576.30	7.155
576.64	7.110
576.98	7.904
577.31	7.665
577.65	7.842
577.98	7.549
578.32	7.704
578.66	7.426
578.99	7.209
579.33	7.359
579.67	6.981
580.00	7.283
580.34	7.788
580.67	7.524
581.01	7.529
581.35	7.559
581.68	7.560
582.02	8.046
582.35	7.711
582.69	7.749
583.02	7.569
583.36	7.353
583.70	7.112
584.03	7.127
584.37	7.183
584.70	7.408
585.04	7.138
585.37	7.380
585.71	7.551
586.04	7.486
586.38	7.567
586.72	7.019
587.05	7.240
587.39	7.479
587.72	7.656
588.06	7.568
588.39	7.394
588.73	7.354
589.06	7.280
589.40	7.130
589.73	7.294
590.07	7.659
590.40	8.012
590.73	7.282
591.07	7.260
591.40	7.154
591.74	7.114
592.07	7.877
592.41	6.703
592.74	7.739
593.08	7.994
593.41	8.224
593.75	7.672
594.08	7.695
594.41	7.468
594.75	7.738
595.08	7.032
595.42	7.955
595.75	7.297
596.09	7.692
596.42	7.094
596.75	7.140
597.09	7.515
597.42	7.310
597.75	7.683
598.09	7.619
598.42	8.162
598.76	7.528
599.09	7.547
599.42	7.811
599.76	8.088
600.09	7.241
600.42	8.375
600.76	7.728
601.09	7.700
601.42	7.175
601.76	7.448
602.09	7.255
602.42	7.197
602.76	7.196
603.09	7.673
603.42	7.442
603.76	7.223
604.09	8.233
604.42	7.266
604.76	7.306
605.09	7.300
605.42	7.496
605.75	7.692
606.09	7.316
606.42	7.698
606.75	7.309
607.09	6.989
607.42	7.245
607.75	7.542
608.08	7.103
608.42	7.255
608.75	7.131
609.08	7.173
609.41	7.234
609.75	7.768
610.08	7.608
610.41	7.307
610.74	7.521
611.07	7.549
611.41	7.444
611.74	7.667
612.07	7.574
612.40	6.939
612.73	7.090
613.07	7.237
613.40	7.267
613.73	7.270
614.06	7.017
614.39	6.803
614.72	7.327
615.06	6.882
615.39	7.443
615.72	7.251
616.05	7.382
616.38	7.114
616.71	7.837
617.05	7.029
617.38	7.919
617.71	7.667
618.04	7.285
618.37	7.596
618.70	7.523
619.03	6.631
619.36	7.398
619.69	7.303
620.03	7.972
620.36	7.853
620.69	6.477
621.02	7.283
621.35	7.329
621.68	8.243
622.01	6.335
622.34	6.904
622.67	7.148
623.00	6.005
623.33	7.631
623.66	7.782
623.99	6.715
624.32	7.732
624.65	6.371
624.99	7.542
625.32	7.511
625.65	7.620
625.98	6.983
626.31	7.087
626.64	8.059
626.97	6.977
627.30	6.454
627.63	6.977
627.96	7.658
628.29	7.082
628.62	6.717
628.95	6.486
629.28	5.862
629.61	6.397
629.94	6.192
630.26	6.356
630.59	7.254
630.92	6.147
631.25	6.261
631.58	6.309
631.91	6.935
632.24	6.628
632.57	6.357
632.90	6.820
633.23	6.531
633.56	6.429
633.89	6.198
634.22	6.861
634.55	8.038
634.88	6.061
635.20	6.566
635.53	7.006
635.86	6.934
636.19	7.635
636.52	7.278
636.85	5.720
637.18	6.237
637.51	6.237
637.83	6.534
638.16	6.106
638.49	5.751
638.82	5.750
639.15	5.384
639.48	6.697
639.81	7.044
640.13	5.889
640.46	6.303
640.79	6.373
641.12	5.466
641.45	6.023
641.77	7.574
642.10	6.037
642.43	7.048
642.76	5.827
643.09	4.521
643.41	5.882
643.74	5.793
644.07	7.586
644.40	6.223
644.73	5.951
645.05	5.286
645.38	6.763
645.71	5.718
646.04	6.456
646.36	4.672
646.69	5.215
647.02	6.269
647.35	8.092
647.67	6.280
648.00	4.777
648.33	7.207
648.66	6.990
648.98	7.347
649.31	6.495
649.64	6.773
649.96	7.162
650.29	7.093
650.62	5.658
650.94	5.856
651.27	4.341
651.60	5.848
651.92	3.647
652.25	6.802
652.58	5.365
652.90	4.360
653.23	7.746
653.56	5.563
653.88	7.303
654.21	5.070
654.54	5.636
654.86	4.249
655.19	5.270
655.52	8.460
655.84	9.086
656.17	11.078
656.49	15.449
656.82	15.950
657.15	11.339
657.47	8.040
657.80	5.547
658.13	4.105
658.45	5.098
658.78	5.841
659.10	5.433
659.43	5.326
659.75	4.864
660.08	4.650
660.41	5.045
660.73	4.219
661.06	3.818
661.38	6.220
661.71	5.000
662.03	5.644
662.36	7.692
662.68	5.441
663.01	5.133
663.33	6.805
663.66	7.143
663.98	5.385
664.31	5.253
664.63	3.468
664.96	5.808
665.28	5.082
665.61	8.217
665.93	4.107
666.26	5.376
666.58	5.351
666.91	6.168
667.23	4.190
667.56	4.339
667.88	6.400
668.21	3.125
668.53	2.510
668.86	4.912
669.18	4.684
669.50	3.777
669.83	5.600
670.15	5.709
670.48	7.738
670.80	4.398
671.13	4.726
671.45	4.528
671.77	3.766
672.10	4.000
672.42	6.311
672.75	3.994
673.07	6.716
673.39	5.701
673.72	6.208
674.04	5.517
674.37	6.261
674.69	6.349
675.01	3.429
675.34	3.435
675.66	5.431
675.98	5.970
676.31	4.297
676.63	5.894
676.95	5.172
677.28	4.234
677.60	2.756
677.92	4.607
678.25	7.130
678.57	6.940
678.89	6.826
679.22	3.484
679.54	4.274
679.86	4.576
680.18	3.483
680.51	7.075
680.83	6.710
681.15	4.483
681.48	5.527
681.80	6.908
682.12	4.720
682.44	7.679
682.77	6.383
683.09	4.924
683.41	6.008
683.73	4.744
684.06	4.244
684.38	4.114
684.70	7.002
685.02	6.024
685.34	5.158
685.67	5.836
685.99	5.982
686.31	4.797
686.63	5.687
686.96	4.101
687.28	4.397
687.60	3.872
687.92	3.859
688.24	6.344
688.56	4.483
688.89	5.808
689.21	6.654
689.53	2.941
689.85	3.550
690.17	5.185
690.49	3.984
690.82	5.545
691.14	2.429
691.46	6.310
691.78	6.077
692.10	4.404
692.42	6.250
692.74	5.263
693.06	3.148
693.39	6.262
693.71	4.323
694.03	4.647
694.35	5.905
694.67	4.928
694.99	6.596
695.31	5.519
695.63	4.762
695.95	4.762
696.27	5.714
696.59	7.301
696.91	4.955
697.23	7.473
697.56	5.703
697.88	5.114
698.20	4.896
698.52	8.902
698.84	5.613
699.16	4.694
699.48	4.184
699.80	4.681
700.12	6.332
700.44	6.452
700.76	5.701
701.08	6.780
701.40	4.145
701.72	5.473
702.04	5.615
702.36	-1.832
702.68	5.623
703.00	2.200
703.32	2.709
703.64	3.423
703.96	6.205
704.28	4.177
704.60	5.063
704.91	4.082
705.23	4.110
705.55	1.671
705.87	4.545
706.19	2.454
706.51	0.602
706.83	2.017
707.15	3.175
707.47	3.738
707.79	3.275
708.11	4.237
708.43	4.731
708.74	2.455
709.06	4.872
709.38	5.634
709.70	7.692
710.02	4.651
710.34	5.053
710.66	-0.838
710.98	4.645
711.29	3.297
711.61	3.390
711.93	3.989
712.25	4.865
712.57	4.130
712.89	6.765
713.20	2.071
713.52	4.046
713.84	0.836
714.16	6.316
714.48	3.608
714.80	6.753
715.11	2.362
715.43	3.448
715.75	4.211
716.07	4.144
716.39	6.011
716.70	2.108
717.02	6.230
717.34	2.091
717.66	4.362
717.97	2.397
718.29	2.749
718.61	3.618
718.93	3.236
719.24	3.416
719.56	3.067
719.88	5.105
720.20	4.839
720.51	1.242
720.83	0.313
721.15	1.974
721.46	1.027
721.78	-1.333
722.10	1.942
722.42	1.342
722.73	2.581
723.05	1.404
723.37	1.042
723.68	0.358
724.00	2.166
724.32	0.000
724.63	2.098
724.95	3.191
725.27	1.045
725.58	2.473
725.90	3.793
726.22	4.389
726.53	3.571
726.85	2.830
727.16	2.417
727.48	7.339
727.80	4.636
728.11	-1.060
728.43	4.040
728.74	0.334
729.06	2.318
729.38	5.195
729.69	0.336
730.01	4.167
730.32	1.515
730.64	2.201
730.96	0.621
731.27	8.101
731.59	5.769
731.90	5.455
732.22	3.385
732.53	0.829
732.85	4.571
733.16	6.158
733.48	0.915
733.80	4.178
734.11	6.838
734.43	4.595
734.74	6.329
735.06	5.528
735.37	4.865
735.69	1.892
736.00	2.825
736.32	4.582
736.63	6.389
736.95	3.448
737.26	3.636
737.58	3.939
737.89	5.588
738.21	0.612
738.52	1.639
738.83	3.754
739.15	7.092
739.46	3.741
739.78	3.988
740.09	1.146
740.41	6.997
740.72	0.667
741.04	4.854
741.35	3.860
741.66	1.961
741.98	3.279
742.29	3.766
742.61	4.825
742.92	2.308
743.23	3.971
743.55	-1.163
743.86	3.600
744.18	-2.066
744.49	-4.219
744.80	1.235
745.12	1.266
745.43	6.911
745.74	-0.431
746.06	2.542
746.37	0.844
746.68	3.252
747.00	2.083
747.31	0.858
747.62	5.769
747.94	0.405
748.25	-2.811
748.56	1.633
748.88	-0.427
749.19	4.741
749.50	5.195
749.82	-1.205
750.13	4.626
750.44	1.000
750.75	3.692
751.07	2.769
751.38	4.416
751.69	2.875
752.01	-2.589
752.32	2.288
752.63	0.680
752.94	3.460
753.26	2.602
753.57	-1.852
753.88	2.247
754.19	5.788
754.51	3.859
754.82	2.251
755.13	7.869
755.44	3.413
755.75	4.605
756.07	9.254
756.38	4.403
756.69	6.325
757.00	2.770
757.31	4.645
757.63	0.000
757.94	3.286
758.25	5.643
758.56	3.486
758.87	8.864
759.18	5.067
759.50	5.099
759.81	2.801
760.12	4.582
760.43	5.208
760.74	6.158
761.05	3.750
761.36	4.819
761.67	2.538
761.99	4.324
762.30	3.354
762.61	1.980
762.92	3.358
763.23	3.371
763.54	5.036
763.85	0.687
764.16	2.694
764.47	1.761
764.78	7.987
765.10	4.692
765.41	5.385
765.72	1.852
766.03	4.237
766.34	1.881
766.65	2.439
766.96	1.992
767.27	3.687
767.58	-2.985
767.89	0.481
768.20	-1.408
768.51	-0.926
768.82	2.811
769.13	3.030
769.44	-3.077
769.75	2.527
770.06	2.308
770.37	4.331
770.68	-1.702
770.99	-3.644
771.30	6.667
771.61	6.464
771.92	1.481
772.23	5.668
772.54	-1.389
772.85	6.452
773.16	9.048
773.47	1.587
773.78	-4.324
774.09	-2.841
774.39	3.000
774.70	3.825
775.01	-3.659
775.32	-1.765
775.63	0.613
775.94	-7.006
776.25	3.871
776.56	4.487
776.87	3.401
777.18	-2.759
777.48	-0.699
777.79	-0.676
778.10	0.000
778.41	-5.556
778.72	-0.690
779.03	-1.235
779.34	-1.212
779.65	3.109
779.95	2.778
780.26	-3.409
780.57	-0.645
780.88	5.072
781.19	3.871
781.50	5.294
781.80	3.226
782.11	1.058
782.42	-1.515
782.73	-2.994
783.04	3.352
783.34	-5.455
783.65	-4.575
783.96	-4.969
784.27	-1.786
784.57	-1.325
784.88	-6.429
785.19	-2.362
785.50	1.575
785.81	-2.256
786.11	5.385
786.42	-0.719
786.73	-0.719
787.04	-2.256
787.34	-9.836
787.65	-14.400
787.96	2.239
788.26	3.497
788.57	4.895
788.88	-4.605
789.19	0.654
789.49	2.740
789.80	-0.709
790.11	0.000
790.41	4.687
790.72	2.542
791.03	-19.417
791.33	-5.217
791.64	-6.140
791.95	-11.607
792.25	-9.524
792.56	2.679
792.87	-12.500
793.17	-8.036
793.48	-8.333
793.79	-24.096
794.09	-15.596
794.40	-13.761
794.70	2.721
795.01	1.299
795.32	-3.425
795.62	1.408
795.93	-6.061
796.23	-4.098
796.54	-10.714
796.85	-13.830
797.15	-13.043
797.46	-12.329
797.76	-16.250
798.07	-10.870
798.37	-13.402
798.68	-24.675
798.99	-5.747
799.29	-4.494
799.60	4.255
799.90	-10.843
800.21	-26.154
800.51	-20.896
800.82	-13.235
801.12	-21.918
801.43	-22.059
801.73	-10.169
802.04	-13.636
802.34	-28.333
802.65	-13.559
802.95	-13.433
803.26	-32.203
803.56	-19.178
803.87	-12.857
804.17	-10.959
804.48	-17.544
804.78	-9.722
805.09	-39.655
805.39	-16.216
805.70	-22.535
806.00	10.976
806.30	1.205
806.61	-12.329
806.91	-1.923
807.22	-3.333
807.52	-20.690
807.83	-6.944
808.13	-16.867
808.43	-4.494
808.74	-23.750
809.04	-44.118
809.35	-24.000
809.65	-14.286
809.95	-8.219
810.26	-35.088
810.56	-27.586
810.86	-11.765
811.17	-14.035
811.47	-31.148
811.77	-42.222
812.08	-27.119
812.38	-25.000
812.69	-8.621
812.99	-16.981
813.29	-48.718
813.59	-4.000
813.90	-12.281
814.20	-18.182
814.50	-5.634
814.81	-8.974
815.11	-11.475
815.41	1.493
815.72	-10.345
816.02	-16.071
816.32	-20.000
816.62	-11.364
816.93	-44.444
817.23	-9.259
817.53	-14.894
817.84	-14.286
818.14	-47.059
818.44	-20.408
818.74	-11.111
819.04	-51.282
819.35	-68.571
819.65	-73.077
819.95	-28.302
820.25	-8.889
820.56	-52.381
820.86	-84.375
821.16	-30.769
821.46	-58.140
821.76	-36.000
822.07	-14.286
822.37	-19.565
822.67	-12.766
822.97	-56.757
823.27	-25.000
823.57	-20.408
823.88	-17.778
824.18	-17.500
824.48	-80.000
824.78	-44.000
825.08	-51.515
825.38	-8.889
825.69	-14.894
825.99	-27.778
826.29	-80.000
826.59	-43.590
826.89	-23.256
827.19	-20.000
827.49	-41.176
827.79	-10.417
828.09	-56.757
828.39	-30.000
828.70	-21.951
829.00	-16.279
829.30	-78.571
829.60	-38.235
829.90	-23.913
830.20	-45.714
830.50	-65.517
830.80	-88.889
831.10	-73.077
831.40	-52.941
831.70	-100.000
832.00	-25.806
832.30	-117.647
832.60	-41.667
832.90	-61.538
833.20	-42.105
833.50	-75.000
833.80	-94.737
834.10	-71.429
834.40	-8.333
834.70	-31.250
835.00	-80.000
835.30	-44.118
835.60	-60.000
835.90	-56.000
836.20	-122.727
836.50	-32.000
836.80	-30.303
837.10	-59.259
837.40	-55.556
837.70	-112.500
838.00	-28.571
838.30	-65.217
838.60	-48.276
838.90	-121.429
839.19	-104.348
839.49	-216.667
839.79	-17.391
840.09	-87.500
840.39	-55.000
840.69	-41.935
840.99	-46.429
841.29	-66.667
841.59	-105.263
841.88	-7.692
842.18	-30.769
842.48	-150.000
842.78	-95.000
843.08	-6.667
843.38	-19.355
843.68	-116.667
843.97	0.000
844.27	-118.750
844.57	-78.947
844.87	-140.000
845.17	-80.000
845.47	-14.286
845.76	-71.429
846.06	-144.444
846.36	-100.000
846.66	-34.615
846.96	-93.333
847.25	-58.824
847.55	-65.217
847.85	-90.000
848.15	-88.235
848.44	-118.182
848.74	-33.333
849.04	-70.833
849.34	-31.250
849.63	-26.087
849.93	1200.000
850.23	-46.667
850.53	-42.308
850.82	-181.818
851.12	-50.000
851.42	-163.636
851.71	23.077
852.01	-65.000
852.31	-92.308
852.61	-84.211
852.90	-58.333
853.20	-50.000
853.50	-244.444
853.79	-100.000
854.09	-72.727
854.39	-133.333
854.68	-64.516
854.98	-50.000
855.28	-66.667
855.57	-64.286
855.87	-60.000
856.17	-81.818
856.46	-51.852
856.76	-72.222
857.05	-47.826
857.35	-66.667
857.65	-123.077
857.94	-47.619
858.24	0.000
858.53	-39.130
858.83	-76.471
859.13	-64.706
859.42	-52.941
859.72	-78.571
860.01	-75.000
860.31	-188.889
860.60	-140.000
860.90	-100.000
861.20	-55.556
861.49	-100.000
861.79	-10.000
862.08	-161.538
862.38	-15.625
862.67	-52.941
862.97	-100.000
863.26	-188.889
863.56	-160.000
863.85	-81.818
864.15	-44.444
864.44	-566.667
864.74	-21.429
865.03	-93.750
865.33	-220.000
865.62	-48.387
865.92	-40.909
866.21	-65.217
866.51	-107.143
866.80	-240.000
867.10	-166.667
867.39	-175.000
867.69	2200.000
867.98	-271.429
868.27	-64.706
868.57	-3200.000
868.86	-230.000
869.16	-80.952
869.45	-33.333
869.75	-18.182
870.04	-157.143
870.33	-58.333
870.63	-371.429
870.92	-250.000
871.22	-375.000
871.51	-145.455
871.80	-833.333
872.10	-850.000
>>>>>End Processed Spectral Data<<<<<
