SpectraSuite Data File
++++++++++++++++++++++++++++++++++++
Date: Thu May 14 16:01:54 PDT 2015
User: schluterlab
Dark Spectrum Present: Yes
Reference Spectrum Present: Yes
Number of Sampled Component Spectra: 1
Spectrometers: USB2E3373
Integration Time (usec): 3000 (USB2E3373)
Spectra Averaged: 3 (USB2E3373)
Boxcar Smoothing: 0 (USB2E3373)
Correct for Electrical Dark: No (USB2E3373)
Strobe/Lamp Enabled: No (USB2E3373)
Correct for Detector Non-linearity: No (USB2E3373)
Correct for Stray Light: No (USB2E3373)
Number of Pixels in Processed Spectrum: 2048
>>>>>Begin Processed Spectral Data<<<<<
178.53	0.000
178.91	200.000
179.29	-2300.000
179.67	-1500.000
180.04	228.571
180.42	140.000
180.80	320.000
181.18	-900.000
181.56	300.000
181.94	300.000
182.31	-375.000
182.69	500.000
183.07	-500.000
183.45	350.000
183.83	-133.333
184.20	-366.667
184.58	1400.000
184.96	-450.000
185.34	-233.333
185.72	-220.000
186.09	288.889
186.47	950.000
186.85	480.000
187.23	-222.222
187.61	-1800.000
187.98	340.000
188.36	475.000
188.74	-200.000
189.12	-266.667
189.49	-18.750
189.87	-137.500
190.25	-88.889
190.63	-280.000
191.00	-244.444
191.38	0.000
191.76	-550.000
192.14	-283.333
192.51	650.000
192.89	-150.000
193.27	0.000
193.65	-157.143
194.02	-2500.000
194.40	-85.714
194.78	200.000
195.15	0.000
195.53	-127.273
195.91	0.000
196.29	-175.000
196.66	-115.385
197.04	-2700.000
197.42	-257.143
197.79	-900.000
198.17	-187.500
198.55	-157.143
198.92	11.111
199.30	-175.000
199.68	-9.091
200.05	-57.143
200.43	-850.000
200.81	328.571
201.18	0.000
201.56	211.111
201.94	0.000
202.31	800.000
202.69	-322.222
203.07	1300.000
203.44	-166.667
203.82	-575.000
204.19	-158.333
204.57	-200.000
204.95	-150.000
205.32	-1600.000
205.70	325.000
206.08	-150.000
206.45	-283.333
206.83	400.000
207.20	-216.667
207.58	-380.000
207.96	-166.667
208.33	-266.667
208.71	141.667
209.08	-50.000
209.46	0.000
209.84	400.000
210.21	1000.000
210.59	550.000
210.96	633.333
211.34	-375.000
211.71	-212.500
212.09	-1900.000
212.46	0.000
212.84	1100.000
213.22	-320.000
213.59	-475.000
213.97	-90.000
214.34	-700.000
214.72	316.667
215.09	-475.000
215.47	0.000
215.84	185.714
216.22	1250.000
216.59	-260.000
216.97	-440.000
217.34	-500.000
217.72	-75.000
218.09	-450.000
218.47	-500.000
218.84	0.000
219.22	180.000
219.59	-76.471
219.97	-70.000
220.34	1250.000
220.72	-266.667
221.09	-84.615
221.47	-466.667
221.84	-200.000
222.22	-257.143
222.59	0.000
222.97	-112.500
223.34	-420.000
223.72	-1600.000
224.09	-575.000
224.46	-550.000
224.84	-120.000
225.21	-142.857
225.59	-475.000
225.96	-325.000
226.34	-26.923
226.71	350.000
227.08	-850.000
227.46	-93.333
227.83	-425.000
228.21	-15.789
228.58	112.500
228.95	550.000
229.33	-125.000
229.70	-130.000
230.08	-31.579
230.45	250.000
230.82	-400.000
231.20	-128.571
231.57	-100.000
231.95	-190.909
232.32	-163.636
232.69	-40.000
233.07	-400.000
233.44	-123.529
233.81	-120.000
234.19	-16.667
234.56	4.545
234.93	-10.345
235.31	-31.579
235.68	-22.222
236.05	-65.000
236.43	-7.692
236.80	16.000
237.17	-48.148
237.55	-21.212
237.92	-120.000
238.29	-12.903
238.67	-20.455
239.04	2.778
239.41	-35.714
239.79	-4.348
240.16	-9.259
240.53	-10.870
240.91	-27.451
241.28	-11.475
241.65	19.403
242.02	14.865
242.40	-7.692
242.77	-1.333
243.14	1.220
243.51	-17.105
243.89	-15.385
244.26	2.970
244.63	10.784
245.00	13.084
245.38	12.281
245.75	-7.080
246.12	10.317
246.49	4.651
246.87	9.286
247.24	13.245
247.61	13.158
247.98	6.711
248.36	12.963
248.73	7.362
249.10	9.290
249.47	14.428
249.84	20.942
250.22	9.326
250.59	12.778
250.96	11.364
251.33	11.735
251.70	16.667
252.08	15.417
252.45	10.656
252.82	12.397
253.19	14.453
253.56	15.589
253.94	13.077
254.31	15.152
254.68	17.832
255.05	14.658
255.42	10.544
255.79	13.592
256.16	14.238
256.54	12.252
256.91	16.066
257.28	15.738
257.65	14.650
258.02	14.749
258.39	16.809
258.76	20.183
259.14	20.115
259.51	16.427
259.88	14.448
260.25	17.500
260.62	12.877
260.99	18.579
261.36	17.962
261.73	15.650
262.10	16.484
262.47	17.962
262.85	19.697
263.22	14.026
263.59	13.684
263.96	15.601
264.33	15.090
264.70	16.296
265.07	17.661
265.44	20.408
265.81	15.046
266.18	17.687
266.55	17.187
266.92	15.945
267.29	18.381
267.66	16.630
268.03	17.031
268.40	17.119
268.77	14.806
269.14	15.198
269.51	16.228
269.88	18.648
270.25	17.304
270.62	18.565
270.99	16.566
271.36	18.812
271.73	17.682
272.10	18.637
272.47	17.836
272.84	13.454
273.21	19.038
273.58	18.347
273.95	16.346
274.32	15.019
274.69	18.569
275.06	17.033
275.43	17.375
275.80	17.813
276.17	17.407
276.54	16.045
276.91	17.352
277.28	14.467
277.65	15.799
278.02	18.015
278.39	16.123
278.76	18.102
279.13	17.730
279.50	16.838
279.87	17.174
280.23	16.197
280.60	18.644
280.97	17.763
281.34	16.129
281.71	16.244
282.08	17.442
282.45	15.548
282.82	16.641
283.19	14.055
283.56	14.098
283.92	17.868
284.29	19.273
284.66	17.077
285.03	14.263
285.40	17.774
285.77	15.944
286.14	17.863
286.51	15.982
286.87	16.114
287.24	16.114
287.61	16.891
287.98	14.653
288.35	16.272
288.72	15.976
289.08	15.959
289.45	13.757
289.82	13.404
290.19	14.511
290.56	14.930
290.93	16.548
291.29	16.116
291.66	14.325
292.03	13.569
292.40	15.374
292.77	14.420
293.13	14.885
293.50	14.192
293.87	13.557
294.24	14.800
294.60	13.021
294.97	12.349
295.34	15.877
295.71	12.106
296.08	12.661
296.44	14.828
296.81	14.616
297.18	14.072
297.55	13.208
297.91	12.574
298.28	12.678
298.65	13.793
299.02	11.924
299.38	12.586
299.75	12.617
300.12	12.153
300.48	13.825
300.85	14.061
301.22	12.304
301.59	11.530
301.95	13.107
302.32	13.333
302.69	13.034
303.05	11.425
303.42	12.639
303.79	12.188
304.15	13.460
304.52	12.262
304.89	13.403
305.25	12.319
305.62	11.808
305.99	11.443
306.35	12.802
306.72	13.030
307.09	11.472
307.45	12.215
307.82	12.412
308.19	11.907
308.55	12.825
308.92	12.074
309.29	12.548
309.65	12.086
310.02	13.069
310.38	12.500
310.75	10.971
311.12	12.752
311.48	12.023
311.85	12.061
312.22	11.860
312.58	12.207
312.95	11.377
313.31	12.556
313.68	13.278
314.05	13.189
314.41	12.295
314.78	12.807
315.14	12.432
315.51	13.112
315.87	12.781
316.24	13.333
316.61	14.920
316.97	12.760
317.34	13.051
317.70	13.537
318.07	14.109
318.43	14.116
318.80	13.378
319.16	13.991
319.53	12.425
319.89	12.621
320.26	14.680
320.62	14.007
320.99	13.019
321.35	14.233
321.72	15.349
322.08	14.518
322.45	16.170
322.81	14.711
323.18	14.690
323.54	13.793
323.91	15.480
324.27	14.544
324.64	16.037
325.00	15.091
325.37	15.725
325.73	14.793
326.10	16.058
326.46	16.694
326.83	16.493
327.19	15.433
327.56	15.889
327.92	17.309
328.29	16.452
328.65	15.913
329.01	16.413
329.38	17.270
329.74	16.952
330.11	16.267
330.47	16.681
330.84	16.537
331.20	17.917
331.56	16.205
331.93	17.908
332.29	17.373
332.66	17.525
333.02	16.667
333.38	16.611
333.75	17.424
334.11	17.348
334.48	17.657
334.84	17.417
335.20	16.205
335.57	17.875
335.93	18.099
336.29	17.304
336.66	15.980
337.02	16.806
337.38	17.432
337.75	16.860
338.11	16.653
338.47	17.866
338.84	16.751
339.20	16.091
339.56	16.886
339.93	17.077
340.29	16.908
340.65	17.194
341.02	16.441
341.38	17.542
341.74	17.111
342.11	17.458
342.47	15.647
342.83	17.391
343.20	17.416
343.56	17.963
343.92	17.134
344.28	17.422
344.65	16.202
345.01	16.459
345.37	17.263
345.73	16.524
346.10	17.551
346.46	15.506
346.82	17.528
347.19	17.112
347.55	17.678
347.91	16.642
348.27	16.844
348.63	16.984
349.00	16.555
349.36	17.621
349.72	16.369
350.08	16.939
350.45	16.426
350.81	16.516
351.17	16.165
351.53	16.831
351.89	17.084
352.26	16.567
352.62	16.940
352.98	15.573
353.34	15.982
353.70	16.102
354.07	15.276
354.43	16.021
354.79	16.380
355.15	15.379
355.51	17.178
355.87	15.183
356.24	16.806
356.60	16.112
356.96	16.531
357.32	15.911
357.68	15.739
358.04	15.569
358.40	16.493
358.77	16.447
359.13	15.436
359.49	15.836
359.85	17.331
360.21	16.284
360.57	15.793
360.93	15.656
361.29	16.000
361.66	16.582
362.02	17.189
362.38	15.741
362.74	16.760
363.10	17.056
363.46	17.382
363.82	15.554
364.18	17.312
364.54	16.598
364.90	16.990
365.26	15.724
365.62	17.067
365.98	16.065
366.35	15.973
366.71	16.054
367.07	16.373
367.43	17.400
367.79	15.727
368.15	16.722
368.51	17.253
368.87	16.721
369.23	16.467
369.59	16.257
369.95	17.039
370.31	17.353
370.67	16.506
371.03	16.828
371.39	16.051
371.75	16.300
372.11	16.463
372.47	16.655
372.83	17.277
373.19	16.945
373.55	16.531
373.91	16.360
374.27	16.624
374.63	17.388
374.99	16.180
375.35	16.429
375.71	16.452
376.07	16.398
376.42	16.310
376.78	18.024
377.14	15.845
377.50	16.572
377.86	17.057
378.22	17.066
378.58	16.825
378.94	17.077
379.30	17.340
379.66	16.990
380.02	17.426
380.38	16.878
380.74	17.465
381.09	16.899
381.45	17.273
381.81	17.857
382.17	16.390
382.53	16.959
382.89	18.172
383.25	18.054
383.61	17.130
383.97	18.021
384.32	18.122
384.68	17.517
385.04	17.929
385.40	18.503
385.76	18.054
386.12	17.714
386.48	17.765
386.83	18.594
387.19	17.729
387.55	17.840
387.91	18.208
388.27	18.129
388.62	18.041
388.98	17.766
389.34	17.855
389.70	17.257
390.06	18.117
390.42	18.133
390.77	18.423
391.13	18.486
391.49	19.505
391.85	18.182
392.20	19.217
392.56	19.315
392.92	18.975
393.28	18.629
393.64	18.212
393.99	18.942
394.35	18.633
394.71	18.982
395.07	18.683
395.42	18.903
395.78	19.196
396.14	19.133
396.50	19.181
396.85	18.784
397.21	19.053
397.57	20.082
397.92	19.129
398.28	19.500
398.64	18.650
399.00	18.482
399.35	19.686
399.71	19.674
400.07	19.483
400.42	19.499
400.78	20.023
401.14	20.319
401.49	20.466
401.85	20.116
402.21	20.800
402.57	21.127
402.92	19.563
403.28	20.082
403.63	19.451
403.99	20.309
404.35	20.750
404.70	21.133
405.06	20.761
405.42	21.019
405.77	21.320
406.13	20.800
406.49	20.664
406.84	21.163
407.20	20.906
407.55	20.836
407.91	21.119
408.27	21.437
408.62	22.222
408.98	21.358
409.34	21.114
409.69	22.002
410.05	21.688
410.40	21.520
410.76	21.985
411.11	22.560
411.47	21.437
411.83	23.398
412.18	22.711
412.54	22.644
412.89	21.187
413.25	22.630
413.60	22.631
413.96	22.494
414.31	23.286
414.67	22.838
415.03	22.462
415.38	23.518
415.74	22.358
416.09	23.874
416.45	23.106
416.80	23.745
417.16	24.010
417.51	23.350
417.87	22.931
418.22	22.455
418.58	23.420
418.93	24.040
419.29	23.798
419.64	23.049
420.00	24.570
420.35	23.975
420.71	23.722
421.06	23.749
421.42	24.885
421.77	23.856
422.12	24.577
422.48	24.936
422.83	24.918
423.19	24.085
423.54	24.668
423.90	24.020
424.25	24.640
424.61	23.823
424.96	24.382
425.31	25.106
425.67	24.262
426.02	24.737
426.38	25.316
426.73	25.112
427.09	25.779
427.44	25.451
427.79	25.815
428.15	25.171
428.50	24.719
428.85	25.029
429.21	24.947
429.56	25.518
429.92	25.258
430.27	25.060
430.62	25.940
430.98	25.234
431.33	25.171
431.68	24.665
432.04	25.800
432.39	25.978
432.74	26.027
433.10	26.933
433.45	25.307
433.80	26.234
434.16	26.705
434.51	26.002
434.86	26.493
435.22	26.621
435.57	26.592
435.92	26.711
436.28	26.621
436.63	27.526
436.98	26.838
437.34	25.986
437.69	26.527
438.04	27.975
438.39	27.111
438.75	26.674
439.10	27.114
439.45	26.328
439.81	26.723
440.16	26.381
440.51	27.648
440.86	26.348
441.22	27.224
441.57	27.516
441.92	26.916
442.27	27.626
442.63	27.670
442.98	27.375
443.33	27.038
443.68	26.611
444.03	28.081
444.39	28.155
444.74	27.412
445.09	27.623
445.44	27.713
445.79	28.113
446.15	27.287
446.50	27.907
446.85	28.016
447.20	27.660
447.55	27.929
447.91	27.696
448.26	27.537
448.61	27.843
448.96	28.219
449.31	27.996
449.66	27.233
450.02	27.848
450.37	28.077
450.72	27.987
451.07	27.961
451.42	28.885
451.77	28.571
452.12	28.555
452.47	27.629
452.83	28.097
453.18	28.079
453.53	28.317
453.88	28.161
454.23	28.531
454.58	29.483
454.93	29.308
455.28	29.139
455.63	29.505
455.98	29.553
456.34	28.799
456.69	28.630
457.04	29.433
457.39	28.659
457.74	29.754
458.09	29.325
458.44	29.203
458.79	28.932
459.14	29.261
459.49	29.089
459.84	28.646
460.19	28.817
460.54	29.302
460.89	29.857
461.24	28.851
461.59	29.275
461.94	27.610
462.29	29.395
462.64	29.390
462.99	29.441
463.34	30.759
463.69	29.132
464.04	29.683
464.39	29.092
464.74	29.875
465.09	29.931
465.44	29.506
465.79	29.350
466.14	28.609
466.49	29.000
466.84	29.697
467.19	29.595
467.54	28.613
467.89	28.793
468.24	29.695
468.59	29.473
468.94	29.545
469.29	29.034
469.64	30.261
469.99	30.147
470.34	30.198
470.68	30.827
471.03	31.303
471.38	30.412
471.73	29.324
472.08	30.076
472.43	29.982
472.78	30.856
473.13	30.594
473.48	30.574
473.83	30.760
474.17	30.832
474.52	31.750
474.87	30.343
475.22	30.592
475.57	30.478
475.92	29.766
476.27	31.257
476.61	30.166
476.96	29.510
477.31	30.842
477.66	31.375
478.01	31.317
478.36	30.259
478.70	30.788
479.05	30.215
479.40	30.997
479.75	30.740
480.10	31.265
480.45	30.356
480.79	30.113
481.14	30.744
481.49	29.350
481.84	31.158
482.19	31.355
482.53	31.307
482.88	30.793
483.23	30.547
483.58	30.873
483.92	30.098
484.27	30.737
484.62	31.106
484.97	31.026
485.31	30.201
485.66	28.625
486.01	27.498
486.36	28.058
486.70	28.902
487.05	29.635
487.40	29.324
487.75	29.542
488.09	29.952
488.44	29.901
488.79	30.287
489.13	30.485
489.48	30.602
489.83	30.624
490.17	30.944
490.52	31.322
490.87	31.134
491.22	31.412
491.56	31.527
491.91	31.574
492.26	32.237
492.60	31.001
492.95	31.286
493.30	31.914
493.64	31.362
493.99	31.404
494.34	31.272
494.68	31.306
495.03	32.379
495.37	32.357
495.72	31.791
496.07	32.209
496.41	30.716
496.76	31.693
497.11	31.592
497.45	31.247
497.80	31.808
498.14	31.519
498.49	32.353
498.84	30.759
499.18	31.984
499.53	32.870
499.87	32.176
500.22	30.721
500.56	32.164
500.91	31.716
501.26	32.364
501.60	31.993
501.95	32.089
502.29	31.549
502.64	32.357
502.98	31.406
503.33	32.268
503.67	31.095
504.02	32.137
504.36	32.440
504.71	32.017
505.06	32.333
505.40	32.221
505.75	32.013
506.09	32.551
506.44	32.683
506.78	32.890
507.13	32.089
507.47	33.160
507.82	32.292
508.16	32.600
508.51	32.349
508.85	32.924
509.19	33.491
509.54	32.949
509.88	33.220
510.23	33.220
510.57	33.543
510.92	33.188
511.26	31.938
511.61	32.400
511.95	33.382
512.30	33.481
512.64	33.433
512.98	32.266
513.33	33.821
513.67	33.452
514.02	34.032
514.36	32.839
514.70	34.687
515.05	33.629
515.39	34.961
515.74	35.260
516.08	33.492
516.42	34.275
516.77	33.701
517.11	33.729
517.46	34.517
517.80	34.794
518.14	35.637
518.49	34.816
518.83	34.167
519.17	33.872
519.52	34.591
519.86	34.688
520.20	35.357
520.55	34.995
520.89	36.599
521.23	35.288
521.58	35.311
521.92	35.694
522.26	34.937
522.61	35.937
522.95	35.582
523.29	36.207
523.64	36.043
523.98	36.452
524.32	35.931
524.66	35.629
525.01	35.108
525.35	35.899
525.69	35.325
526.04	35.878
526.38	35.287
526.72	35.986
527.06	36.891
527.41	36.035
527.75	37.411
528.09	36.659
528.43	35.346
528.78	35.665
529.12	35.206
529.46	35.076
529.80	36.670
530.15	36.116
530.49	36.121
530.83	36.128
531.17	35.305
531.51	35.860
531.86	36.839
532.20	36.585
532.54	36.026
532.88	37.091
533.22	36.064
533.57	35.141
533.91	36.308
534.25	36.405
534.59	35.977
534.93	35.144
535.27	36.338
535.62	36.441
535.96	36.258
536.30	36.310
536.64	36.817
536.98	37.884
537.32	36.975
537.66	36.931
538.01	35.710
538.35	36.784
538.69	36.478
539.03	36.542
539.37	37.220
539.71	36.637
540.05	36.691
540.39	35.636
540.73	35.155
541.07	36.787
541.42	35.854
541.76	35.113
542.10	36.369
542.44	35.079
542.78	36.800
543.12	36.293
543.46	36.996
543.80	35.492
544.14	35.009
544.48	36.584
544.82	36.146
545.16	36.852
545.50	36.010
545.84	35.701
546.18	35.741
546.52	35.987
546.86	37.044
547.20	35.941
547.54	36.454
547.88	36.709
548.22	35.439
548.56	36.161
548.90	35.881
549.24	36.231
549.58	37.035
549.92	35.969
550.26	35.922
550.60	36.567
550.94	36.675
551.28	37.558
551.62	37.938
551.96	35.469
552.30	36.902
552.64	35.657
552.98	37.991
553.32	36.656
553.66	36.977
554.00	36.696
554.34	37.773
554.68	37.121
555.02	37.714
555.36	37.541
555.69	35.042
556.03	36.822
556.37	36.608
556.71	37.159
557.05	37.252
557.39	36.430
557.73	36.592
558.07	36.689
558.41	37.342
558.75	36.646
559.08	37.022
559.42	37.449
559.76	37.381
560.10	36.973
560.44	36.609
560.78	36.750
561.12	36.392
561.45	36.800
561.79	36.386
562.13	37.461
562.47	35.450
562.81	36.456
563.15	36.553
563.48	36.234
563.82	35.852
564.16	36.039
564.50	35.340
564.84	36.873
565.17	36.529
565.51	35.098
565.85	35.808
566.19	35.311
566.52	36.337
566.86	37.182
567.20	34.856
567.54	34.626
567.88	34.811
568.21	35.425
568.55	35.492
568.89	34.589
569.23	33.291
569.56	33.138
569.90	32.787
570.24	32.378
570.57	32.168
570.91	31.537
571.25	31.299
571.59	31.394
571.92	31.157
572.26	30.969
572.60	31.313
572.93	31.172
573.27	30.795
573.61	30.704
573.95	30.493
574.28	30.297
574.62	30.218
574.96	29.356
575.29	29.588
575.63	30.076
575.97	29.916
576.30	30.027
576.64	30.088
576.98	30.182
577.31	29.676
577.65	30.128
577.98	29.292
578.32	29.197
578.66	28.911
578.99	29.408
579.33	29.835
579.67	29.397
580.00	29.243
580.34	29.276
580.67	29.744
581.01	29.381
581.35	29.047
581.68	29.086
582.02	29.153
582.35	28.889
582.69	29.456
583.02	29.527
583.36	29.636
583.70	29.448
584.03	29.806
584.37	29.351
584.70	29.315
585.04	29.017
585.37	29.563
585.71	29.061
586.04	29.062
586.38	29.689
586.72	29.406
587.05	29.445
587.39	29.668
587.72	29.545
588.06	29.352
588.39	30.520
588.73	30.185
589.06	30.700
589.40	31.039
589.73	31.105
590.07	31.001
590.40	31.068
590.73	31.036
591.07	32.092
591.40	31.299
591.74	32.353
592.07	31.506
592.41	31.230
592.74	31.061
593.08	31.115
593.41	30.825
593.75	30.374
594.08	30.233
594.41	30.673
594.75	30.588
595.08	30.956
595.42	30.812
595.75	30.255
596.09	30.803
596.42	30.813
596.75	32.227
597.09	32.040
597.42	31.188
597.75	30.890
598.09	30.873
598.42	31.966
598.76	31.181
599.09	30.758
599.42	30.774
599.76	30.175
600.09	30.531
600.42	30.297
600.76	30.713
601.09	30.003
601.42	31.136
601.76	30.759
602.09	31.058
602.42	30.534
602.76	30.517
603.09	31.388
603.42	31.178
603.76	30.197
604.09	31.157
604.42	31.560
604.76	30.251
605.09	30.874
605.42	31.300
605.75	31.000
606.09	31.056
606.42	30.354
606.75	30.585
607.09	30.184
607.42	30.674
607.75	31.028
608.08	30.466
608.42	30.593
608.75	31.260
609.08	31.112
609.41	31.628
609.75	31.875
610.08	31.662
610.41	31.606
610.74	31.681
611.07	31.528
611.41	31.839
611.74	31.778
612.07	31.557
612.40	32.177
612.73	32.714
613.07	31.540
613.40	32.194
613.73	31.680
614.06	32.041
614.39	31.390
614.72	31.684
615.06	31.232
615.39	30.884
615.72	32.133
616.05	31.617
616.38	32.392
616.71	31.870
617.05	32.109
617.38	33.012
617.71	31.749
618.04	32.218
618.37	33.333
618.70	32.975
619.03	33.035
619.36	34.895
619.69	33.568
620.03	34.275
620.36	33.988
620.69	32.449
621.02	33.596
621.35	35.631
621.68	36.153
622.01	35.018
622.34	33.821
622.67	35.258
623.00	33.738
623.33	35.634
623.66	34.047
623.99	33.443
624.32	35.218
624.65	33.784
624.99	33.745
625.32	33.899
625.65	35.401
625.98	33.966
626.31	34.018
626.64	35.531
626.97	34.884
627.30	34.472
627.63	35.709
627.96	36.036
628.29	36.187
628.62	36.524
628.95	37.423
629.28	37.213
629.61	37.121
629.94	36.067
630.26	36.610
630.59	35.665
630.92	36.277
631.25	37.030
631.58	38.701
631.91	37.395
632.24	37.944
632.57	37.571
632.90	38.917
633.23	38.265
633.56	38.878
633.89	37.603
634.22	39.397
634.55	38.622
634.88	38.745
635.20	39.612
635.53	41.130
635.86	40.953
636.19	39.555
636.52	38.291
636.85	37.283
637.18	37.006
637.51	37.419
637.83	40.975
638.16	41.359
638.49	39.319
638.82	41.375
639.15	37.801
639.48	39.145
639.81	39.261
640.13	41.578
640.46	37.939
640.79	41.054
641.12	40.745
641.45	40.652
641.77	42.362
642.10	40.945
642.43	42.154
642.76	40.650
643.09	42.877
643.41	41.877
643.74	40.828
644.07	41.103
644.40	39.604
644.73	40.058
645.05	41.116
645.38	40.719
645.71	38.563
646.04	41.607
646.36	39.854
646.69	39.417
647.02	42.202
647.35	41.679
647.67	42.190
648.00	41.879
648.33	42.342
648.66	41.797
648.98	38.231
649.31	39.242
649.64	37.450
649.96	40.451
650.29	37.552
650.62	37.765
650.94	39.189
651.27	38.024
651.60	38.596
651.92	41.185
652.25	39.797
652.58	39.477
652.90	39.826
653.23	39.296
653.56	38.944
653.88	39.747
654.21	38.592
654.54	40.029
654.86	41.501
655.19	35.383
655.52	33.998
655.84	27.900
656.17	30.757
656.49	42.509
656.82	45.974
657.15	35.503
657.47	27.021
657.80	19.779
658.13	15.749
658.45	20.774
658.78	25.552
659.10	24.941
659.43	25.404
659.75	25.051
660.08	27.115
660.41	29.032
660.73	32.839
661.06	35.830
661.38	36.364
661.71	40.000
662.03	40.212
662.36	44.007
662.68	40.713
663.01	43.363
663.33	43.289
663.66	41.209
663.98	40.769
664.31	43.340
664.63	40.848
664.96	41.924
665.28	39.927
665.61	43.007
665.93	39.464
666.26	39.427
666.58	40.959
666.91	41.308
667.23	40.571
667.56	42.998
667.88	43.200
668.21	40.430
668.53	42.278
668.86	43.026
669.18	42.566
669.50	42.744
669.83	42.000
670.15	41.339
670.48	41.468
670.80	39.388
671.13	40.265
671.45	38.189
671.77	41.243
672.10	37.333
672.42	36.084
672.75	37.020
673.07	38.060
673.39	34.206
673.72	38.255
674.04	38.793
674.37	38.104
674.69	43.034
675.01	41.143
675.34	40.649
675.66	38.764
675.98	40.112
676.31	43.555
676.63	39.354
676.95	37.548
677.28	38.508
677.60	38.189
677.92	37.812
678.25	39.488
678.57	40.391
678.89	39.932
679.22	37.282
679.54	39.829
679.86	35.932
680.18	36.816
680.51	36.478
680.83	38.298
681.15	36.552
681.48	37.997
681.80	38.342
682.12	38.462
682.44	36.895
682.77	38.475
683.09	35.606
683.41	39.535
683.73	36.243
684.06	40.590
684.38	36.494
684.70	39.138
685.02	37.694
685.34	34.609
685.67	35.962
685.99	34.202
686.31	32.267
686.63	35.071
686.96	36.120
687.28	34.853
687.60	35.354
687.92	36.013
688.24	34.891
688.56	33.103
688.89	37.205
689.21	37.573
689.53	36.471
689.85	35.108
690.17	36.852
690.49	36.653
690.82	35.644
691.14	37.045
691.46	38.050
691.78	36.096
692.10	34.862
692.42	32.321
692.74	33.757
693.06	34.074
693.39	35.484
693.71	36.842
694.03	37.175
694.35	37.905
694.67	36.961
694.99	35.745
695.31	38.852
695.63	35.714
695.95	35.611
696.27	39.121
696.59	39.381
696.91	37.613
697.23	38.901
697.56	37.067
697.88	32.955
698.20	33.522
698.52	36.932
698.84	34.719
699.16	38.571
699.48	36.192
699.80	35.957
700.12	36.681
700.44	35.023
700.76	37.530
701.08	38.741
701.40	37.306
701.72	37.313
702.04	37.701
702.36	36.649
702.68	34.230
703.00	35.941
703.32	33.498
703.64	37.897
703.96	35.084
704.28	34.889
704.60	37.722
704.91	38.265
705.23	39.726
705.55	38.719
705.87	40.303
706.19	43.252
706.51	36.446
706.83	35.735
707.15	36.243
707.47	32.477
707.79	33.406
708.11	31.992
708.43	32.258
708.74	31.473
709.06	35.499
709.38	36.150
709.70	38.958
710.02	33.850
710.34	36.968
710.66	35.475
710.98	36.885
711.29	35.989
711.61	39.548
711.93	38.462
712.25	36.216
712.57	37.758
712.89	38.235
713.20	37.278
713.52	36.994
713.84	33.705
714.16	36.316
714.48	36.340
714.80	37.143
715.11	32.283
715.43	32.361
715.75	35.000
716.07	33.978
716.39	36.339
716.70	34.337
717.02	35.410
717.34	37.979
717.66	34.899
717.97	32.192
718.29	36.082
718.61	35.197
718.93	33.981
719.24	36.025
719.56	35.583
719.88	32.432
720.20	33.548
720.51	34.472
720.83	32.188
721.15	34.211
721.46	31.507
721.78	34.667
722.10	32.686
722.42	33.221
722.73	34.194
723.05	34.737
723.37	36.458
723.68	34.767
724.00	36.101
724.32	35.915
724.63	34.615
724.95	36.879
725.27	36.237
725.58	33.216
725.90	36.897
726.22	27.586
726.53	30.844
726.85	33.962
727.16	32.931
727.48	34.251
727.80	32.781
728.11	30.389
728.43	30.640
728.74	35.786
729.06	29.139
729.38	32.468
729.69	32.886
730.01	30.655
730.32	29.091
730.64	33.019
730.96	30.435
731.27	32.402
731.59	33.242
731.90	28.831
732.22	26.302
732.53	27.901
732.85	28.571
733.16	33.431
733.48	28.659
733.80	30.919
734.11	29.060
734.43	30.270
734.74	31.392
735.06	28.894
735.37	29.459
735.69	28.378
736.00	29.379
736.32	31.267
736.63	30.278
736.95	31.897
737.26	31.212
737.58	30.606
737.89	32.941
738.21	27.523
738.52	26.885
738.83	28.328
739.15	32.979
739.46	32.653
739.78	32.822
740.09	31.519
740.41	32.945
740.72	26.667
741.04	28.803
741.35	34.737
741.66	30.980
741.98	37.705
742.29	32.218
742.61	36.842
742.92	33.077
743.23	34.296
743.55	34.884
743.86	30.000
744.18	28.926
744.49	32.911
744.80	33.333
745.12	32.068
745.43	28.455
745.74	32.759
746.06	32.203
746.37	38.397
746.68	33.740
747.00	34.583
747.31	34.335
747.62	36.154
747.94	27.935
748.25	30.522
748.56	27.347
748.88	32.051
749.19	36.207
749.50	31.602
749.82	27.711
750.13	34.164
750.44	29.000
750.75	31.385
751.07	29.231
751.38	30.915
751.69	28.115
752.01	29.126
752.32	28.758
752.63	29.592
752.94	30.450
753.26	31.227
753.57	30.370
753.88	32.584
754.19	30.547
754.51	29.582
754.82	31.511
755.13	28.525
755.44	27.304
755.75	31.579
756.07	30.448
756.38	28.616
756.69	28.614
757.00	27.701
757.31	26.503
757.63	26.854
757.94	25.822
758.25	27.314
758.56	26.797
758.87	26.136
759.18	27.200
759.50	27.195
759.81	28.291
760.12	28.571
760.43	26.042
760.74	26.847
761.05	28.000
761.36	26.265
761.67	24.873
761.99	25.676
762.30	28.659
762.61	28.053
762.92	23.507
763.23	28.839
763.54	29.496
763.85	30.584
764.16	28.620
764.47	26.761
764.78	27.157
765.10	26.100
765.41	31.026
765.72	26.455
766.03	27.119
766.34	25.078
766.65	25.087
766.96	27.888
767.27	30.876
767.58	21.393
767.89	32.212
768.20	29.108
768.51	26.852
768.82	30.924
769.13	24.621
769.44	20.769
769.75	30.686
770.06	28.462
770.37	28.346
770.68	26.383
770.99	25.101
771.30	30.370
771.61	27.376
771.92	22.593
772.23	31.174
772.54	21.759
772.85	34.562
773.16	29.048
773.47	20.635
773.78	28.649
774.09	31.818
774.39	31.500
774.70	27.869
775.01	23.171
775.32	28.824
775.63	25.153
775.94	22.930
776.25	29.032
776.56	31.410
776.87	35.374
777.18	34.483
777.48	29.371
777.79	22.973
778.10	11.029
778.41	31.250
778.72	26.897
779.03	25.309
779.34	26.061
779.65	24.352
779.95	27.222
780.26	28.977
780.57	30.323
780.88	31.159
781.19	33.548
781.50	32.353
781.80	26.344
782.11	24.339
782.42	19.697
782.73	19.162
783.04	22.905
783.34	20.606
783.65	22.222
783.96	26.087
784.27	24.405
784.57	17.219
784.88	24.286
785.19	30.709
785.50	26.772
785.81	26.316
786.11	26.923
786.42	17.986
786.73	24.460
787.04	23.308
787.34	22.951
787.65	27.200
787.96	23.881
788.26	27.972
788.57	30.769
788.88	26.974
789.19	34.641
789.49	26.027
789.80	14.184
790.11	25.984
790.41	21.094
790.72	27.119
791.03	8.738
791.33	13.913
791.64	20.175
791.95	20.536
792.25	17.143
792.56	22.321
792.87	23.958
793.17	30.357
793.48	20.833
793.79	18.072
794.09	25.688
794.40	17.431
794.70	16.327
795.01	18.182
795.32	22.603
795.62	22.535
795.93	18.182
796.23	18.033
796.54	20.536
796.85	21.277
797.15	22.826
797.46	19.178
797.76	10.000
798.07	16.304
798.37	13.402
798.68	24.675
798.99	28.736
799.29	20.225
799.60	14.894
799.90	9.639
800.21	13.846
800.51	19.403
800.82	7.353
801.12	4.110
801.43	8.824
801.73	10.169
802.04	27.273
802.34	-15.000
802.65	13.559
802.95	35.821
803.26	28.814
803.56	6.849
803.87	28.571
804.17	26.027
804.48	-7.018
804.78	6.944
805.09	0.000
805.39	18.919
805.70	1.408
806.00	21.951
806.30	13.253
806.61	17.808
806.91	13.462
807.22	18.889
807.52	8.046
807.83	15.278
808.13	26.506
808.43	20.225
808.74	15.000
809.04	10.294
809.35	10.667
809.65	15.714
809.95	13.699
810.26	8.772
810.56	10.345
810.86	11.765
811.17	8.772
811.47	11.475
811.77	-8.889
812.08	0.000
812.38	13.333
812.69	18.966
812.99	16.981
813.29	-41.026
813.59	26.000
813.90	5.263
814.20	12.727
814.50	19.718
814.81	15.385
815.11	22.951
815.41	4.478
815.72	10.345
816.02	10.714
816.32	6.667
816.62	-6.818
816.93	6.667
817.23	22.222
817.53	4.255
817.84	14.286
818.14	-14.706
818.44	22.449
818.74	0.000
819.04	-20.513
819.35	-17.143
819.65	7.692
819.95	15.094
820.25	4.444
820.56	4.762
820.86	-15.625
821.16	2.564
821.46	-16.279
821.76	-28.000
822.07	1.786
822.37	-15.217
822.67	-12.766
822.97	-18.919
823.27	-25.000
823.57	12.245
823.88	24.444
824.18	12.500
824.48	-16.667
824.78	-44.000
825.08	-27.273
825.38	17.778
825.69	17.021
825.99	-2.778
826.29	-14.286
826.59	-17.949
826.89	-25.581
827.19	-10.000
827.49	-17.647
827.79	8.333
828.09	-29.730
828.39	-26.667
828.70	-12.195
829.00	11.628
829.30	-46.429
829.60	32.353
829.90	6.522
830.20	2.857
830.50	-10.345
830.80	-16.667
831.10	-11.538
831.40	-5.882
831.70	-33.333
832.00	22.581
832.30	-100.000
832.60	-25.000
832.90	-61.538
833.20	-52.632
833.50	-35.000
833.80	-26.316
834.10	-76.190
834.40	-8.333
834.70	3.125
835.00	-22.857
835.30	0.000
835.60	-26.667
835.90	-64.000
836.20	-68.182
836.50	-20.000
836.80	-33.333
837.10	-22.222
837.40	-18.519
837.70	-137.500
838.00	21.429
838.30	-52.174
838.60	0.000
838.90	-85.714
839.19	-113.043
839.49	-91.667
839.79	17.391
840.09	-68.750
840.39	-45.000
840.69	19.355
840.99	-25.000
841.29	-33.333
841.59	-57.895
841.88	7.692
842.18	-46.154
842.48	-160.000
842.78	-45.000
843.08	-3.333
843.38	19.355
843.68	-94.444
843.97	-23.529
844.27	-75.000
844.57	-100.000
844.87	-150.000
845.17	20.000
845.47	-28.571
845.76	-57.143
846.06	-144.444
846.36	-117.647
846.66	-46.154
846.96	-53.333
847.25	-52.941
847.55	-30.435
847.85	-60.000
848.15	17.647
848.44	-100.000
848.74	-52.381
849.04	-16.667
849.34	-75.000
849.63	-73.913
849.93	1000.000
850.23	-73.333
850.53	11.538
850.82	-136.364
851.12	-59.091
851.42	-54.545
851.71	-84.615
852.01	-105.000
852.31	-123.077
852.61	-84.211
852.90	-58.333
853.20	-61.111
853.50	-266.667
853.79	-71.429
854.09	-63.636
854.39	-100.000
854.68	-35.484
854.98	-57.692
855.28	-38.889
855.57	-25.000
855.87	-20.000
856.17	-27.273
856.46	-3.704
856.76	-77.778
857.05	-34.783
857.35	-54.167
857.65	-146.154
857.94	-23.810
858.24	-18.519
858.53	-8.696
858.83	-82.353
859.13	-47.059
859.42	-47.059
859.72	-57.143
860.01	-45.000
860.31	-144.444
860.60	-120.000
860.90	-66.667
861.20	-38.889
861.49	-23.077
861.79	-16.667
862.08	-61.538
862.38	-3.125
862.67	-100.000
862.97	-68.750
863.26	-244.444
863.56	-110.000
863.85	-63.636
864.15	-50.000
864.44	-666.667
864.74	-100.000
865.03	-87.500
865.33	-220.000
865.62	-38.710
865.92	-45.455
866.21	-13.043
866.51	-92.857
866.80	-260.000
867.10	-133.333
867.39	-150.000
867.69	1700.000
867.98	-200.000
868.27	-94.118
868.57	-2500.000
868.86	-140.000
869.16	-90.476
869.45	-8.333
869.75	-18.182
870.04	-142.857
870.33	-75.000
870.63	-228.571
870.92	-300.000
871.22	-187.500
871.51	-118.182
871.80	-600.000
872.10	-900.000
>>>>>End Processed Spectral Data<<<<<
