SpectraSuite Data File
++++++++++++++++++++++++++++++++++++
Date: Thu May 14 15:50:13 PDT 2015
User: schluterlab
Dark Spectrum Present: Yes
Reference Spectrum Present: Yes
Number of Sampled Component Spectra: 1
Spectrometers: USB2E3373
Integration Time (usec): 3000 (USB2E3373)
Spectra Averaged: 3 (USB2E3373)
Boxcar Smoothing: 0 (USB2E3373)
Correct for Electrical Dark: No (USB2E3373)
Strobe/Lamp Enabled: No (USB2E3373)
Correct for Detector Non-linearity: No (USB2E3373)
Correct for Stray Light: No (USB2E3373)
Number of Pixels in Processed Spectrum: 2048
>>>>>Begin Processed Spectral Data<<<<<
178.53	0.000
178.91	700.000
179.29	-4800.000
179.67	-4800.000
180.04	421.429
180.42	430.000
180.80	840.000
181.18	-5100.000
181.56	-3100.000
181.94	900.000
182.31	-1000.000
182.69	1400.000
183.07	-2250.000
183.45	1300.000
183.83	-883.333
184.20	-1733.333
184.58	4400.000
184.96	-1100.000
185.34	-455.556
185.72	-700.000
186.09	577.778
186.47	2600.000
186.85	960.000
187.23	-511.111
187.61	-4000.000
187.98	760.000
188.36	1300.000
188.74	-1050.000
189.12	-1566.667
189.49	-218.750
189.87	-725.000
190.25	-444.444
190.63	-900.000
191.00	-477.778
191.38	0.000
191.76	-1200.000
192.14	-783.333
192.51	2300.000
192.89	-683.333
193.27	0.000
193.65	-500.000
194.02	-5000.000
194.40	-542.857
194.78	728.571
195.15	0.000
195.53	-318.182
195.91	0.000
196.29	-850.000
196.66	-253.846
197.04	-4400.000
197.42	-642.857
197.79	-2200.000
198.17	-637.500
198.55	-628.571
198.92	-455.556
199.30	-625.000
199.68	-327.273
200.05	-285.714
200.43	-2500.000
200.81	771.429
201.18	0.000
201.56	544.444
201.94	0.000
202.31	1466.667
202.69	-500.000
203.07	3500.000
203.44	-422.222
203.82	-1100.000
204.19	-341.667
204.57	-650.000
204.95	-562.500
205.32	-3800.000
205.70	1025.000
206.08	-716.667
206.45	-683.333
206.83	1200.000
207.20	-750.000
207.58	-840.000
207.96	-783.333
208.33	-566.667
208.71	391.667
209.08	-666.667
209.46	0.000
209.84	816.667
210.21	1950.000
210.59	2500.000
210.96	1866.667
211.34	-975.000
211.71	-500.000
212.09	-5100.000
212.46	0.000
212.84	2200.000
213.22	-820.000
213.59	-925.000
213.97	-300.000
214.34	-1133.333
214.72	700.000
215.09	-975.000
215.47	0.000
215.84	542.857
216.22	2450.000
216.59	-840.000
216.97	-880.000
217.34	-1050.000
217.72	-550.000
218.09	-1050.000
218.47	-1075.000
218.84	0.000
219.22	720.000
219.59	-229.412
219.97	-160.000
220.34	1950.000
220.72	-466.667
221.09	-269.231
221.47	-1533.333
221.84	-310.000
222.22	-500.000
222.59	0.000
222.97	-387.500
223.34	-960.000
223.72	-4400.000
224.09	-1200.000
224.46	-1325.000
224.84	-800.000
225.21	-628.571
225.59	-1075.000
225.96	-1125.000
226.34	-103.846
226.71	933.333
227.08	-2250.000
227.46	-200.000
227.83	-850.000
228.21	-215.789
228.58	675.000
228.95	2400.000
229.33	-333.333
229.70	-530.000
230.08	-142.105
230.45	480.000
230.82	-1033.333
231.20	-235.714
231.57	-325.000
231.95	-418.182
232.32	-409.091
232.69	-215.000
233.07	-950.000
233.44	-229.412
233.81	-360.000
234.19	-144.444
234.56	-136.364
234.93	-100.000
235.31	-147.368
235.68	-216.667
236.05	-210.000
236.43	-88.462
236.80	-60.000
237.17	-96.296
237.55	-81.818
237.92	-290.000
238.29	-93.548
238.67	-59.091
239.04	-77.778
239.41	-52.381
239.79	-52.174
240.16	-46.296
240.53	-36.957
240.91	-50.980
241.28	-16.393
241.65	-5.970
242.02	-4.054
242.40	-15.385
242.77	-22.667
243.14	-12.195
243.51	-15.789
243.89	-6.410
244.26	4.950
244.63	1.961
245.00	5.607
245.38	5.263
245.75	0.000
246.12	10.317
246.49	13.178
246.87	17.143
247.24	17.881
247.61	19.079
247.98	12.752
248.36	23.457
248.73	16.564
249.10	27.869
249.47	35.323
249.84	25.654
250.22	29.016
250.59	36.111
250.96	30.455
251.33	26.020
251.70	27.350
252.08	27.500
252.45	35.246
252.82	32.231
253.19	29.297
253.56	32.700
253.94	33.846
254.31	36.364
254.68	36.364
255.05	36.156
255.42	35.034
255.79	35.922
256.16	37.086
256.54	33.444
256.91	35.410
257.28	34.098
257.65	34.395
258.02	35.398
258.39	35.613
258.76	37.003
259.14	41.092
259.51	40.346
259.88	39.377
260.25	36.944
260.62	40.000
260.99	39.891
261.36	36.997
261.73	37.666
262.10	43.407
262.47	42.091
262.85	42.929
263.22	36.364
263.59	38.421
263.96	41.432
264.33	37.852
264.70	41.235
265.07	42.482
265.44	44.671
265.81	41.667
266.18	40.816
266.55	40.402
266.92	40.091
267.29	43.764
267.66	41.907
268.03	41.703
268.40	39.040
268.77	41.913
269.14	38.987
269.51	40.570
269.88	42.418
270.25	39.437
270.62	43.671
270.99	41.212
271.36	42.574
271.73	40.275
272.10	42.084
272.47	42.084
272.84	41.968
273.21	42.084
273.58	41.935
273.95	39.423
274.32	38.593
274.69	41.006
275.06	40.476
275.43	38.262
275.80	41.975
276.17	39.259
276.54	38.433
276.91	39.893
277.28	41.591
277.65	42.190
278.02	40.809
278.39	41.123
278.76	41.828
279.13	40.780
279.50	39.863
279.87	39.714
280.23	38.204
280.60	37.797
280.97	40.625
281.34	41.596
281.71	38.917
282.08	39.203
282.45	39.771
282.82	37.677
283.19	38.772
283.56	40.000
283.92	41.141
284.29	40.126
284.66	38.259
285.03	37.019
285.40	36.321
285.77	39.783
286.14	39.542
286.51	38.508
286.87	37.915
287.24	39.910
287.61	39.611
287.98	39.124
288.35	39.645
288.72	37.130
289.08	37.921
289.45	38.314
289.82	34.036
290.19	38.362
290.56	36.197
290.93	35.093
291.29	35.399
291.66	37.466
292.03	34.735
292.40	38.231
292.77	36.658
293.13	35.047
293.50	34.034
293.87	32.752
294.24	33.600
294.60	33.249
294.97	32.349
295.34	34.571
295.71	31.526
296.08	33.721
296.44	32.353
296.81	31.547
297.18	31.756
297.55	31.250
297.91	32.028
298.28	31.754
298.65	29.013
299.02	30.460
299.38	30.892
299.75	30.140
300.12	30.440
300.48	30.645
300.85	30.596
301.22	30.201
301.59	30.708
301.95	29.153
302.32	29.778
302.69	30.449
303.05	30.794
303.42	29.157
303.79	29.583
304.15	30.705
304.52	28.964
304.89	30.471
305.25	27.433
305.62	29.154
305.99	29.485
306.35	28.730
306.72	30.196
307.09	27.614
307.45	29.089
307.82	28.355
308.19	28.658
308.55	29.026
308.92	27.945
309.29	27.969
309.65	29.045
310.02	27.030
310.38	26.575
310.75	28.350
311.12	28.859
311.48	28.837
311.85	29.725
312.22	26.850
312.58	28.732
312.95	27.151
313.31	28.004
313.68	28.114
314.05	28.636
314.41	28.233
314.78	28.701
315.14	28.312
315.51	27.147
315.87	28.803
316.24	28.037
316.61	28.952
316.97	27.149
317.34	26.455
317.70	27.336
318.07	27.072
318.43	26.616
318.80	27.843
319.16	26.695
319.53	25.021
319.89	26.205
320.26	27.936
320.62	26.507
320.99	25.300
321.35	26.895
321.72	26.326
322.08	26.871
322.45	28.094
322.81	28.971
323.18	27.965
323.54	27.328
323.91	27.224
324.27	25.818
324.64	28.296
325.00	25.290
325.37	27.191
325.73	25.950
326.10	26.845
326.46	27.362
326.83	27.942
327.19	26.850
327.56	28.538
327.92	26.829
328.29	26.694
328.65	25.963
329.01	25.973
329.38	27.296
329.74	26.798
330.11	27.997
330.47	26.201
330.84	26.443
331.20	28.250
331.56	26.863
331.93	26.444
332.29	26.271
332.66	26.578
333.02	25.963
333.38	26.007
333.75	25.842
334.11	25.771
334.48	25.908
334.84	26.678
335.20	25.189
335.57	26.138
335.93	25.868
336.29	25.790
336.66	26.325
337.02	25.920
337.38	25.935
337.75	26.694
338.11	26.493
338.47	25.476
338.84	24.450
339.20	24.516
339.56	24.712
339.93	26.190
340.29	24.396
340.65	24.818
341.02	26.257
341.38	25.950
341.74	24.939
342.11	25.101
342.47	25.417
342.83	25.282
343.20	24.530
343.56	25.341
343.92	25.460
344.28	25.078
344.65	25.581
345.01	25.039
345.37	25.350
345.73	23.539
346.10	25.507
346.46	24.684
346.82	25.169
347.19	24.599
347.55	25.038
347.91	24.220
348.27	23.976
348.63	25.590
349.00	25.429
349.36	24.610
349.72	25.149
350.08	24.146
350.45	23.422
350.81	24.434
351.17	24.361
351.53	24.261
351.89	24.601
352.26	25.000
352.62	24.254
352.98	23.817
353.34	23.898
353.70	24.961
354.07	23.621
354.43	23.994
354.79	24.682
355.15	24.209
355.51	24.854
355.87	23.560
356.24	23.878
356.60	23.725
356.96	23.277
357.32	22.528
357.68	23.719
358.04	22.680
358.40	23.209
358.77	24.050
359.13	23.412
359.49	22.379
359.85	23.640
360.21	24.247
360.57	22.757
360.93	24.189
361.29	23.860
361.66	23.823
362.02	24.565
362.38	23.753
362.74	23.254
363.10	23.659
363.46	22.715
363.82	23.793
364.18	23.786
364.54	23.098
364.90	23.612
365.26	22.621
365.62	23.133
365.98	22.056
366.35	23.289
366.71	22.721
367.07	22.733
367.43	23.900
367.79	24.353
368.15	23.612
368.51	23.275
368.87	23.514
369.23	22.800
369.59	21.926
369.95	23.056
370.31	23.363
370.67	22.971
371.03	23.061
371.39	22.901
371.75	23.246
372.11	23.442
372.47	21.598
372.83	23.364
373.19	21.681
373.55	22.900
373.91	22.086
374.27	22.768
374.63	22.598
374.99	22.613
375.35	22.662
375.71	22.516
376.07	22.853
376.42	22.292
376.78	23.120
377.14	22.520
377.50	22.644
377.86	23.522
378.22	23.234
378.58	23.424
378.94	22.653
379.30	22.554
379.66	22.163
380.02	22.504
380.38	23.560
380.74	23.437
381.09	22.648
381.45	22.727
381.81	22.951
382.17	22.684
382.53	22.105
382.89	22.235
383.25	23.271
383.61	22.859
383.97	22.556
384.32	22.428
384.68	22.158
385.04	22.730
385.40	22.923
385.76	23.564
386.12	21.843
386.48	22.824
386.83	22.765
387.19	22.190
387.55	21.831
387.91	22.374
388.27	22.229
388.62	21.592
388.98	21.940
389.34	21.273
389.70	22.022
390.06	21.670
390.42	22.349
390.77	23.058
391.13	22.477
391.49	21.981
391.85	21.939
392.20	22.479
392.56	22.918
392.92	22.519
393.28	21.669
393.64	22.626
393.99	22.719
394.35	22.780
394.71	22.874
395.07	21.976
395.42	21.702
395.78	23.035
396.14	22.282
396.50	22.150
396.85	21.705
397.21	21.479
397.57	21.673
397.92	21.306
398.28	21.510
398.64	21.911
399.00	20.681
399.35	21.937
399.71	21.467
400.07	21.673
400.42	21.420
400.78	21.354
401.14	21.571
401.49	22.172
401.85	21.977
402.21	22.596
402.57	22.946
402.92	21.099
403.28	21.311
403.63	20.346
403.99	21.675
404.35	21.433
404.70	21.246
405.06	21.087
405.42	22.365
405.77	21.865
406.13	21.718
406.49	22.016
406.84	20.886
407.20	21.576
407.55	21.563
407.91	20.805
408.27	20.730
408.62	21.350
408.98	22.171
409.34	20.821
409.69	21.137
410.05	21.747
410.40	21.752
410.76	21.256
411.11	21.625
411.47	21.683
411.83	21.693
412.18	21.687
412.54	21.280
412.89	20.664
413.25	21.896
413.60	21.252
413.96	21.212
414.31	21.813
414.67	21.646
415.03	20.615
415.38	20.177
415.74	20.525
416.09	22.517
416.45	21.290
416.80	20.073
417.16	21.967
417.51	20.797
417.87	21.214
418.22	21.138
418.58	21.190
418.93	21.304
419.29	20.469
419.64	20.408
420.00	21.009
420.35	21.561
420.71	21.424
421.06	21.507
421.42	21.732
421.77	20.786
422.12	20.085
422.48	21.403
422.83	21.139
423.19	22.122
423.54	21.958
423.90	20.486
424.25	21.440
424.61	20.207
424.96	20.319
425.31	22.240
425.67	20.344
426.02	21.859
426.38	20.781
426.73	20.313
427.09	21.280
427.44	21.573
427.79	21.282
428.15	20.091
428.50	20.506
428.85	20.379
429.21	21.543
429.56	20.731
429.92	20.885
430.27	21.398
430.62	21.544
430.98	21.299
431.33	20.968
431.68	21.552
432.04	22.346
432.39	21.585
432.74	20.719
433.10	20.606
433.45	20.624
433.80	20.815
434.16	21.074
434.51	20.966
434.86	21.336
435.22	21.360
435.57	20.991
435.92	20.812
436.28	20.648
436.63	20.644
436.98	20.505
437.34	20.913
437.69	20.088
438.04	20.783
438.39	20.563
438.75	20.697
439.10	21.882
439.45	21.520
439.81	20.508
440.16	19.732
440.51	20.959
440.86	19.900
441.22	20.954
441.57	20.597
441.92	20.708
442.27	20.909
442.63	21.560
442.98	20.811
443.33	21.725
443.68	21.705
444.03	22.342
444.39	22.330
444.74	21.440
445.09	21.034
445.44	20.653
445.79	21.695
446.15	20.709
446.50	21.395
446.85	21.644
447.20	21.180
447.55	20.921
447.91	20.524
448.26	21.512
448.61	20.510
448.96	21.942
449.31	20.838
449.66	19.880
450.02	20.411
450.37	21.790
450.72	21.259
451.07	21.469
451.42	20.508
451.77	20.456
452.12	20.260
452.47	20.974
452.83	20.270
453.18	19.790
453.53	20.103
453.88	20.928
454.23	20.960
454.58	20.488
454.93	20.206
455.28	19.868
455.63	20.864
455.98	20.726
456.34	19.729
456.69	19.694
457.04	20.863
457.39	20.510
457.74	20.358
458.09	19.220
458.44	21.175
458.79	19.856
459.14	21.605
459.49	20.543
459.84	20.619
460.19	19.767
460.54	21.522
460.89	20.699
461.24	20.230
461.59	21.029
461.94	20.365
462.29	20.941
462.64	20.036
462.99	20.025
463.34	20.311
463.69	20.574
464.04	20.623
464.39	20.291
464.74	20.125
465.09	20.531
465.44	20.601
465.79	20.888
466.14	20.792
466.49	21.211
466.84	21.102
467.19	20.462
467.54	19.741
467.89	20.000
468.24	20.665
468.59	18.992
468.94	18.531
469.29	19.976
469.64	18.627
469.99	19.567
470.34	18.812
470.68	19.959
471.03	19.712
471.38	18.967
471.73	17.880
472.08	19.607
472.43	19.326
472.78	19.710
473.13	19.406
473.48	20.121
473.83	19.907
474.17	19.519
474.52	19.483
474.87	19.989
475.22	20.000
475.57	19.938
475.92	19.960
476.27	19.862
476.61	20.197
476.96	19.812
477.31	20.149
477.66	19.622
478.01	19.624
478.36	19.691
478.70	19.606
479.05	20.399
479.40	19.941
479.75	19.452
480.10	20.322
480.45	19.827
480.79	20.408
481.14	20.358
481.49	20.218
481.84	20.017
482.19	20.258
482.53	19.983
482.88	19.451
483.23	20.053
483.58	20.349
483.92	19.858
484.27	20.195
484.62	19.513
484.97	19.984
485.31	20.345
485.66	19.309
486.01	20.295
486.36	21.399
486.70	22.913
487.05	23.792
487.40	23.729
487.75	23.003
488.09	22.880
488.44	21.887
488.79	21.518
489.13	21.035
489.48	20.117
489.83	19.517
490.17	19.360
490.52	19.787
490.87	19.712
491.22	19.541
491.56	19.582
491.91	19.451
492.26	19.602
492.60	19.720
492.95	19.746
493.30	19.767
493.64	19.229
493.99	19.781
494.34	19.425
494.68	19.229
495.03	20.044
495.37	20.062
495.72	20.000
496.07	19.369
496.41	19.520
496.76	19.850
497.11	19.703
497.45	19.853
497.80	20.036
498.14	19.456
498.49	19.669
498.84	19.241
499.18	19.073
499.53	19.462
499.87	19.516
500.22	19.056
500.56	19.433
500.91	19.222
501.26	20.091
501.60	18.957
501.95	19.366
502.29	19.394
502.64	19.764
502.98	19.672
503.33	18.920
503.67	19.014
504.02	19.002
504.36	19.348
504.71	18.925
505.06	19.600
505.40	19.241
505.75	19.035
506.09	19.337
506.44	19.406
506.78	19.083
507.13	19.963
507.47	19.185
507.82	19.081
508.16	19.073
508.51	18.894
508.85	18.800
509.19	19.233
509.54	19.452
509.88	18.164
510.23	19.184
510.57	18.995
510.92	19.448
511.26	18.615
511.61	18.204
511.95	18.985
512.30	18.956
512.64	18.841
512.98	18.859
513.33	18.095
513.67	18.868
514.02	18.906
514.36	18.568
514.70	18.333
515.05	18.196
515.39	18.425
515.74	18.823
516.08	18.384
516.42	19.048
516.77	17.666
517.11	18.257
517.46	18.346
517.80	19.134
518.14	18.553
518.49	18.492
518.83	17.403
519.17	17.501
519.52	18.553
519.86	18.321
520.20	18.690
520.55	18.510
520.89	17.117
521.23	17.420
521.58	17.966
521.92	18.074
522.26	17.526
522.61	17.708
522.95	16.955
523.29	18.161
523.64	17.096
523.98	17.513
524.32	18.109
524.66	18.042
525.01	17.271
525.35	17.748
525.69	17.459
526.04	17.222
526.38	17.529
526.72	17.186
527.06	17.302
527.41	17.434
527.75	17.993
528.09	17.532
528.43	17.703
528.78	16.879
529.12	17.890
529.46	16.807
529.80	17.506
530.15	17.623
530.49	17.734
530.83	16.824
531.17	17.861
531.51	17.750
531.86	18.029
532.20	17.988
532.54	17.235
532.88	17.091
533.22	16.735
533.57	17.657
533.91	17.845
534.25	17.467
534.59	18.276
534.93	17.770
535.27	17.465
535.62	19.045
535.96	17.664
536.30	17.803
536.64	18.619
536.98	18.512
537.32	17.901
537.66	18.528
538.01	18.006
538.35	16.748
538.69	17.608
539.03	17.413
539.37	18.551
539.71	17.598
540.05	18.345
540.39	17.543
540.73	18.033
541.07	18.332
541.42	17.838
541.76	17.972
542.10	17.612
542.44	17.844
542.78	18.005
543.12	18.117
543.46	17.399
543.80	17.146
544.14	17.475
544.48	18.440
544.82	17.534
545.16	18.128
545.50	17.675
545.84	17.453
546.18	18.889
546.52	17.070
546.86	16.541
547.20	17.875
547.54	17.353
547.88	17.722
548.22	17.602
548.56	18.841
548.90	18.149
549.24	17.690
549.58	17.729
549.92	17.283
550.26	17.411
550.60	18.188
550.94	18.111
551.28	17.360
551.62	16.914
551.96	16.764
552.30	17.145
552.64	17.797
552.98	18.153
553.32	17.428
553.66	17.556
554.00	17.213
554.34	18.404
554.68	17.495
555.02	17.871
555.36	17.883
555.69	17.168
556.03	17.781
556.37	18.523
556.71	17.628
557.05	17.636
557.39	16.257
557.73	17.371
558.07	16.954
558.41	17.807
558.75	16.971
559.08	17.537
559.42	16.529
559.76	17.300
560.10	16.611
560.44	17.546
560.78	17.375
561.12	17.980
561.45	17.822
561.79	17.155
562.13	18.792
562.47	17.078
562.81	17.975
563.15	18.182
563.48	17.651
563.82	17.654
564.16	17.929
564.50	17.402
564.84	18.053
565.17	18.941
565.51	17.549
565.85	18.230
566.19	17.569
566.52	18.373
566.86	18.336
567.20	16.966
567.54	18.109
567.88	19.062
568.21	18.577
568.55	19.472
568.89	19.383
569.23	19.687
569.56	19.617
569.90	19.636
570.24	20.742
570.57	19.820
570.91	20.606
571.25	21.522
571.59	21.653
571.92	21.562
572.26	21.096
572.60	21.403
572.93	21.542
573.27	21.354
573.61	21.493
573.95	21.753
574.28	21.397
574.62	21.351
574.96	21.240
575.29	21.657
575.63	21.483
575.97	21.964
576.30	21.811
576.64	21.451
576.98	21.412
577.31	22.317
577.65	21.998
577.98	21.706
578.32	22.100
578.66	22.069
578.99	21.913
579.33	22.321
579.67	22.371
580.00	22.702
580.34	22.164
580.67	21.690
581.01	22.047
581.35	21.898
581.68	21.721
582.02	21.906
582.35	22.673
582.69	22.905
583.02	22.968
583.36	22.530
583.70	22.722
584.03	22.678
584.37	22.464
584.70	21.565
585.04	21.530
585.37	21.586
585.71	21.467
586.04	21.819
586.38	21.820
586.72	21.860
587.05	21.387
587.39	21.640
587.72	21.746
588.06	22.365
588.39	21.708
588.73	21.825
589.06	22.037
589.40	21.850
589.73	21.530
590.07	21.718
590.40	21.129
590.73	21.209
591.07	20.849
591.40	20.101
591.74	20.469
592.07	20.219
592.41	19.479
592.74	20.270
593.08	21.242
593.41	21.406
593.75	20.747
594.08	21.387
594.41	21.090
594.75	21.089
595.08	20.592
595.42	21.266
595.75	21.246
596.09	21.179
596.42	20.745
596.75	20.687
597.09	21.293
597.42	20.302
597.75	19.953
598.09	20.595
598.42	20.708
598.76	20.787
599.09	20.328
599.42	20.751
599.76	20.667
600.09	20.787
600.42	20.921
600.76	21.301
601.09	20.279
601.42	20.872
601.76	20.483
602.09	21.158
602.42	20.356
602.76	20.627
603.09	20.044
603.42	20.448
603.76	20.014
604.09	21.434
604.42	20.661
604.76	20.586
605.09	20.702
605.42	21.013
605.75	20.654
606.09	20.082
606.42	20.139
606.75	19.678
607.09	19.547
607.42	20.617
607.75	20.711
608.08	20.126
608.42	20.516
608.75	20.025
609.08	20.119
609.41	20.468
609.75	19.732
610.08	20.361
610.41	19.669
610.74	19.706
611.07	19.982
611.41	20.090
611.74	19.723
612.07	19.729
612.40	19.582
612.73	19.853
613.07	19.267
613.40	19.442
613.73	19.403
614.06	19.971
614.39	19.096
614.72	19.262
615.06	19.394
615.39	18.318
615.72	18.863
616.05	20.058
616.38	19.677
616.71	19.227
617.05	18.584
617.38	19.208
617.71	19.276
618.04	19.320
618.37	19.126
618.70	18.891
619.03	18.757
619.36	17.941
619.69	18.898
620.03	18.330
620.36	18.282
620.69	17.520
621.02	17.257
621.35	18.505
621.68	18.221
622.01	17.580
622.34	17.085
622.67	17.457
623.00	17.139
623.33	17.717
623.66	17.445
623.99	17.051
624.32	18.324
624.65	18.147
624.99	18.401
625.32	18.158
625.65	17.195
625.98	17.492
626.31	17.151
626.64	17.436
626.97	17.629
627.30	16.705
627.63	17.104
627.96	17.192
628.29	16.031
628.62	16.037
628.95	15.688
629.28	14.783
629.61	15.657
629.94	15.565
630.26	16.610
630.59	15.199
630.92	14.978
631.25	16.369
631.58	14.972
631.91	15.464
632.24	15.562
632.57	14.231
632.90	14.845
633.23	14.898
633.56	14.184
633.89	13.430
634.22	15.281
634.55	13.987
634.88	13.528
635.20	14.639
635.53	14.915
635.86	13.868
636.19	15.376
636.52	13.397
636.85	14.402
637.18	14.345
637.51	14.839
637.83	14.175
638.16	15.783
638.49	14.319
638.82	13.529
639.15	12.486
639.48	14.781
639.81	13.048
640.13	14.605
640.46	11.394
640.79	10.784
641.12	13.168
641.45	12.422
641.77	15.019
642.10	12.598
642.43	14.096
642.76	11.382
643.09	10.685
643.41	11.064
643.74	10.621
644.07	10.483
644.40	11.315
644.73	10.885
645.05	11.601
645.38	12.086
645.71	9.971
646.04	11.621
646.36	11.095
646.69	10.429
647.02	10.245
647.35	10.076
647.67	10.467
648.00	11.783
648.33	13.213
648.66	11.698
648.98	11.701
649.31	11.637
649.64	13.944
649.96	13.395
650.29	10.014
650.62	10.891
650.94	11.712
651.27	10.479
651.60	10.380
651.92	11.702
652.25	12.446
652.58	11.004
652.90	10.029
653.23	11.690
653.56	12.126
653.88	12.500
654.21	12.254
654.54	11.561
654.86	13.314
655.19	13.425
655.52	19.074
655.84	22.264
656.17	25.956
656.49	37.077
656.82	41.444
657.15	34.035
657.47	26.978
657.80	20.560
658.13	16.131
658.45	21.688
658.78	25.962
659.10	24.098
659.43	22.801
659.75	20.592
660.08	17.255
660.41	14.144
660.73	11.745
661.06	9.692
661.38	9.888
661.71	10.000
662.03	9.171
662.36	10.912
662.68	9.381
663.01	9.204
663.33	9.263
663.66	12.637
663.98	10.385
664.31	9.756
664.63	8.285
664.96	11.071
665.28	8.711
665.61	9.965
665.93	8.571
666.26	11.111
666.58	6.642
666.91	10.093
667.23	10.476
667.56	8.481
667.88	9.400
668.21	5.469
668.53	4.247
668.86	9.627
669.18	5.906
669.50	7.753
669.83	7.400
670.15	7.677
670.48	10.714
670.80	8.222
671.13	8.507
671.45	8.858
671.77	8.851
672.10	9.167
672.42	10.356
672.75	10.599
673.07	9.403
673.39	11.094
673.72	12.752
674.04	11.552
674.37	10.376
674.69	14.286
675.01	9.143
675.34	10.687
675.66	7.678
675.98	8.955
676.31	8.789
676.63	11.597
676.95	10.345
677.28	10.282
677.60	6.496
677.92	9.597
678.25	10.238
678.57	11.210
678.89	11.775
679.22	8.537
679.54	10.427
679.86	9.492
680.18	11.277
680.51	11.164
680.83	10.802
681.15	11.034
681.48	11.917
681.80	11.054
682.12	11.538
682.44	10.684
682.77	11.170
683.09	9.280
683.41	8.333
683.73	9.867
684.06	7.196
684.38	7.871
684.70	10.413
685.02	13.769
685.34	9.651
685.67	11.514
685.99	11.196
686.31	11.628
686.63	12.006
686.96	11.514
687.28	11.889
687.60	11.785
687.92	11.415
688.24	10.851
688.56	10.345
688.89	10.163
689.21	9.393
689.53	7.255
689.85	8.284
690.17	7.222
690.49	8.566
690.82	11.683
691.14	5.061
691.46	10.899
691.78	11.786
692.10	9.725
692.42	7.857
692.74	11.615
693.06	6.111
693.39	11.954
693.71	9.398
694.03	10.037
694.35	7.429
694.67	9.651
694.99	8.723
695.31	7.285
695.63	8.442
695.95	6.625
696.27	7.473
696.59	7.301
696.91	6.757
697.23	10.330
697.56	5.295
697.88	7.576
698.20	11.299
698.52	11.742
698.84	8.316
699.16	8.367
699.48	9.623
699.80	10.213
700.12	7.642
700.44	6.221
700.76	7.126
701.08	6.295
701.40	6.218
701.72	4.975
702.04	5.615
702.36	4.712
702.68	7.090
703.00	7.824
703.32	7.143
703.64	7.335
703.96	6.683
704.28	8.354
704.60	6.076
704.91	1.786
705.23	4.658
705.55	3.621
705.87	4.242
706.19	5.828
706.51	-2.108
706.83	4.035
707.15	3.704
707.47	6.776
707.79	8.515
708.11	5.720
708.43	5.806
708.74	5.357
709.06	5.336
709.38	8.920
709.70	8.933
710.02	6.202
710.34	6.117
710.66	3.911
710.98	5.464
711.29	2.198
711.61	7.062
711.93	5.983
712.25	7.027
712.57	5.310
712.89	6.176
713.20	2.959
713.52	5.780
713.84	5.292
714.16	8.158
714.48	7.990
714.80	6.753
715.11	2.362
715.43	6.631
715.75	8.684
716.07	6.354
716.39	6.831
716.70	2.108
717.02	1.967
717.34	2.787
717.66	-0.336
717.97	-1.370
718.29	1.031
718.61	4.276
718.93	3.560
719.24	3.727
719.56	5.828
719.88	3.604
720.20	1.290
720.51	4.037
720.83	1.250
721.15	1.974
721.46	-1.712
721.78	1.667
722.10	1.618
722.42	-1.678
722.73	0.968
723.05	1.754
723.37	4.167
723.68	2.867
724.00	1.805
724.32	1.056
724.63	-1.748
724.95	2.482
725.27	0.348
725.58	0.353
725.90	3.448
726.22	0.627
726.53	7.468
726.85	5.031
727.16	5.136
727.48	5.810
727.80	4.636
728.11	2.120
728.43	3.030
728.74	1.672
729.06	0.000
729.38	1.623
729.69	-1.678
730.01	3.274
730.32	1.515
730.64	1.887
730.96	2.484
731.27	6.425
731.59	5.495
731.90	4.675
732.22	8.073
732.53	3.315
732.85	5.143
733.16	6.452
733.48	3.049
733.80	3.621
734.11	6.268
734.43	7.297
734.74	7.595
735.06	8.794
735.37	8.378
735.69	8.649
736.00	5.085
736.32	7.547
736.63	7.778
736.95	5.747
737.26	7.879
737.58	2.121
737.89	5.882
738.21	3.364
738.52	2.951
738.83	7.850
739.15	2.128
739.46	1.020
739.78	4.294
740.09	4.011
740.41	4.956
740.72	-1.000
741.04	3.236
741.35	3.860
741.66	1.176
741.98	-2.459
742.29	-2.929
742.61	-1.754
742.92	-0.385
743.23	3.249
743.55	5.814
743.86	0.400
744.18	-9.091
744.49	-3.797
744.80	-0.823
745.12	-5.485
745.43	-0.407
745.74	-4.741
746.06	-0.424
746.37	-2.110
746.68	0.407
747.00	-3.750
747.31	-4.721
747.62	4.615
747.94	-1.215
748.25	-2.811
748.56	-1.633
748.88	-1.709
749.19	-2.586
749.50	-8.658
749.82	-3.614
750.13	4.270
750.44	1.667
750.75	4.923
751.07	2.769
751.38	7.886
751.69	2.236
752.01	0.324
752.32	5.229
752.63	-1.361
752.94	3.114
753.26	-1.487
753.57	3.333
753.88	3.371
754.19	2.251
754.51	2.251
754.82	1.608
755.13	5.574
755.44	3.413
755.75	1.974
756.07	4.179
756.38	2.516
756.69	7.530
757.00	3.878
757.31	6.284
757.63	5.627
757.94	7.746
758.25	10.384
758.56	8.932
758.87	7.955
759.18	5.067
759.50	7.649
759.81	9.524
760.12	5.660
760.43	7.031
760.74	8.374
761.05	5.500
761.36	7.229
761.67	6.853
761.99	6.216
762.30	2.744
762.61	1.650
762.92	0.373
763.23	4.494
763.54	1.439
763.85	2.405
764.16	3.367
764.47	5.634
764.78	7.348
765.10	3.812
765.41	6.154
765.72	6.085
766.03	8.192
766.34	1.881
766.65	-1.742
766.96	0.797
767.27	-0.922
767.58	-6.468
767.89	1.442
768.20	-4.225
768.51	-3.704
768.82	0.402
769.13	-0.758
769.44	-2.308
769.75	1.444
770.06	1.923
770.37	3.150
770.68	-4.255
770.99	-2.024
771.30	4.815
771.61	-0.760
771.92	4.074
772.23	3.239
772.54	-5.093
772.85	-1.382
773.16	-1.429
773.47	0.000
773.78	-10.270
774.09	-9.659
774.39	0.500
774.70	-4.372
775.01	-10.366
775.32	-16.471
775.63	-11.043
775.94	-14.013
776.25	-14.839
776.56	-5.769
776.87	-9.524
777.18	-13.103
777.48	-19.580
777.79	-12.162
778.10	-21.324
778.41	-11.111
778.72	-8.966
779.03	-9.259
779.34	-9.697
779.65	-8.808
779.95	-6.667
780.26	-7.386
780.57	-12.258
780.88	-13.768
781.19	-5.806
781.50	-4.118
781.80	-3.226
782.11	-2.116
782.42	-7.576
782.73	-7.784
783.04	-7.263
783.34	-11.515
783.65	-12.418
783.96	-6.832
784.27	-4.167
784.57	-14.570
784.88	-12.143
785.19	-15.748
785.50	-21.260
785.81	-11.278
786.11	-12.308
786.42	-15.827
786.73	-18.705
787.04	-15.789
787.34	-18.033
787.65	-24.800
787.96	-14.179
788.26	-2.098
788.57	-4.895
788.88	-14.474
789.19	-4.575
789.49	-11.644
789.80	-2.837
790.11	-18.898
790.41	-11.719
790.72	-12.712
791.03	-33.981
791.33	-27.826
791.64	-19.298
791.95	-27.679
792.25	-26.667
792.56	-24.107
792.87	-33.333
793.17	-18.750
793.48	-37.500
793.79	-40.964
794.09	-16.514
794.40	-29.358
794.70	-14.286
795.01	-14.286
795.32	-13.699
795.62	-18.310
795.93	-21.212
796.23	-13.115
796.54	-15.179
796.85	-30.851
797.15	-35.870
797.46	-41.096
797.76	-43.750
798.07	-27.174
798.37	-29.897
798.68	-37.662
798.99	-31.034
799.29	-37.079
799.60	-31.915
799.90	-49.398
800.21	-58.462
800.51	-46.269
800.82	-47.059
801.12	-58.904
801.43	-52.941
801.73	-71.186
802.04	-54.545
802.34	-70.000
802.65	-52.542
802.95	-47.761
803.26	-59.322
803.56	-36.986
803.87	-32.857
804.17	-36.986
804.48	-78.947
804.78	-38.889
805.09	-65.517
805.39	-47.297
805.70	-57.746
806.00	-41.463
806.30	-28.916
806.61	-50.685
806.91	-25.000
807.22	-31.111
807.52	-48.276
807.83	-45.833
808.13	-34.940
808.43	-25.843
808.74	-35.000
809.04	-52.941
809.35	-42.667
809.65	-52.857
809.95	-50.685
810.26	-82.456
810.56	-55.172
810.86	-41.176
811.17	-56.140
811.47	-54.098
811.77	-97.778
812.08	-67.797
812.38	-55.000
812.69	-65.517
812.99	-73.585
813.29	-120.513
813.59	-74.000
813.90	-49.123
814.20	-61.818
814.50	-26.761
814.81	-24.359
815.11	-60.656
815.41	-41.791
815.72	-58.621
816.02	-44.643
816.32	-57.778
816.62	-72.727
816.93	-91.111
817.23	-64.815
817.53	-70.213
817.84	-57.143
818.14	-105.882
818.44	-69.388
818.74	-68.889
819.04	-125.641
819.35	-131.429
819.65	-180.769
819.95	-52.830
820.25	-82.222
820.56	-97.619
820.86	-134.375
821.16	-100.000
821.46	-93.023
821.76	-90.000
822.07	-58.929
822.37	-69.565
822.67	-65.957
822.97	-143.243
823.27	-100.000
823.57	-57.143
823.88	-73.333
824.18	-67.500
824.48	-146.667
824.78	-172.000
825.08	-103.030
825.38	-64.444
825.69	-78.723
825.99	-91.667
826.29	-137.143
826.59	-105.128
826.89	-104.651
827.19	-82.000
827.49	-111.765
827.79	-81.250
828.09	-110.811
828.39	-140.000
828.70	-95.122
829.00	-100.000
829.30	-167.857
829.60	-108.824
829.90	-97.826
830.20	-137.143
830.50	-175.862
830.80	-283.333
831.10	-180.769
831.40	-117.647
831.70	-180.952
832.00	-109.677
832.30	-311.765
832.60	-216.667
832.90	-353.846
833.20	-215.789
833.50	-215.000
833.80	-268.421
834.10	-238.095
834.40	-119.444
834.70	-103.125
835.00	-122.857
835.30	-91.176
835.60	-136.667
835.90	-176.000
836.20	-268.182
836.50	-172.000
836.80	-142.424
837.10	-177.778
837.40	-170.370
837.70	-281.250
838.00	-125.000
838.30	-160.870
838.60	-127.586
838.90	-300.000
839.19	-221.739
839.49	-441.667
839.79	-160.870
840.09	-306.250
840.39	-255.000
840.69	-116.129
840.99	-142.857
841.29	-300.000
841.59	-231.579
841.88	-74.359
842.18	-146.154
842.48	-460.000
842.78	-185.000
843.08	-110.000
843.38	-90.323
843.68	-272.222
843.97	-105.882
844.27	-262.500
844.57	-226.316
844.87	-470.000
845.17	-293.333
845.47	-133.333
845.76	-190.476
846.06	-511.111
846.36	-305.882
846.66	-157.692
846.96	-306.667
847.25	-194.118
847.55	-195.652
847.85	-205.000
848.15	-217.647
848.44	-445.455
848.74	-176.190
849.04	-187.500
849.34	-225.000
849.63	-139.130
849.93	2550.000
850.23	-266.667
850.53	-130.769
850.82	-354.545
851.12	-150.000
851.42	-409.091
851.71	-261.538
852.01	-270.000
852.31	-353.846
852.61	-252.632
852.90	-316.667
853.20	-222.222
853.50	-566.667
853.79	-228.571
854.09	-259.091
854.39	-408.333
854.68	-132.258
854.98	-153.846
855.28	-177.778
855.57	-132.143
855.87	-156.000
856.17	-181.818
856.46	-96.296
856.76	-183.333
857.05	-182.609
857.35	-204.167
857.65	-361.538
857.94	-214.286
858.24	-107.407
858.53	-169.565
858.83	-229.412
859.13	-217.647
859.42	-264.706
859.72	-257.143
860.01	-175.000
860.31	-511.111
860.60	-360.000
860.90	-286.667
861.20	-200.000
861.49	-323.077
861.79	-103.333
862.08	-392.308
862.38	-112.500
862.67	-229.412
862.97	-256.250
863.26	-466.667
863.56	-380.000
863.85	-336.364
864.15	-222.222
864.44	-1500.000
864.74	-292.857
865.03	-225.000
865.33	-550.000
865.62	-151.613
865.92	-154.545
866.21	-134.783
866.51	-271.429
866.80	-860.000
867.10	-400.000
867.39	-375.000
867.69	5800.000
867.98	-585.714
868.27	-205.882
868.57	-5200.000
868.86	-570.000
869.16	-200.000
869.45	-129.167
869.75	-345.455
870.04	-642.857
870.33	-308.333
870.63	-742.857
870.92	-1000.000
871.22	-550.000
871.51	-445.455
871.80	-1700.000
872.10	-2000.000
>>>>>End Processed Spectral Data<<<<<
