SpectraSuite Data File
++++++++++++++++++++++++++++++++++++
Date: Thu May 14 15:59:06 PDT 2015
User: schluterlab
Dark Spectrum Present: Yes
Reference Spectrum Present: Yes
Number of Sampled Component Spectra: 1
Spectrometers: USB2E3373
Integration Time (usec): 3000 (USB2E3373)
Spectra Averaged: 3 (USB2E3373)
Boxcar Smoothing: 0 (USB2E3373)
Correct for Electrical Dark: No (USB2E3373)
Strobe/Lamp Enabled: No (USB2E3373)
Correct for Detector Non-linearity: No (USB2E3373)
Correct for Stray Light: No (USB2E3373)
Number of Pixels in Processed Spectrum: 2048
>>>>>Begin Processed Spectral Data<<<<<
178.53	0.000
178.91	328.571
179.29	-3000.000
179.67	-2200.000
180.04	314.286
180.42	230.000
180.80	520.000
181.18	-1800.000
181.56	-1500.000
181.94	525.000
182.31	-425.000
182.69	666.667
183.07	-650.000
183.45	725.000
183.83	-283.333
184.20	-766.667
184.58	1600.000
184.96	-550.000
185.34	-288.889
185.72	-280.000
186.09	355.556
186.47	1550.000
186.85	660.000
187.23	-255.556
187.61	-2100.000
187.98	540.000
188.36	575.000
188.74	-625.000
189.12	-633.333
189.49	-112.500
189.87	-237.500
190.25	-133.333
190.63	-320.000
191.00	-244.444
191.38	0.000
191.76	-375.000
192.14	-283.333
192.51	1150.000
192.89	-233.333
193.27	0.000
193.65	-214.286
194.02	-3400.000
194.40	-228.571
194.78	257.143
195.15	0.000
195.53	-200.000
195.91	0.000
196.29	-375.000
196.66	-161.538
197.04	-2300.000
197.42	-271.429
197.79	-1450.000
198.17	-312.500
198.55	-285.714
198.92	-244.444
199.30	-375.000
199.68	-172.727
200.05	-171.429
200.43	-1450.000
200.81	400.000
201.18	0.000
201.56	311.111
201.94	0.000
202.31	800.000
202.69	-322.222
203.07	1500.000
203.44	-77.778
203.82	-500.000
204.19	-166.667
204.57	-366.667
204.95	-200.000
205.32	-2200.000
205.70	500.000
206.08	-133.333
206.45	-200.000
206.83	700.000
207.20	-266.667
207.58	-500.000
207.96	-383.333
208.33	-250.000
208.71	191.667
209.08	-316.667
209.46	0.000
209.84	550.000
210.21	650.000
210.59	1100.000
210.96	1100.000
211.34	-175.000
211.71	-250.000
212.09	-2400.000
212.46	0.000
212.84	1650.000
213.22	-340.000
213.59	-525.000
213.97	-100.000
214.34	-800.000
214.72	316.667
215.09	-350.000
215.47	0.000
215.84	328.571
216.22	1400.000
216.59	-280.000
216.97	-440.000
217.34	-375.000
217.72	-112.500
218.09	-425.000
218.47	-675.000
218.84	0.000
219.22	240.000
219.59	-117.647
219.97	-55.000
220.34	1250.000
220.72	-288.889
221.09	-84.615
221.47	-633.333
221.84	-130.000
222.22	-271.429
222.59	0.000
222.97	-125.000
223.34	-520.000
223.72	-2500.000
224.09	-475.000
224.46	-400.000
224.84	-160.000
225.21	-271.429
225.59	-650.000
225.96	-425.000
226.34	-76.923
226.71	366.667
227.08	-1300.000
227.46	-93.333
227.83	-475.000
228.21	-47.368
228.58	325.000
228.95	800.000
229.33	-125.000
229.70	-50.000
230.08	-47.368
230.45	210.000
230.82	-633.333
231.20	-128.571
231.57	-141.667
231.95	-109.091
232.32	-154.545
232.69	-95.000
233.07	-400.000
233.44	-141.176
233.81	-230.000
234.19	-27.778
234.56	-68.182
234.93	3.448
235.31	-63.158
235.68	-83.333
236.05	-105.000
236.43	-23.077
236.80	-44.000
237.17	-107.407
237.55	-48.485
237.92	-280.000
238.29	-87.097
238.67	-47.727
239.04	-33.333
239.41	-28.571
239.79	-21.739
240.16	-29.630
240.53	-34.783
240.91	-23.529
241.28	-22.951
241.65	-11.940
242.02	-13.514
242.40	-32.308
242.77	-33.333
243.14	-6.098
243.51	-25.000
243.89	-30.769
244.26	-10.891
244.63	-6.863
245.00	-11.215
245.38	-9.649
245.75	-21.239
246.12	-8.730
246.49	-11.628
246.87	-2.857
247.24	-1.987
247.61	-5.263
247.98	-7.383
248.36	-10.494
248.73	-14.110
249.10	-6.011
249.47	0.000
249.84	0.524
250.22	-4.663
250.59	-5.000
250.96	-3.182
251.33	-8.673
251.70	0.855
252.08	-3.333
252.45	-3.689
252.82	-4.545
253.19	-1.563
253.56	2.662
253.94	-1.154
254.31	0.379
254.68	1.049
255.05	1.629
255.42	-3.061
255.79	-1.618
256.16	-2.318
256.54	0.331
256.91	0.328
257.28	0.000
257.65	-2.548
258.02	-3.835
258.39	-2.279
258.76	3.670
259.14	1.724
259.51	2.305
259.88	-0.850
260.25	-0.833
260.62	1.370
260.99	3.825
261.36	2.681
261.73	0.000
262.10	0.549
262.47	-0.536
262.85	3.535
263.22	-1.299
263.59	-4.474
263.96	1.023
264.33	0.512
264.70	0.988
265.07	0.000
265.44	2.721
265.81	2.083
266.18	2.494
266.55	1.562
266.92	0.683
267.29	5.470
267.66	1.774
268.03	0.873
268.40	2.296
268.77	-0.456
269.14	-0.441
269.51	2.412
269.88	2.664
270.25	3.622
270.62	2.743
270.99	5.657
271.36	3.960
271.73	1.965
272.10	1.002
272.47	1.403
272.84	2.008
273.21	3.006
273.58	2.016
273.95	2.692
274.32	1.901
274.69	0.193
275.06	2.564
275.43	1.109
275.80	2.646
276.17	1.111
276.54	2.052
276.91	1.610
277.28	2.532
277.65	4.488
278.02	3.493
278.39	1.993
278.76	1.406
279.13	2.660
279.50	1.718
279.87	3.220
280.23	1.408
280.60	2.373
280.97	2.467
281.34	1.528
281.71	2.200
282.08	2.326
282.45	1.309
282.82	2.826
283.19	0.485
283.56	1.803
283.92	3.303
284.29	5.055
284.66	3.612
285.03	0.641
285.40	2.318
285.77	3.406
286.14	4.275
286.51	2.131
286.87	0.316
287.24	2.861
287.61	3.886
287.98	3.474
288.35	2.367
288.72	0.740
289.08	4.246
289.45	3.402
289.82	4.518
290.19	2.155
290.56	3.521
290.93	2.282
291.29	3.719
291.66	3.030
292.03	1.628
292.40	3.265
292.77	2.291
293.13	2.165
293.50	0.394
293.87	2.282
294.24	4.800
294.60	3.034
294.97	0.268
295.34	3.457
295.71	2.018
296.08	1.421
296.44	3.431
296.81	2.192
297.18	1.494
297.55	2.005
297.91	1.542
298.28	1.896
298.65	1.902
299.02	1.299
299.38	2.403
299.75	2.570
300.12	1.968
300.48	2.765
300.85	2.475
301.22	2.125
301.59	1.256
301.95	1.808
302.32	3.444
302.69	2.191
303.05	2.176
303.42	0.443
303.79	1.979
304.15	2.313
304.52	1.691
304.89	3.141
305.25	3.106
305.62	2.926
305.99	2.784
306.35	2.520
306.72	2.792
307.09	1.523
307.45	3.209
307.82	2.523
308.19	2.725
308.55	3.279
308.92	2.824
309.29	2.874
309.65	2.047
310.02	2.178
310.38	2.657
310.75	3.107
311.12	2.876
311.48	1.662
311.85	2.754
312.22	1.613
312.58	2.629
312.95	1.912
313.31	3.162
313.68	4.212
314.05	3.884
314.41	3.825
314.78	3.088
315.14	4.265
315.51	4.063
315.87	4.950
316.24	4.566
316.61	5.773
316.97	4.525
317.34	3.527
317.70	5.852
318.07	4.850
318.43	5.357
318.80	7.358
319.16	6.352
319.53	5.570
319.89	5.434
320.26	6.940
320.62	5.851
320.99	7.387
321.35	6.562
321.72	8.744
322.08	6.763
322.45	8.762
322.81	8.303
323.18	8.230
323.54	8.362
323.91	9.253
324.27	9.639
324.64	10.579
325.00	9.453
325.37	10.647
325.73	10.992
326.10	11.517
326.46	11.808
326.83	12.010
327.19	12.598
327.56	12.806
327.92	12.274
328.29	11.694
328.65	11.809
329.01	13.706
329.38	12.468
329.74	13.271
330.11	13.356
330.47	13.648
330.84	12.920
331.20	13.667
331.56	14.211
331.93	14.561
332.29	14.661
332.66	14.784
333.02	13.484
333.38	13.591
333.75	14.310
334.11	13.678
334.48	14.109
334.84	14.359
335.20	14.358
335.57	13.322
335.93	15.041
336.29	13.311
336.66	12.532
337.02	14.883
337.38	14.796
337.75	13.471
338.11	14.634
338.47	13.730
338.84	13.029
339.20	12.890
339.56	13.921
339.93	13.711
340.29	14.171
340.65	14.599
341.02	13.567
341.38	14.390
341.74	13.317
342.11	13.837
342.47	14.138
342.83	14.332
343.20	13.900
343.56	14.034
343.92	13.531
344.28	13.594
344.65	14.186
345.01	14.587
345.37	13.997
345.73	13.250
346.10	13.261
346.46	13.687
346.82	14.157
347.19	13.598
347.55	14.643
347.91	14.042
348.27	13.809
348.63	14.928
349.00	12.453
349.36	13.903
349.72	13.467
350.08	14.562
350.45	13.688
350.81	13.650
351.17	13.459
351.53	14.026
351.89	14.427
352.26	13.881
352.62	13.582
352.98	13.130
353.34	13.891
353.70	13.713
354.07	13.711
354.43	13.516
354.79	13.987
355.15	14.349
355.51	14.327
355.87	13.164
356.24	13.460
356.60	12.712
356.96	13.566
357.32	13.383
357.68	13.397
358.04	12.874
358.40	13.060
358.77	13.377
359.13	13.663
359.49	12.714
359.85	13.778
360.21	14.491
360.57	12.994
360.93	13.399
361.29	13.263
361.66	13.324
362.02	14.823
362.38	13.844
362.74	13.198
363.10	14.649
363.46	13.573
363.82	13.920
364.18	14.778
364.54	14.385
364.90	14.716
365.26	14.138
365.62	14.867
365.98	14.568
366.35	14.161
366.71	14.694
367.07	14.411
367.43	14.576
367.79	14.930
368.15	14.448
368.51	14.614
368.87	14.566
369.23	13.733
369.59	15.164
369.95	14.604
370.31	15.733
370.67	15.131
371.03	14.058
371.39	14.238
371.75	14.787
372.11	14.837
372.47	14.895
372.83	15.576
373.19	15.143
373.55	15.108
373.91	14.588
374.27	14.554
374.63	15.088
374.99	15.915
375.35	16.234
375.71	16.258
376.07	15.623
376.42	15.554
376.78	16.035
377.14	15.845
377.50	16.382
377.86	16.810
378.22	16.527
378.58	16.706
378.94	16.843
379.30	16.637
379.66	16.931
380.02	16.965
380.38	17.454
380.74	16.901
381.09	17.247
381.45	17.273
381.81	18.091
382.17	17.221
382.53	17.544
382.89	17.720
383.25	17.057
383.61	16.435
383.97	17.373
384.32	17.883
384.68	17.691
385.04	19.144
385.40	18.385
385.76	18.406
386.12	17.893
386.48	18.647
386.83	19.070
387.19	18.366
387.55	17.840
387.91	18.322
388.27	18.649
388.62	18.671
388.98	18.782
389.34	19.682
389.70	18.768
390.06	19.065
390.42	18.253
390.77	20.409
391.13	19.836
391.49	19.867
391.85	18.909
392.20	19.988
392.56	20.969
392.92	19.847
393.28	20.177
393.64	19.330
393.99	20.918
394.35	20.152
394.71	20.539
395.07	20.120
395.42	20.503
395.78	21.085
396.14	20.143
396.50	19.418
396.85	21.705
397.21	20.888
397.57	20.671
397.92	21.993
398.28	20.804
398.64	20.881
399.00	20.942
399.35	21.152
399.71	21.087
400.07	21.898
400.42	20.605
400.78	21.470
401.14	22.083
401.49	22.399
401.85	21.047
402.21	21.842
402.57	22.711
402.92	21.809
403.28	21.370
403.63	22.375
403.99	22.268
404.35	21.205
404.70	22.606
405.06	20.924
405.42	23.068
405.77	22.519
406.13	22.258
406.49	23.930
406.84	22.770
407.20	22.527
407.55	23.198
407.91	23.004
408.27	22.615
408.62	23.153
408.98	23.622
409.34	22.229
409.69	23.795
410.05	23.447
410.40	24.362
410.76	22.995
411.11	23.670
411.47	24.079
411.83	23.398
412.18	24.458
412.54	23.770
412.89	24.156
413.25	24.041
413.60	24.067
413.96	23.834
414.31	24.306
414.67	24.031
415.03	23.692
415.38	25.410
415.74	24.801
416.09	23.936
416.45	24.734
416.80	24.357
417.16	25.096
417.51	24.222
417.87	25.199
418.22	25.150
418.58	24.907
418.93	26.019
419.29	24.846
419.64	25.690
420.00	24.688
420.35	24.930
420.71	24.411
421.06	24.669
421.42	25.229
421.77	25.094
422.12	25.423
422.48	26.062
422.83	25.082
423.19	25.252
423.54	25.774
423.90	25.842
424.25	25.867
424.61	24.627
424.96	25.590
425.31	26.008
425.67	25.872
426.02	27.117
426.38	25.545
426.73	26.451
427.09	25.721
427.44	24.577
427.79	25.815
428.15	26.142
428.50	25.618
428.85	26.406
429.21	25.532
429.56	25.913
429.92	25.651
430.27	26.892
430.62	25.794
430.98	25.332
431.33	26.393
431.68	26.054
432.04	26.714
432.39	26.674
432.74	25.457
433.10	25.581
433.45	24.749
433.80	26.288
434.16	26.291
434.51	27.030
434.86	27.199
435.22	26.514
435.57	26.887
435.92	26.210
436.28	26.849
436.63	26.871
436.98	26.946
437.34	26.494
437.69	25.922
438.04	26.653
438.39	26.077
438.75	27.006
439.10	27.907
439.45	26.775
439.81	26.949
440.16	26.649
440.51	26.700
440.86	25.848
441.22	26.152
441.57	26.939
441.92	26.673
442.27	28.131
442.63	26.577
442.98	28.228
443.33	27.512
443.68	27.701
444.03	28.175
444.39	28.017
444.74	28.127
445.09	26.711
445.44	27.977
445.79	27.586
446.15	27.646
446.50	27.028
446.85	27.529
447.20	27.853
447.55	28.033
447.91	27.173
448.26	27.431
448.61	27.896
448.96	28.380
449.31	27.041
449.66	27.669
450.02	27.901
450.37	28.023
450.72	27.287
451.07	27.506
451.42	26.401
451.77	27.237
452.12	28.160
452.47	26.857
452.83	28.041
453.18	27.029
453.53	26.651
453.88	27.499
454.23	27.797
454.58	27.974
454.93	26.820
455.28	28.296
455.63	27.686
455.98	27.877
456.34	28.092
456.69	27.454
457.04	28.369
457.39	27.882
457.74	28.915
458.09	27.457
458.44	27.263
458.79	27.076
459.14	27.216
459.49	27.391
459.84	27.230
460.19	27.707
460.54	27.712
460.89	28.428
461.24	27.874
461.59	28.224
461.94	27.496
462.29	28.555
462.64	27.218
462.99	26.805
463.34	27.125
463.69	27.491
464.04	28.071
464.39	26.513
464.74	27.252
465.09	26.701
465.44	27.629
465.79	27.446
466.14	27.514
466.49	27.105
466.84	27.107
467.19	27.399
467.54	27.203
467.89	26.839
468.24	26.427
468.59	26.404
468.94	26.865
469.29	26.635
469.64	26.446
469.99	26.641
470.34	25.804
470.68	27.409
471.03	27.046
471.38	26.750
471.73	26.008
472.08	26.713
472.43	27.213
472.78	27.078
473.13	26.612
473.48	26.526
473.83	27.858
474.17	26.202
474.52	26.699
474.87	26.633
475.22	26.535
475.57	26.428
475.92	26.929
476.27	25.879
476.61	27.310
476.96	26.069
477.31	26.782
477.66	27.650
478.01	26.335
478.36	25.922
478.70	26.798
479.05	26.636
479.40	26.407
479.75	26.849
480.10	26.717
480.45	26.162
480.79	25.941
481.14	26.425
481.49	25.625
481.84	26.023
482.19	26.452
482.53	26.672
482.88	26.230
483.23	26.323
483.58	26.332
483.92	26.108
484.27	26.122
484.62	25.371
484.97	25.972
485.31	26.118
485.66	25.439
486.01	25.115
486.36	25.425
486.70	26.333
487.05	26.248
487.40	25.911
487.75	26.463
488.09	25.810
488.44	25.185
488.79	25.902
489.13	25.380
489.48	25.398
489.83	24.748
490.17	24.787
490.52	24.836
490.87	25.042
491.22	25.130
491.56	25.512
491.91	25.425
492.26	25.357
492.60	24.574
492.95	24.748
493.30	25.011
493.64	25.055
493.99	24.912
494.34	24.695
494.68	25.096
495.03	24.846
495.37	24.811
495.72	24.898
496.07	24.671
496.41	24.453
496.76	24.729
497.11	24.331
497.45	24.342
497.80	24.434
498.14	24.082
498.49	24.035
498.84	24.314
499.18	24.247
499.53	24.215
499.87	24.132
500.22	24.666
500.56	24.202
500.91	24.531
501.26	25.318
501.60	22.669
501.95	24.360
502.29	24.353
502.64	24.136
502.98	24.159
503.33	24.060
503.67	23.550
504.02	23.643
504.36	24.352
504.71	24.024
505.06	23.647
505.40	23.218
505.75	23.406
506.09	23.941
506.44	23.909
506.78	23.761
507.13	23.790
507.47	23.591
507.82	23.485
508.16	23.423
508.51	24.238
508.85	23.382
509.19	23.449
509.54	23.775
509.88	23.264
510.23	23.847
510.57	23.876
510.92	23.029
511.26	22.511
511.61	22.067
511.95	23.084
512.30	23.338
512.64	23.138
512.98	22.711
513.33	23.337
513.67	22.845
514.02	23.199
514.36	23.478
514.70	23.125
515.05	23.410
515.39	23.202
515.74	23.330
516.08	22.821
516.42	23.077
516.77	23.607
517.11	22.847
517.46	22.587
517.80	23.356
518.14	23.667
518.49	22.831
518.83	22.831
519.17	22.563
519.52	22.432
519.86	22.492
520.20	22.045
520.55	22.892
520.89	22.691
521.23	22.334
521.58	23.220
521.92	21.473
522.26	22.222
522.61	22.454
522.95	22.780
523.29	22.471
523.64	22.253
523.98	22.818
524.32	23.095
524.66	22.368
525.01	22.140
525.35	21.827
525.69	22.158
526.04	21.814
526.38	21.322
526.72	22.145
527.06	21.818
527.41	22.216
527.75	22.922
528.09	22.019
528.43	22.262
528.78	21.561
529.12	22.477
529.46	22.147
529.80	22.540
530.15	22.783
530.49	21.767
530.83	22.019
531.17	22.103
531.51	21.059
531.86	21.695
532.20	22.195
532.54	22.023
532.88	22.000
533.22	22.098
533.57	21.062
533.91	21.661
534.25	21.481
534.59	21.322
534.93	21.279
535.27	21.239
535.62	22.399
535.96	21.673
536.30	20.917
536.64	21.802
536.98	21.648
537.32	20.988
537.66	21.085
538.01	20.121
538.35	21.011
538.69	20.733
539.03	21.030
539.37	20.907
539.71	21.381
540.05	21.103
540.39	20.782
540.73	20.461
541.07	20.907
541.42	20.732
541.76	19.751
542.10	19.964
542.44	19.306
542.78	21.229
543.12	19.726
543.46	20.452
543.80	19.904
544.14	19.330
544.48	20.686
544.82	19.749
545.16	21.169
545.50	19.593
545.84	19.780
546.18	20.741
546.52	20.191
546.86	19.937
547.20	19.338
547.54	19.288
547.88	19.650
548.22	19.123
548.56	19.134
548.90	19.403
549.24	20.061
549.58	19.495
549.92	19.005
550.26	20.388
550.60	19.145
550.94	19.470
551.28	19.406
551.62	20.148
551.96	19.482
552.30	19.567
552.64	19.291
552.98	19.526
553.32	19.164
553.66	20.000
554.00	18.663
554.34	19.691
554.68	19.109
555.02	18.265
555.36	19.790
555.69	18.770
556.03	18.096
556.37	19.024
556.71	18.389
557.05	18.594
557.39	19.111
557.73	18.560
558.07	18.609
558.41	18.538
558.75	19.270
559.08	18.928
559.42	17.215
559.76	18.792
560.10	18.687
560.44	18.602
560.78	18.812
561.12	18.350
561.45	17.397
561.79	18.437
562.13	18.731
562.47	17.571
562.81	18.165
563.15	17.803
563.48	17.899
563.82	17.594
564.16	17.383
564.50	17.282
564.84	17.109
565.17	17.647
565.51	17.089
565.85	18.052
566.19	16.071
566.52	16.969
566.86	17.487
567.20	16.531
567.54	18.003
567.88	16.972
568.21	18.132
568.55	16.930
568.89	17.794
569.23	16.857
569.56	16.647
569.90	17.142
570.24	17.133
570.57	16.389
570.91	16.258
571.25	17.067
571.59	16.643
571.92	16.578
572.26	16.808
572.60	16.871
572.93	16.950
573.27	16.774
573.61	16.596
573.95	17.043
574.28	16.048
574.62	16.576
574.96	15.704
575.29	16.678
575.63	15.985
575.97	16.431
576.30	15.643
576.64	15.939
576.98	16.150
577.31	15.922
577.65	15.951
577.98	16.039
578.32	16.088
578.66	15.812
578.99	15.749
579.33	15.918
579.67	15.503
580.00	15.666
580.34	15.401
580.67	15.490
581.01	15.383
581.35	15.702
581.68	15.138
582.02	15.603
582.35	15.686
582.69	15.840
583.02	15.455
583.36	15.609
583.70	15.451
584.03	15.551
584.37	15.478
584.70	15.355
585.04	15.276
585.37	15.312
585.71	15.512
586.04	15.059
586.38	15.460
586.72	15.041
587.05	14.812
587.39	15.183
587.72	15.215
588.06	15.377
588.39	14.961
588.73	14.815
589.06	14.898
589.40	14.997
589.73	14.749
590.07	14.954
590.40	14.368
590.73	14.422
591.07	15.153
591.40	15.086
591.74	15.024
592.07	15.063
592.41	14.708
592.74	15.051
593.08	14.936
593.41	14.727
593.75	14.943
594.08	14.480
594.41	14.615
594.75	14.181
595.08	14.233
595.42	14.708
595.75	14.627
596.09	14.368
596.42	14.296
596.75	14.821
597.09	14.626
597.42	14.223
597.75	14.034
598.09	14.206
598.42	14.274
598.76	14.253
599.09	13.635
599.42	13.879
599.76	14.427
600.09	13.981
600.42	14.114
600.76	13.672
601.09	14.305
601.42	13.835
601.76	13.931
602.09	14.475
602.42	13.450
602.76	14.244
603.09	13.840
603.42	13.584
603.76	13.354
604.09	13.769
604.42	13.615
604.76	14.041
605.09	13.841
605.42	13.636
605.75	13.808
606.09	13.886
606.42	13.316
606.75	13.268
607.09	13.134
607.42	13.449
607.75	13.912
608.08	13.141
608.42	13.261
608.75	13.765
609.08	13.582
609.41	13.410
609.75	13.482
610.08	14.116
610.41	13.042
610.74	13.361
611.07	13.721
611.41	13.363
611.74	13.903
612.07	13.417
612.40	13.213
612.73	13.056
613.07	13.496
613.40	12.945
613.73	13.288
614.06	12.512
614.39	13.508
614.72	12.809
615.06	12.801
615.39	12.905
615.72	13.697
616.05	12.579
616.38	12.664
616.71	12.748
617.05	12.993
617.38	12.788
617.71	12.797
618.04	12.844
618.37	12.951
618.70	13.462
619.03	12.545
619.36	13.132
619.69	13.453
620.03	12.492
620.36	12.270
620.69	12.215
621.02	12.664
621.35	13.933
621.68	13.015
622.01	12.456
622.34	11.994
622.67	12.509
623.00	11.066
623.33	13.470
623.66	13.748
623.99	11.652
624.32	13.190
624.65	12.484
624.99	13.004
625.32	13.455
625.65	13.284
625.98	12.136
626.31	12.473
626.64	12.674
626.97	12.378
627.30	11.314
627.63	12.078
627.96	14.790
628.29	11.984
628.62	12.091
628.95	12.358
629.28	12.319
629.61	12.290
629.94	12.134
630.26	11.186
630.59	10.967
630.92	11.515
631.25	12.522
631.58	12.618
631.91	11.809
632.24	12.296
632.57	12.998
632.90	10.732
633.23	11.633
633.56	11.837
633.89	11.054
634.22	12.578
634.55	11.900
634.88	11.905
635.20	13.455
635.53	11.412
635.86	12.134
636.19	13.256
636.52	10.759
636.85	11.951
637.18	10.707
637.51	12.151
637.83	10.299
638.16	12.097
638.49	11.150
638.82	11.048
639.15	11.111
639.48	12.818
639.81	11.201
640.13	12.014
640.46	11.273
640.79	10.662
641.12	12.050
641.45	10.916
641.77	14.121
642.10	11.417
642.43	14.229
642.76	11.111
643.09	11.781
643.41	10.364
643.74	9.655
644.07	12.000
644.40	10.042
644.73	9.434
645.05	9.692
645.38	11.079
645.71	11.730
646.04	12.482
646.36	9.781
646.69	10.429
647.02	10.245
647.35	11.603
647.67	9.984
648.00	11.943
648.33	10.811
648.66	9.843
648.98	9.796
649.31	10.419
649.64	9.695
649.96	10.875
650.29	9.875
650.62	10.467
650.94	9.760
651.27	8.982
651.60	11.111
651.92	9.878
652.25	11.143
652.58	11.279
652.90	8.576
653.23	9.718
653.56	10.556
653.88	9.691
654.21	9.014
654.54	9.393
654.86	11.190
655.19	9.912
655.52	10.854
655.84	10.680
656.17	12.817
656.49	18.182
656.82	20.022
657.15	15.974
657.47	12.213
657.80	8.991
658.13	6.904
658.45	9.147
658.78	10.725
659.10	10.773
659.43	10.473
659.75	10.215
660.08	9.300
660.41	8.768
660.73	9.122
661.06	7.048
661.38	8.612
661.71	9.483
662.03	10.582
662.36	10.555
662.68	10.319
663.01	7.611
663.33	9.452
663.66	12.271
663.98	10.000
664.31	10.319
664.63	7.707
664.96	10.889
665.28	9.619
665.61	11.189
665.93	6.964
666.26	10.573
666.58	7.196
666.91	11.028
667.23	9.714
667.56	9.270
667.88	9.200
668.21	8.594
668.53	7.143
668.86	9.430
669.18	9.980
669.50	8.946
669.83	7.400
670.15	9.646
670.48	7.937
670.80	8.795
671.13	8.318
671.45	7.087
671.77	10.734
672.10	8.833
672.42	8.738
672.75	9.370
673.07	8.955
673.39	9.707
673.72	9.564
674.04	10.172
674.37	8.050
674.69	11.464
675.01	8.571
675.34	7.634
675.66	8.427
675.98	8.209
676.31	7.813
676.63	10.837
676.95	10.153
677.28	7.460
677.60	4.331
677.92	8.253
678.25	10.238
678.57	8.541
678.89	9.044
679.22	7.143
679.54	8.547
679.86	6.102
680.18	7.629
680.51	9.906
680.83	9.165
681.15	7.069
681.48	11.572
681.80	9.672
682.12	7.168
682.44	8.848
682.77	8.688
683.09	7.008
683.41	9.884
683.73	7.780
684.06	10.148
684.38	5.546
684.70	8.438
685.02	9.639
685.34	7.155
685.67	6.940
685.99	7.822
686.31	6.541
686.63	7.741
686.96	8.202
687.28	9.283
687.60	6.566
687.92	6.913
688.24	7.846
688.56	9.483
688.89	8.167
689.21	7.632
689.53	7.647
689.85	4.339
690.17	5.370
690.49	4.382
690.82	7.723
691.14	5.668
691.46	8.604
691.78	9.208
692.10	6.972
692.42	5.893
692.74	6.171
693.06	5.926
693.39	8.159
693.71	6.579
694.03	8.922
694.35	8.381
694.67	8.419
694.99	8.085
695.31	5.077
695.63	5.844
695.95	6.418
696.27	7.033
696.59	8.186
696.91	7.883
697.23	7.033
697.56	4.073
697.88	6.061
698.20	7.910
698.52	9.848
698.84	8.524
699.16	9.796
699.48	6.067
699.80	8.085
700.12	8.297
700.44	9.217
700.76	7.838
701.08	6.780
701.40	6.736
701.72	7.960
702.04	6.150
702.36	4.712
702.68	4.890
703.00	6.846
703.32	8.374
703.64	7.335
703.96	7.876
704.28	5.897
704.60	10.127
704.91	6.633
705.23	5.479
705.55	2.507
705.87	3.939
706.19	7.975
706.51	6.325
706.83	0.000
707.15	4.762
707.47	5.374
707.79	5.240
708.11	4.237
708.43	4.301
708.74	4.464
709.06	4.408
709.38	7.981
709.70	10.670
710.02	6.718
710.34	9.043
710.66	4.469
710.98	7.650
711.29	2.747
711.61	6.215
711.93	3.989
712.25	6.486
712.57	9.440
712.89	5.294
713.20	3.254
713.52	5.780
713.84	7.521
714.16	8.684
714.48	4.897
714.80	5.974
715.11	7.349
715.43	6.631
715.75	6.053
716.07	2.210
716.39	8.197
716.70	3.313
717.02	5.574
717.34	0.697
717.66	4.027
717.97	-0.685
718.29	3.093
718.61	6.250
718.93	3.883
719.24	4.037
719.56	3.067
719.88	3.904
720.20	3.548
720.51	5.280
720.83	3.125
721.15	2.961
721.46	1.027
721.78	3.333
722.10	1.294
722.42	-0.671
722.73	5.484
723.05	6.316
723.37	2.778
723.68	4.301
724.00	1.444
724.32	2.113
724.63	2.797
724.95	7.801
725.27	5.226
725.58	2.827
725.90	6.897
726.22	0.627
726.53	4.870
726.85	2.830
727.16	4.834
727.48	4.893
727.80	4.636
728.11	0.353
728.43	3.367
728.74	4.682
729.06	1.987
729.38	3.247
729.69	3.020
730.01	6.548
730.32	2.727
730.64	4.088
730.96	2.174
731.27	5.307
731.59	4.121
731.90	3.896
732.22	4.948
732.53	2.486
732.85	4.857
733.16	4.399
733.48	2.744
733.80	3.621
734.11	1.425
734.43	6.757
734.74	8.354
735.06	5.528
735.37	4.865
735.69	3.243
736.00	7.345
736.32	4.313
736.63	5.833
736.95	2.011
737.26	1.818
737.58	0.000
737.89	5.294
738.21	0.306
738.52	0.328
738.83	2.048
739.15	0.000
739.46	0.340
739.78	3.067
740.09	2.292
740.41	5.539
740.72	1.000
741.04	3.236
741.35	4.561
741.66	1.569
741.98	1.230
742.29	2.092
742.61	-2.632
742.92	3.846
743.23	5.776
743.55	-0.775
743.86	4.000
744.18	-3.306
744.49	2.110
744.80	3.292
745.12	-1.688
745.43	2.846
745.74	-0.431
746.06	5.932
746.37	6.329
746.68	5.285
747.00	2.917
747.31	2.146
747.62	4.615
747.94	-2.024
748.25	-0.803
748.56	-1.224
748.88	-0.855
749.19	1.724
749.50	-2.165
749.82	5.221
750.13	4.270
750.44	1.333
750.75	1.538
751.07	3.385
751.38	3.470
751.69	1.917
752.01	0.971
752.32	3.268
752.63	4.762
752.94	0.346
753.26	3.346
753.57	-1.852
753.88	2.622
754.19	1.608
754.51	1.608
754.82	0.965
755.13	5.574
755.44	2.048
755.75	6.579
756.07	7.463
756.38	3.459
756.69	3.916
757.00	1.385
757.31	4.645
757.63	2.302
757.94	3.286
758.25	5.192
758.56	4.793
758.87	6.136
759.18	2.400
759.50	5.949
759.81	2.241
760.12	4.313
760.43	3.125
760.74	5.665
761.05	2.500
761.36	0.964
761.67	2.538
761.99	1.622
762.30	-0.915
762.61	1.980
762.92	-1.119
763.23	2.622
763.54	3.237
763.85	2.062
764.16	2.357
764.47	-1.056
764.78	4.153
765.10	4.399
765.41	6.667
765.72	2.910
766.03	5.085
766.34	1.567
766.65	-2.439
766.96	0.797
767.27	4.608
767.58	-6.468
767.89	4.327
768.20	0.000
768.51	1.852
768.82	1.205
769.13	2.652
769.44	-7.308
769.75	3.610
770.06	1.154
770.37	3.543
770.68	-2.979
770.99	-5.263
771.30	4.074
771.61	3.042
771.92	2.222
772.23	0.000
772.54	-9.259
772.85	3.226
773.16	1.905
773.47	-1.058
773.78	-4.324
774.09	-4.545
774.39	4.000
774.70	4.918
775.01	-1.829
775.32	-4.118
775.63	-6.748
775.94	-5.732
776.25	0.000
776.56	1.923
776.87	-0.680
777.18	-4.828
777.48	-5.594
777.79	-2.027
778.10	-10.294
778.41	-4.167
778.72	-4.828
779.03	0.000
779.34	-4.848
779.65	-3.627
779.95	-0.556
780.26	-6.818
780.57	-6.452
780.88	-4.348
781.19	0.645
781.50	2.941
781.80	-2.688
782.11	0.529
782.42	-4.040
782.73	-6.587
783.04	-3.352
783.34	-10.909
783.65	-12.418
783.96	-3.106
784.27	-4.167
784.57	-2.649
784.88	-1.429
785.19	-8.661
785.50	-6.299
785.81	-2.256
786.11	0.000
786.42	-12.950
786.73	-9.353
787.04	-6.015
787.34	-5.738
787.65	-4.000
787.96	-5.224
788.26	-2.797
788.57	0.000
788.88	2.632
789.19	1.307
789.49	-3.425
789.80	-5.674
790.11	-8.661
790.41	-3.125
790.72	-4.237
791.03	-17.476
791.33	-7.826
791.64	-2.632
791.95	-16.071
792.25	-10.476
792.56	-5.357
792.87	-13.542
793.17	2.679
793.48	-7.292
793.79	-20.482
794.09	-10.092
794.40	-9.174
794.70	-6.122
795.01	-4.545
795.32	1.370
795.62	2.817
795.93	-5.303
796.23	-3.279
796.54	-5.357
796.85	-14.894
797.15	-7.609
797.46	-21.918
797.76	-16.250
798.07	-16.304
798.37	-16.495
798.68	-27.273
798.99	-5.747
799.29	-21.348
799.60	-6.383
799.90	-18.072
800.21	-27.692
800.51	-19.403
800.82	-23.529
801.12	-34.247
801.43	-33.824
801.73	-30.508
802.04	-16.667
802.34	-20.000
802.65	-16.949
802.95	-7.463
803.26	-22.034
803.56	-21.918
803.87	-22.857
804.17	-8.219
804.48	-38.596
804.78	-12.500
805.09	-25.862
805.39	-8.108
805.70	-28.169
806.00	-15.854
806.30	-10.843
806.61	-32.877
806.91	0.000
807.22	-18.889
807.52	-18.391
807.83	-18.056
808.13	-3.614
808.43	-20.225
808.74	-22.500
809.04	-51.471
809.35	-16.000
809.65	-22.857
809.95	-19.178
810.26	-36.842
810.56	-25.862
810.86	-25.000
811.17	-22.807
811.47	-11.475
811.77	-51.111
812.08	-13.559
812.38	-16.667
812.69	-20.690
812.99	-58.491
813.29	-69.231
813.59	-38.000
813.90	-26.316
814.20	-23.636
814.50	9.859
814.81	-7.692
815.11	-24.590
815.41	-5.970
815.72	-17.241
816.02	-26.786
816.32	-42.222
816.62	-31.818
816.93	-22.222
817.23	-9.259
817.53	-27.660
817.84	-40.476
818.14	-55.882
818.44	-24.490
818.74	-51.111
819.04	-82.051
819.35	-60.000
819.65	-88.462
819.95	-16.981
820.25	-28.889
820.56	-57.143
820.86	-65.625
821.16	-58.974
821.46	-69.767
821.76	-64.000
822.07	-25.000
822.37	-26.087
822.67	-46.809
822.97	-75.676
823.27	-45.000
823.57	-10.204
823.88	-24.444
824.18	-47.500
824.48	-80.000
824.78	-68.000
825.08	-60.606
825.38	-17.778
825.69	-19.149
825.99	-5.556
826.29	-68.571
826.59	-41.026
826.89	-41.860
827.19	-26.000
827.49	-32.353
827.79	-22.917
828.09	-86.486
828.39	-73.333
828.70	-36.585
829.00	-37.209
829.30	-67.857
829.60	-29.412
829.90	-28.261
830.20	-54.286
830.50	-62.069
830.80	-72.222
831.10	-69.231
831.40	-47.059
831.70	-85.714
832.00	-35.484
832.30	-147.059
832.60	-91.667
832.90	-269.231
833.20	-115.789
833.50	-150.000
833.80	-126.316
834.10	-138.095
834.40	-36.111
834.70	-50.000
835.00	-77.143
835.30	-50.000
835.60	-70.000
835.90	-76.000
836.20	-90.909
836.50	-64.000
836.80	-60.606
837.10	-59.259
837.40	-59.259
837.70	-143.750
838.00	-67.857
838.30	-82.609
838.60	-58.621
838.90	-135.714
839.19	-113.043
839.49	-250.000
839.79	-60.870
840.09	-175.000
840.39	-125.000
840.69	-38.710
840.99	-92.857
841.29	-146.667
841.59	-89.474
841.88	-35.897
842.18	-65.385
842.48	-110.000
842.78	-115.000
843.08	-73.333
843.38	-41.935
843.68	-127.778
843.97	-20.588
844.27	-81.250
844.57	-126.316
844.87	-250.000
845.17	-160.000
845.47	-100.000
845.76	-114.286
846.06	-244.444
846.36	-105.882
846.66	-50.000
846.96	-153.333
847.25	-76.471
847.55	-52.174
847.85	-70.000
848.15	-88.235
848.44	-245.455
848.74	-85.714
849.04	-133.333
849.34	-175.000
849.63	-82.609
849.93	1900.000
850.23	-120.000
850.53	-34.615
850.82	-172.727
851.12	-54.545
851.42	-163.636
851.71	-130.769
852.01	-130.000
852.31	-146.154
852.61	-147.368
852.90	-133.333
853.20	-88.889
853.50	-344.444
853.79	-138.095
854.09	-95.455
854.39	-183.333
854.68	-22.581
854.98	-92.308
855.28	-72.222
855.57	-50.000
855.87	-52.000
856.17	-63.636
856.46	-33.333
856.76	-116.667
857.05	-91.304
857.35	-120.833
857.65	-169.231
857.94	-23.810
858.24	-55.556
858.53	-39.130
858.83	-100.000
859.13	-158.824
859.42	-141.176
859.72	-128.571
860.01	-95.000
860.31	-277.778
860.60	-110.000
860.90	-93.333
861.20	-94.444
861.49	-146.154
861.79	-16.667
862.08	-161.538
862.38	-40.625
862.67	-129.412
862.97	-106.250
863.26	-300.000
863.56	-220.000
863.85	-245.455
864.15	-66.667
864.44	-733.333
864.74	-121.429
865.03	-100.000
865.33	-200.000
865.62	-48.387
865.92	-63.636
866.21	-39.130
866.51	-92.857
866.80	-500.000
867.10	-175.000
867.39	-158.333
867.69	2800.000
867.98	-342.857
868.27	-94.118
868.57	-2800.000
868.86	-240.000
869.16	-100.000
869.45	-62.500
869.75	-154.545
870.04	-400.000
870.33	-108.333
870.63	-314.286
870.92	-350.000
871.22	-375.000
871.51	-263.636
871.80	-900.000
872.10	-1400.000
>>>>>End Processed Spectral Data<<<<<
