SpectraSuite Data File
++++++++++++++++++++++++++++++++++++
Date: Thu May 14 15:58:46 PDT 2015
User: schluterlab
Dark Spectrum Present: Yes
Reference Spectrum Present: Yes
Number of Sampled Component Spectra: 1
Spectrometers: USB2E3373
Integration Time (usec): 3000 (USB2E3373)
Spectra Averaged: 3 (USB2E3373)
Boxcar Smoothing: 0 (USB2E3373)
Correct for Electrical Dark: No (USB2E3373)
Strobe/Lamp Enabled: No (USB2E3373)
Correct for Detector Non-linearity: No (USB2E3373)
Correct for Stray Light: No (USB2E3373)
Number of Pixels in Processed Spectrum: 2048
>>>>>Begin Processed Spectral Data<<<<<
178.53	0.000
178.91	257.143
179.29	-3300.000
179.67	-2400.000
180.04	250.000
180.42	180.000
180.80	420.000
181.18	-2100.000
181.56	-400.000
181.94	600.000
182.31	-375.000
182.69	600.000
183.07	-950.000
183.45	375.000
183.83	-250.000
184.20	-733.333
184.58	2100.000
184.96	-600.000
185.34	-311.111
185.72	-180.000
186.09	333.333
186.47	1200.000
186.85	340.000
187.23	-200.000
187.61	-2700.000
187.98	460.000
188.36	625.000
188.74	-600.000
189.12	-766.667
189.49	-137.500
189.87	-250.000
190.25	-77.778
190.63	-420.000
191.00	-244.444
191.38	0.000
191.76	-600.000
192.14	-400.000
192.51	1200.000
192.89	-133.333
193.27	0.000
193.65	-285.714
194.02	-2700.000
194.40	-142.857
194.78	342.857
195.15	0.000
195.53	-118.182
195.91	0.000
196.29	-400.000
196.66	-146.154
197.04	-2700.000
197.42	-242.857
197.79	-1000.000
198.17	-225.000
198.55	-342.857
198.92	-288.889
199.30	-212.500
199.68	-100.000
200.05	-114.286
200.43	-500.000
200.81	285.714
201.18	0.000
201.56	244.444
201.94	0.000
202.31	800.000
202.69	-266.667
203.07	2100.000
203.44	-200.000
203.82	-575.000
204.19	-208.333
204.57	-350.000
204.95	-212.500
205.32	-2400.000
205.70	550.000
206.08	-333.333
206.45	-283.333
206.83	440.000
207.20	-300.000
207.58	-600.000
207.96	-383.333
208.33	-233.333
208.71	150.000
209.08	-116.667
209.46	0.000
209.84	333.333
210.21	1050.000
210.59	750.000
210.96	1000.000
211.34	-600.000
211.71	-337.500
212.09	-2300.000
212.46	0.000
212.84	1450.000
213.22	-540.000
213.59	-550.000
213.97	-220.000
214.34	-933.333
214.72	433.333
215.09	-550.000
215.47	0.000
215.84	300.000
216.22	1550.000
216.59	-440.000
216.97	-300.000
217.34	-500.000
217.72	-212.500
218.09	-500.000
218.47	-325.000
218.84	0.000
219.22	340.000
219.59	-94.118
219.97	-50.000
220.34	1200.000
220.72	-255.556
221.09	-115.385
221.47	-833.333
221.84	-180.000
222.22	-514.286
222.59	0.000
222.97	-187.500
223.34	-500.000
223.72	-2800.000
224.09	-275.000
224.46	-500.000
224.84	-320.000
225.21	-442.857
225.59	-575.000
225.96	-550.000
226.34	-57.692
226.71	233.333
227.08	-1100.000
227.46	-120.000
227.83	-625.000
228.21	-89.474
228.58	350.000
228.95	1300.000
229.33	-91.667
229.70	-110.000
230.08	31.579
230.45	280.000
230.82	-466.667
231.20	-192.857
231.57	-150.000
231.95	-227.273
232.32	-45.455
232.69	-35.000
233.07	-500.000
233.44	-100.000
233.81	-170.000
234.19	-72.222
234.56	-50.000
234.93	-24.138
235.31	-47.368
235.68	-66.667
236.05	-100.000
236.43	-15.385
236.80	0.000
237.17	7.407
237.55	-15.152
237.92	-130.000
238.29	-58.065
238.67	-11.364
239.04	-38.889
239.41	-14.286
239.79	0.000
240.16	-18.519
240.53	-26.087
240.91	-25.490
241.28	-3.279
241.65	13.433
242.02	10.811
242.40	10.769
242.77	0.000
243.14	-7.317
243.51	-2.632
243.89	11.538
244.26	24.752
244.63	14.706
245.00	17.757
245.38	25.439
245.75	13.274
246.12	32.540
246.49	13.953
246.87	16.429
247.24	19.868
247.61	23.026
247.98	18.792
248.36	20.370
248.73	12.883
249.10	17.486
249.47	25.871
249.84	25.131
250.22	26.943
250.59	22.778
250.96	26.364
251.33	21.939
251.70	25.641
252.08	20.417
252.45	24.590
252.82	24.380
253.19	23.047
253.56	27.376
253.94	25.385
254.31	26.894
254.68	29.021
255.05	26.710
255.42	24.490
255.79	25.890
256.16	27.483
256.54	23.510
256.91	28.197
257.28	26.230
257.65	23.248
258.02	25.074
258.39	29.630
258.76	30.581
259.14	28.448
259.51	27.089
259.88	26.062
260.25	26.111
260.62	28.493
260.99	30.328
261.36	28.150
261.73	28.647
262.10	29.121
262.47	28.150
262.85	32.323
263.22	25.974
263.59	26.316
263.96	31.202
264.33	28.133
264.70	30.617
265.07	32.936
265.44	30.839
265.81	29.398
266.18	30.612
266.55	30.357
266.92	26.651
267.29	30.635
267.66	28.603
268.03	29.476
268.40	28.184
268.77	27.335
269.14	28.855
269.51	28.947
269.88	29.098
270.25	26.962
270.62	30.380
270.99	30.303
271.36	31.089
271.73	28.291
272.10	28.457
272.47	29.058
272.84	27.912
273.21	28.657
273.58	28.427
273.95	28.462
274.32	27.567
274.69	29.594
275.06	32.418
275.43	26.063
275.80	28.748
276.17	28.148
276.54	27.985
276.91	28.086
277.28	27.667
277.65	28.725
278.02	29.412
278.39	29.348
278.76	28.120
279.13	27.660
279.50	30.241
279.87	28.623
280.23	24.472
280.60	28.136
280.97	29.441
281.34	29.711
281.71	29.949
282.08	29.070
282.45	25.532
282.82	26.845
283.19	26.010
283.56	29.016
283.92	28.078
284.29	28.278
284.66	29.721
285.03	25.160
285.40	28.594
285.77	26.471
286.14	28.702
286.51	26.636
286.87	27.014
287.24	29.819
287.61	27.653
287.98	26.888
288.35	25.296
288.72	26.627
289.08	26.501
289.45	24.704
289.82	27.108
290.19	26.580
290.56	27.324
290.93	26.961
291.29	25.482
291.66	25.482
292.03	23.474
292.40	28.163
292.77	26.685
293.13	26.793
293.50	23.784
293.87	22.819
294.24	25.867
294.60	25.032
294.97	21.342
295.34	25.480
295.71	24.212
296.08	22.739
296.44	22.304
296.81	23.386
297.18	22.416
297.55	22.995
297.91	22.064
298.28	22.867
298.65	24.257
299.02	22.550
299.38	21.625
299.75	22.313
300.12	23.032
300.48	20.276
300.85	23.285
301.22	22.148
301.59	21.575
301.95	20.678
302.32	22.000
302.69	21.796
303.05	21.545
303.42	22.727
303.79	22.188
304.15	21.977
304.52	21.987
304.89	21.152
305.25	21.946
305.62	22.153
305.99	21.959
306.35	20.766
306.72	21.510
307.09	21.523
307.45	22.981
307.82	21.998
308.19	21.191
308.55	21.986
308.92	20.740
309.29	21.743
309.65	21.442
310.02	23.960
310.38	22.146
310.75	22.816
311.12	23.106
311.48	22.874
311.85	23.647
312.22	22.960
312.58	22.066
312.95	21.319
313.31	22.132
313.68	21.978
314.05	22.313
314.41	22.495
314.78	22.525
315.14	23.866
315.51	21.884
315.87	23.222
316.24	22.374
316.61	23.091
316.97	20.995
317.34	21.252
317.70	22.882
318.07	21.869
318.43	22.789
318.80	24.331
319.16	22.060
319.53	21.080
319.89	21.911
320.26	22.331
320.62	22.340
320.99	21.514
321.35	21.904
321.72	24.186
322.08	22.002
322.45	24.210
322.81	22.473
323.18	23.274
323.54	23.534
323.91	23.665
324.27	22.289
324.64	22.838
325.00	22.305
325.37	22.768
325.73	22.562
326.10	23.114
326.46	23.860
326.83	22.578
327.19	22.126
327.56	24.269
327.92	23.053
328.29	23.145
328.65	22.362
329.01	23.773
329.38	23.589
329.74	23.630
330.11	23.545
330.47	22.325
330.84	22.481
331.20	22.500
331.56	23.744
331.93	23.598
332.29	24.068
332.66	22.591
333.02	23.116
333.38	22.735
333.75	23.401
334.11	22.435
334.48	23.020
334.84	22.430
335.20	22.082
335.57	23.187
335.93	22.314
336.29	21.215
336.66	22.035
337.02	21.990
337.38	23.044
337.75	21.074
338.11	22.372
338.47	22.911
338.84	21.658
339.20	20.640
339.56	21.911
339.93	22.906
340.29	21.739
340.65	22.141
341.02	22.346
341.38	22.474
341.74	22.518
342.11	22.526
342.47	21.287
342.83	22.625
343.20	22.813
343.56	21.091
343.92	22.258
344.28	22.578
344.65	23.411
345.01	22.075
345.37	23.017
345.73	22.759
346.10	22.465
346.46	21.994
346.82	21.199
347.19	22.307
347.55	22.686
347.91	22.734
348.27	21.851
348.63	22.087
349.00	21.551
349.36	21.561
349.72	21.949
350.08	21.694
350.45	21.749
350.81	21.644
351.17	22.406
351.53	21.304
351.89	21.716
352.26	22.239
352.62	22.910
352.98	21.985
353.34	21.285
353.70	21.880
354.07	20.939
354.43	22.703
354.79	21.017
355.15	22.517
355.51	22.515
355.87	22.139
356.24	22.890
356.60	21.360
356.96	21.497
357.32	21.933
357.68	21.230
358.04	20.958
358.40	21.642
358.77	22.515
359.13	21.787
359.49	20.595
359.85	22.408
360.21	21.736
360.57	20.890
360.93	22.073
361.29	22.596
361.66	22.013
362.02	22.825
362.38	22.347
362.74	22.137
363.10	21.733
363.46	22.230
363.82	23.011
364.18	22.379
364.54	22.476
364.90	21.605
365.26	22.345
365.62	23.133
365.98	22.464
366.35	22.215
366.71	22.381
367.07	22.936
367.43	22.784
367.79	22.694
368.15	22.943
368.51	22.395
368.87	22.600
369.23	22.533
369.59	21.653
369.95	22.583
370.31	22.215
370.67	22.765
371.03	22.438
371.39	22.163
371.75	21.596
372.11	22.832
372.47	22.275
372.83	23.364
373.19	22.949
373.55	22.629
373.91	22.290
374.27	23.674
374.63	23.545
374.99	23.143
375.35	23.636
375.71	22.258
376.07	22.853
376.42	21.977
376.78	22.809
377.14	23.206
377.50	23.466
377.86	23.214
378.22	23.473
378.58	23.484
378.94	22.829
379.30	23.316
379.66	23.692
380.02	24.409
380.38	23.848
380.74	23.606
381.09	23.926
381.45	23.977
381.81	25.234
382.17	23.456
382.53	23.801
382.89	24.379
383.25	25.264
383.61	23.148
383.97	22.850
384.32	24.761
384.68	23.956
385.04	24.696
385.40	24.867
385.76	24.912
386.12	24.177
386.48	25.471
386.83	24.672
387.19	24.565
387.55	24.237
387.91	24.658
388.27	24.307
388.62	24.055
388.98	24.704
389.34	24.691
389.70	24.637
390.06	24.985
390.42	24.699
390.77	26.008
391.13	24.178
391.49	25.785
391.85	24.606
392.20	24.140
392.56	25.399
392.92	25.845
393.28	25.926
393.64	25.084
393.99	26.322
394.35	25.993
394.71	26.347
395.07	25.210
395.42	25.243
395.78	26.569
396.14	26.857
396.50	25.772
396.85	24.270
397.21	26.331
397.57	26.031
397.92	26.575
398.28	26.399
398.64	26.316
399.00	25.445
399.35	27.016
399.71	26.196
400.07	26.839
400.42	25.669
400.78	26.562
401.14	26.636
401.49	27.345
401.85	26.570
402.21	26.709
402.57	27.700
402.92	27.364
403.28	26.698
403.63	27.208
403.99	26.544
404.35	26.890
404.70	28.045
405.06	26.413
405.42	26.756
405.77	27.808
406.13	28.741
406.49	27.365
406.84	27.645
407.20	27.222
407.55	27.922
407.91	27.781
408.27	27.444
408.62	28.330
408.98	28.033
409.34	27.977
409.69	28.863
410.05	28.781
410.40	28.422
410.76	28.267
411.11	28.814
411.47	28.256
411.83	28.277
412.18	28.072
412.54	28.453
412.89	28.638
413.25	28.668
413.60	28.202
413.96	30.070
414.31	28.952
414.67	28.682
415.03	28.369
415.38	29.634
415.74	29.139
416.09	30.105
416.45	29.806
416.80	28.458
417.16	29.630
417.51	30.448
417.87	30.227
418.22	29.401
418.58	30.050
418.93	30.384
419.29	30.148
419.64	28.631
420.00	30.030
420.35	29.815
420.71	29.121
421.06	29.902
421.42	30.046
421.77	29.779
422.12	29.651
422.48	30.312
422.83	30.559
423.19	29.708
423.54	30.199
423.90	29.100
424.25	31.093
424.61	29.621
424.96	30.478
425.31	30.573
425.67	30.596
426.02	30.050
426.38	30.080
426.73	30.859
427.09	30.911
427.44	29.984
427.79	30.680
428.15	30.251
428.50	31.292
428.85	30.425
429.21	30.851
429.56	30.355
429.92	30.319
430.27	30.795
430.62	31.412
430.98	31.038
431.33	30.743
431.68	30.268
432.04	31.183
432.39	31.441
432.74	31.050
433.10	31.152
433.45	30.936
433.80	31.116
434.16	31.767
434.51	32.014
434.86	31.922
435.22	32.625
435.57	31.486
435.92	30.774
436.28	30.717
436.63	31.622
436.98	30.918
437.34	31.736
437.69	30.490
438.04	31.095
438.39	31.878
438.75	31.931
439.10	32.294
439.45	32.029
439.81	30.791
440.16	31.314
440.51	32.163
440.86	31.462
441.22	31.243
441.57	32.495
441.92	32.347
442.27	32.475
442.63	31.992
442.98	32.604
443.33	31.299
443.68	32.309
444.03	32.879
444.39	32.825
444.74	32.363
445.09	31.779
445.44	31.876
445.79	32.663
446.15	32.323
446.50	31.990
446.85	31.518
447.20	32.447
447.55	32.322
447.91	32.199
448.26	31.448
448.61	31.987
448.96	32.886
449.31	32.291
449.66	31.972
450.02	31.698
450.37	32.552
450.72	32.885
451.07	32.005
451.42	32.120
451.77	31.907
452.12	32.562
452.47	32.620
452.83	33.727
453.18	32.458
453.53	32.625
453.88	31.530
454.23	32.768
454.58	32.792
454.93	31.857
455.28	33.233
455.63	32.518
455.98	32.626
456.34	31.920
456.69	31.746
457.04	32.329
457.39	32.373
457.74	33.445
458.09	31.631
458.44	32.004
458.79	31.460
459.14	32.092
459.49	32.145
459.84	32.267
460.19	31.316
460.54	32.198
460.89	32.769
461.24	31.724
461.59	32.983
461.94	31.546
462.29	31.243
462.64	31.623
462.99	33.019
463.34	31.927
463.69	31.477
464.04	32.296
464.39	32.567
464.74	32.212
465.09	31.776
465.44	31.867
465.79	32.628
466.14	31.839
466.49	32.895
466.84	32.397
467.19	32.543
467.54	32.080
467.89	32.241
468.24	32.133
468.59	32.021
468.94	31.002
469.29	31.794
469.64	32.549
469.99	32.696
470.34	32.302
470.68	32.536
471.03	32.613
471.38	32.897
471.73	32.055
472.08	32.995
472.43	31.547
472.78	33.312
473.13	31.669
473.48	33.172
473.83	32.850
474.17	32.532
474.52	32.952
474.87	31.949
475.22	32.958
475.57	31.308
475.92	32.106
476.27	32.268
476.61	32.139
476.96	32.742
477.31	32.723
477.66	33.001
478.01	32.588
478.36	32.702
478.70	32.611
479.05	31.902
479.40	32.675
479.75	32.325
480.10	32.496
480.45	32.862
480.79	32.698
481.14	32.215
481.49	32.303
481.84	33.551
482.19	32.602
482.53	33.275
482.88	33.186
483.23	32.325
483.58	32.838
483.92	32.314
484.27	32.134
484.62	32.096
484.97	32.232
485.31	32.101
485.66	30.678
486.01	30.342
486.36	31.379
486.70	32.209
487.05	32.904
487.40	32.505
487.75	31.959
488.09	32.911
488.44	31.689
488.79	32.479
489.13	31.427
489.48	31.146
489.83	31.268
490.17	31.997
490.52	31.199
490.87	32.107
491.22	31.629
491.56	31.399
491.91	31.662
492.26	31.112
492.60	32.401
492.95	31.110
493.30	32.855
493.64	31.362
493.99	32.368
494.34	31.402
494.68	31.991
495.03	32.775
495.37	31.913
495.72	31.156
496.07	31.639
496.41	32.003
496.76	31.860
497.11	31.762
497.45	32.154
497.80	32.474
498.14	31.565
498.49	31.296
498.84	32.358
499.18	32.029
499.53	31.480
499.87	31.341
500.22	31.567
500.56	31.489
500.91	31.716
501.26	32.864
501.60	31.198
501.95	32.089
502.29	30.978
502.64	32.357
502.98	31.924
503.33	31.447
503.67	31.138
504.02	31.217
504.36	32.127
504.71	31.695
505.06	32.196
505.40	31.856
505.75	31.102
506.09	31.630
506.44	32.033
506.78	31.927
507.13	31.812
507.47	32.686
507.82	31.345
508.16	31.692
508.51	32.255
508.85	32.215
509.19	31.786
509.54	33.189
509.88	31.666
510.23	32.443
510.57	32.238
510.92	32.124
511.26	31.313
511.61	31.917
511.95	31.820
512.30	32.299
512.64	31.534
512.98	32.266
513.33	32.359
513.67	32.228
514.02	31.834
514.36	31.509
514.70	31.146
515.05	32.169
515.39	32.598
515.74	33.192
516.08	32.066
516.42	32.601
516.77	32.282
517.11	31.924
517.46	33.192
517.80	33.030
518.14	33.079
518.49	32.050
518.83	32.890
519.17	31.718
519.52	31.447
519.86	32.471
520.20	32.694
520.55	32.804
520.89	32.995
521.23	32.105
521.58	33.333
521.92	33.371
522.26	32.131
522.61	32.465
522.95	32.238
523.29	32.644
523.64	32.063
523.98	33.542
524.32	33.123
524.66	32.157
525.01	31.484
525.35	32.280
525.69	32.135
526.04	32.147
526.38	32.011
526.72	32.757
527.06	32.023
527.41	33.353
527.75	34.026
528.09	33.294
528.43	33.215
528.78	32.832
529.12	31.651
529.46	32.378
529.80	32.265
530.15	32.928
530.49	32.088
530.83	31.405
531.17	32.378
531.51	33.153
531.86	33.053
532.20	33.354
532.54	32.136
532.88	32.606
533.22	31.408
533.57	32.141
533.91	31.762
534.25	32.617
534.59	33.161
534.93	32.315
535.27	31.493
535.62	32.746
535.96	33.701
536.30	31.434
536.64	32.492
536.98	32.718
537.32	32.346
537.66	31.815
538.01	31.360
538.35	32.095
538.69	31.731
539.03	33.109
539.37	32.450
539.71	31.892
540.05	32.074
540.39	30.990
540.73	31.815
541.07	31.698
541.42	30.833
541.76	31.198
542.10	31.423
542.44	31.547
542.78	31.813
543.12	32.300
543.46	31.013
543.80	31.295
544.14	31.239
544.48	31.501
544.82	31.478
545.16	30.650
545.50	30.318
545.84	31.108
546.18	31.790
546.52	31.401
546.86	30.692
547.20	30.980
547.54	31.024
547.88	30.319
548.22	30.234
548.56	31.188
548.90	30.448
549.24	30.942
549.58	30.032
549.92	31.059
550.26	31.392
550.60	30.887
550.94	31.048
551.28	30.429
551.62	31.267
551.96	30.485
552.30	30.975
552.64	30.056
552.98	29.632
553.32	29.968
553.66	30.032
554.00	31.021
554.34	30.502
554.68	29.826
555.02	31.078
555.36	31.098
555.69	29.660
556.03	30.139
556.37	30.413
556.71	29.994
557.05	29.776
557.39	29.064
557.73	29.657
558.07	29.669
558.41	30.565
558.75	29.885
559.08	30.759
559.42	30.727
559.76	30.529
560.10	30.074
560.44	30.475
560.78	30.125
561.12	30.419
561.45	30.170
561.79	29.670
562.13	30.191
562.47	29.655
562.81	28.544
563.15	28.977
563.48	28.713
563.82	29.323
564.16	28.468
564.50	29.559
564.84	28.496
565.17	29.000
565.51	27.848
565.85	29.394
566.19	28.053
566.52	28.672
566.86	29.032
567.20	28.222
567.54	27.828
567.88	28.695
568.21	28.755
568.55	28.345
568.89	28.688
569.23	28.559
569.56	28.097
569.90	28.225
570.24	27.791
570.57	27.742
570.91	27.618
571.25	27.249
571.59	27.721
571.92	27.319
572.26	27.263
572.60	27.355
572.93	27.247
573.27	27.395
573.61	27.607
573.95	26.293
574.28	27.260
574.62	26.694
574.96	26.621
575.29	27.010
575.63	26.496
575.97	26.275
576.30	26.696
576.64	26.485
576.98	26.629
577.31	26.588
577.65	26.558
577.98	26.299
578.32	26.273
578.66	26.291
578.99	26.213
579.33	26.545
579.67	25.975
580.00	26.208
580.34	25.436
580.67	25.375
581.01	25.898
581.35	25.502
581.68	25.643
582.02	26.010
582.35	26.011
582.69	26.120
583.02	26.014
583.36	25.940
583.70	26.153
584.03	26.086
584.37	26.389
584.70	25.355
585.04	25.785
585.37	25.298
585.71	25.588
586.04	25.804
586.38	25.487
586.72	25.219
587.05	25.556
587.39	26.153
587.72	25.574
588.06	25.725
588.39	25.790
588.73	25.529
589.06	25.621
589.40	25.907
589.73	25.578
590.07	25.332
590.40	26.166
590.73	25.451
591.07	25.726
591.40	25.078
591.74	25.358
592.07	24.807
592.41	25.039
592.74	24.956
593.08	25.669
593.41	25.401
593.75	25.259
594.08	25.386
594.41	25.897
594.75	24.875
595.08	25.404
595.42	24.968
595.75	24.960
596.09	25.788
596.42	25.081
596.75	25.087
597.09	25.980
597.42	25.387
597.75	24.814
598.09	25.635
598.42	25.251
598.76	24.608
599.09	24.493
599.42	24.405
599.76	24.728
600.09	24.858
600.42	24.191
600.76	24.538
601.09	24.461
601.42	24.305
601.76	24.552
602.09	24.196
602.42	24.646
602.76	24.317
603.09	24.229
603.42	24.855
603.76	24.595
604.09	25.124
604.42	24.147
604.76	24.277
605.09	24.771
605.42	24.003
605.75	24.000
606.09	23.964
606.42	23.459
606.75	23.913
607.09	23.579
607.42	24.316
607.75	23.916
608.08	23.875
608.42	23.740
608.75	24.627
609.08	23.854
609.41	24.085
609.75	23.884
610.08	24.758
610.41	23.407
610.74	24.160
611.07	23.845
611.41	24.305
611.74	24.157
612.07	23.936
612.40	23.099
612.73	24.108
613.07	23.765
613.40	23.628
613.73	23.640
614.06	23.602
614.39	23.518
614.72	23.047
615.06	22.666
615.39	23.345
615.72	22.938
616.05	23.118
616.38	23.814
616.71	23.772
617.05	23.749
617.38	23.435
617.71	23.650
618.04	24.177
618.37	23.607
618.70	24.265
619.03	23.536
619.36	23.674
619.69	23.895
620.03	23.917
620.36	23.804
620.69	23.689
621.02	24.606
621.35	25.036
621.68	24.440
622.01	23.060
622.34	22.734
622.67	24.399
623.00	22.402
623.33	23.092
623.66	24.125
623.99	22.712
624.32	23.847
624.65	23.552
624.99	23.212
625.32	24.298
625.65	23.803
625.98	23.593
626.31	23.671
626.64	23.004
626.97	23.556
627.30	22.627
627.63	23.406
627.96	22.447
628.29	23.580
628.62	23.090
628.95	24.102
629.28	23.364
629.61	23.064
629.94	22.594
630.26	21.610
630.59	21.416
630.92	22.857
631.25	22.898
631.58	22.599
631.91	22.587
632.24	22.671
632.57	22.011
632.90	23.671
633.23	22.857
633.56	22.143
633.89	21.488
634.22	22.141
634.55	22.443
634.88	22.835
635.20	23.036
635.53	22.486
635.86	23.727
636.19	23.648
636.52	23.101
636.85	22.063
637.18	22.869
637.51	23.118
637.83	22.370
638.16	22.235
638.49	20.775
638.82	21.984
639.15	20.962
639.48	24.596
639.81	23.557
640.13	22.261
640.46	19.394
640.79	21.201
641.12	22.733
641.45	23.087
641.77	24.262
642.10	22.310
642.43	21.410
642.76	21.680
643.09	21.644
643.41	20.868
643.74	23.034
644.07	22.483
644.40	21.075
644.73	22.642
645.05	22.320
645.38	22.158
645.71	23.167
646.04	23.529
646.36	21.022
646.69	20.245
647.02	24.159
647.35	22.137
647.67	20.934
648.00	21.497
648.33	22.072
648.66	22.682
648.98	21.497
649.31	21.245
649.64	22.842
649.96	20.955
650.29	18.220
650.62	21.499
650.94	20.120
651.27	21.108
651.60	21.345
651.92	20.061
652.25	21.708
652.58	21.183
652.90	19.767
653.23	21.972
653.56	22.254
653.88	21.629
654.21	21.127
654.54	21.243
654.86	22.805
655.19	21.079
655.52	21.947
655.84	21.689
656.17	25.176
656.49	35.362
656.82	38.576
657.15	30.479
657.47	22.941
657.80	17.091
658.13	13.459
658.45	17.475
658.78	21.059
659.10	20.281
659.43	20.467
659.75	19.660
660.08	18.992
660.41	19.603
660.73	19.384
661.06	18.209
661.38	20.893
661.71	20.172
662.03	21.517
662.36	22.719
662.68	21.576
663.01	18.230
663.33	21.361
663.66	21.429
663.98	19.423
664.31	20.826
664.63	18.497
664.96	18.693
665.28	19.419
665.61	20.804
665.93	18.750
666.26	18.100
666.58	17.343
666.91	21.495
667.23	20.571
667.56	16.568
667.88	21.600
668.21	17.969
668.53	16.988
668.86	20.629
669.18	19.348
669.50	20.278
669.83	18.000
670.15	18.110
670.48	20.040
670.80	20.076
671.13	18.904
671.45	17.126
671.77	19.586
672.10	18.667
672.42	17.476
672.75	19.201
673.07	19.403
673.39	16.487
673.72	20.134
674.04	19.310
674.37	19.499
674.69	20.282
675.01	17.714
675.34	18.321
675.66	17.228
675.98	18.097
676.31	20.898
676.63	20.722
676.95	19.732
677.28	19.960
677.60	18.110
677.92	22.073
678.25	20.841
678.57	20.285
678.89	22.355
679.22	18.467
679.54	18.803
679.86	16.441
680.18	19.071
680.51	18.711
680.83	20.458
681.15	17.586
681.48	18.480
681.80	18.998
682.12	21.154
682.44	19.533
682.77	18.085
683.09	18.939
683.41	18.411
683.73	17.078
684.06	18.635
684.38	17.531
684.70	18.671
685.02	20.138
685.34	16.805
685.67	19.085
685.99	18.865
686.31	16.424
686.63	19.589
686.96	20.032
687.28	16.124
687.60	18.013
687.92	18.489
688.24	18.531
688.56	16.724
688.89	17.604
689.21	16.634
689.53	16.275
689.85	17.949
690.17	18.148
690.49	19.920
690.82	19.010
691.14	17.814
691.46	19.694
691.78	18.969
692.10	16.514
692.42	14.464
692.74	16.697
693.06	14.815
693.39	17.457
693.71	17.293
694.03	18.030
694.35	16.762
694.67	17.248
694.99	20.000
695.31	18.543
695.63	16.667
695.95	15.321
696.27	17.363
696.59	19.027
696.91	16.216
697.23	18.022
697.56	15.886
697.88	17.235
698.20	17.702
698.52	20.076
698.84	17.048
699.16	19.184
699.48	17.573
699.80	15.532
700.12	17.686
700.44	16.590
700.76	15.202
701.08	19.128
701.40	16.580
701.72	14.428
702.04	17.647
702.36	14.921
702.68	17.115
703.00	15.403
703.32	16.256
703.64	16.626
703.96	15.274
704.28	15.971
704.60	19.494
704.91	17.092
705.23	17.534
705.55	16.435
705.87	17.576
706.19	15.644
706.51	13.554
706.83	15.562
707.15	13.228
707.47	16.822
707.79	17.904
708.11	14.195
708.43	13.763
708.74	14.732
709.06	15.313
709.38	16.667
709.70	17.370
710.02	14.987
710.34	18.883
710.66	14.246
710.98	14.754
711.29	14.286
711.61	16.667
711.93	17.949
712.25	13.514
712.57	20.649
712.89	13.235
713.20	12.722
713.52	15.896
713.84	16.713
714.16	15.789
714.48	15.722
714.80	18.182
715.11	14.698
715.43	15.915
715.75	17.632
716.07	14.641
716.39	15.847
716.70	15.361
717.02	12.459
717.34	14.634
717.66	15.772
717.97	12.329
718.29	10.997
718.61	13.487
718.93	11.650
719.24	15.217
719.56	12.270
719.88	15.315
720.20	15.484
720.51	17.702
720.83	11.563
721.15	12.500
721.46	7.534
721.78	14.667
722.10	12.621
722.42	11.745
722.73	10.000
723.05	14.737
723.37	11.458
723.68	13.978
724.00	12.996
724.32	11.620
724.63	14.336
724.95	12.766
725.27	16.028
725.58	12.014
725.90	16.207
726.22	13.793
726.53	14.610
726.85	16.038
727.16	15.408
727.48	15.596
727.80	12.583
728.11	9.187
728.43	14.141
728.74	12.040
729.06	13.576
729.38	14.286
729.69	12.752
730.01	12.500
730.32	14.242
730.64	15.094
730.96	13.975
731.27	16.480
731.59	15.934
731.90	13.506
732.22	16.406
732.53	11.050
732.85	14.857
733.16	13.490
733.48	13.415
733.80	12.256
734.11	14.530
734.43	13.784
734.74	15.949
735.06	11.809
735.37	16.486
735.69	15.676
736.00	12.994
736.32	15.633
736.63	14.722
736.95	11.207
737.26	13.333
737.58	11.515
737.89	16.471
738.21	9.174
738.52	11.148
738.83	15.700
739.15	10.284
739.46	12.925
739.78	12.270
740.09	12.607
740.41	15.452
740.72	14.667
741.04	15.534
741.35	9.474
741.66	12.549
741.98	11.885
742.29	14.226
742.61	4.825
742.92	13.462
743.23	15.162
743.55	14.729
743.86	14.800
744.18	8.678
744.49	6.751
744.80	13.580
745.12	11.814
745.43	13.008
745.74	8.190
746.06	8.475
746.37	10.970
746.68	15.041
747.00	11.250
747.31	9.442
747.62	13.077
747.94	8.907
748.25	6.426
748.56	4.898
748.88	11.966
749.19	13.793
749.50	10.823
749.82	14.458
750.13	13.523
750.44	10.000
750.75	14.462
751.07	14.462
751.38	11.356
751.69	11.502
752.01	12.945
752.32	11.765
752.63	12.245
752.94	13.841
753.26	9.294
753.57	7.778
753.88	14.232
754.19	13.826
754.51	9.646
754.82	14.791
755.13	16.066
755.44	12.628
755.75	11.842
756.07	13.731
756.38	14.151
756.69	14.759
757.00	12.188
757.31	16.120
757.63	12.020
757.94	14.085
758.25	14.673
758.56	12.418
758.87	14.091
759.18	14.133
759.50	12.465
759.81	13.725
760.12	11.051
760.43	14.062
760.74	14.039
761.05	11.500
761.36	12.048
761.67	9.898
761.99	13.514
762.30	12.195
762.61	7.921
762.92	10.075
763.23	16.479
763.54	12.590
763.85	13.058
764.16	11.111
764.47	14.085
764.78	11.821
765.10	15.249
765.41	16.923
765.72	9.788
766.03	12.429
766.34	9.404
766.65	6.969
766.96	7.968
767.27	11.982
767.58	5.970
767.89	10.577
768.20	8.920
768.51	11.574
768.82	9.639
769.13	11.742
769.44	5.385
769.75	12.996
770.06	11.154
770.37	11.417
770.68	5.532
770.99	8.097
771.30	15.926
771.61	11.787
771.92	12.963
772.23	14.575
772.54	8.333
772.85	15.668
773.16	10.952
773.47	7.937
773.78	4.865
774.09	7.386
774.39	9.000
774.70	11.475
775.01	0.610
775.32	2.353
775.63	2.454
775.94	0.000
776.25	6.452
776.56	7.692
776.87	4.082
777.18	4.138
777.48	6.993
777.79	-1.351
778.10	0.000
778.41	7.639
778.72	8.276
779.03	6.790
779.34	4.242
779.65	4.145
779.95	6.111
780.26	9.091
780.57	-0.645
780.88	6.522
781.19	11.613
781.50	10.000
781.80	6.989
782.11	5.820
782.42	1.515
782.73	5.389
783.04	11.732
783.34	0.606
783.65	2.614
783.96	3.106
784.27	7.143
784.57	3.974
784.88	7.143
785.19	0.787
785.50	-5.512
785.81	-0.752
786.11	6.923
786.42	0.000
786.73	3.597
787.04	9.774
787.34	-2.459
787.65	1.600
787.96	8.955
788.26	16.084
788.57	6.993
788.88	0.658
789.19	7.190
789.49	6.164
789.80	7.092
790.11	2.362
790.41	-3.125
790.72	-3.390
791.03	-7.767
791.33	5.217
791.64	1.754
791.95	-0.893
792.25	1.905
792.56	0.000
792.87	-15.625
793.17	-4.464
793.48	-11.458
793.79	-27.711
794.09	-4.587
794.40	-11.927
794.70	4.762
795.01	5.844
795.32	-0.685
795.62	3.521
795.93	0.000
796.23	10.656
796.54	0.893
796.85	-2.128
797.15	-9.783
797.46	-24.658
797.76	-20.000
798.07	-7.609
798.37	-11.340
798.68	1.299
798.99	-8.046
799.29	-4.494
799.60	1.064
799.90	-12.048
800.21	-15.385
800.51	-11.940
800.82	-27.941
801.12	-27.397
801.43	-14.706
801.73	-32.203
802.04	-7.576
802.34	-15.000
802.65	-22.034
802.95	-16.418
803.26	-28.814
803.56	-10.959
803.87	-11.429
804.17	5.479
804.48	-31.579
804.78	-4.167
805.09	-32.759
805.39	-9.459
805.70	-29.577
806.00	-3.659
806.30	-4.819
806.61	-19.178
806.91	-0.962
807.22	-1.111
807.52	-10.345
807.83	0.000
808.13	0.000
808.43	-6.742
808.74	-1.250
809.04	-26.471
809.35	-16.000
809.65	-10.000
809.95	-8.219
810.26	-28.070
810.56	-22.414
810.86	-5.882
811.17	-19.298
811.47	-16.393
811.77	-57.778
812.08	-16.949
812.38	-26.667
812.69	-5.172
812.99	-43.396
813.29	-15.385
813.59	-16.000
813.90	-17.544
814.20	-45.455
814.50	0.000
814.81	-2.564
815.11	9.836
815.41	-7.463
815.72	-10.345
816.02	-26.786
816.32	-28.889
816.62	-31.818
816.93	-46.667
817.23	-3.704
817.53	-19.149
817.84	0.000
818.14	-29.412
818.44	-20.408
818.74	-22.222
819.04	-69.231
819.35	-17.143
819.65	-76.923
819.95	-15.094
820.25	-17.778
820.56	-33.333
820.86	-56.250
821.16	-35.897
821.46	-41.860
821.76	-38.000
822.07	-19.643
822.37	-21.739
822.67	-36.170
822.97	-72.973
823.27	-42.500
823.57	-2.041
823.88	-17.778
824.18	-30.000
824.48	-36.667
824.78	-68.000
825.08	-54.545
825.38	-11.111
825.69	-21.277
825.99	-33.333
826.29	-94.286
826.59	-33.333
826.89	-55.814
827.19	-18.000
827.49	-61.765
827.79	-16.667
828.09	-45.946
828.39	-66.667
828.70	-56.098
829.00	-34.884
829.30	-57.143
829.60	-44.118
829.90	-32.609
830.20	-54.286
830.50	-65.517
830.80	-116.667
831.10	-50.000
831.40	-41.176
831.70	-66.667
832.00	-25.806
832.30	-194.118
832.60	-91.667
832.90	-192.308
833.20	-173.684
833.50	-135.000
833.80	-115.789
834.10	-123.810
834.40	-27.778
834.70	-37.500
835.00	-60.000
835.30	-55.882
835.60	-63.333
835.90	-72.000
836.20	-140.909
836.50	-64.000
836.80	-60.606
837.10	-81.481
837.40	-55.556
837.70	-175.000
838.00	-28.571
838.30	-82.609
838.60	-44.828
838.90	-142.857
839.19	-108.696
839.49	-241.667
839.79	-60.870
840.09	-131.250
840.39	-80.000
840.69	-32.258
840.99	-50.000
841.29	-160.000
841.59	-73.684
841.88	-2.564
842.18	-46.154
842.48	-150.000
842.78	-100.000
843.08	-60.000
843.38	-41.935
843.68	-144.444
843.97	-38.235
844.27	-106.250
844.57	-94.737
844.87	-170.000
845.17	-180.000
845.47	-80.952
845.76	-66.667
846.06	-288.889
846.36	-152.941
846.66	-53.846
846.96	-126.667
847.25	-129.412
847.55	-21.739
847.85	-110.000
848.15	-123.529
848.44	-163.636
848.74	-76.190
849.04	-75.000
849.34	-137.500
849.63	-91.304
849.93	1200.000
850.23	-46.667
850.53	-42.308
850.82	-209.091
851.12	-72.727
851.42	-136.364
851.71	-107.692
852.01	-155.000
852.31	-92.308
852.61	-57.895
852.90	-50.000
853.20	-77.778
853.50	-311.111
853.79	-147.619
854.09	-86.364
854.39	-191.667
854.68	-32.258
854.98	-107.692
855.28	-100.000
855.57	-42.857
855.87	-68.000
856.17	0.000
856.46	-51.852
856.76	-88.889
857.05	-82.609
857.35	-50.000
857.65	-146.154
857.94	-76.190
858.24	-44.444
858.53	-39.130
858.83	-88.235
859.13	-94.118
859.42	-100.000
859.72	-85.714
860.01	-125.000
860.31	-311.111
860.60	-130.000
860.90	-80.000
861.20	-100.000
861.49	-107.692
861.79	-46.667
862.08	-100.000
862.38	-59.375
862.67	-29.412
862.97	-106.250
863.26	-266.667
863.56	-160.000
863.85	-127.273
864.15	-94.444
864.44	-766.667
864.74	-64.286
865.03	-131.250
865.33	-290.000
865.62	-54.839
865.92	-68.182
866.21	-82.609
866.51	-128.571
866.80	-480.000
867.10	-166.667
867.39	-216.667
867.69	2700.000
867.98	-185.714
868.27	-100.000
868.57	-3100.000
868.86	-280.000
869.16	-109.524
869.45	-79.167
869.75	-127.273
870.04	-442.857
870.33	-183.333
870.63	-357.143
870.92	-425.000
871.22	-350.000
871.51	-190.909
871.80	-866.667
872.10	-1500.000
>>>>>End Processed Spectral Data<<<<<
