SpectraSuite Data File
++++++++++++++++++++++++++++++++++++
Date: Thu May 14 16:00:18 PDT 2015
User: schluterlab
Dark Spectrum Present: Yes
Reference Spectrum Present: Yes
Number of Sampled Component Spectra: 1
Spectrometers: USB2E3373
Integration Time (usec): 3000 (USB2E3373)
Spectra Averaged: 3 (USB2E3373)
Boxcar Smoothing: 0 (USB2E3373)
Correct for Electrical Dark: No (USB2E3373)
Strobe/Lamp Enabled: No (USB2E3373)
Correct for Detector Non-linearity: No (USB2E3373)
Correct for Stray Light: No (USB2E3373)
Number of Pixels in Processed Spectrum: 2048
>>>>>Begin Processed Spectral Data<<<<<
178.53	0.000
178.91	200.000
179.29	-2200.000
179.67	-2100.000
180.04	250.000
180.42	250.000
180.80	600.000
181.18	-2400.000
181.56	-1400.000
181.94	500.000
182.31	-525.000
182.69	600.000
183.07	-900.000
183.45	225.000
183.83	-233.333
184.20	-433.333
184.58	2500.000
184.96	-375.000
185.34	-200.000
185.72	-180.000
186.09	344.444
186.47	1450.000
186.85	560.000
187.23	-300.000
187.61	-2100.000
187.98	400.000
188.36	400.000
188.74	-500.000
189.12	-266.667
189.49	-31.250
189.87	-175.000
190.25	-122.222
190.63	-180.000
191.00	-222.222
191.38	0.000
191.76	-550.000
192.14	-266.667
192.51	700.000
192.89	-200.000
193.27	0.000
193.65	-257.143
194.02	-2600.000
194.40	-257.143
194.78	257.143
195.15	0.000
195.53	-127.273
195.91	0.000
196.29	-425.000
196.66	-146.154
197.04	-2200.000
197.42	-171.429
197.79	-1050.000
198.17	-312.500
198.55	-342.857
198.92	-177.778
199.30	-175.000
199.68	-72.727
200.05	-64.286
200.43	-800.000
200.81	285.714
201.18	0.000
201.56	233.333
201.94	0.000
202.31	700.000
202.69	-166.667
203.07	1700.000
203.44	-144.444
203.82	-425.000
204.19	-58.333
204.57	-250.000
204.95	-250.000
205.32	-1600.000
205.70	575.000
206.08	-283.333
206.45	-283.333
206.83	440.000
207.20	-233.333
207.58	-460.000
207.96	-250.000
208.33	-150.000
208.71	183.333
209.08	-166.667
209.46	0.000
209.84	316.667
210.21	1050.000
210.59	1000.000
210.96	800.000
211.34	-450.000
211.71	-262.500
212.09	-2200.000
212.46	0.000
212.84	1200.000
213.22	-380.000
213.59	-725.000
213.97	-50.000
214.34	-500.000
214.72	350.000
215.09	-350.000
215.47	0.000
215.84	214.286
216.22	1150.000
216.59	-340.000
216.97	-320.000
217.34	-550.000
217.72	-87.500
218.09	-625.000
218.47	-550.000
218.84	0.000
219.22	440.000
219.59	-82.353
219.97	-95.000
220.34	1350.000
220.72	-166.667
221.09	-100.000
221.47	-633.333
221.84	-120.000
222.22	-300.000
222.59	0.000
222.97	-162.500
223.34	-460.000
223.72	-2100.000
224.09	-525.000
224.46	-725.000
224.84	-140.000
225.21	-300.000
225.59	-625.000
225.96	-425.000
226.34	-7.692
226.71	316.667
227.08	-750.000
227.46	-46.667
227.83	-525.000
228.21	-78.947
228.58	287.500
228.95	1400.000
229.33	-83.333
229.70	-170.000
230.08	0.000
230.45	240.000
230.82	-300.000
231.20	-50.000
231.57	-150.000
231.95	-136.364
232.32	-72.727
232.69	-25.000
233.07	-400.000
233.44	-70.588
233.81	-130.000
234.19	-33.333
234.56	-77.273
234.93	-20.690
235.31	-26.316
235.68	-55.556
236.05	-90.000
236.43	-7.692
236.80	16.000
237.17	-11.111
237.55	-33.333
237.92	-260.000
238.29	-25.806
238.67	-13.636
239.04	-11.111
239.41	-2.381
239.79	-8.696
240.16	-9.259
240.53	-26.087
240.91	-41.176
241.28	-8.197
241.65	2.985
242.02	10.811
242.40	-3.077
242.77	6.667
243.14	1.220
243.51	-21.053
243.89	1.282
244.26	20.792
244.63	16.667
245.00	6.542
245.38	8.772
245.75	0.000
246.12	11.905
246.49	6.977
246.87	14.286
247.24	17.881
247.61	19.737
247.98	14.765
248.36	13.580
248.73	9.202
249.10	18.579
249.47	18.408
249.84	24.084
250.22	15.544
250.59	21.667
250.96	19.091
251.33	17.347
251.70	17.521
252.08	20.000
252.45	19.262
252.82	16.116
253.19	19.531
253.56	20.152
253.94	18.077
254.31	20.833
254.68	24.476
255.05	25.081
255.42	19.388
255.79	19.741
256.16	21.854
256.54	19.868
256.91	22.951
257.28	21.967
257.65	17.834
258.02	18.584
258.39	21.937
258.76	25.076
259.14	21.552
259.51	21.902
259.88	20.963
260.25	21.667
260.62	21.096
260.99	24.863
261.36	21.984
261.73	21.751
262.10	23.077
262.47	21.984
262.85	23.737
263.22	24.416
263.59	20.526
263.96	23.529
264.33	20.972
264.70	23.210
265.07	22.434
265.44	24.036
265.81	18.981
266.18	23.810
266.55	26.562
266.92	19.134
267.29	22.976
267.66	23.725
268.03	20.524
268.40	20.877
268.77	21.640
269.14	21.366
269.51	24.342
269.88	23.975
270.25	22.535
270.62	22.363
270.99	22.828
271.36	21.782
271.73	21.807
272.10	23.447
272.47	21.844
272.84	21.486
273.21	21.844
273.58	22.581
273.95	17.885
274.32	22.624
274.69	22.824
275.06	24.359
275.43	20.148
275.80	23.280
276.17	21.296
276.54	22.388
276.91	18.068
277.28	22.785
277.65	21.185
278.02	25.184
278.39	19.746
278.76	20.914
279.13	21.277
279.50	21.821
279.87	21.467
280.23	19.718
280.60	19.661
280.97	20.724
281.34	22.071
281.71	21.489
282.08	20.598
282.45	22.586
282.82	21.350
283.19	19.225
283.56	21.311
283.92	20.571
284.29	21.485
284.66	20.525
285.03	20.353
285.40	20.556
285.77	21.207
286.14	20.153
286.51	18.113
286.87	21.327
287.24	20.331
287.61	19.432
287.98	20.695
288.35	21.006
288.72	19.379
289.08	20.059
289.45	20.118
289.82	19.127
290.19	20.977
290.56	20.845
290.93	17.404
291.29	18.871
291.66	17.769
292.03	18.046
292.40	18.095
292.77	20.350
293.13	20.298
293.50	17.608
293.87	18.121
294.24	18.800
294.60	19.343
294.97	15.705
295.34	18.950
295.71	19.042
296.08	17.183
296.44	16.299
296.81	18.392
297.18	15.318
297.55	16.509
297.91	16.370
298.28	15.995
298.65	17.004
299.02	15.702
299.38	17.048
299.75	15.654
300.12	16.898
300.48	16.359
300.85	16.085
301.22	15.772
301.59	15.297
301.95	14.915
302.32	17.778
302.69	14.677
303.05	17.193
303.42	15.854
303.79	15.208
304.15	17.245
304.52	15.222
304.89	14.869
305.25	15.424
305.62	15.465
305.99	15.052
306.35	14.919
306.72	16.960
307.09	15.533
307.45	16.149
307.82	16.347
308.19	15.439
308.55	16.104
308.92	14.898
309.29	15.900
309.65	14.425
310.02	13.762
310.38	15.256
310.75	15.631
311.12	16.587
311.48	15.836
311.85	15.385
312.22	14.042
312.58	15.962
312.95	14.818
313.31	14.815
313.68	15.385
314.05	15.628
314.41	15.574
314.78	15.713
315.14	15.245
315.51	14.958
315.87	15.032
316.24	14.795
316.61	16.075
316.97	14.751
317.34	14.286
317.70	16.332
318.07	14.374
318.43	15.221
318.80	16.555
319.16	15.279
319.53	14.225
319.89	14.373
320.26	15.480
320.62	13.209
320.99	15.143
321.35	14.510
321.72	16.000
322.08	14.878
322.45	14.815
322.81	15.162
323.18	15.133
323.54	15.431
323.91	15.658
324.27	14.716
324.64	15.869
325.00	14.428
325.37	14.414
325.73	15.455
326.10	14.761
326.46	15.147
326.83	16.013
327.19	15.197
327.56	14.071
327.92	15.264
328.29	14.758
328.65	14.908
329.01	14.129
329.38	14.575
329.74	14.726
330.11	14.726
330.47	14.490
330.84	13.781
331.20	15.000
331.56	13.085
331.93	15.649
332.29	14.492
332.66	14.784
333.02	14.740
333.38	14.010
333.75	14.562
334.11	14.929
334.48	13.696
334.84	15.378
335.20	14.190
335.57	14.587
335.93	14.959
336.29	13.810
336.66	14.130
337.02	13.880
337.38	13.690
337.75	14.050
338.11	14.802
338.47	13.978
338.84	13.283
339.20	12.974
339.56	13.262
339.93	13.383
340.29	13.607
340.65	14.112
341.02	14.366
341.38	15.117
341.74	14.366
342.11	13.113
342.47	13.503
342.83	13.929
343.20	13.900
343.56	13.793
343.92	13.691
344.28	13.828
344.65	15.194
345.01	13.027
345.37	13.608
345.73	12.549
346.10	13.807
346.46	12.737
346.82	13.483
347.19	13.445
347.55	14.036
347.91	13.670
348.27	13.505
348.63	14.090
349.00	13.572
349.36	13.532
349.72	13.021
350.08	14.710
350.45	13.612
350.81	12.821
351.17	13.910
351.53	13.798
351.89	13.591
352.26	13.507
352.62	13.507
352.98	11.985
353.34	13.144
353.70	12.096
354.07	13.487
354.43	12.528
354.79	12.939
355.15	12.509
355.51	13.304
355.87	13.538
356.24	13.232
356.60	13.452
356.96	13.640
357.32	12.416
357.68	12.738
358.04	12.425
358.40	12.761
358.77	13.523
359.13	11.521
359.49	12.639
359.85	13.778
360.21	13.343
360.57	12.850
360.93	13.258
361.29	13.123
361.66	12.600
362.02	13.222
362.38	13.212
362.74	12.360
363.10	12.792
363.46	13.019
363.82	11.932
364.18	12.949
364.54	13.762
364.90	13.311
365.26	12.276
365.62	13.333
365.98	12.253
366.35	13.289
366.71	12.993
367.07	11.908
367.43	12.147
367.79	13.603
368.15	12.910
368.51	13.261
368.87	12.867
369.23	12.800
369.59	12.842
369.95	12.508
370.31	12.829
370.67	12.380
371.03	12.673
371.39	12.492
371.75	12.861
372.11	11.856
372.47	12.864
372.83	13.285
373.19	12.875
373.55	12.737
373.91	12.611
374.27	12.354
374.63	12.246
374.99	12.268
375.35	13.377
375.71	12.516
376.07	12.653
376.42	12.657
376.78	11.995
377.14	12.414
377.50	13.093
377.86	12.993
378.22	12.395
378.58	12.961
378.94	12.852
379.30	12.068
379.66	12.346
380.02	13.560
380.38	13.076
380.74	11.944
381.09	11.963
381.45	12.557
381.81	12.998
382.17	12.589
382.53	12.865
382.89	11.851
383.25	12.485
383.61	12.095
383.97	11.955
384.32	12.620
384.68	11.833
385.04	11.972
385.40	12.669
385.76	12.368
386.12	11.969
386.48	13.412
386.83	12.396
387.19	11.530
387.55	11.326
387.91	11.872
388.27	12.587
388.62	11.340
388.98	11.675
389.34	12.669
389.70	12.493
390.06	11.545
390.42	12.410
390.77	12.402
391.13	12.559
391.49	12.258
391.85	11.394
392.20	12.693
392.56	12.109
392.92	12.323
393.28	12.548
393.64	12.291
393.99	13.422
394.35	12.266
394.71	12.695
395.07	11.437
395.42	12.336
395.78	12.553
396.14	12.537
396.50	11.817
396.85	12.463
397.21	11.479
397.57	11.131
397.92	12.658
398.28	12.167
398.64	12.071
399.00	11.309
399.35	12.094
399.71	11.793
400.07	11.286
400.42	11.874
400.78	11.863
401.14	12.009
401.49	12.052
401.85	11.802
402.21	11.877
402.57	12.969
402.92	11.879
403.28	11.241
403.63	12.053
403.99	10.808
404.35	12.166
404.70	12.351
405.06	11.576
405.42	11.885
405.77	12.814
406.13	11.939
406.49	11.205
406.84	11.745
407.20	11.347
407.55	11.084
407.91	12.256
408.27	11.896
408.62	12.333
408.98	10.795
409.34	10.264
409.69	11.125
410.05	11.489
410.40	11.659
410.76	12.002
411.11	12.098
411.47	12.469
411.83	12.640
412.18	12.289
412.54	11.559
412.89	11.816
413.25	11.682
413.60	10.569
413.96	12.529
414.31	12.181
414.67	11.807
415.03	11.077
415.38	11.349
415.74	11.790
416.09	12.030
416.45	11.709
416.80	11.506
417.16	10.856
417.51	12.516
417.87	11.772
418.22	11.737
418.58	10.905
418.93	12.049
419.29	12.145
419.64	11.405
420.00	11.751
420.35	12.016
420.71	11.086
421.06	11.271
421.42	11.525
421.77	11.093
422.12	11.469
422.48	12.084
422.83	12.432
423.19	12.202
423.54	12.887
423.90	12.148
424.25	12.213
424.61	11.079
424.96	11.862
425.31	12.208
425.67	11.272
426.02	11.732
426.38	12.227
426.73	11.830
427.09	13.091
427.44	11.742
427.79	11.332
428.15	11.358
428.50	11.685
428.85	12.285
429.21	11.755
429.56	11.550
429.92	11.843
430.27	11.759
430.62	11.724
430.98	12.248
431.33	11.632
431.68	11.590
432.04	12.037
432.39	12.373
432.74	11.872
433.10	12.115
433.45	11.538
433.80	12.339
434.16	11.829
434.51	12.436
434.86	11.998
435.22	12.487
435.57	12.087
435.92	12.354
436.28	11.889
436.63	12.125
436.98	12.292
437.34	12.401
437.69	11.502
438.04	12.004
438.39	11.545
438.75	11.400
439.10	12.844
439.45	12.353
439.81	12.203
440.16	12.332
440.51	12.988
440.86	12.007
441.22	12.433
441.57	12.159
441.92	12.609
442.27	12.828
442.63	12.618
442.98	12.647
443.33	12.415
443.68	12.983
444.03	13.688
444.39	12.714
444.74	13.476
445.09	12.114
445.44	12.381
445.79	12.644
446.15	12.795
446.50	12.610
446.85	13.278
447.20	12.766
447.55	13.285
447.91	12.932
448.26	12.685
448.61	12.752
448.96	13.197
449.31	13.150
449.66	12.854
450.02	12.658
450.37	13.053
450.72	12.594
451.07	12.984
451.42	13.114
451.77	12.896
452.12	13.544
452.47	12.418
452.83	12.387
453.18	12.434
453.53	12.464
453.88	12.369
454.23	12.655
454.58	12.768
454.93	13.107
455.28	13.365
455.63	12.848
455.98	13.017
456.34	12.426
456.69	12.640
457.04	12.352
457.39	12.195
457.74	13.199
458.09	12.191
458.44	12.931
458.79	12.945
459.14	12.900
459.49	11.885
459.84	13.641
460.19	12.826
460.54	12.947
460.89	12.811
461.24	12.299
461.59	12.673
461.94	12.265
462.29	13.382
462.64	13.337
462.99	12.680
463.34	12.784
463.69	13.423
464.04	13.285
464.39	13.229
464.74	13.512
465.09	12.687
465.44	12.876
465.79	13.273
466.14	12.194
466.49	13.474
466.84	12.287
467.19	12.948
467.54	12.573
467.89	12.241
468.24	12.853
468.59	12.565
468.94	13.054
469.29	12.358
469.64	12.778
469.99	13.066
470.34	13.119
470.68	12.167
471.03	12.901
471.38	13.211
471.73	12.744
472.08	12.817
472.43	12.523
472.78	13.350
473.13	12.705
473.48	12.931
473.83	13.755
474.17	13.482
474.52	12.327
474.87	13.787
475.22	13.014
475.57	13.136
475.92	13.539
476.27	13.525
476.61	13.344
476.96	12.774
477.31	13.762
477.66	14.061
478.01	12.862
478.36	13.759
478.70	12.414
479.05	12.883
479.40	13.080
479.75	13.208
480.10	12.838
480.45	13.674
480.79	13.061
481.14	13.235
481.49	13.130
481.84	13.359
482.19	14.194
482.53	13.599
482.88	13.070
483.23	14.317
483.58	13.144
483.92	13.165
484.27	12.997
484.62	12.913
484.97	13.453
485.31	13.059
485.66	12.881
486.01	12.742
486.36	12.858
486.70	13.664
487.05	13.926
487.40	14.302
487.75	14.071
488.09	14.342
488.44	13.933
488.79	14.098
489.13	13.143
489.48	13.165
489.83	12.998
490.17	12.677
490.52	13.095
490.87	13.071
491.22	13.215
491.56	13.353
491.91	13.563
492.26	13.198
492.60	12.505
492.95	13.208
493.30	12.550
493.64	13.447
493.99	13.202
494.34	12.761
494.68	12.805
495.03	12.907
495.37	12.916
495.72	13.469
496.07	13.146
496.41	12.613
496.76	13.094
497.11	12.739
497.45	13.336
497.80	13.816
498.14	12.925
498.49	13.833
498.84	13.163
499.18	12.641
499.53	13.722
499.87	13.275
500.22	12.956
500.56	13.585
500.91	14.050
501.26	13.182
501.60	13.124
501.95	13.504
502.29	12.769
502.64	13.030
502.98	13.719
503.33	12.700
503.67	12.909
504.02	13.047
504.36	13.047
504.71	13.689
505.06	12.415
505.40	12.797
505.75	13.707
506.09	13.674
506.44	13.510
506.78	13.716
507.13	13.785
507.47	13.264
507.82	13.873
508.16	12.859
508.51	13.408
508.85	13.179
509.19	13.595
509.54	13.785
509.88	13.065
510.23	12.919
510.57	14.113
510.92	12.917
511.26	13.131
511.61	13.182
511.95	13.763
512.30	13.836
512.64	12.494
512.98	13.657
513.33	13.710
513.67	13.463
514.02	13.746
514.36	13.657
514.70	13.438
515.05	13.660
515.39	13.648
515.74	14.051
516.08	13.312
516.42	14.338
516.77	13.617
517.11	12.996
517.46	13.733
517.80	13.736
518.14	14.635
518.49	13.774
518.83	13.465
519.17	12.655
519.52	13.941
519.86	12.883
520.20	13.898
520.55	13.910
520.89	13.176
521.23	13.512
521.58	13.446
521.92	13.768
522.26	13.173
522.61	13.310
522.95	12.976
523.29	12.989
523.64	13.789
523.98	13.805
524.32	13.926
524.66	13.261
525.01	13.760
525.35	12.809
525.69	14.037
526.04	13.146
526.38	13.678
526.72	13.379
527.06	13.666
527.41	13.469
527.75	14.014
528.09	13.341
528.43	13.618
528.78	13.642
529.12	13.016
529.46	13.940
529.80	12.815
530.15	14.203
530.49	13.049
530.83	13.991
531.17	13.142
531.51	12.154
531.86	13.522
532.20	13.902
532.54	12.747
532.88	13.818
533.22	13.730
533.57	13.272
533.91	14.366
534.25	13.228
534.59	12.989
534.93	12.960
535.27	13.239
535.62	13.815
535.96	14.120
536.30	12.691
536.64	13.634
536.98	13.961
537.32	13.642
537.66	13.662
538.01	13.233
538.35	12.789
538.69	13.101
539.03	13.734
539.37	12.367
539.71	13.333
540.05	13.549
540.39	12.775
540.73	12.811
541.07	14.224
541.42	12.995
541.76	12.693
542.10	13.571
542.44	12.728
542.78	13.747
543.12	12.574
543.46	12.882
543.80	13.249
544.14	13.704
544.48	13.475
544.82	12.926
545.16	13.357
545.50	12.882
545.84	13.105
546.18	14.630
546.52	12.994
546.86	13.333
547.20	13.931
547.54	13.171
547.88	13.683
548.22	13.860
548.56	13.224
548.90	13.672
549.24	13.252
549.58	13.880
549.92	13.839
550.26	14.110
550.60	13.657
550.94	13.777
551.28	13.663
551.62	12.938
551.96	12.751
552.30	13.639
552.64	14.126
552.98	13.600
553.32	13.312
553.66	13.119
554.00	14.061
554.34	12.741
554.68	13.299
555.02	13.141
555.36	14.201
555.69	12.044
556.03	13.556
556.37	14.143
556.71	13.570
557.05	13.099
557.39	13.006
557.73	13.144
558.07	13.841
558.41	13.355
558.75	13.928
559.08	13.013
559.42	13.032
559.76	13.501
560.10	13.597
560.44	13.325
560.78	14.625
561.12	13.793
561.45	13.747
561.79	13.004
562.13	13.617
562.47	12.577
562.81	13.354
563.15	13.952
563.48	13.611
563.82	12.757
564.16	13.325
564.50	13.111
564.84	13.628
565.17	13.176
565.51	13.003
565.85	12.945
566.19	13.134
566.52	13.751
566.86	13.582
567.20	13.649
567.54	13.330
567.88	14.067
568.21	13.686
568.55	13.669
568.89	13.345
569.23	13.392
569.56	12.974
569.90	13.614
570.24	13.120
570.57	13.117
570.91	13.166
571.25	13.509
571.59	13.582
571.92	13.380
572.26	13.711
572.60	13.432
572.93	13.749
573.27	13.543
573.61	13.632
573.95	13.280
574.28	13.735
574.62	13.188
574.96	13.366
575.29	13.527
575.63	13.514
575.97	13.126
576.30	13.570
576.64	13.290
576.98	13.554
577.31	13.425
577.65	13.785
577.98	13.422
578.32	13.201
578.66	13.532
578.99	13.250
579.33	13.917
579.67	13.531
580.00	13.284
580.34	13.220
580.67	13.350
581.01	13.284
581.35	13.910
581.68	13.363
582.02	13.469
582.35	13.861
582.69	13.873
583.02	13.923
583.36	13.843
583.70	13.770
584.03	13.967
584.37	13.848
584.70	13.325
585.04	13.439
585.37	13.367
585.71	13.355
586.04	13.298
586.38	13.812
586.72	13.387
587.05	13.584
587.39	13.712
587.72	13.708
588.06	14.120
588.39	14.015
588.73	13.624
589.06	14.165
589.40	14.198
589.73	14.171
590.07	13.296
590.40	14.131
590.73	13.998
591.07	14.110
591.40	13.219
591.74	13.235
592.07	13.683
592.41	13.722
592.74	13.490
593.08	13.535
593.41	13.969
593.75	13.764
594.08	14.238
594.41	13.846
594.75	13.982
595.08	13.324
595.42	13.766
595.75	14.110
596.09	13.724
596.42	13.400
596.75	13.547
597.09	13.859
597.42	13.627
597.75	13.838
598.09	13.889
598.42	14.154
598.76	13.336
599.09	13.279
599.42	13.678
599.76	13.140
600.09	14.081
600.42	13.380
600.76	13.705
601.09	13.873
601.42	13.766
601.76	13.966
602.09	13.903
602.42	13.922
602.76	13.173
603.09	13.913
603.42	14.053
603.76	12.932
604.09	14.088
604.42	13.835
604.76	13.508
605.09	13.841
605.42	13.676
605.75	13.462
606.09	13.438
606.42	13.389
606.75	13.531
607.09	13.364
607.42	13.526
607.75	13.482
608.08	14.167
608.42	13.624
608.75	13.640
609.08	13.285
609.41	12.836
609.75	13.795
610.08	13.852
610.41	13.891
610.74	13.613
611.07	13.677
611.41	14.260
611.74	13.580
612.07	13.885
612.40	13.023
612.73	13.985
613.07	13.545
613.40	13.571
613.73	13.433
614.06	14.230
614.39	13.557
614.72	13.392
615.06	13.041
615.39	13.291
615.72	13.602
616.05	13.939
616.38	13.925
616.71	13.689
617.05	12.194
617.38	13.697
617.71	14.309
618.04	13.923
618.37	14.044
618.70	13.348
619.03	13.560
619.36	13.872
619.69	12.300
620.03	14.062
620.36	13.067
620.69	12.893
621.02	14.108
621.35	13.498
621.68	13.304
622.01	13.310
622.34	12.204
622.67	12.096
623.00	11.943
623.33	14.068
623.66	12.711
623.99	13.430
624.32	14.620
624.65	12.484
624.99	13.329
625.32	14.370
625.65	13.958
625.98	12.610
626.31	13.749
626.64	13.407
626.97	12.453
627.30	13.060
627.63	12.453
627.96	13.814
628.29	12.918
628.62	12.007
628.95	13.146
629.28	12.914
629.61	12.205
629.94	12.301
630.26	12.712
630.59	12.781
630.92	11.948
631.25	12.522
631.58	12.806
631.91	12.559
632.24	13.545
632.57	11.480
632.90	11.535
633.23	12.245
633.56	12.041
633.89	11.157
634.22	12.786
634.55	12.526
634.88	11.688
635.20	13.671
635.53	12.203
635.86	11.809
636.19	14.104
636.52	12.342
636.85	12.053
637.18	12.370
637.51	11.720
637.83	13.068
638.16	12.903
638.49	12.441
638.82	12.965
639.15	12.715
639.48	12.702
639.81	12.587
640.13	12.014
640.46	11.152
640.79	10.907
641.12	12.422
641.45	12.422
641.77	13.992
642.10	11.811
642.43	13.564
642.76	12.873
643.09	11.781
643.41	11.485
643.74	11.586
644.07	14.069
644.40	11.598
644.73	13.208
645.05	9.838
645.38	12.086
645.71	9.971
646.04	11.908
646.36	10.219
646.69	11.350
647.02	12.997
647.35	11.908
647.67	10.628
648.00	11.624
648.33	11.562
648.66	10.984
648.98	12.653
649.31	12.179
649.64	11.819
649.96	11.671
650.29	10.431
650.62	11.457
650.94	12.312
651.27	11.527
651.60	11.111
651.92	10.638
652.25	10.709
652.58	11.279
652.90	9.738
653.23	13.380
653.56	11.840
653.88	12.500
654.21	12.254
654.54	11.272
654.86	12.323
655.19	10.540
655.52	12.690
655.84	13.079
656.17	15.464
656.49	22.630
656.82	25.316
657.15	20.243
657.47	15.919
657.80	11.934
658.13	9.414
658.45	12.282
658.78	14.749
659.10	14.450
659.43	13.734
659.75	12.850
660.08	12.045
660.41	12.242
660.73	11.973
661.06	9.692
661.38	9.729
661.71	11.207
662.03	11.993
662.36	12.880
662.68	9.006
663.01	12.389
663.33	11.531
663.66	12.271
663.98	9.808
664.31	11.820
664.63	8.285
664.96	12.341
665.28	9.256
665.61	12.238
665.93	11.786
666.26	12.007
666.58	9.594
666.91	12.897
667.23	12.190
667.56	10.848
667.88	9.600
668.21	9.766
668.53	6.371
668.86	11.002
669.18	9.980
669.50	9.940
669.83	8.400
670.15	10.433
670.48	11.310
670.80	7.266
671.13	8.885
671.45	11.220
671.77	11.676
672.10	10.000
672.42	12.136
672.75	9.831
673.07	10.896
673.39	10.169
673.72	13.591
674.04	12.931
674.37	11.270
674.69	12.875
675.01	10.476
675.34	9.542
675.66	11.610
675.98	13.060
676.31	10.156
676.63	10.076
676.95	12.452
677.28	11.290
677.60	8.661
677.92	10.365
678.25	10.969
678.57	10.676
678.89	11.775
679.22	8.711
679.54	10.769
679.86	9.661
680.18	11.111
680.51	12.736
680.83	11.457
681.15	11.897
681.48	12.090
681.80	13.472
682.12	10.315
682.44	11.853
682.77	10.461
683.09	10.795
683.41	12.597
683.73	11.385
684.06	9.963
684.38	9.660
684.70	10.952
685.02	11.532
685.34	9.151
685.67	9.306
685.99	11.350
686.31	9.884
686.63	10.111
686.96	10.568
687.28	11.726
687.60	8.923
687.92	9.807
688.24	11.018
688.56	8.621
688.89	9.982
689.21	11.742
689.53	7.255
689.85	9.467
690.17	10.556
690.49	9.562
690.82	8.119
691.14	6.478
691.46	10.325
691.78	10.866
692.10	10.642
692.42	9.286
692.74	9.437
693.06	7.778
693.39	10.436
693.71	10.150
694.03	9.851
694.35	10.667
694.67	9.651
694.99	8.298
695.31	8.609
695.63	11.039
695.95	10.145
696.27	8.571
696.59	11.283
696.91	12.162
697.23	11.209
697.56	9.572
697.88	8.333
698.20	10.923
698.52	14.015
698.84	10.811
699.16	10.612
699.48	9.205
699.80	7.447
700.12	9.825
700.44	8.986
700.76	8.551
701.08	9.443
701.40	8.549
701.72	8.209
702.04	8.556
702.36	8.639
702.68	11.247
703.00	8.557
703.32	8.867
703.64	10.269
703.96	9.785
704.28	7.862
704.60	11.899
704.91	8.673
705.23	9.315
705.55	9.471
705.87	5.758
706.19	8.896
706.51	3.614
706.83	8.934
707.15	4.762
707.47	6.776
707.79	8.734
708.11	7.839
708.43	7.957
708.74	6.696
709.06	8.585
709.38	12.676
709.70	9.429
710.02	7.752
710.34	8.245
710.66	7.821
710.98	7.923
711.29	6.868
711.61	10.452
711.93	10.256
712.25	10.000
712.57	8.555
712.89	10.588
713.20	6.509
713.52	8.960
713.84	7.799
714.16	10.263
714.48	9.278
714.80	9.091
715.11	8.924
715.43	7.162
715.75	8.947
716.07	8.564
716.39	10.929
716.70	6.024
717.02	11.475
717.34	6.969
717.66	8.054
717.97	7.192
718.29	4.811
718.61	7.237
718.93	7.443
719.24	5.590
719.56	8.282
719.88	6.306
720.20	6.452
720.51	7.764
720.83	5.625
721.15	5.592
721.46	4.452
721.78	7.667
722.10	2.265
722.42	7.718
722.73	6.452
723.05	8.421
723.37	6.250
723.68	8.961
724.00	7.220
724.32	6.338
724.63	5.944
724.95	9.574
725.27	2.091
725.58	5.300
725.90	7.241
726.22	7.210
726.53	9.091
726.85	7.233
727.16	6.647
727.48	9.174
727.80	5.298
728.11	5.300
728.43	10.101
728.74	10.368
729.06	6.623
729.38	10.714
729.69	9.732
730.01	11.012
730.32	6.364
730.64	5.975
730.96	4.037
731.27	7.821
731.59	7.692
731.90	4.675
732.22	6.510
732.53	8.011
732.85	8.286
733.16	4.692
733.48	6.098
733.80	7.799
734.11	9.117
734.43	10.811
734.74	11.899
735.06	7.286
735.37	11.081
735.69	8.919
736.00	9.605
736.32	9.164
736.63	6.667
736.95	8.621
737.26	6.970
737.58	3.636
737.89	8.824
738.21	5.199
738.52	6.230
738.83	7.850
739.15	3.901
739.46	7.823
739.78	8.282
740.09	6.590
740.41	10.496
740.72	2.333
741.04	6.796
741.35	8.772
741.66	5.882
741.98	5.738
742.29	5.439
742.61	2.193
742.92	8.846
743.23	11.191
743.55	7.752
743.86	0.000
744.18	-2.479
744.49	0.422
744.80	6.584
745.12	2.954
745.43	3.659
745.74	0.862
746.06	5.932
746.37	10.549
746.68	10.163
747.00	7.917
747.31	5.579
747.62	10.000
747.94	2.834
748.25	5.622
748.56	4.490
748.88	4.701
749.19	9.914
749.50	0.866
749.82	5.622
750.13	8.541
750.44	4.000
750.75	5.538
751.07	10.154
751.38	5.363
751.69	8.946
752.01	4.207
752.32	13.725
752.63	10.204
752.94	7.612
753.26	4.833
753.57	5.556
753.88	2.996
754.19	10.611
754.51	5.145
754.82	7.395
755.13	13.770
755.44	4.437
755.75	6.908
756.07	10.448
756.38	6.604
756.69	9.940
757.00	6.648
757.31	10.383
757.63	6.650
757.94	7.512
758.25	10.609
758.56	7.407
758.87	8.409
759.18	9.600
759.50	7.649
759.81	9.524
760.12	6.469
760.43	8.594
760.74	10.591
761.05	8.250
761.36	7.711
761.67	6.345
761.99	8.108
762.30	9.756
762.61	9.241
762.92	2.985
763.23	5.993
763.54	6.475
763.85	6.529
764.16	6.061
764.47	4.577
764.78	6.070
765.10	10.557
765.41	10.256
765.72	9.259
766.03	10.452
766.34	7.524
766.65	3.833
766.96	5.578
767.27	7.373
767.58	4.478
767.89	9.615
768.20	8.920
768.51	3.704
768.82	7.229
769.13	6.061
769.44	2.692
769.75	7.220
770.06	3.846
770.37	7.087
770.68	2.128
770.99	2.429
771.30	7.407
771.61	6.464
771.92	4.444
772.23	8.502
772.54	6.944
772.85	9.217
773.16	9.048
773.47	-1.058
773.78	-4.324
774.09	5.682
774.39	12.000
774.70	6.557
775.01	-1.829
775.32	-0.588
775.63	3.067
775.94	-3.185
776.25	1.935
776.56	7.692
776.87	2.041
777.18	0.000
777.48	0.699
777.79	1.351
778.10	-5.882
778.41	-2.778
778.72	2.759
779.03	3.704
779.34	2.424
779.65	0.000
779.95	8.889
780.26	1.705
780.57	4.516
780.88	5.797
781.19	7.097
781.50	11.765
781.80	5.914
782.11	4.762
782.42	1.515
782.73	-1.198
783.04	3.352
783.34	-0.606
783.65	0.000
783.96	1.863
784.27	0.000
784.57	-1.987
784.88	-2.857
785.19	-1.575
785.50	-4.724
785.81	-2.256
786.11	3.077
786.42	-4.317
786.73	-3.597
787.04	3.759
787.34	-5.738
787.65	-1.600
787.96	1.493
788.26	3.497
788.57	5.594
788.88	1.316
789.19	4.575
789.49	0.685
789.80	7.092
790.11	0.787
790.41	-7.812
790.72	6.780
791.03	-15.534
791.33	1.739
791.64	4.386
791.95	-6.250
792.25	-2.857
792.56	0.000
792.87	1.042
793.17	-0.893
793.48	-8.333
793.79	-15.663
794.09	-2.752
794.40	-7.339
794.70	-0.680
795.01	1.948
795.32	0.685
795.62	-0.704
795.93	-6.061
796.23	4.098
796.54	-1.786
796.85	0.000
797.15	-1.087
797.46	-15.068
797.76	-23.750
798.07	-13.043
798.37	-10.309
798.68	-10.390
798.99	-9.195
799.29	-5.618
799.60	3.191
799.90	-13.253
800.21	-24.615
800.51	-19.403
800.82	-20.588
801.12	-23.288
801.43	-26.471
801.73	-22.034
802.04	-6.061
802.34	-1.667
802.65	-11.864
802.95	-2.985
803.26	-18.644
803.56	-10.959
803.87	-10.000
804.17	-8.219
804.48	-42.105
804.78	-20.833
805.09	-13.793
805.39	-8.108
805.70	-14.085
806.00	-6.098
806.30	-6.024
806.61	-19.178
806.91	-6.731
807.22	-5.556
807.52	-8.046
807.83	-2.778
808.13	0.000
808.43	1.124
808.74	-3.750
809.04	-27.941
809.35	-9.333
809.65	-12.857
809.95	-9.589
810.26	-26.316
810.56	-25.862
810.86	-13.235
811.17	-36.842
811.47	-27.869
811.77	-46.667
812.08	-16.949
812.38	-8.333
812.69	-13.793
812.99	-18.868
813.29	-51.282
813.59	8.000
813.90	-15.789
814.20	-30.909
814.50	12.676
814.81	-7.692
815.11	-1.639
815.41	-14.925
815.72	1.724
816.02	-12.500
816.32	-15.556
816.62	-18.182
816.93	-26.667
817.23	3.704
817.53	-27.660
817.84	-7.143
818.14	-41.176
818.44	-4.082
818.74	-44.444
819.04	-61.538
819.35	-45.714
819.65	-76.923
819.95	-13.208
820.25	-22.222
820.56	-45.238
820.86	-50.000
821.16	-35.897
821.46	-34.884
821.76	-46.000
822.07	-8.929
822.37	-34.783
822.67	-14.894
822.97	-56.757
823.27	-35.000
823.57	-4.082
823.88	-37.778
824.18	-22.500
824.48	-40.000
824.78	-76.000
825.08	-9.091
825.38	-13.333
825.69	-17.021
825.99	-36.111
826.29	-65.714
826.59	-43.590
826.89	-55.814
827.19	-2.000
827.49	-29.412
827.79	-14.583
828.09	-40.541
828.39	-60.000
828.70	-19.512
829.00	-13.953
829.30	-82.143
829.60	-17.647
829.90	-34.783
830.20	-34.286
830.50	-62.069
830.80	-138.889
831.10	-46.154
831.40	-29.412
831.70	-52.381
832.00	-29.032
832.30	-176.471
832.60	-75.000
832.90	-169.231
833.20	-78.947
833.50	-105.000
833.80	-89.474
834.10	-95.238
834.40	-33.333
834.70	-37.500
835.00	-54.286
835.30	-38.235
835.60	-56.667
835.90	-40.000
836.20	-140.909
836.50	-64.000
836.80	-84.848
837.10	-88.889
837.40	-33.333
837.70	-143.750
838.00	-50.000
838.30	-126.087
838.60	-65.517
838.90	-135.714
839.19	-130.435
839.49	-241.667
839.79	-73.913
840.09	-143.750
840.39	-95.000
840.69	-25.806
840.99	-92.857
841.29	-60.000
841.59	-105.263
841.88	-23.077
842.18	-42.308
842.48	-200.000
842.78	-75.000
843.08	-33.333
843.38	-35.484
843.68	-94.444
843.97	-26.471
844.27	-93.750
844.57	-78.947
844.87	-220.000
845.17	-133.333
845.47	-66.667
845.76	-109.524
846.06	-122.222
846.36	-105.882
846.66	-38.462
846.96	-160.000
847.25	-117.647
847.55	-69.565
847.85	-95.000
848.15	-76.471
848.44	-181.818
848.74	-90.476
849.04	-75.000
849.34	-87.500
849.63	0.000
849.93	1200.000
850.23	-126.667
850.53	-53.846
850.82	-218.182
851.12	-4.545
851.42	-127.273
851.71	-7.692
852.01	-95.000
852.31	-100.000
852.61	-105.263
852.90	-208.333
853.20	-27.778
853.50	-277.778
853.79	-100.000
854.09	-131.818
854.39	-166.667
854.68	-19.355
854.98	-65.385
855.28	-66.667
855.57	-32.143
855.87	-40.000
856.17	-63.636
856.46	-29.630
856.76	-127.778
857.05	-126.087
857.35	-37.500
857.65	-107.692
857.94	-57.143
858.24	-7.407
858.53	-56.522
858.83	-58.824
859.13	-100.000
859.42	0.000
859.72	-114.286
860.01	-90.000
860.31	-233.333
860.60	-200.000
860.90	-153.333
861.20	-105.556
861.49	-146.154
861.79	-26.667
862.08	-107.692
862.38	-25.000
862.67	-41.176
862.97	-106.250
863.26	-222.222
863.56	-80.000
863.85	-90.909
864.15	-88.889
864.44	-1033.333
864.74	-100.000
865.03	-150.000
865.33	-230.000
865.62	-45.161
865.92	-50.000
866.21	-47.826
866.51	-71.429
866.80	-480.000
867.10	-150.000
867.39	-175.000
867.69	2800.000
867.98	-185.714
868.27	-47.059
868.57	-2800.000
868.86	-200.000
869.16	-76.190
869.45	-41.667
869.75	-81.818
870.04	-285.714
870.33	-133.333
870.63	-371.429
870.92	-475.000
871.22	-300.000
871.51	-172.727
871.80	-733.333
872.10	-1000.000
>>>>>End Processed Spectral Data<<<<<
