SpectraSuite Data File
++++++++++++++++++++++++++++++++++++
Date: Thu May 14 16:03:20 PDT 2015
User: schluterlab
Dark Spectrum Present: Yes
Reference Spectrum Present: Yes
Number of Sampled Component Spectra: 1
Spectrometers: USB2E3373
Integration Time (usec): 3000 (USB2E3373)
Spectra Averaged: 3 (USB2E3373)
Boxcar Smoothing: 0 (USB2E3373)
Correct for Electrical Dark: No (USB2E3373)
Strobe/Lamp Enabled: No (USB2E3373)
Correct for Detector Non-linearity: No (USB2E3373)
Correct for Stray Light: No (USB2E3373)
Number of Pixels in Processed Spectrum: 2048
>>>>>Begin Processed Spectral Data<<<<<
178.53	0.000
178.91	214.286
179.29	-2500.000
179.67	-1400.000
180.04	200.000
180.42	140.000
180.80	360.000
181.18	-1600.000
181.56	-800.000
181.94	525.000
182.31	-375.000
182.69	466.667
183.07	-750.000
183.45	525.000
183.83	-183.333
184.20	-500.000
184.58	2000.000
184.96	-425.000
185.34	-122.222
185.72	-80.000
186.09	277.778
186.47	1150.000
186.85	500.000
187.23	-166.667
187.61	-1900.000
187.98	260.000
188.36	475.000
188.74	-375.000
189.12	-366.667
189.49	-75.000
189.87	-225.000
190.25	-211.111
190.63	-260.000
191.00	-133.333
191.38	0.000
191.76	-425.000
192.14	-166.667
192.51	750.000
192.89	-233.333
193.27	0.000
193.65	-171.429
194.02	-800.000
194.40	-171.429
194.78	200.000
195.15	0.000
195.53	-81.818
195.91	0.000
196.29	-350.000
196.66	-61.538
197.04	-2000.000
197.42	-357.143
197.79	-700.000
198.17	-137.500
198.55	-185.714
198.92	-66.667
199.30	-137.500
199.68	-90.909
200.05	-71.429
200.43	-1300.000
200.81	242.857
201.18	0.000
201.56	177.778
201.94	0.000
202.31	666.667
202.69	-233.333
203.07	-0.000
203.44	-155.556
203.82	-400.000
204.19	-141.667
204.57	-316.667
204.95	-187.500
205.32	-1400.000
205.70	300.000
206.08	-200.000
206.45	-133.333
206.83	580.000
207.20	-316.667
207.58	-420.000
207.96	-283.333
208.33	-50.000
208.71	175.000
209.08	-100.000
209.46	0.000
209.84	416.667
210.21	1300.000
210.59	1100.000
210.96	266.667
211.34	-150.000
211.71	-225.000
212.09	-3000.000
212.46	0.000
212.84	1250.000
213.22	-520.000
213.59	-525.000
213.97	-160.000
214.34	-433.333
214.72	366.667
215.09	-525.000
215.47	0.000
215.84	171.429
216.22	650.000
216.59	-160.000
216.97	-240.000
217.34	-450.000
217.72	-112.500
218.09	-425.000
218.47	-575.000
218.84	0.000
219.22	540.000
219.59	-76.471
219.97	-20.000
220.34	1050.000
220.72	-166.667
221.09	-7.692
221.47	-433.333
221.84	-110.000
222.22	-271.429
222.59	0.000
222.97	-137.500
223.34	-280.000
223.72	-900.000
224.09	-275.000
224.46	-500.000
224.84	-280.000
225.21	-285.714
225.59	-550.000
225.96	-525.000
226.34	-19.231
226.71	383.333
227.08	-800.000
227.46	-66.667
227.83	-225.000
228.21	-21.053
228.58	212.500
228.95	1600.000
229.33	-75.000
229.70	-120.000
230.08	-10.526
230.45	300.000
230.82	-666.667
231.20	-121.429
231.57	-141.667
231.95	-154.545
232.32	-72.727
232.69	-20.000
233.07	-450.000
233.44	-123.529
233.81	-300.000
234.19	-11.111
234.56	-36.364
234.93	6.897
235.31	-21.053
235.68	-33.333
236.05	-55.000
236.43	-30.769
236.80	0.000
237.17	-7.407
237.55	-33.333
237.92	-130.000
238.29	-41.935
238.67	-27.273
239.04	-16.667
239.41	-21.429
239.79	-32.609
240.16	-22.222
240.53	-8.696
240.91	-41.176
241.28	-22.951
241.65	1.493
242.02	-10.811
242.40	-26.154
242.77	-13.333
243.14	-19.512
243.51	-19.737
243.89	-19.231
244.26	-4.950
244.63	-2.941
245.00	-10.280
245.38	-13.158
245.75	-14.159
246.12	-4.762
246.49	-5.426
246.87	-2.857
247.24	-2.649
247.61	3.289
247.98	0.671
248.36	0.000
248.73	0.000
249.10	-0.546
249.47	5.970
249.84	4.188
250.22	-1.036
250.59	-2.778
250.96	5.000
251.33	-1.531
251.70	5.128
252.08	2.917
252.45	1.230
252.82	0.413
253.19	0.391
253.56	3.802
253.94	-0.769
254.31	5.682
254.68	7.343
255.05	5.863
255.42	4.082
255.79	4.207
256.16	2.649
256.54	1.656
256.91	2.623
257.28	0.656
257.65	1.592
258.02	1.770
258.39	5.128
258.76	5.199
259.14	6.034
259.51	2.017
259.88	3.399
260.25	4.167
260.62	7.123
260.99	4.918
261.36	7.239
261.73	6.101
262.10	4.121
262.47	4.021
262.85	5.051
263.22	3.117
263.59	1.842
263.96	5.371
264.33	1.279
264.70	4.938
265.07	5.251
265.44	7.937
265.81	5.093
266.18	5.442
266.55	5.804
266.92	2.506
267.29	5.252
267.66	4.435
268.03	6.987
268.40	7.724
268.77	4.328
269.14	3.744
269.51	7.018
269.88	8.811
270.25	6.841
270.62	6.329
270.99	6.667
271.36	7.327
271.73	5.501
272.10	6.814
272.47	6.413
272.84	4.418
273.21	4.008
273.58	5.444
273.95	3.846
274.32	4.183
274.69	4.255
275.06	5.311
275.43	4.436
275.80	6.173
276.17	4.630
276.54	4.104
276.91	3.936
277.28	5.063
277.65	6.104
278.02	6.618
278.39	3.623
278.76	4.921
279.13	4.787
279.50	8.076
279.87	6.977
280.23	4.049
280.60	7.288
280.97	4.605
281.34	5.942
281.71	8.291
282.08	4.153
282.45	6.383
282.82	5.651
283.19	4.847
283.56	5.246
283.92	8.108
284.29	8.215
284.66	5.747
285.03	4.327
285.40	6.491
285.77	4.954
286.14	6.718
286.51	6.545
286.87	4.897
287.24	5.572
287.61	5.082
287.98	4.381
288.35	6.509
288.72	4.586
289.08	6.149
289.45	5.917
289.82	3.916
290.19	3.736
290.56	4.648
290.93	5.278
291.29	4.270
291.66	5.234
292.03	4.342
292.40	5.714
292.77	4.582
293.13	4.330
293.50	3.154
293.87	5.369
294.24	6.800
294.60	5.689
294.97	3.221
295.34	4.609
295.71	5.296
296.08	5.685
296.44	4.167
296.81	5.847
297.18	4.110
297.55	4.127
297.91	4.864
298.28	4.502
298.65	5.351
299.02	3.424
299.38	5.606
299.75	5.257
300.12	2.662
300.48	4.493
300.85	4.499
301.22	4.586
301.59	2.169
301.95	4.859
302.32	5.111
302.69	5.257
303.05	4.897
303.42	5.322
303.79	4.583
304.15	5.152
304.52	4.228
304.89	4.293
305.25	4.244
305.62	4.389
305.99	4.330
306.35	3.427
306.72	5.481
307.09	4.264
307.45	4.865
307.82	4.844
308.19	4.238
308.55	5.882
308.92	3.992
309.29	4.598
309.65	4.581
310.02	4.356
310.38	3.642
310.75	5.340
311.12	5.273
311.48	4.301
311.85	3.799
312.22	5.503
312.58	6.009
312.95	4.207
313.31	4.517
313.68	4.670
314.05	6.414
314.41	5.282
314.78	5.540
315.14	4.537
315.51	5.078
315.87	6.661
316.24	6.758
316.61	7.105
316.97	4.434
317.34	4.938
317.70	7.074
318.07	5.996
318.43	7.313
318.80	7.274
319.16	6.180
319.53	5.656
319.89	5.784
320.26	7.829
320.62	6.117
320.99	7.110
321.35	6.470
321.72	7.721
322.08	6.943
322.45	7.317
322.81	7.491
323.18	7.080
323.54	8.190
323.91	8.007
324.27	7.143
324.64	8.144
325.00	7.960
325.37	8.354
325.73	9.421
326.10	8.597
326.46	9.039
326.83	8.807
327.19	9.291
327.56	9.881
327.92	9.284
328.29	8.145
328.65	8.543
329.01	7.953
329.38	9.436
329.74	9.760
330.11	9.846
330.47	8.930
330.84	10.164
331.20	9.500
331.56	9.532
331.93	9.540
332.29	9.237
332.66	9.884
333.02	9.296
333.38	9.144
333.75	8.586
334.11	10.008
334.48	9.488
334.84	10.025
335.20	9.236
335.57	10.877
335.93	9.752
336.29	8.403
336.66	9.336
337.02	10.702
337.38	9.609
337.75	9.256
338.11	9.756
338.47	9.760
338.84	10.491
339.20	9.773
339.56	8.979
339.93	9.113
340.29	10.548
340.65	10.543
341.02	11.173
341.38	9.701
341.74	10.008
342.11	9.413
342.47	9.531
342.83	10.789
343.20	9.648
343.56	10.345
343.92	10.248
344.28	10.469
344.65	9.922
345.01	10.530
345.37	9.487
345.73	8.730
346.10	10.764
346.46	10.522
346.82	11.161
347.19	9.626
347.55	10.319
347.91	10.178
348.27	10.319
348.63	10.739
349.00	10.738
349.36	11.078
349.72	10.417
350.08	10.475
350.45	9.962
350.81	9.879
351.17	11.128
351.53	10.538
351.89	9.795
352.26	10.224
352.62	10.373
352.98	9.771
353.34	11.277
353.70	10.169
354.07	9.762
354.43	10.782
354.79	9.873
355.15	11.626
355.51	10.746
355.87	10.247
356.24	10.798
356.60	10.421
356.96	10.082
357.32	9.963
357.68	10.542
358.04	10.554
358.40	10.522
358.77	10.746
359.13	10.414
359.49	9.740
359.85	11.530
360.21	11.263
360.57	10.625
360.93	11.354
361.29	10.947
361.66	10.572
362.02	12.317
362.38	12.017
362.74	11.662
363.10	11.898
363.46	10.873
363.82	10.795
364.18	11.612
364.54	11.757
364.90	11.706
365.26	11.517
365.62	11.867
365.98	11.572
366.35	12.550
366.71	12.585
367.07	11.840
367.43	12.935
367.79	12.674
368.15	11.906
368.51	12.179
368.87	12.998
369.23	11.933
369.59	12.295
369.95	12.373
370.31	13.504
370.67	12.724
371.03	13.504
371.39	11.887
371.75	12.999
372.11	13.144
372.47	12.796
372.83	13.416
373.19	12.742
373.55	13.008
373.91	12.952
374.27	13.195
374.63	14.141
374.99	12.798
375.35	13.571
375.71	13.355
376.07	13.493
376.42	13.791
376.78	14.605
377.14	14.722
377.50	14.042
377.86	14.163
378.22	14.491
378.58	14.388
378.94	14.554
379.30	13.884
379.66	14.697
380.02	14.310
380.38	15.265
380.74	15.099
381.09	14.576
381.45	14.830
381.81	14.871
382.17	14.727
382.53	13.918
382.89	15.406
383.25	14.596
383.61	14.525
383.97	14.547
384.32	15.670
384.68	14.849
385.04	15.500
385.40	15.203
385.76	16.237
386.12	15.500
386.48	15.353
386.83	15.614
387.19	15.469
387.55	15.258
387.91	16.438
388.27	15.704
388.62	15.464
388.98	15.454
389.34	16.146
389.70	15.979
390.06	15.512
390.42	14.940
390.77	16.075
391.13	16.080
391.49	16.304
391.85	15.212
392.20	15.599
392.56	16.952
392.92	16.630
393.28	16.086
393.64	16.034
393.99	16.734
394.35	16.881
394.71	17.425
395.07	15.988
395.42	16.505
395.78	17.550
396.14	16.696
396.50	15.380
396.85	16.756
397.21	16.036
397.57	16.372
397.92	16.667
398.28	15.970
398.64	16.018
399.00	15.864
399.35	16.387
399.71	16.685
400.07	16.508
400.42	16.182
400.78	15.856
401.14	16.676
401.49	16.600
401.85	16.919
402.21	17.439
402.57	16.901
402.92	16.962
403.28	15.691
403.63	15.453
403.99	16.271
404.35	16.316
404.70	16.714
405.06	16.522
405.42	16.101
405.77	17.285
406.13	17.072
406.49	16.779
406.84	16.898
407.20	16.993
407.55	16.475
407.91	16.091
408.27	16.019
408.62	16.289
408.98	16.077
409.34	15.953
409.69	17.058
410.05	16.589
410.40	17.111
410.76	16.321
411.11	16.891
411.47	16.646
411.83	17.284
412.18	16.386
412.54	16.183
412.89	16.764
413.25	16.986
413.60	17.231
413.96	17.016
414.31	16.657
414.67	16.160
415.03	15.631
415.38	17.150
415.74	16.738
416.09	16.286
416.45	16.406
416.80	15.422
417.16	16.092
417.51	16.625
417.87	16.677
418.22	16.467
418.58	15.304
418.93	17.229
419.29	15.721
419.64	17.347
420.00	16.380
420.35	16.451
420.71	15.853
421.06	15.526
421.42	16.227
421.77	16.317
422.12	16.913
422.48	16.385
422.83	17.032
423.19	16.605
423.54	16.593
423.90	16.289
424.25	16.853
424.61	16.131
424.96	16.310
425.31	16.826
425.67	16.532
426.02	16.879
426.38	15.844
426.73	16.239
427.09	15.975
427.44	16.002
427.79	16.363
428.15	16.039
428.50	16.461
428.85	15.729
429.21	16.649
429.56	15.400
429.92	16.314
430.27	15.807
430.62	16.610
430.98	16.134
431.33	16.178
431.68	15.661
432.04	15.592
432.39	16.015
432.74	16.210
433.10	16.712
433.45	16.054
433.80	16.524
434.16	16.064
434.51	16.341
434.86	17.427
435.22	16.259
435.57	16.333
435.92	16.361
436.28	16.553
436.63	17.422
436.98	16.640
437.34	16.291
437.69	16.125
438.04	15.918
438.39	15.968
438.75	16.823
439.10	16.808
439.45	16.769
439.81	15.706
440.16	16.944
440.51	16.165
440.86	15.453
441.22	16.399
441.57	16.143
441.92	16.780
442.27	16.970
442.63	16.642
442.98	17.343
443.33	16.675
443.68	17.146
444.03	17.121
444.39	16.736
444.74	16.692
445.09	17.081
445.44	16.596
445.79	17.241
446.15	16.752
446.50	16.434
446.85	16.877
447.20	17.021
447.55	17.259
447.91	16.440
448.26	15.803
448.61	16.525
448.96	17.060
449.31	16.066
449.66	16.830
450.02	16.930
450.37	16.569
450.72	16.308
451.07	16.629
451.42	16.060
451.77	16.064
452.12	17.043
452.47	15.805
452.83	16.779
453.18	16.054
453.53	16.312
453.88	15.792
454.23	16.102
454.58	16.541
454.93	16.080
455.28	17.520
455.63	15.804
455.98	17.095
456.34	16.372
456.69	15.991
457.04	16.194
457.39	15.632
457.74	16.667
458.09	15.815
458.44	16.595
458.79	16.245
459.14	16.518
459.49	16.355
459.84	15.897
460.19	15.380
460.54	15.900
460.89	16.675
461.24	16.092
461.59	16.325
461.94	14.946
462.29	16.181
462.64	15.691
462.99	16.635
463.34	16.937
463.69	15.826
464.04	16.342
464.39	16.200
464.74	16.021
465.09	16.205
465.44	15.290
465.79	16.129
466.14	15.946
466.49	15.842
466.84	16.088
467.19	16.590
467.54	15.394
467.89	15.000
468.24	16.510
468.59	15.287
468.94	15.618
469.29	15.777
469.64	15.067
469.99	15.615
470.34	15.718
470.68	16.678
471.03	15.848
471.38	15.566
471.73	15.865
472.08	16.244
472.43	16.075
472.78	16.184
473.13	15.234
473.48	15.770
473.83	16.715
474.17	16.120
474.52	16.236
474.87	16.556
475.22	17.070
475.57	15.576
475.92	15.779
476.27	16.081
476.61	15.680
476.96	15.224
477.31	16.485
477.66	16.737
478.01	15.913
478.36	15.803
478.70	15.911
479.05	16.360
479.40	15.696
479.75	16.138
480.10	15.585
480.45	15.770
480.79	15.692
481.14	15.579
481.49	15.675
481.84	15.883
482.19	15.054
482.53	15.654
482.88	15.950
483.23	15.829
483.58	15.328
483.92	15.381
484.27	15.834
484.62	15.305
484.97	15.902
485.31	15.241
485.66	14.772
486.01	14.054
486.36	14.327
486.70	15.286
487.05	15.848
487.40	15.440
487.75	15.776
488.09	15.216
488.44	15.074
488.79	15.143
489.13	15.387
489.48	14.524
489.83	15.292
490.17	15.067
490.52	15.271
490.87	15.355
491.22	14.948
491.56	16.041
491.91	16.223
492.26	15.448
492.60	15.348
492.95	15.753
493.30	15.509
493.64	14.936
493.99	15.351
494.34	14.983
494.68	15.075
495.03	15.595
495.37	15.091
495.72	15.102
496.07	15.381
496.41	14.457
496.76	15.304
497.11	14.989
497.45	15.796
497.80	15.771
498.14	15.193
498.49	15.625
498.84	15.265
499.18	15.025
499.53	15.830
499.87	15.077
500.22	14.381
500.56	14.980
500.91	15.469
501.26	15.136
501.60	14.450
501.95	14.373
502.29	15.094
502.64	15.216
502.98	15.099
503.33	14.471
503.67	14.915
504.02	14.755
504.36	15.371
504.71	14.837
505.06	14.734
505.40	15.037
505.75	14.936
506.09	15.976
506.44	14.717
506.78	15.459
507.13	15.629
507.47	14.969
507.82	15.341
508.16	14.962
508.51	14.955
508.85	14.643
509.19	14.732
509.54	15.802
509.88	15.056
510.23	15.542
510.57	15.756
510.92	14.852
511.26	15.007
511.61	14.437
511.95	15.617
512.30	15.411
512.64	14.743
512.98	15.158
513.33	15.222
513.67	15.961
514.02	15.841
514.36	16.266
514.70	14.896
515.05	16.215
515.39	16.693
515.74	16.490
516.08	15.795
516.42	16.170
516.77	16.088
517.11	15.936
517.46	16.278
517.80	16.408
518.14	16.540
518.49	15.184
518.83	15.381
519.17	16.370
519.52	16.719
519.86	15.787
520.20	15.974
520.55	15.772
520.89	15.709
521.23	15.299
521.58	15.311
521.92	15.751
522.26	16.208
522.61	16.435
522.95	15.917
523.29	16.149
523.64	15.751
523.98	16.258
524.32	16.905
524.66	15.822
525.01	15.685
525.35	15.279
525.69	16.009
526.04	15.959
526.38	17.011
526.72	15.398
527.06	16.598
527.41	16.851
527.75	16.033
528.09	16.647
528.43	16.519
528.78	15.838
529.12	15.654
529.46	16.414
529.80	16.247
530.15	16.406
530.49	15.658
530.83	16.175
531.17	16.368
531.51	15.463
531.86	16.767
532.20	15.732
532.54	15.978
532.88	16.364
533.22	16.559
533.57	16.388
533.91	16.611
534.25	16.393
534.59	16.207
534.93	15.337
535.27	16.451
535.62	16.771
535.96	15.689
536.30	15.100
536.64	16.336
536.98	16.544
537.32	15.247
537.66	16.656
538.01	15.287
538.35	15.347
538.69	15.204
539.03	16.554
539.37	16.490
539.71	15.856
540.05	15.647
540.39	15.526
540.73	15.726
541.07	15.144
541.42	15.121
541.76	15.125
542.10	15.923
542.44	16.017
542.78	15.633
543.12	14.899
543.46	14.774
543.80	14.508
544.14	16.098
544.48	15.485
544.82	15.619
545.16	15.623
545.50	14.979
545.84	15.003
546.18	15.247
546.52	14.777
546.86	14.591
547.20	14.377
547.54	14.607
547.88	14.949
548.22	14.620
548.56	14.570
548.90	14.687
549.24	14.833
549.58	15.394
549.92	15.306
550.26	15.987
550.60	15.444
550.94	15.265
551.28	14.983
551.62	15.094
551.96	15.469
552.30	15.934
552.64	14.126
552.98	14.785
553.32	16.141
553.66	15.048
554.00	15.952
554.34	16.216
554.68	14.655
555.02	15.637
555.36	14.990
555.69	13.837
556.03	15.385
556.37	14.956
556.71	14.965
557.05	15.335
557.39	14.665
557.73	15.192
558.07	15.033
558.41	14.551
558.75	14.807
559.08	14.544
559.42	14.335
559.76	14.858
560.10	13.999
560.44	14.776
560.78	14.625
561.12	14.347
561.45	14.720
561.79	14.103
562.13	14.048
562.47	14.242
562.81	13.797
563.15	13.889
563.48	14.978
563.82	14.148
564.16	13.810
564.50	14.124
564.84	13.864
565.17	14.235
565.51	14.672
565.85	14.014
566.19	13.422
566.52	14.921
566.86	13.922
567.20	13.540
567.54	13.436
567.88	13.914
568.21	14.377
568.55	13.621
568.89	13.754
569.23	13.646
569.56	13.013
569.90	13.293
570.24	12.782
570.57	12.412
570.91	12.645
571.25	12.815
571.59	12.636
571.92	12.047
572.26	12.652
572.60	12.886
572.93	12.608
573.27	12.644
573.61	12.520
573.95	12.042
574.28	12.450
574.62	12.301
574.96	11.866
575.29	12.029
575.63	12.613
575.97	12.168
576.30	12.361
576.64	12.264
576.98	11.982
577.31	12.330
577.65	12.051
577.98	11.822
578.32	11.546
578.66	11.421
578.99	12.083
579.33	12.028
579.67	12.307
580.00	11.935
580.34	12.129
580.67	11.562
581.01	11.770
581.35	11.728
581.68	11.819
582.02	11.401
582.35	11.822
582.69	11.666
583.02	11.811
583.36	11.871
583.70	12.134
584.03	11.759
584.37	11.824
584.70	11.516
585.04	11.672
585.37	11.821
585.71	11.305
586.04	11.801
586.38	11.676
586.72	11.156
587.05	11.358
587.39	11.668
587.72	11.483
588.06	12.016
588.39	11.626
588.73	11.905
589.06	11.287
589.40	11.862
589.73	12.082
590.07	12.036
590.40	12.542
590.73	11.665
591.07	12.323
591.40	11.470
591.74	11.725
592.07	12.708
592.41	11.632
592.74	11.928
593.08	11.720
593.41	11.636
593.75	11.437
594.08	11.572
594.41	11.506
594.75	11.857
595.08	11.575
595.42	11.461
595.75	11.624
596.09	11.759
596.42	11.788
596.75	11.733
597.09	12.768
597.42	11.641
597.75	11.329
598.09	11.984
598.42	12.224
598.76	11.464
599.09	11.819
599.42	11.700
599.76	11.456
600.09	11.545
600.42	11.345
600.76	11.790
601.09	11.218
601.42	11.603
601.76	11.207
602.09	11.794
602.42	10.869
602.76	11.624
603.09	11.564
603.42	11.380
603.76	10.994
604.09	12.030
604.42	11.376
604.76	11.834
605.09	12.046
605.42	11.443
605.75	11.615
606.09	11.683
606.42	11.054
606.75	11.319
607.09	11.751
607.42	11.599
607.75	11.801
608.08	11.563
608.42	11.245
608.75	11.940
609.08	11.375
609.41	10.851
609.75	11.339
610.08	11.829
610.41	11.130
610.74	11.429
611.07	10.835
611.41	11.300
611.74	11.270
612.07	11.828
612.40	11.169
612.73	12.372
613.07	11.491
613.40	11.550
613.73	11.170
614.06	10.942
614.39	11.419
614.72	11.402
615.06	11.165
615.39	11.358
615.72	11.943
616.05	11.899
616.38	11.049
616.71	11.651
617.05	10.809
617.38	12.253
617.71	12.311
618.04	12.358
618.37	11.803
618.70	11.652
619.03	11.828
619.36	11.467
619.69	12.236
620.03	11.362
620.36	11.043
620.69	12.091
621.02	12.073
621.35	12.337
621.68	13.160
622.01	11.103
622.34	11.646
622.67	11.271
623.00	11.269
623.33	12.674
623.66	11.738
623.99	11.455
624.32	12.671
624.65	11.390
624.99	12.354
625.32	12.541
625.65	11.868
625.98	10.915
626.31	11.906
626.64	13.480
626.97	11.253
627.30	10.402
627.63	10.503
627.96	12.462
628.29	12.451
628.62	12.594
628.95	12.007
629.28	11.640
629.61	12.037
629.94	12.385
630.26	11.441
630.59	12.003
630.92	12.208
631.25	11.807
631.58	12.524
631.91	12.559
632.24	12.680
632.57	11.765
632.90	11.234
633.23	12.653
633.56	11.837
633.89	12.087
634.22	12.786
634.55	12.317
634.88	11.580
635.20	13.455
635.53	12.655
635.86	12.243
636.19	13.892
636.52	11.814
636.85	13.075
637.18	12.474
637.51	12.258
637.83	11.960
638.16	13.479
638.49	11.854
638.82	12.852
639.15	11.455
639.48	13.279
639.81	11.663
640.13	13.781
640.46	11.758
640.79	11.887
641.12	12.919
641.45	11.418
641.77	13.222
642.10	11.417
642.43	13.963
642.76	12.737
643.09	13.836
643.41	12.185
643.74	11.862
644.07	14.621
644.40	12.871
644.73	10.015
645.05	12.482
645.38	14.820
645.71	12.463
646.04	12.912
646.36	10.803
646.69	12.883
647.02	12.844
647.35	14.809
647.67	13.527
648.00	13.217
648.33	14.865
648.66	11.555
648.98	12.245
649.31	12.449
649.64	13.413
649.96	12.467
650.29	11.127
650.62	13.861
650.94	12.162
651.27	12.126
651.60	11.111
651.92	10.790
652.25	13.459
652.58	12.930
652.90	11.337
653.23	12.113
653.56	11.127
653.88	14.466
654.21	11.268
654.54	11.705
654.86	10.623
655.19	11.292
655.52	11.093
655.84	9.497
656.17	10.959
656.49	15.389
656.82	17.010
657.15	13.368
657.47	10.381
657.80	7.837
658.13	6.098
658.45	7.893
658.78	9.631
659.10	9.625
659.43	9.515
659.75	8.999
660.08	9.188
660.41	9.843
660.73	10.490
661.06	11.013
661.38	11.483
661.71	10.517
662.03	11.287
662.36	12.701
662.68	13.884
663.01	10.442
663.33	13.611
663.66	12.454
663.98	12.692
664.31	12.758
664.63	12.331
664.96	15.064
665.28	11.434
665.61	14.510
665.93	8.929
666.26	13.620
666.58	9.225
666.91	13.271
667.23	13.333
667.56	11.440
667.88	13.200
668.21	10.938
668.53	9.266
668.86	11.002
669.18	10.183
669.50	11.928
669.83	12.600
670.15	10.630
670.48	13.690
670.80	12.428
671.13	11.153
671.45	10.827
671.77	12.994
672.10	11.000
672.42	11.489
672.75	11.214
673.07	10.000
673.39	10.940
673.72	12.584
674.04	12.414
674.37	10.733
674.69	12.698
675.01	11.619
675.34	11.450
675.66	10.487
675.98	12.687
676.31	12.695
676.63	13.688
676.95	13.985
677.28	11.492
677.60	10.630
677.92	12.284
678.25	12.249
678.57	9.786
678.89	12.969
679.22	10.627
679.54	10.940
679.86	10.169
680.18	10.448
680.51	12.264
680.83	10.147
681.15	10.172
681.48	11.917
681.80	11.399
682.12	10.490
682.44	10.017
682.77	12.057
683.09	11.174
683.41	14.922
683.73	9.867
684.06	9.594
684.38	11.628
684.70	10.233
685.02	11.876
685.34	8.985
685.67	10.252
685.99	10.583
686.31	10.901
686.63	9.321
686.96	9.621
687.28	9.121
687.60	9.091
687.92	9.164
688.24	11.853
688.56	10.690
688.89	12.886
689.21	10.763
689.53	9.216
689.85	10.454
690.17	8.704
690.49	12.351
690.82	10.297
691.14	12.146
691.46	9.751
691.78	9.945
692.10	11.193
692.42	10.179
692.74	11.252
693.06	8.519
693.39	10.816
693.71	9.211
694.03	9.108
694.35	10.476
694.67	10.883
694.99	11.915
695.31	9.272
695.63	9.740
695.95	11.801
696.27	12.088
696.59	13.496
696.91	12.162
697.23	12.088
697.56	7.332
697.88	9.091
698.20	7.533
698.52	10.795
698.84	9.148
699.16	10.408
699.48	9.833
699.80	10.000
700.12	10.044
700.44	10.138
700.76	11.639
701.08	11.864
701.40	10.363
701.72	12.189
702.04	9.091
702.36	9.948
702.68	8.802
703.00	9.780
703.32	9.852
703.64	11.002
703.96	9.547
704.28	10.319
704.60	11.392
704.91	10.459
705.23	12.603
705.55	10.306
705.87	10.303
706.19	11.350
706.51	6.627
706.83	8.069
707.15	7.672
707.47	8.411
707.79	7.642
708.11	7.839
708.43	7.742
708.74	7.812
709.06	7.889
709.38	11.737
709.70	12.655
710.02	9.561
710.34	7.713
710.66	6.425
710.98	7.377
711.29	2.747
711.61	7.910
711.93	7.692
712.25	12.703
712.57	11.504
712.89	10.882
713.20	5.917
713.52	12.139
713.84	10.864
714.16	14.211
714.48	10.825
714.80	10.390
715.11	8.661
715.43	7.162
715.75	9.211
716.07	9.669
716.39	10.383
716.70	7.229
717.02	11.475
717.34	8.711
717.66	10.067
717.97	6.849
718.29	8.247
718.61	8.224
718.93	8.091
719.24	11.801
719.56	10.429
719.88	10.210
720.20	7.742
720.51	10.248
720.83	4.688
721.15	4.934
721.46	4.795
721.78	9.667
722.10	5.825
722.42	8.054
722.73	9.355
723.05	9.825
723.37	13.542
723.68	10.753
724.00	8.303
724.32	6.690
724.63	6.993
724.95	9.574
725.27	7.666
725.58	9.187
725.90	7.931
726.22	7.837
726.53	9.091
726.85	8.176
727.16	7.251
727.48	10.092
727.80	13.245
728.11	8.127
728.43	11.785
728.74	9.699
729.06	6.291
729.38	8.766
729.69	4.698
730.01	9.821
730.32	6.061
730.64	8.176
730.96	4.969
731.27	9.218
731.59	7.967
731.90	5.714
732.22	8.594
732.53	4.420
732.85	9.143
733.16	5.279
733.48	5.793
733.80	6.128
734.11	9.117
734.43	7.568
734.74	11.392
735.06	7.538
735.37	6.757
735.69	9.730
736.00	8.475
736.32	8.895
736.63	12.500
736.95	7.184
737.26	8.485
737.58	4.848
737.89	8.235
738.21	4.587
738.52	5.574
738.83	12.628
739.15	6.028
739.46	10.204
739.78	9.202
740.09	7.736
740.41	6.706
740.72	6.000
741.04	9.061
741.35	6.316
741.66	4.314
741.98	6.557
742.29	6.276
742.61	7.456
742.92	6.154
743.23	7.942
743.55	9.690
743.86	6.400
744.18	2.479
744.49	8.861
744.80	6.584
745.12	5.907
745.43	9.350
745.74	4.741
746.06	5.932
746.37	8.861
746.68	9.350
747.00	7.500
747.31	6.867
747.62	12.692
747.94	9.717
748.25	8.434
748.56	3.673
748.88	5.128
749.19	14.655
749.50	3.463
749.82	10.442
750.13	13.523
750.44	5.333
750.75	4.615
751.07	6.462
751.38	7.571
751.69	9.265
752.01	6.796
752.32	6.536
752.63	5.102
752.94	3.806
753.26	1.115
753.57	1.481
753.88	4.869
754.19	9.325
754.51	8.682
754.82	6.752
755.13	9.836
755.44	7.850
755.75	8.553
756.07	9.851
756.38	6.289
756.69	10.843
757.00	4.709
757.31	8.743
757.63	7.673
757.94	6.573
758.25	7.449
758.56	8.497
758.87	7.045
759.18	7.467
759.50	7.649
759.81	9.524
760.12	7.817
760.43	7.552
760.74	8.867
761.05	8.000
761.36	6.024
761.67	7.614
761.99	6.216
762.30	5.183
762.61	6.601
762.92	5.970
763.23	9.738
763.54	7.914
763.85	8.591
764.16	8.081
764.47	7.394
764.78	6.709
765.10	5.279
765.41	10.000
765.72	7.143
766.03	7.627
766.34	7.524
766.65	4.530
766.96	5.179
767.27	4.147
767.58	0.498
767.89	4.808
768.20	8.920
768.51	6.481
768.82	8.032
769.13	7.955
769.44	0.769
769.75	9.025
770.06	4.615
770.37	5.906
770.68	5.106
770.99	3.239
771.30	7.778
771.61	4.943
771.92	1.481
772.23	4.858
772.54	-2.315
772.85	11.060
773.16	8.095
773.47	-1.587
773.78	-3.784
774.09	6.818
774.39	12.500
774.70	11.475
775.01	0.000
775.32	0.000
775.63	4.294
775.94	-5.096
776.25	9.032
776.56	11.538
776.87	7.483
777.18	0.000
777.48	4.196
777.79	6.081
778.10	-2.941
778.41	2.083
778.72	6.897
779.03	8.642
779.34	3.030
779.65	3.109
779.95	0.000
780.26	1.705
780.57	3.226
780.88	7.246
781.19	9.677
781.50	7.059
781.80	3.763
782.11	9.524
782.42	0.000
782.73	5.389
783.04	4.469
783.34	0.000
783.65	-6.536
783.96	0.621
784.27	5.357
784.57	5.298
784.88	0.000
785.19	5.512
785.50	6.299
785.81	-3.008
786.11	0.769
786.42	-0.719
786.73	-5.036
787.04	9.774
787.34	-0.820
787.65	0.800
787.96	2.985
788.26	2.797
788.57	8.392
788.88	2.632
789.19	6.536
789.49	-0.685
789.80	2.128
790.11	5.512
790.41	-0.781
790.72	3.390
791.03	-10.680
791.33	-1.739
791.64	2.632
791.95	6.250
792.25	6.667
792.56	10.714
792.87	2.083
793.17	4.464
793.48	-8.333
793.79	-9.639
794.09	2.752
794.40	-10.092
794.70	1.361
795.01	-2.597
795.32	0.000
795.62	2.113
795.93	4.545
796.23	2.459
796.54	-9.821
796.85	-11.702
797.15	-6.522
797.46	0.000
797.76	-10.000
798.07	0.000
798.37	-2.062
798.68	0.000
798.99	-3.448
799.29	-6.742
799.60	-1.064
799.90	-13.253
800.21	-9.231
800.51	-1.493
800.82	-8.824
801.12	-23.288
801.43	-16.176
801.73	-16.949
802.04	-10.606
802.34	-21.667
802.65	-13.559
802.95	-4.478
803.26	-11.864
803.56	-13.699
803.87	2.857
804.17	1.370
804.48	-26.316
804.78	-2.778
805.09	-22.414
805.39	-9.459
805.70	-1.408
806.00	-4.878
806.30	-15.663
806.61	-16.438
806.91	-2.885
807.22	6.667
807.52	-13.793
807.83	-9.722
808.13	-2.410
808.43	5.618
808.74	-1.250
809.04	-20.588
809.35	8.000
809.65	-5.714
809.95	-12.329
810.26	-35.088
810.56	-41.379
810.86	-5.882
811.17	-22.807
811.47	-27.869
811.77	-42.222
812.08	-25.424
812.38	-6.667
812.69	-8.621
812.99	-18.868
813.29	-53.846
813.59	-6.000
813.90	-10.526
814.20	-18.182
814.50	11.268
814.81	-5.128
815.11	-16.393
815.41	-26.866
815.72	-10.345
816.02	-17.857
816.32	6.667
816.62	-11.364
816.93	-22.222
817.23	-12.963
817.53	-25.532
817.84	-2.381
818.14	-23.529
818.44	-16.327
818.74	-31.111
819.04	-28.205
819.35	-45.714
819.65	-57.692
819.95	-26.415
820.25	-15.556
820.56	-38.095
820.86	-40.625
821.16	-48.718
821.46	-44.186
821.76	-30.000
822.07	-30.357
822.37	-36.957
822.67	-6.383
822.97	-40.541
823.27	-47.500
823.57	10.204
823.88	2.222
824.18	-5.000
824.48	-23.333
824.78	-48.000
825.08	-33.333
825.38	-13.333
825.69	-8.511
825.99	-25.000
826.29	-62.857
826.59	-15.385
826.89	-34.884
827.19	-24.000
827.49	-35.294
827.79	-22.917
828.09	-10.811
828.39	-46.667
828.70	-31.707
829.00	-11.628
829.30	-39.286
829.60	-5.882
829.90	-8.696
830.20	-17.143
830.50	-55.172
830.80	-83.333
831.10	-65.385
831.40	-14.706
831.70	-57.143
832.00	-16.129
832.30	-176.471
832.60	-58.333
832.90	-161.538
833.20	-63.158
833.50	-40.000
833.80	-68.421
834.10	-147.619
834.40	-38.889
834.70	-15.625
835.00	-45.714
835.30	-35.294
835.60	-30.000
835.90	-48.000
836.20	-109.091
836.50	-16.000
836.80	-30.303
837.10	-25.926
837.40	-44.444
837.70	-125.000
838.00	-14.286
838.30	-65.217
838.60	-13.793
838.90	-114.286
839.19	-126.087
839.49	-166.667
839.79	-73.913
840.09	-125.000
840.39	-95.000
840.69	-19.355
840.99	-39.286
841.29	-146.667
841.59	-63.158
841.88	-15.385
842.18	-23.077
842.48	-150.000
842.78	-60.000
843.08	-50.000
843.38	-6.452
843.68	-105.556
843.97	-23.529
844.27	-143.750
844.57	-78.947
844.87	-180.000
845.17	-160.000
845.47	-71.429
845.76	-71.429
846.06	-244.444
846.36	-105.882
846.66	0.000
846.96	-86.667
847.25	-76.471
847.55	-47.826
847.85	-120.000
848.15	-23.529
848.44	-136.364
848.74	-80.952
849.04	-62.500
849.34	-81.250
849.63	-39.130
849.93	1050.000
850.23	-60.000
850.53	-7.692
850.82	-127.273
851.12	-63.636
851.42	-190.909
851.71	-100.000
852.01	-100.000
852.31	-92.308
852.61	-105.263
852.90	-83.333
853.20	-38.889
853.50	-300.000
853.79	-66.667
854.09	-31.818
854.39	-183.333
854.68	-29.032
854.98	-65.385
855.28	-44.444
855.57	-32.143
855.87	-80.000
856.17	-100.000
856.46	-59.259
856.76	-83.333
857.05	-60.870
857.35	-79.167
857.65	-146.154
857.94	-52.381
858.24	-33.333
858.53	-56.522
858.83	-41.176
859.13	-88.235
859.42	-76.471
859.72	-57.143
860.01	-80.000
860.31	-144.444
860.60	-110.000
860.90	-93.333
861.20	-61.111
861.49	-76.923
861.79	-30.000
862.08	-115.385
862.38	-3.125
862.67	-76.471
862.97	-106.250
863.26	-166.667
863.56	-70.000
863.85	-118.182
864.15	-77.778
864.44	-633.333
864.74	-114.286
865.03	-68.750
865.33	-120.000
865.62	-35.484
865.92	-31.818
866.21	-78.261
866.51	-142.857
866.80	-180.000
867.10	-216.667
867.39	-100.000
867.69	2200.000
867.98	-142.857
868.27	-70.588
868.57	-2800.000
868.86	-230.000
869.16	-71.429
869.45	-75.000
869.75	-118.182
870.04	-71.429
870.33	-41.667
870.63	-300.000
870.92	-250.000
871.22	-337.500
871.51	-127.273
871.80	-633.333
872.10	-750.000
>>>>>End Processed Spectral Data<<<<<
