SpectraSuite Data File
++++++++++++++++++++++++++++++++++++
Date: Thu May 14 16:01:56 PDT 2015
User: schluterlab
Dark Spectrum Present: Yes
Reference Spectrum Present: Yes
Number of Sampled Component Spectra: 1
Spectrometers: USB2E3373
Integration Time (usec): 3000 (USB2E3373)
Spectra Averaged: 3 (USB2E3373)
Boxcar Smoothing: 0 (USB2E3373)
Correct for Electrical Dark: No (USB2E3373)
Strobe/Lamp Enabled: No (USB2E3373)
Correct for Detector Non-linearity: No (USB2E3373)
Correct for Stray Light: No (USB2E3373)
Number of Pixels in Processed Spectrum: 2048
>>>>>Begin Processed Spectral Data<<<<<
178.53	0.000
178.91	185.714
179.29	-2800.000
179.67	-2100.000
180.04	235.714
180.42	170.000
180.80	620.000
181.18	-1100.000
181.56	-200.000
181.94	375.000
182.31	-275.000
182.69	466.667
183.07	-600.000
183.45	550.000
183.83	-316.667
184.20	-266.667
184.58	1200.000
184.96	-375.000
185.34	-188.889
185.72	-260.000
186.09	366.667
186.47	1050.000
186.85	300.000
187.23	-244.444
187.61	-1400.000
187.98	160.000
188.36	475.000
188.74	-150.000
189.12	-233.333
189.49	-37.500
189.87	-175.000
190.25	-133.333
190.63	-160.000
191.00	-166.667
191.38	0.000
191.76	-550.000
192.14	-316.667
192.51	850.000
192.89	-216.667
193.27	0.000
193.65	-157.143
194.02	-1800.000
194.40	-157.143
194.78	242.857
195.15	0.000
195.53	-63.636
195.91	0.000
196.29	-425.000
196.66	-123.077
197.04	-2300.000
197.42	-285.714
197.79	-250.000
198.17	-262.500
198.55	-228.571
198.92	-155.556
199.30	-225.000
199.68	-118.182
200.05	7.143
200.43	-1000.000
200.81	328.571
201.18	0.000
201.56	333.333
201.94	0.000
202.31	666.667
202.69	-222.222
203.07	1600.000
203.44	-166.667
203.82	-350.000
204.19	-58.333
204.57	-166.667
204.95	-212.500
205.32	-1800.000
205.70	275.000
206.08	-266.667
206.45	-83.333
206.83	560.000
207.20	-366.667
207.58	-160.000
207.96	-316.667
208.33	-100.000
208.71	166.667
209.08	-50.000
209.46	0.000
209.84	416.667
210.21	450.000
210.59	750.000
210.96	633.333
211.34	-75.000
211.71	-187.500
212.09	-1600.000
212.46	0.000
212.84	750.000
213.22	-280.000
213.59	-200.000
213.97	-110.000
214.34	-200.000
214.72	316.667
215.09	-475.000
215.47	0.000
215.84	157.143
216.22	950.000
216.59	-260.000
216.97	-320.000
217.34	-225.000
217.72	-125.000
218.09	-350.000
218.47	-550.000
218.84	0.000
219.22	280.000
219.59	-41.176
219.97	-25.000
220.34	950.000
220.72	-211.111
221.09	-84.615
221.47	-800.000
221.84	-140.000
222.22	-285.714
222.59	0.000
222.97	-175.000
223.34	-520.000
223.72	-1900.000
224.09	-375.000
224.46	-425.000
224.84	-260.000
225.21	-285.714
225.59	-450.000
225.96	-650.000
226.34	15.385
226.71	266.667
227.08	-800.000
227.46	-86.667
227.83	-500.000
228.21	-5.263
228.58	237.500
228.95	850.000
229.33	-133.333
229.70	-130.000
230.08	-63.158
230.45	220.000
230.82	-366.667
231.20	-57.143
231.57	-58.333
231.95	-172.727
232.32	-54.545
232.69	-70.000
233.07	-475.000
233.44	-64.706
233.81	-130.000
234.19	-27.778
234.56	-50.000
234.93	-24.138
235.31	-47.368
235.68	-22.222
236.05	-100.000
236.43	3.846
236.80	20.000
237.17	-37.037
237.55	-15.152
237.92	-220.000
238.29	-19.355
238.67	-11.364
239.04	0.000
239.41	11.905
239.79	-4.348
240.16	-1.852
240.53	8.696
240.91	-15.686
241.28	8.197
241.65	0.000
242.02	13.514
242.40	1.538
242.77	6.667
243.14	8.537
243.51	-5.263
243.89	-7.692
244.26	23.762
244.63	12.745
245.00	11.215
245.38	8.772
245.75	12.389
246.12	16.667
246.49	13.178
246.87	14.286
247.24	24.503
247.61	17.105
247.98	22.819
248.36	17.284
248.73	12.883
249.10	15.847
249.47	31.841
249.84	28.796
250.22	19.689
250.59	22.222
250.96	24.545
251.33	17.347
251.70	21.368
252.08	23.750
252.45	24.180
252.82	23.967
253.19	22.656
253.56	23.574
253.94	20.000
254.31	23.864
254.68	27.622
255.05	27.687
255.42	20.068
255.79	21.683
256.16	21.523
256.54	22.848
256.91	25.574
257.28	21.967
257.65	20.701
258.02	23.599
258.39	23.647
258.76	28.746
259.14	25.287
259.51	25.648
259.88	22.946
260.25	23.611
260.62	25.479
260.99	27.596
261.36	25.737
261.73	24.138
262.10	23.626
262.47	25.201
262.85	28.788
263.22	21.299
263.59	23.684
263.96	25.320
264.33	26.087
264.70	21.481
265.07	27.446
265.44	26.984
265.81	25.000
266.18	25.170
266.55	25.223
266.92	23.918
267.29	28.446
267.66	24.390
268.03	24.672
268.40	25.678
268.77	24.829
269.14	22.907
269.51	26.974
269.88	27.049
270.25	25.352
270.62	27.426
270.99	28.283
271.36	26.931
271.73	26.326
272.10	23.647
272.47	26.854
272.84	25.100
273.21	24.649
273.58	24.597
273.95	24.615
274.32	21.863
274.69	25.145
275.06	26.007
275.43	20.887
275.80	26.631
276.17	23.519
276.54	22.575
276.91	26.297
277.28	27.667
277.65	22.442
278.02	27.757
278.39	23.188
278.76	23.902
279.13	27.128
279.50	23.024
279.87	24.687
280.23	21.303
280.60	26.102
280.97	27.796
281.34	23.430
281.71	26.396
282.08	25.581
282.45	25.532
282.82	24.804
283.19	21.486
283.56	25.410
283.92	24.625
284.29	26.698
284.66	25.780
285.03	23.077
285.40	25.039
285.77	24.768
286.14	23.053
286.51	24.658
286.87	23.697
287.24	23.343
287.61	22.422
287.98	24.169
288.35	23.964
288.72	23.373
289.08	25.915
289.45	24.260
289.82	21.988
290.19	22.126
290.56	22.113
290.93	22.254
291.29	22.176
291.66	22.314
292.03	22.252
292.40	22.721
292.77	20.081
293.13	21.651
293.50	22.339
293.87	20.940
294.24	20.933
294.60	22.250
294.97	19.866
295.34	21.383
295.71	18.916
296.08	18.863
296.44	20.466
296.81	19.123
297.18	19.925
297.55	19.811
297.91	20.522
298.28	18.602
298.65	18.549
299.02	19.008
299.38	20.481
299.75	19.159
300.12	16.898
300.48	19.355
300.85	19.460
301.22	19.239
301.59	17.352
301.95	19.774
302.32	18.778
302.69	19.168
303.05	18.172
303.42	18.958
303.79	18.854
304.15	19.138
304.52	19.239
304.89	18.220
305.25	17.081
305.62	17.659
305.99	18.144
306.35	18.548
306.72	19.855
307.09	17.665
307.45	18.323
307.82	17.558
308.19	17.154
308.55	18.322
308.92	18.695
309.29	18.487
309.65	18.421
310.02	18.911
310.38	16.929
310.75	17.573
311.12	18.121
311.48	16.911
311.85	18.234
312.22	18.311
312.58	16.808
312.95	16.635
313.31	18.880
313.68	17.399
314.05	19.061
314.41	18.124
314.78	18.074
315.14	19.056
315.51	18.283
315.87	19.352
316.24	18.082
316.61	17.762
316.97	18.009
317.34	17.549
317.70	18.690
318.07	18.254
318.43	18.963
318.80	18.896
319.16	18.712
319.53	18.252
319.89	17.528
320.26	18.149
320.62	17.553
320.99	18.652
321.35	18.762
321.72	19.907
322.08	17.674
322.45	19.332
322.81	19.765
323.18	20.265
323.54	19.741
323.91	19.573
324.27	18.330
324.64	20.907
325.00	19.154
325.37	19.247
325.73	20.165
326.10	20.519
326.46	20.765
326.83	20.576
327.19	20.866
327.56	21.028
327.92	19.670
328.29	19.516
328.65	19.933
329.01	20.643
329.38	20.640
329.74	20.462
330.11	20.634
330.47	19.461
330.84	19.983
331.20	20.667
331.56	21.231
331.93	20.502
332.29	20.424
332.66	19.601
333.02	20.687
333.38	20.134
333.75	20.707
334.11	20.183
334.48	20.627
334.84	20.901
335.20	20.655
335.57	21.585
335.93	20.000
336.29	19.967
336.66	20.101
337.02	20.485
337.38	20.663
337.75	19.917
338.11	20.437
338.47	20.265
338.84	20.558
339.20	19.882
339.56	19.440
339.93	20.854
340.29	20.129
340.65	19.465
341.02	21.229
341.38	20.857
341.74	18.805
342.11	19.630
342.47	19.380
342.83	20.934
343.20	20.442
343.56	20.289
343.92	19.376
344.28	19.609
344.65	20.233
345.01	19.813
345.37	21.229
345.73	19.875
346.10	19.891
346.46	19.699
346.82	20.075
347.19	19.862
347.55	19.499
347.91	20.431
348.27	19.120
348.63	19.421
349.00	19.463
349.36	19.257
349.72	19.792
350.08	20.728
350.45	20.228
350.81	19.759
351.17	18.120
351.53	18.954
351.89	19.894
352.26	18.881
352.62	18.507
352.98	19.618
353.34	18.596
353.70	19.414
354.07	20.492
354.43	19.362
354.79	18.699
355.15	20.015
355.51	19.956
355.87	18.923
356.24	20.000
356.60	18.182
356.96	18.458
357.32	19.480
357.68	18.668
358.04	19.536
358.40	17.761
358.77	19.079
359.13	18.538
359.49	18.290
359.85	18.347
360.21	18.651
360.57	17.373
360.93	19.111
361.29	18.737
361.66	19.044
362.02	19.276
362.38	19.888
362.74	18.366
363.10	19.257
363.46	18.560
363.82	18.750
364.18	19.775
364.54	18.672
364.90	19.732
365.26	19.103
365.62	19.667
365.98	19.469
366.35	18.523
366.71	19.116
367.07	18.877
367.43	19.304
367.79	19.907
368.15	18.997
368.51	20.027
368.87	19.268
369.23	19.467
369.59	19.467
369.95	18.526
370.31	18.636
370.67	19.326
371.03	19.044
371.39	18.334
371.75	18.707
372.11	19.309
372.47	20.176
372.83	18.783
373.19	19.480
373.55	18.360
373.91	17.996
374.27	19.534
374.63	18.268
374.99	18.236
375.35	19.156
375.71	19.097
376.07	19.045
376.42	18.451
376.78	18.397
377.14	19.027
377.50	19.418
377.86	19.458
378.22	19.760
378.58	19.382
378.94	19.308
379.30	18.571
379.66	18.636
380.02	19.850
380.38	19.585
380.74	19.662
381.09	19.570
381.45	19.148
381.81	20.375
382.17	19.240
382.53	20.000
382.89	19.131
383.25	19.402
383.61	18.866
383.97	19.435
384.32	19.677
384.68	18.329
385.04	19.896
385.40	19.564
385.76	20.164
386.12	19.749
386.48	19.765
386.83	20.024
387.19	18.714
387.55	19.190
387.91	19.977
388.27	20.150
388.62	19.473
388.98	20.023
389.34	19.741
389.70	19.698
390.06	18.887
390.42	20.843
390.77	20.409
391.13	19.484
391.49	20.411
391.85	19.152
392.20	19.988
392.56	20.496
392.92	20.338
393.28	20.453
393.64	19.497
393.99	20.046
394.35	21.203
394.71	20.539
395.07	20.479
395.42	20.674
395.78	20.963
396.14	20.440
396.50	20.190
396.85	20.155
397.21	20.355
397.57	21.201
397.92	20.676
398.28	19.935
398.64	20.538
399.00	20.366
399.35	20.000
399.71	20.380
400.07	20.719
400.42	20.955
400.78	21.470
401.14	21.059
401.49	21.660
401.85	20.756
402.21	20.973
402.57	21.127
402.92	20.686
403.28	20.141
403.63	21.002
403.99	20.843
404.35	20.296
404.70	20.963
405.06	20.598
405.42	22.248
405.77	22.192
406.13	21.340
406.49	20.946
406.84	20.942
407.20	21.129
407.55	21.442
407.91	21.433
408.27	21.790
408.62	21.699
408.98	21.938
409.34	21.349
409.69	22.559
410.05	21.805
410.40	21.926
410.76	22.378
411.11	22.618
411.47	22.174
411.83	22.751
412.18	22.530
412.54	22.999
412.89	22.526
413.25	22.799
413.60	22.688
413.96	22.261
414.31	22.663
414.67	22.958
415.03	23.200
415.38	22.825
415.74	22.114
416.09	22.825
416.45	22.668
416.80	23.133
417.16	22.989
417.51	23.537
417.87	23.483
418.22	23.473
418.58	24.102
418.93	23.865
419.29	23.243
419.64	22.809
420.00	23.323
420.35	23.751
420.71	23.607
421.06	23.692
421.42	23.567
421.77	22.456
422.12	23.414
422.48	23.554
422.83	23.494
423.19	23.024
423.54	24.336
423.90	24.296
424.25	23.947
424.61	23.134
424.96	24.547
425.31	23.992
425.67	24.155
426.02	24.571
426.38	24.225
426.73	23.828
427.09	24.337
427.44	24.249
427.79	25.097
428.15	23.801
428.50	24.045
428.85	24.914
429.21	24.362
429.56	23.939
429.92	24.521
430.27	24.386
430.62	23.840
430.98	24.152
431.33	24.633
431.68	24.425
432.04	24.987
432.39	25.228
432.74	25.171
433.10	25.149
433.45	24.080
433.80	24.785
434.16	24.948
434.51	24.717
434.86	26.059
435.22	25.717
435.57	25.943
435.92	25.543
436.28	25.085
436.63	25.232
436.98	24.691
437.34	24.746
437.69	25.151
438.04	25.172
438.39	25.215
438.75	24.958
439.10	26.216
439.45	26.048
439.81	25.537
440.16	25.362
440.51	25.084
440.86	25.514
441.22	25.188
441.57	25.314
441.92	26.431
442.27	25.354
442.63	25.286
442.98	26.147
443.33	26.407
443.68	27.304
444.03	26.623
444.39	26.630
444.74	25.727
445.09	25.900
445.44	26.660
445.79	26.724
446.15	26.156
446.50	25.581
446.85	26.459
447.20	26.354
447.55	26.831
447.91	26.806
448.26	26.321
448.61	26.089
448.96	27.790
449.31	26.882
449.66	25.763
450.02	27.321
450.37	27.757
450.72	27.610
451.07	26.595
451.42	26.112
451.77	26.515
452.12	27.370
452.47	25.787
452.83	27.477
453.18	26.912
453.53	27.168
453.88	26.505
454.23	27.627
454.58	27.800
454.93	26.517
455.28	27.273
455.63	27.004
455.98	27.709
456.34	26.914
456.69	26.808
457.04	26.300
457.39	27.106
457.74	26.790
458.09	26.963
458.44	27.371
458.79	25.632
459.14	26.848
459.49	27.504
459.84	27.754
460.19	26.596
460.54	26.973
460.89	26.522
461.24	26.552
461.59	27.117
461.94	25.841
462.29	27.324
462.64	27.701
462.99	27.746
463.34	27.255
463.69	26.671
464.04	26.626
464.39	27.298
464.74	27.309
465.09	27.336
465.44	26.824
465.79	27.287
466.14	26.576
466.49	26.474
466.84	26.887
467.19	27.283
467.54	27.027
467.89	27.126
468.24	27.590
468.59	27.099
468.94	26.166
469.29	26.635
469.64	26.701
469.99	27.279
470.34	26.980
470.68	28.435
471.03	27.767
471.38	27.338
471.73	27.113
472.08	27.792
472.43	27.213
472.78	27.708
473.13	27.813
473.48	27.009
473.83	27.684
474.17	26.905
474.52	27.180
474.87	27.298
475.22	27.831
475.57	27.207
475.92	26.879
476.27	27.103
476.61	26.791
476.96	27.685
477.31	27.277
477.66	27.545
478.01	26.995
478.36	27.069
478.70	26.798
479.05	28.067
479.40	27.493
479.75	27.281
480.10	27.807
480.45	27.712
480.79	27.166
481.14	26.930
481.49	27.669
481.84	27.502
482.19	28.086
482.53	28.115
482.88	27.780
483.23	27.434
483.58	27.249
483.92	26.817
484.27	26.630
484.62	26.980
484.97	27.138
485.31	26.927
485.66	26.600
486.01	25.171
486.36	26.267
486.70	27.441
487.05	27.635
487.40	27.908
487.75	28.244
488.09	28.459
488.44	27.559
488.79	27.892
489.13	27.987
489.48	27.184
489.83	26.881
490.17	26.731
490.52	27.053
490.87	27.115
491.22	27.470
491.56	27.218
491.91	27.344
492.26	27.304
492.60	26.760
492.95	27.512
493.30	27.118
493.64	27.376
493.99	27.281
494.34	26.916
494.68	27.195
495.03	27.401
495.37	28.273
495.72	27.619
496.07	27.564
496.41	26.512
496.76	27.398
497.11	27.813
497.45	28.183
497.80	27.588
498.14	27.302
498.49	27.436
498.84	27.834
499.18	27.215
499.53	27.713
499.87	27.780
500.22	26.848
500.56	26.901
500.91	27.140
501.26	27.636
501.60	27.353
501.95	27.964
502.29	27.337
502.64	27.897
502.98	27.135
503.33	26.523
503.67	26.385
504.02	26.401
504.36	27.748
504.71	27.331
505.06	27.103
505.40	26.645
505.75	27.550
506.09	27.855
506.44	27.855
506.78	27.982
507.13	27.524
507.47	27.238
507.82	27.131
508.16	27.294
508.51	27.145
508.85	26.783
509.19	27.570
509.54	28.626
509.88	27.732
510.23	28.072
510.57	27.308
510.92	26.657
511.26	27.850
511.61	26.895
511.95	27.282
512.30	27.868
512.64	26.837
512.98	27.564
513.33	27.671
513.67	27.894
514.02	28.462
514.36	28.133
514.70	27.292
515.05	28.415
515.39	27.559
515.74	28.685
516.08	27.681
516.42	28.205
516.77	27.497
517.11	28.159
517.46	27.784
517.80	28.648
518.14	28.564
518.49	29.067
518.83	27.195
519.17	27.679
519.52	28.092
519.86	27.878
520.20	27.370
520.55	26.944
520.89	28.716
521.23	28.141
521.58	28.927
521.92	28.612
522.26	27.721
522.61	28.009
522.95	27.682
523.29	28.046
523.64	27.971
523.98	28.523
524.32	29.513
524.66	28.116
525.01	27.860
525.35	27.570
525.69	27.552
526.04	27.325
526.38	27.989
526.72	27.682
527.06	28.739
527.41	28.571
527.75	28.919
528.09	28.453
528.43	27.472
528.78	28.150
529.12	27.924
529.46	27.431
529.80	27.975
530.15	27.826
530.49	27.461
530.83	28.571
531.17	28.136
531.51	27.978
531.86	28.906
532.20	29.512
532.54	28.665
532.88	28.727
533.22	28.639
533.57	27.698
533.91	28.451
534.25	29.226
534.59	27.586
534.93	27.617
535.27	28.394
535.62	28.994
535.96	28.530
536.30	28.378
536.64	28.408
536.98	28.844
537.32	28.519
537.66	28.447
538.01	27.915
538.35	28.502
538.69	28.305
539.03	29.062
539.37	28.151
539.71	27.628
540.05	28.237
540.39	28.545
540.73	28.051
541.07	28.265
541.42	27.289
541.76	27.699
542.10	28.106
542.44	28.380
542.78	28.285
543.12	28.010
543.46	27.350
543.80	27.938
544.14	28.187
544.48	28.132
544.82	27.708
545.16	27.847
545.50	28.460
545.84	27.863
546.18	29.383
546.52	28.344
546.86	28.113
547.20	28.244
547.54	28.589
547.88	29.536
548.22	27.251
548.56	27.736
548.90	27.761
549.24	28.936
549.58	27.950
549.92	28.890
550.26	28.544
550.60	28.653
550.94	28.331
551.28	28.119
551.62	28.571
551.96	27.573
552.30	28.043
552.64	28.376
552.98	28.447
553.32	28.039
553.66	29.132
554.00	28.499
554.34	27.799
554.68	27.824
555.02	29.041
555.36	27.482
555.69	26.714
556.03	27.869
556.37	27.785
556.71	27.838
557.05	28.690
557.39	28.069
557.73	28.269
558.07	28.146
558.41	28.571
558.75	27.586
559.08	28.392
559.42	27.984
559.76	28.223
560.10	27.662
560.44	27.704
560.78	28.000
561.12	27.709
561.45	28.224
561.79	27.900
562.13	27.603
562.47	26.880
562.81	27.911
563.15	28.157
563.48	28.216
563.82	28.416
564.16	28.225
564.50	27.890
564.84	27.611
565.17	27.529
565.51	26.755
565.85	28.207
566.19	27.189
566.52	27.736
566.86	27.448
567.20	27.189
567.54	27.244
567.88	27.421
568.21	28.211
568.55	27.098
568.89	27.009
569.23	27.250
569.56	27.081
569.90	27.192
570.24	26.442
570.57	26.940
570.91	25.995
571.25	26.815
571.59	26.691
571.92	26.119
572.26	26.496
572.60	26.727
572.93	27.053
573.27	27.058
573.61	26.284
573.95	26.560
574.28	26.115
574.62	26.103
574.96	25.540
575.29	26.151
575.63	26.357
575.97	26.395
576.30	26.203
576.64	26.414
576.98	26.196
577.31	26.106
577.65	26.414
577.98	25.885
578.32	25.519
578.66	25.518
578.99	26.521
579.33	26.367
579.67	26.201
580.00	26.141
580.34	26.113
580.67	26.081
581.01	25.984
581.35	25.580
581.68	25.217
582.02	25.798
582.35	26.192
582.69	26.326
583.02	26.518
583.36	26.679
583.70	26.721
584.03	26.494
584.37	26.611
584.70	25.795
585.04	25.994
585.37	25.806
585.71	25.588
586.04	25.782
586.38	25.720
586.72	25.570
587.05	25.684
587.39	26.028
587.72	26.172
588.06	25.822
588.39	26.438
588.73	26.058
589.06	26.749
589.40	26.675
589.73	26.446
590.07	26.592
590.40	26.471
590.73	26.759
591.07	26.880
591.40	25.933
591.74	25.874
592.07	26.594
592.41	25.789
592.74	25.808
593.08	25.701
593.41	26.218
593.75	25.948
594.08	26.295
594.41	26.250
594.75	26.104
595.08	25.505
595.42	26.688
595.75	25.961
596.09	26.398
596.42	26.800
596.75	26.978
597.09	26.747
597.42	26.420
597.75	25.559
598.09	26.706
598.42	26.417
598.76	25.678
599.09	25.454
599.42	24.941
599.76	24.992
600.09	25.759
600.42	25.759
600.76	25.694
601.09	26.485
601.42	25.609
601.76	26.483
602.09	26.126
602.42	25.191
602.76	26.015
603.09	25.844
603.42	25.181
603.76	25.546
604.09	26.260
604.42	25.615
604.76	25.381
605.09	25.130
605.42	25.439
605.75	25.692
606.09	25.495
606.42	25.976
606.75	25.300
607.09	24.885
607.42	25.241
607.75	25.166
608.08	24.980
608.42	25.030
608.75	25.954
609.08	25.297
609.41	25.540
609.75	25.982
610.08	25.550
610.41	25.446
610.74	25.840
611.07	26.066
611.41	25.605
611.74	25.774
612.07	26.040
612.40	25.285
612.73	25.232
613.07	26.064
613.40	25.794
613.73	25.325
614.06	25.859
614.39	25.705
614.72	25.570
615.06	24.302
615.39	24.746
615.72	25.308
616.05	24.526
616.38	25.429
616.71	25.705
617.05	25.825
617.38	24.987
617.71	25.432
618.04	24.825
618.37	25.792
618.70	25.735
619.03	25.329
619.36	25.277
619.69	26.521
620.03	25.612
620.36	25.399
620.69	25.293
621.02	25.722
621.35	26.996
621.68	25.958
622.01	25.409
622.34	24.616
622.67	25.979
623.00	24.561
623.33	25.282
623.66	25.032
623.99	25.938
624.32	26.186
624.65	24.710
624.99	25.618
625.32	25.865
625.65	25.961
625.98	25.085
626.31	25.372
626.64	26.520
626.97	25.506
627.30	24.829
627.63	25.206
627.96	26.502
628.29	25.447
628.62	24.937
628.95	25.592
629.28	25.658
629.61	26.263
629.94	24.770
630.26	24.831
630.59	24.525
630.92	24.502
631.25	26.655
631.58	26.836
631.91	25.305
632.24	25.744
632.57	26.565
632.90	25.577
633.23	25.408
633.56	25.306
633.89	24.380
634.22	25.988
634.55	25.261
634.88	25.758
635.20	25.619
635.53	27.232
635.86	25.677
636.19	26.935
636.52	25.316
636.85	24.719
637.18	24.428
637.51	25.161
637.83	25.360
638.16	25.000
638.49	25.352
638.82	25.254
639.15	24.170
639.48	26.559
639.81	25.520
640.13	25.913
640.46	23.758
640.79	24.387
641.12	25.714
641.45	23.588
641.77	26.573
642.10	25.591
642.43	26.729
642.76	25.745
643.09	24.110
643.41	24.790
643.74	25.241
644.07	24.966
644.40	24.470
644.73	25.254
645.05	26.432
645.38	26.187
645.71	25.367
646.04	26.112
646.36	24.234
646.69	25.460
647.02	25.229
647.35	27.023
647.67	25.282
648.00	24.682
648.33	24.474
648.66	26.106
648.98	25.986
649.31	27.064
649.64	26.428
649.96	22.944
650.29	22.531
650.62	25.035
650.94	24.625
651.27	24.102
651.60	24.415
651.92	24.012
652.25	23.878
652.58	24.622
652.90	24.419
653.23	25.352
653.56	24.251
653.88	28.090
654.21	24.366
654.54	25.434
654.86	27.337
655.19	23.839
655.52	25.140
655.84	22.182
656.17	25.999
656.49	37.297
656.82	41.503
657.15	33.483
657.47	26.317
657.80	19.992
658.13	15.809
658.45	21.551
658.78	26.450
659.10	25.761
659.43	26.182
659.75	25.213
660.08	23.922
660.41	22.746
660.73	22.919
661.06	24.082
661.38	22.967
661.71	24.483
662.03	23.280
662.36	24.508
662.68	25.704
663.01	23.894
663.33	25.520
663.66	25.458
663.98	24.808
664.31	24.390
664.63	23.121
664.96	25.590
665.28	22.868
665.61	25.524
665.93	22.143
666.26	24.373
666.58	24.354
666.91	23.738
667.23	24.762
667.56	23.274
667.88	26.200
668.21	20.313
668.53	23.166
668.86	23.576
669.18	21.589
669.50	23.857
669.83	23.200
670.15	23.425
670.48	25.000
670.80	23.709
671.13	21.739
671.45	21.654
671.77	22.411
672.10	23.167
672.42	22.006
672.75	23.810
673.07	22.836
673.39	20.801
673.72	23.826
674.04	25.345
674.37	23.971
674.69	24.868
675.01	23.810
675.34	25.763
675.66	22.285
675.98	22.948
676.31	23.242
676.63	25.285
676.95	24.713
677.28	22.379
677.60	22.441
677.92	24.568
678.25	22.669
678.57	23.488
678.89	24.573
679.22	22.125
679.54	22.906
679.86	20.508
680.18	21.725
680.51	22.956
680.83	23.077
681.15	20.862
681.48	23.834
681.80	22.625
682.12	21.678
682.44	23.038
682.77	24.823
683.09	24.053
683.41	25.775
683.73	23.909
684.06	21.033
684.38	21.646
684.70	25.135
685.02	22.719
685.34	21.131
685.67	20.347
685.99	21.626
686.31	21.657
686.63	21.485
686.96	20.347
687.28	21.498
687.60	22.896
687.92	18.006
688.24	23.873
688.56	22.586
688.89	21.779
689.21	24.462
689.53	20.196
689.85	22.288
690.17	22.222
690.49	21.713
690.82	21.980
691.14	21.862
691.46	22.945
691.78	23.204
692.10	22.018
692.42	20.357
692.74	20.327
693.06	18.333
693.39	22.201
693.71	21.617
694.03	23.234
694.35	20.952
694.67	22.998
694.99	23.830
695.31	19.205
695.63	23.377
695.95	21.946
696.27	23.956
696.59	23.009
696.91	21.847
697.23	23.077
697.56	20.163
697.88	21.023
698.20	21.846
698.52	23.295
698.84	21.830
699.16	23.061
699.48	22.803
699.80	21.277
700.12	22.926
700.44	18.664
700.76	21.853
701.08	21.308
701.40	22.021
701.72	23.383
702.04	24.599
702.36	17.016
702.68	20.538
703.00	20.049
703.32	17.241
703.64	20.049
703.96	22.196
704.28	20.147
704.60	21.772
704.91	21.173
705.23	21.918
705.55	17.549
705.87	19.394
706.19	24.540
706.51	18.072
706.83	18.444
707.15	20.635
707.47	17.056
707.79	22.271
708.11	15.890
708.43	22.151
708.74	19.196
709.06	19.490
709.38	21.127
709.70	21.588
710.02	19.897
710.34	19.947
710.66	18.436
710.98	19.399
711.29	21.429
711.61	19.774
711.93	18.803
712.25	20.811
712.57	20.944
712.89	18.235
713.20	18.047
713.52	21.965
713.84	18.384
714.16	21.579
714.48	19.072
714.80	19.481
715.11	21.522
715.43	17.241
715.75	20.000
716.07	16.851
716.39	20.492
716.70	16.566
717.02	18.361
717.34	17.422
717.66	18.456
717.97	14.726
718.29	17.182
718.61	17.434
718.93	19.417
719.24	20.807
719.56	20.552
719.88	17.117
720.20	19.677
720.51	19.255
720.83	16.875
721.15	16.447
721.46	13.356
721.78	17.000
722.10	17.476
722.42	16.443
722.73	16.774
723.05	19.298
723.37	18.403
723.68	21.505
724.00	19.134
724.32	18.310
724.63	15.734
724.95	19.149
725.27	17.422
725.58	16.608
725.90	22.759
726.22	15.987
726.53	19.805
726.85	19.497
727.16	18.429
727.48	19.878
727.80	19.868
728.11	19.435
728.43	15.825
728.74	17.057
729.06	18.212
729.38	17.532
729.69	16.779
730.01	16.667
730.32	13.030
730.64	19.811
730.96	18.634
731.27	19.274
731.59	19.505
731.90	19.221
732.22	16.667
732.53	13.812
732.85	17.714
733.16	17.889
733.48	17.073
733.80	15.042
734.11	19.088
734.43	21.351
734.74	23.038
735.06	16.834
735.37	21.622
735.69	15.676
736.00	18.644
736.32	17.520
736.63	18.889
736.95	19.828
737.26	18.182
737.58	13.030
737.89	18.235
738.21	15.902
738.52	15.738
738.83	19.113
739.15	15.957
739.46	19.048
739.78	19.325
740.09	19.198
740.41	15.743
740.72	18.000
741.04	16.181
741.35	19.298
741.66	14.510
741.98	20.492
742.29	17.155
742.61	16.667
742.92	17.692
743.23	18.051
743.55	17.054
743.86	16.000
744.18	10.331
744.49	11.814
744.80	13.992
745.12	18.565
745.43	17.886
745.74	15.948
746.06	15.254
746.37	20.675
746.68	21.951
747.00	13.333
747.31	15.880
747.62	18.846
747.94	11.741
748.25	18.876
748.56	12.245
748.88	13.248
749.19	18.966
749.50	13.420
749.82	18.072
750.13	17.794
750.44	12.000
750.75	16.000
751.07	17.231
751.38	17.350
751.69	17.572
752.01	15.534
752.32	18.627
752.63	20.068
752.94	18.339
753.26	14.498
753.57	11.852
753.88	13.858
754.19	11.576
754.51	15.113
754.82	19.293
755.13	20.656
755.44	17.065
755.75	15.132
756.07	18.507
756.38	17.925
756.69	19.277
757.00	12.742
757.31	16.940
757.63	14.834
757.94	15.258
758.25	17.607
758.56	18.083
758.87	16.591
759.18	16.533
759.50	18.130
759.81	17.367
760.12	16.981
760.43	17.708
760.74	14.778
761.05	15.000
761.36	16.627
761.67	18.020
761.99	17.027
762.30	16.463
762.61	13.531
762.92	14.179
763.23	18.352
763.54	18.345
763.85	17.182
764.16	15.488
764.47	15.141
764.78	18.530
765.10	15.543
765.41	18.974
765.72	14.550
766.03	15.254
766.34	13.480
766.65	16.376
766.96	15.538
767.27	13.364
767.58	10.448
767.89	18.269
768.20	16.432
768.51	13.889
768.82	15.261
769.13	11.742
769.44	13.846
769.75	16.968
770.06	19.615
770.37	16.142
770.68	13.617
770.99	12.955
771.30	19.259
771.61	14.449
771.92	13.704
772.23	13.765
772.54	13.889
772.85	16.590
773.16	19.048
773.47	6.349
773.78	10.270
774.09	13.068
774.39	15.000
774.70	14.754
775.01	13.415
775.32	10.588
775.63	15.951
775.94	7.006
776.25	18.065
776.56	11.538
776.87	14.286
777.18	15.862
777.48	12.587
777.79	6.757
778.10	8.088
778.41	12.500
778.72	11.034
779.03	10.494
779.34	10.303
779.65	6.736
779.95	14.444
780.26	5.114
780.57	17.419
780.88	10.145
781.19	14.839
781.50	15.294
781.80	13.441
782.11	12.698
782.42	10.606
782.73	14.970
783.04	14.525
783.34	12.121
783.65	6.536
783.96	9.317
784.27	5.952
784.57	6.623
784.88	10.000
785.19	10.236
785.50	8.661
785.81	12.030
786.11	9.231
786.42	6.475
786.73	11.511
787.04	12.030
787.34	3.279
787.65	9.600
787.96	5.224
788.26	11.189
788.57	13.287
788.88	7.237
789.19	16.993
789.49	9.589
789.80	15.603
790.11	11.811
790.41	13.281
790.72	5.085
791.03	-0.971
791.33	1.739
791.64	15.789
791.95	1.786
792.25	14.286
792.56	9.821
792.87	-8.333
793.17	15.179
793.48	5.208
793.79	2.410
794.09	8.257
794.40	1.835
794.70	12.245
795.01	7.792
795.32	8.904
795.62	7.042
795.93	3.030
796.23	10.656
796.54	-1.786
796.85	8.511
797.15	3.261
797.46	-6.849
797.76	-15.000
798.07	7.609
798.37	-2.062
798.68	-9.091
798.99	12.644
799.29	-2.247
799.60	2.128
799.90	-6.024
800.21	-7.692
800.51	-2.985
800.82	-14.706
801.12	-12.329
801.43	-16.176
801.73	-16.949
802.04	-7.576
802.34	-18.333
802.65	-5.085
802.95	-2.985
803.26	-16.949
803.56	8.219
803.87	4.286
804.17	6.849
804.48	-15.789
804.78	8.333
805.09	-3.448
805.39	-5.405
805.70	-9.859
806.00	4.878
806.30	3.614
806.61	-15.068
806.91	0.000
807.22	-5.556
807.52	-10.345
807.83	11.111
808.13	14.458
808.43	-4.494
808.74	0.000
809.04	-20.588
809.35	-2.667
809.65	-8.571
809.95	-10.959
810.26	-12.281
810.56	-18.966
810.86	16.176
811.17	-10.526
811.47	-40.984
811.77	-33.333
812.08	3.390
812.38	10.000
812.69	6.897
812.99	-18.868
813.29	-51.282
813.59	20.000
813.90	17.544
814.20	-34.545
814.50	8.451
814.81	2.564
815.11	-4.918
815.41	-1.493
815.72	-6.897
816.02	17.857
816.32	2.222
816.62	-22.727
816.93	-44.444
817.23	-9.259
817.53	-8.511
817.84	-2.381
818.14	-26.471
818.44	4.082
818.74	-17.778
819.04	-33.333
819.35	-57.143
819.65	-26.923
819.95	-7.547
820.25	-20.000
820.56	-23.810
820.86	-34.375
821.16	-25.641
821.46	-18.605
821.76	-40.000
822.07	-5.357
822.37	-15.217
822.67	-14.894
822.97	-56.757
823.27	-47.500
823.57	4.082
823.88	11.111
824.18	-10.000
824.48	-53.333
824.78	-48.000
825.08	-12.121
825.38	-20.000
825.69	-8.511
825.99	-8.333
826.29	-62.857
826.59	-2.564
826.89	-34.884
827.19	-8.000
827.49	-17.647
827.79	-8.333
828.09	-43.243
828.39	-36.667
828.70	-17.073
829.00	-30.233
829.30	-28.571
829.60	-11.765
829.90	-30.435
830.20	-37.143
830.50	-62.069
830.80	-77.778
831.10	-69.231
831.40	-32.353
831.70	4.762
832.00	-25.806
832.30	-129.412
832.60	-50.000
832.90	-130.769
833.20	-105.263
833.50	-95.000
833.80	-73.684
834.10	-133.333
834.40	-25.000
834.70	-21.875
835.00	-51.429
835.30	-29.412
835.60	-26.667
835.90	-36.000
836.20	-72.727
836.50	-36.000
836.80	-48.485
837.10	-66.667
837.40	-62.963
837.70	-125.000
838.00	-53.571
838.30	-39.130
838.60	-10.345
838.90	-107.143
839.19	-69.565
839.49	-191.667
839.79	-34.783
840.09	-106.250
840.39	-85.000
840.69	-41.935
840.99	-42.857
841.29	-33.333
841.59	-84.211
841.88	-5.128
842.18	-30.769
842.48	-200.000
842.78	-30.000
843.08	-63.333
843.38	-16.129
843.68	-111.111
843.97	-47.059
844.27	-87.500
844.57	-78.947
844.87	-170.000
845.17	-86.667
845.47	-66.667
845.76	-85.714
846.06	-144.444
846.36	-100.000
846.66	-19.231
846.96	-120.000
847.25	-88.235
847.55	-21.739
847.85	-35.000
848.15	-70.588
848.44	-109.091
848.74	-61.905
849.04	-41.667
849.34	-68.750
849.63	-30.435
849.93	1300.000
850.23	-40.000
850.53	-11.538
850.82	-81.818
851.12	-45.455
851.42	-154.545
851.71	-100.000
852.01	-70.000
852.31	-92.308
852.61	-57.895
852.90	-83.333
853.20	-61.111
853.50	-188.889
853.79	-80.952
854.09	-86.364
854.39	-191.667
854.68	-29.032
854.98	-76.923
855.28	-50.000
855.57	-14.286
855.87	-24.000
856.17	-27.273
856.46	-33.333
856.76	-61.111
857.05	-56.522
857.35	-37.500
857.65	-130.769
857.94	-14.286
858.24	-51.852
858.53	-43.478
858.83	-64.706
859.13	-52.941
859.42	-82.353
859.72	-78.571
860.01	-80.000
860.31	-177.778
860.60	-140.000
860.90	-140.000
861.20	-44.444
861.49	-100.000
861.79	-33.333
862.08	-123.077
862.38	9.375
862.67	-47.059
862.97	-81.250
863.26	-277.778
863.56	-140.000
863.85	-172.727
864.15	-66.667
864.44	-566.667
864.74	-121.429
865.03	-87.500
865.33	-190.000
865.62	-61.290
865.92	-9.091
866.21	0.000
866.51	-71.429
866.80	-460.000
867.10	-208.333
867.39	-175.000
867.69	2400.000
867.98	-214.286
868.27	-76.471
868.57	-2100.000
868.86	-280.000
869.16	-76.190
869.45	-54.167
869.75	-172.727
870.04	-271.429
870.33	-75.000
870.63	-500.000
870.92	-425.000
871.22	-300.000
871.51	-181.818
871.80	-833.333
872.10	-600.000
>>>>>End Processed Spectral Data<<<<<
