SpectraSuite Data File
++++++++++++++++++++++++++++++++++++
Date: Thu May 14 15:55:07 PDT 2015
User: schluterlab
Dark Spectrum Present: Yes
Reference Spectrum Present: Yes
Number of Sampled Component Spectra: 1
Spectrometers: USB2E3373
Integration Time (usec): 3000 (USB2E3373)
Spectra Averaged: 3 (USB2E3373)
Boxcar Smoothing: 0 (USB2E3373)
Correct for Electrical Dark: No (USB2E3373)
Strobe/Lamp Enabled: No (USB2E3373)
Correct for Detector Non-linearity: No (USB2E3373)
Correct for Stray Light: No (USB2E3373)
Number of Pixels in Processed Spectrum: 2048
>>>>>Begin Processed Spectral Data<<<<<
178.53	0.000
178.91	485.714
179.29	-3900.000
179.67	-4000.000
180.04	314.286
180.42	290.000
180.80	660.000
181.18	-3400.000
181.56	-2300.000
181.94	1050.000
182.31	-850.000
182.69	1333.333
183.07	-1700.000
183.45	875.000
183.83	-500.000
184.20	-1100.000
184.58	2700.000
184.96	-700.000
185.34	-355.556
185.72	-440.000
186.09	500.000
186.47	1750.000
186.85	700.000
187.23	-444.444
187.61	-3300.000
187.98	640.000
188.36	825.000
188.74	-725.000
189.12	-933.333
189.49	-156.250
189.87	-387.500
190.25	-222.222
190.63	-720.000
191.00	-377.778
191.38	0.000
191.76	-900.000
192.14	-400.000
192.51	1600.000
192.89	-350.000
193.27	0.000
193.65	-514.286
194.02	-3500.000
194.40	-414.286
194.78	400.000
195.15	0.000
195.53	-263.636
195.91	0.000
196.29	-675.000
196.66	-246.154
197.04	-3500.000
197.42	-471.429
197.79	-1650.000
198.17	-300.000
198.55	-342.857
198.92	-388.889
199.30	-500.000
199.68	-263.636
200.05	-121.429
200.43	-1950.000
200.81	628.571
201.18	0.000
201.56	444.444
201.94	0.000
202.31	1500.000
202.69	-433.333
203.07	2900.000
203.44	-311.111
203.82	-800.000
204.19	-275.000
204.57	-483.333
204.95	-437.500
205.32	-3100.000
205.70	850.000
206.08	-333.333
206.45	-500.000
206.83	900.000
207.20	-516.667
207.58	-800.000
207.96	-516.667
208.33	-450.000
208.71	275.000
209.08	-266.667
209.46	0.000
209.84	650.000
210.21	1700.000
210.59	1550.000
210.96	1366.667
211.34	-700.000
211.71	-387.500
212.09	-3400.000
212.46	0.000
212.84	2250.000
213.22	-800.000
213.59	-775.000
213.97	-310.000
214.34	-1100.000
214.72	766.667
215.09	-725.000
215.47	0.000
215.84	400.000
216.22	1950.000
216.59	-360.000
216.97	-580.000
217.34	-700.000
217.72	-337.500
218.09	-650.000
218.47	-875.000
218.84	0.000
219.22	400.000
219.59	-129.412
219.97	-115.000
220.34	1550.000
220.72	-288.889
221.09	-184.615
221.47	-1033.333
221.84	-310.000
222.22	-471.429
222.59	0.000
222.97	-337.500
223.34	-660.000
223.72	-3900.000
224.09	-775.000
224.46	-675.000
224.84	-600.000
225.21	-485.714
225.59	-750.000
225.96	-700.000
226.34	-115.385
226.71	666.667
227.08	-1450.000
227.46	-153.333
227.83	-550.000
228.21	-110.526
228.58	362.500
228.95	1450.000
229.33	-200.000
229.70	-210.000
230.08	-42.105
230.45	310.000
230.82	-1100.000
231.20	-285.714
231.57	-225.000
231.95	-309.091
232.32	-236.364
232.69	-130.000
233.07	-525.000
233.44	-164.706
233.81	-300.000
234.19	-127.778
234.56	-118.182
234.93	-58.621
235.31	-131.579
235.68	-133.333
236.05	-165.000
236.43	-88.462
236.80	-44.000
237.17	-88.889
237.55	-93.939
237.92	-290.000
238.29	-96.774
238.67	-63.636
239.04	-100.000
239.41	-47.619
239.79	-39.130
240.16	-48.148
240.53	-56.522
240.91	-52.941
241.28	-45.902
241.65	-20.896
242.02	-18.919
242.40	-33.846
242.77	-14.667
243.14	-26.829
243.51	-38.158
243.89	-32.051
244.26	-7.921
244.63	-0.980
245.00	-3.738
245.38	-10.526
245.75	-13.274
246.12	-7.143
246.49	-8.527
246.87	-8.571
247.24	-1.987
247.61	-1.974
247.98	-6.040
248.36	-7.407
248.73	-3.681
249.10	2.186
249.47	4.975
249.84	1.571
250.22	-4.663
250.59	-2.778
250.96	4.545
251.33	-3.061
251.70	2.991
252.08	5.000
252.45	4.098
252.82	-0.413
253.19	-2.344
253.56	5.703
253.94	6.923
254.31	4.924
254.68	6.993
255.05	7.492
255.42	4.082
255.79	3.883
256.16	5.960
256.54	4.636
256.91	5.902
257.28	6.230
257.65	3.822
258.02	4.720
258.39	5.983
258.76	9.480
259.14	7.471
259.51	5.476
259.88	6.232
260.25	5.278
260.62	9.589
260.99	8.470
261.36	9.920
261.73	7.958
262.10	7.967
262.47	5.094
262.85	10.606
263.22	5.974
263.59	6.053
263.96	6.905
264.33	7.928
264.70	7.407
265.07	11.933
265.44	12.018
265.81	7.407
266.18	8.844
266.55	9.152
266.92	7.062
267.29	5.908
267.66	8.426
268.03	9.825
268.40	9.395
268.77	9.339
269.14	8.590
269.51	8.772
269.88	10.041
270.25	9.859
270.62	11.392
270.99	11.111
271.36	9.901
271.73	12.574
272.10	9.619
272.47	9.820
272.84	11.245
273.21	9.419
273.58	9.879
273.95	8.654
274.32	9.316
274.69	8.124
275.06	12.271
275.43	8.688
275.80	10.758
276.17	8.889
276.54	8.209
276.91	8.945
277.28	10.669
277.65	10.054
278.02	9.375
278.39	11.957
278.76	10.369
279.13	9.929
279.50	11.856
279.87	10.912
280.23	8.099
280.60	10.169
280.97	11.349
281.34	11.375
281.71	10.321
282.08	9.801
282.45	11.129
282.82	12.088
283.19	9.047
283.56	10.492
283.92	11.712
284.29	10.585
284.66	11.494
285.03	9.936
285.40	8.501
285.77	10.836
286.14	10.992
286.51	10.046
286.87	10.111
287.24	10.693
287.61	10.912
287.98	9.970
288.35	10.651
288.72	10.059
289.08	12.006
289.45	8.284
289.82	9.187
290.19	9.626
290.56	10.704
290.93	9.558
291.29	11.295
291.66	9.504
292.03	9.091
292.40	12.381
292.77	9.973
293.13	9.202
293.50	8.936
293.87	10.336
294.24	9.733
294.60	9.608
294.97	7.517
295.34	10.243
295.71	8.827
296.08	10.724
296.44	10.049
296.81	9.135
297.18	8.468
297.55	8.491
297.91	9.253
298.28	7.109
298.65	8.205
299.02	8.855
299.38	9.268
299.75	8.528
300.12	7.407
300.48	7.834
300.85	8.999
301.22	9.172
301.59	9.475
301.95	7.684
302.32	9.222
302.69	8.762
303.05	9.140
303.42	8.647
303.79	8.646
304.15	10.410
304.52	8.774
304.89	8.063
305.25	8.282
305.62	8.359
305.99	10.515
306.35	8.972
306.72	8.687
307.09	8.426
307.45	9.006
307.82	10.192
308.19	8.880
308.55	10.318
308.92	9.640
309.29	10.057
309.65	9.454
310.02	9.901
310.38	8.563
310.75	9.903
311.12	9.492
311.48	9.482
311.85	9.972
312.22	10.626
312.58	9.296
312.95	9.465
313.31	10.027
313.68	11.172
314.05	11.472
314.41	11.202
314.78	11.717
315.14	11.978
315.51	11.265
315.87	10.981
316.24	12.146
316.61	12.789
316.97	10.588
317.34	11.728
317.70	12.838
318.07	11.817
318.43	12.925
318.80	14.632
319.16	13.820
319.53	11.911
319.89	13.059
320.26	14.947
320.62	13.741
320.99	14.127
321.35	14.140
321.72	15.163
322.08	14.698
322.45	14.815
322.81	15.704
323.18	16.726
323.54	16.724
323.91	16.637
324.27	17.470
324.64	18.136
325.00	17.579
325.37	18.837
325.73	18.760
326.10	19.789
326.46	20.033
326.83	20.016
327.19	19.606
327.56	21.028
327.92	20.614
328.29	18.871
328.65	20.101
329.01	21.404
329.38	21.061
329.74	21.661
330.11	22.432
330.47	21.567
330.84	22.308
331.20	22.917
331.56	21.490
331.93	22.594
332.29	23.051
332.66	22.924
333.02	21.776
333.38	21.728
333.75	21.886
334.11	22.519
334.48	23.680
334.84	23.364
335.20	22.082
335.57	24.115
335.93	23.719
336.29	22.712
336.66	24.811
337.02	23.662
337.38	24.915
337.75	22.231
338.11	24.390
338.47	23.656
338.84	23.519
339.20	22.662
339.56	23.064
339.93	24.466
340.29	22.222
340.65	22.222
341.02	23.703
341.38	24.576
341.74	24.213
342.11	25.181
342.47	23.034
342.83	23.349
343.20	24.039
343.56	23.496
343.92	23.939
344.28	23.203
344.65	24.574
345.01	23.869
345.37	23.173
345.73	23.772
346.10	23.635
346.46	23.576
346.82	24.195
347.19	24.752
347.55	24.583
347.91	23.328
348.27	23.672
348.63	24.143
349.00	24.161
349.36	23.792
349.72	23.884
350.08	24.294
350.45	24.106
350.81	23.605
351.17	23.684
351.53	24.412
351.89	24.829
352.26	24.627
352.62	23.955
352.98	24.809
353.34	23.450
353.70	24.268
354.07	23.845
354.43	23.842
354.79	24.084
355.15	23.915
355.51	24.635
355.87	24.084
356.24	24.411
356.60	24.021
356.96	24.981
357.32	23.494
357.68	23.939
358.04	23.802
358.40	24.104
358.77	24.123
359.13	23.117
359.49	22.900
359.85	24.293
360.21	24.749
360.57	23.833
360.93	24.189
361.29	24.632
361.66	24.403
362.02	25.470
362.38	24.526
362.74	24.372
363.10	24.691
363.46	24.792
363.82	23.793
364.18	24.279
364.54	24.343
364.90	26.154
365.26	25.103
365.62	24.533
365.98	25.187
366.35	24.631
366.71	24.422
367.07	26.049
367.43	25.279
367.79	25.680
368.15	24.816
368.51	25.778
368.87	24.494
369.23	25.067
369.59	26.503
369.95	25.085
370.31	25.726
370.67	25.103
371.03	25.139
371.39	24.110
371.75	25.172
372.11	25.949
372.47	25.525
372.83	25.851
373.19	25.083
373.55	24.526
373.91	24.676
374.27	25.420
374.63	25.981
374.99	25.265
375.35	25.519
375.71	25.484
376.07	25.694
376.42	25.252
376.78	24.984
377.14	26.201
377.50	26.439
377.86	25.369
378.22	25.389
378.58	26.100
378.94	25.587
379.30	26.186
379.66	26.514
380.02	25.793
380.38	25.749
380.74	26.479
381.09	26.074
381.45	25.284
381.81	26.639
382.17	25.950
382.53	26.667
382.89	26.242
383.25	26.788
383.61	25.984
383.97	25.677
384.32	26.316
384.68	25.812
385.04	26.142
385.40	26.812
385.76	27.022
386.12	25.733
386.48	25.706
386.83	26.222
387.19	25.956
387.55	25.469
387.91	27.169
388.27	26.501
388.62	26.690
388.98	25.155
389.34	26.989
389.70	25.683
390.06	25.636
390.42	25.783
390.77	25.707
391.13	26.115
391.49	25.664
391.85	25.455
392.20	25.030
392.56	26.048
392.92	26.227
393.28	26.258
393.64	25.028
393.99	26.554
394.35	25.818
394.71	26.527
395.07	25.629
395.42	25.186
395.78	26.508
396.14	26.738
396.50	25.534
396.85	26.118
397.21	25.266
397.57	25.677
397.92	26.403
398.28	26.236
398.64	25.858
399.00	25.236
399.35	24.817
399.71	25.380
400.07	25.323
400.42	25.902
400.78	25.116
401.14	23.904
401.49	25.412
401.85	26.512
402.21	26.130
402.57	25.998
402.92	25.591
403.28	25.000
403.63	25.477
403.99	26.188
404.35	24.844
404.70	25.609
405.06	25.000
405.42	25.293
405.77	24.755
406.13	24.905
406.49	25.056
406.84	25.762
407.20	25.769
407.55	23.985
407.91	24.639
408.27	24.617
408.62	24.258
408.98	24.956
409.34	24.106
409.69	25.155
410.05	24.795
410.40	24.420
410.76	24.734
411.11	24.196
411.47	25.676
411.83	24.750
412.18	25.422
412.54	25.015
412.89	24.854
413.25	25.113
413.60	24.182
413.96	24.767
414.31	24.533
414.67	24.866
415.03	24.800
415.38	24.149
415.74	24.374
416.09	23.874
416.45	23.920
416.80	23.929
417.16	24.074
417.51	24.035
417.87	24.034
418.22	23.892
418.58	23.606
418.93	25.262
419.29	24.846
419.64	23.589
420.00	24.392
420.35	24.368
420.71	24.411
421.06	23.174
421.42	23.853
421.77	23.533
422.12	23.362
422.48	23.810
422.83	24.644
423.19	23.873
423.54	24.723
423.90	24.351
424.25	24.693
424.61	23.594
424.96	23.888
425.31	24.045
425.67	23.242
426.02	24.350
426.38	23.077
426.73	23.772
427.09	25.144
427.44	23.211
427.79	23.659
428.15	23.858
428.50	23.764
428.85	23.192
429.21	23.883
429.56	24.087
429.92	23.980
430.27	24.771
430.62	24.915
430.98	23.315
431.33	23.900
431.68	24.042
432.04	24.632
432.39	23.139
432.74	24.087
433.10	23.634
433.45	23.300
433.80	23.766
434.16	24.225
434.51	24.049
434.86	23.996
435.22	23.964
435.57	23.880
435.92	24.096
436.28	23.948
436.63	23.211
436.98	23.403
437.34	24.464
437.69	22.620
438.04	23.162
438.39	23.837
438.75	22.690
439.10	23.573
439.45	24.092
439.81	23.503
440.16	23.700
440.51	22.965
440.86	23.235
441.22	23.151
441.57	23.323
441.92	22.696
442.27	23.283
442.63	23.199
442.98	23.212
443.33	23.198
443.68	24.083
444.03	23.189
444.39	23.347
444.74	24.043
445.09	23.213
445.44	23.288
445.79	23.563
446.15	23.381
446.50	23.463
446.85	23.638
447.20	24.178
447.55	23.797
447.91	23.403
448.26	23.732
448.61	22.689
448.96	23.766
449.31	23.701
449.66	22.440
450.02	23.576
450.37	24.134
450.72	22.551
451.07	23.633
451.42	23.050
451.77	22.957
452.12	23.194
452.47	22.757
452.83	22.917
453.18	21.424
453.53	22.114
453.88	21.977
454.23	22.938
454.58	22.925
454.93	21.541
455.28	22.336
455.63	23.593
455.98	22.179
456.34	22.497
456.69	22.281
457.04	22.754
457.39	22.450
457.74	22.539
458.09	22.186
458.44	22.629
458.79	21.764
459.14	22.181
459.49	22.128
459.84	21.406
460.19	21.655
460.54	22.374
460.89	22.075
461.24	21.264
461.59	22.745
461.94	21.050
462.29	22.396
462.64	21.545
462.99	20.653
463.34	22.453
463.69	21.688
464.04	22.735
464.39	21.637
464.74	22.748
465.09	22.088
465.44	22.800
465.79	21.576
466.14	21.991
466.49	21.368
466.84	21.598
467.19	22.254
467.54	20.975
467.89	21.264
468.24	21.662
468.59	20.730
468.94	21.329
469.29	20.756
469.64	20.661
469.99	21.224
470.34	21.040
470.68	20.916
471.03	21.218
471.38	20.602
471.73	20.806
472.08	19.797
472.43	21.192
472.78	20.403
473.13	21.049
473.48	21.148
473.83	21.126
474.17	20.809
474.52	21.046
474.87	20.377
475.22	20.394
475.57	20.405
475.92	20.309
476.27	19.542
476.61	20.872
476.96	20.177
477.31	20.495
477.66	21.301
478.01	21.047
478.36	20.239
478.70	20.345
479.05	20.501
479.40	20.879
479.75	20.557
480.10	20.606
480.45	20.100
480.79	20.726
481.14	19.899
481.49	19.673
481.84	20.583
482.19	21.118
482.53	20.638
482.88	20.558
483.23	19.964
483.58	20.393
483.92	19.149
484.27	19.983
484.62	20.462
484.97	19.984
485.31	20.028
485.66	19.498
486.01	19.945
486.36	20.756
486.70	21.676
487.05	21.117
487.40	20.943
487.75	20.509
488.09	20.513
488.44	19.575
488.79	19.696
489.13	19.479
489.48	18.718
489.83	18.873
490.17	18.996
490.52	19.048
490.87	19.712
491.22	19.584
491.56	19.027
491.91	19.232
492.26	18.910
492.60	18.583
492.95	19.351
493.30	18.557
493.64	19.448
493.99	18.904
494.34	18.859
494.68	19.272
495.03	19.515
495.37	18.775
495.72	17.778
496.07	18.843
496.41	18.576
496.76	19.266
497.11	19.023
497.45	18.861
497.80	18.836
498.14	18.322
498.49	18.199
498.84	18.327
499.18	18.848
499.53	18.924
499.87	18.813
500.22	17.498
500.56	18.399
500.91	18.261
501.26	18.727
501.60	17.808
501.95	18.758
502.29	17.859
502.64	18.540
502.98	17.817
503.33	17.581
503.67	17.401
504.02	18.301
504.36	17.605
504.71	17.915
505.06	17.781
505.40	17.002
505.75	17.851
506.09	18.232
506.44	17.317
506.78	17.982
507.13	17.335
507.47	18.001
507.82	17.661
508.16	16.778
508.51	16.174
508.85	17.572
509.19	17.101
509.54	17.915
509.88	16.950
510.23	17.824
510.57	17.110
510.92	17.417
511.26	16.450
511.61	16.465
511.95	16.984
512.30	17.233
512.64	16.342
512.98	16.658
513.33	17.238
513.67	16.573
514.02	15.892
514.36	16.880
514.70	16.458
515.05	16.997
515.39	15.748
515.74	17.179
516.08	16.165
516.42	16.379
516.77	15.878
517.11	16.658
517.46	17.020
517.80	16.034
518.14	16.376
518.49	16.703
518.83	15.859
519.17	16.101
519.52	15.566
519.86	16.367
520.20	16.400
520.55	15.608
520.89	16.498
521.23	16.471
521.58	15.932
521.92	16.034
522.26	15.636
522.61	15.741
522.95	15.744
523.29	15.115
523.64	15.751
523.98	15.916
524.32	16.504
524.66	15.936
525.01	14.892
525.35	14.819
525.69	15.719
526.04	14.983
526.38	14.885
526.72	15.686
527.06	14.897
527.41	15.802
527.75	15.558
528.09	15.643
528.43	15.216
528.78	14.624
529.12	14.220
529.46	14.840
529.80	14.760
530.15	15.188
530.49	14.769
530.83	15.880
531.17	14.576
531.51	14.741
531.86	15.505
532.20	15.183
532.54	14.482
532.88	15.152
533.22	15.439
533.57	14.599
533.91	15.937
534.25	14.585
534.59	15.230
534.93	14.827
535.27	14.986
535.62	15.350
535.96	15.107
536.30	14.630
536.64	15.075
536.98	14.945
537.32	14.877
537.66	15.159
538.01	14.743
538.35	14.677
538.69	14.543
539.03	13.918
539.37	14.547
539.71	14.294
540.05	14.329
540.39	13.570
540.73	14.451
541.07	13.857
541.42	13.467
541.76	13.642
542.10	13.872
542.44	14.007
542.78	14.294
543.12	14.243
543.46	14.164
543.80	13.729
544.14	14.482
544.48	14.716
544.82	14.183
545.16	14.192
545.50	14.620
545.84	13.656
546.18	14.568
546.52	13.121
546.86	13.145
547.20	13.613
547.54	14.107
547.88	13.864
548.22	13.099
548.56	14.043
548.90	13.970
549.24	13.374
549.58	13.754
549.92	12.946
550.26	14.563
550.60	12.444
550.94	14.230
551.28	14.059
551.62	14.353
551.96	13.786
552.30	14.277
552.64	13.503
552.98	12.851
553.32	14.019
553.66	13.762
554.00	13.934
554.34	13.900
554.68	12.589
555.02	12.615
555.36	13.149
555.69	12.492
556.03	12.989
556.37	13.830
556.71	13.507
557.05	12.907
557.39	13.470
557.73	12.616
558.07	12.649
558.41	12.957
558.75	12.508
559.08	13.292
559.42	12.826
559.76	12.687
560.10	12.659
560.44	12.665
560.78	12.813
561.12	12.500
561.45	13.321
561.79	13.248
562.13	13.925
562.47	12.824
562.81	12.215
563.15	12.374
563.48	12.865
563.82	12.938
564.16	12.598
564.50	12.455
564.84	13.451
565.17	12.706
565.51	12.255
565.85	13.302
566.19	13.018
566.52	12.932
566.86	12.450
567.20	12.887
567.54	13.330
567.88	13.761
568.21	13.340
568.55	13.381
568.89	13.300
569.23	13.730
569.56	13.521
569.90	14.041
570.24	13.862
570.57	13.823
570.91	13.717
571.25	13.538
571.59	14.278
571.92	14.099
572.26	14.108
572.60	13.568
572.93	13.999
573.27	13.936
573.61	14.161
573.95	13.984
574.28	14.156
574.62	14.029
574.96	14.071
575.29	14.056
575.63	14.160
575.97	13.820
576.30	13.595
576.64	13.791
576.98	13.508
577.31	13.929
577.65	14.383
577.98	14.307
578.32	13.789
578.66	14.060
578.99	13.926
579.33	13.873
579.67	13.327
580.00	13.733
580.34	14.049
580.67	13.658
581.01	13.717
581.35	13.832
581.68	14.055
582.02	14.446
582.35	14.551
582.69	14.129
583.02	13.923
583.36	14.089
583.70	13.406
584.03	12.743
584.37	13.207
584.70	13.325
585.04	13.113
585.37	13.235
585.71	13.182
586.04	13.650
586.38	13.510
586.72	12.961
587.05	13.738
587.39	13.039
587.72	13.541
588.06	13.298
588.39	13.468
588.73	13.042
589.06	12.782
589.40	12.538
589.73	13.335
590.07	12.699
590.40	13.354
590.73	13.114
591.07	12.956
591.40	12.208
591.74	12.321
592.07	12.911
592.41	12.027
592.74	12.993
593.08	13.280
593.41	13.182
593.75	12.960
594.08	13.148
594.41	13.622
594.75	12.986
595.08	12.584
595.42	13.117
595.75	13.465
596.09	13.013
596.42	12.684
596.75	12.968
597.09	12.444
597.42	12.515
597.75	12.819
598.09	12.579
598.42	12.867
598.76	12.381
599.09	12.709
599.42	12.839
599.76	12.776
600.09	12.779
600.42	12.846
600.76	13.111
601.09	12.081
601.42	13.388
601.76	12.828
602.09	12.580
602.42	12.468
602.76	12.583
603.09	12.151
603.42	13.186
603.76	12.227
604.09	12.314
604.42	12.734
604.76	12.062
605.09	12.605
605.42	12.480
605.75	12.308
606.09	12.579
606.42	11.857
606.75	11.919
607.09	12.366
607.42	12.447
607.75	12.349
608.08	12.076
608.42	12.334
608.75	12.769
609.08	11.800
609.41	12.439
609.75	11.786
610.08	12.621
610.41	12.362
610.74	12.269
611.07	12.211
611.41	12.377
611.74	12.656
612.07	12.062
612.40	11.407
612.73	12.176
613.07	12.029
613.40	11.790
613.73	11.700
614.06	12.267
614.39	11.565
614.72	11.548
615.06	11.357
615.39	11.503
615.72	12.370
616.05	11.656
616.38	12.563
616.71	11.703
617.05	10.756
617.38	12.039
617.71	11.285
618.04	11.441
618.37	12.186
618.70	11.256
619.03	11.111
619.36	10.543
619.69	11.339
620.03	11.362
620.36	11.104
620.69	10.981
621.02	11.024
621.35	10.885
621.68	11.714
622.01	10.890
622.34	10.530
622.67	10.584
623.00	9.852
623.33	10.617
623.66	11.997
623.99	9.941
624.32	12.476
624.65	10.746
624.99	10.988
625.32	11.888
625.65	11.059
625.98	11.186
626.31	10.135
626.64	10.183
626.97	10.653
627.30	9.643
627.63	10.503
627.96	12.087
628.29	10.039
628.62	10.327
628.95	10.692
629.28	9.516
629.61	11.532
629.94	9.121
630.26	9.576
630.59	9.585
630.92	9.091
631.25	9.481
631.58	9.510
631.91	9.278
632.24	9.222
632.57	8.918
632.90	8.726
633.23	9.898
633.56	9.286
633.89	9.194
634.22	10.291
634.55	9.290
634.88	9.307
635.20	10.226
635.53	8.814
635.86	8.126
636.19	9.438
636.52	7.911
636.85	8.887
637.18	9.771
637.51	8.925
637.83	10.299
638.16	8.871
638.49	7.277
638.82	8.455
639.15	8.591
639.48	10.855
639.81	9.700
640.13	10.365
640.46	8.121
640.79	7.598
641.12	8.944
641.45	8.156
641.77	9.371
642.10	8.005
642.43	9.441
642.76	9.214
643.09	6.301
643.41	8.403
643.74	8.276
644.07	8.552
644.40	7.496
644.73	7.837
645.05	7.489
645.38	8.921
645.71	7.478
646.04	9.469
646.36	7.591
646.69	7.055
647.02	8.716
647.35	8.092
647.67	7.729
648.00	7.643
648.33	7.508
648.66	8.987
648.98	8.163
649.31	8.119
649.64	9.695
649.96	8.223
650.29	6.537
650.62	7.355
650.94	6.607
651.27	5.689
651.60	6.287
651.92	5.775
652.25	7.381
652.58	7.978
652.90	6.686
653.23	7.746
653.56	9.558
653.88	8.146
654.21	7.042
654.54	8.237
654.86	7.790
655.19	8.156
655.52	10.774
655.84	13.704
656.17	16.227
656.49	22.791
656.82	24.468
657.15	18.554
657.47	13.680
657.80	9.746
658.13	7.336
658.45	9.447
658.78	11.076
659.10	10.281
659.43	9.545
659.75	8.472
660.08	8.179
660.41	7.279
660.73	6.385
661.06	4.405
661.38	5.742
661.71	6.034
662.03	4.938
662.36	8.945
662.68	7.692
663.01	7.965
663.33	7.372
663.66	9.341
663.98	5.577
664.31	6.379
664.63	3.083
664.96	5.445
665.28	5.263
665.61	8.042
665.93	3.571
666.26	7.168
666.58	3.875
666.91	7.290
667.23	6.095
667.56	6.312
667.88	7.800
668.21	3.320
668.53	2.510
668.86	5.305
669.18	4.684
669.50	5.567
669.83	5.800
670.15	5.118
670.48	7.143
670.80	3.633
671.13	5.860
671.45	4.528
671.77	8.475
672.10	6.333
672.42	6.634
672.75	5.530
673.07	7.761
673.39	7.088
673.72	7.550
674.04	9.483
674.37	7.335
674.69	8.818
675.01	5.143
675.34	5.534
675.66	5.243
675.98	5.597
676.31	5.078
676.63	7.414
676.95	7.471
677.28	5.444
677.60	4.921
677.92	5.374
678.25	6.947
678.57	7.473
678.89	9.727
679.22	6.620
679.54	5.641
679.86	6.102
680.18	5.804
680.51	6.132
680.83	5.728
681.15	5.517
681.48	6.045
681.80	6.218
682.12	5.420
682.44	7.012
682.77	5.319
683.09	6.818
683.41	6.589
683.73	7.400
684.06	5.904
684.38	5.367
684.70	5.925
685.02	6.885
685.34	5.990
685.67	6.782
685.99	7.362
686.31	6.395
686.63	5.055
686.96	6.940
687.28	8.143
687.60	6.566
687.92	9.003
688.24	6.177
688.56	4.483
688.89	5.989
689.21	4.892
689.53	6.078
689.85	2.761
690.17	4.815
690.49	6.375
690.82	4.158
691.14	5.870
691.46	7.075
691.78	8.656
692.10	4.954
692.42	4.107
692.74	5.626
693.06	5.000
693.39	7.021
693.71	5.451
694.03	6.691
694.35	5.905
694.67	6.982
694.99	2.766
695.31	0.883
695.63	3.896
695.95	6.211
696.27	3.736
696.59	5.531
696.91	4.730
697.23	5.714
697.56	3.462
697.88	3.788
698.20	6.215
698.52	8.712
698.84	5.198
699.16	7.551
699.48	6.276
699.80	3.404
700.12	5.022
700.44	4.608
700.76	4.988
701.08	5.811
701.40	2.332
701.72	4.229
702.04	2.674
702.36	2.094
702.68	3.423
703.00	1.467
703.32	1.232
703.64	5.134
703.96	3.341
704.28	2.457
704.60	4.051
704.91	3.061
705.23	1.370
705.55	1.671
705.87	2.424
706.19	3.067
706.51	2.711
706.83	3.170
707.15	3.175
707.47	3.505
707.79	2.183
708.11	2.754
708.43	5.376
708.74	2.679
709.06	5.104
709.38	7.512
709.70	5.459
710.02	3.101
710.34	4.255
710.66	-0.838
710.98	-1.366
711.29	-2.198
711.61	2.260
711.93	3.989
712.25	4.054
712.57	2.655
712.89	2.059
713.20	1.183
713.52	4.046
713.84	1.114
714.16	3.684
714.48	4.124
714.80	4.156
715.11	2.887
715.43	0.531
715.75	1.579
716.07	1.105
716.39	5.191
716.70	2.410
717.02	2.951
717.34	-1.742
717.66	0.000
717.97	-4.795
718.29	1.031
718.61	2.632
718.93	2.589
719.24	2.174
719.56	3.374
719.88	-0.300
720.20	-0.323
720.51	2.795
720.83	3.750
721.15	0.329
721.46	-2.740
721.78	1.000
722.10	-1.294
722.42	0.671
722.73	0.645
723.05	2.456
723.37	-0.694
723.68	1.434
724.00	2.166
724.32	-1.056
724.63	1.049
724.95	3.546
725.27	3.136
725.58	-0.707
725.90	1.724
726.22	-0.313
726.53	2.597
726.85	3.145
727.16	3.323
727.48	6.422
727.80	5.960
728.11	-3.180
728.43	-0.673
728.74	0.334
729.06	1.656
729.38	4.545
729.69	3.356
730.01	3.869
730.32	-1.212
730.64	0.943
730.96	-4.658
731.27	5.866
731.59	2.473
731.90	0.779
732.22	2.083
732.53	1.934
732.85	2.286
733.16	0.587
733.48	-1.524
733.80	3.064
734.11	1.709
734.43	8.649
734.74	6.835
735.06	1.005
735.37	4.054
735.69	3.784
736.00	2.542
736.32	2.965
736.63	0.278
736.95	0.575
737.26	2.727
737.58	1.212
737.89	4.706
738.21	-0.306
738.52	-3.607
738.83	-0.341
739.15	0.709
739.46	5.102
739.78	2.454
740.09	-1.433
740.41	4.665
740.72	-1.333
741.04	2.589
741.35	3.860
741.66	-2.745
741.98	-0.820
742.29	-3.766
742.61	0.000
742.92	-2.692
743.23	2.527
743.55	-0.388
743.86	-4.000
744.18	-5.372
744.49	-7.173
744.80	-2.058
745.12	-2.110
745.43	-0.407
745.74	-5.603
746.06	-5.932
746.37	-1.266
746.68	2.033
747.00	-0.833
747.31	-0.429
747.62	1.538
747.94	-2.834
748.25	-2.410
748.56	-1.224
748.88	-8.120
749.19	-1.293
749.50	-4.329
749.82	3.213
750.13	4.270
750.44	-1.667
750.75	0.000
751.07	3.385
751.38	0.631
751.69	0.319
752.01	-2.589
752.32	0.980
752.63	0.340
752.94	1.384
753.26	-2.602
753.57	-0.370
753.88	-4.120
754.19	3.859
754.51	0.000
754.82	2.572
755.13	2.951
755.44	-1.024
755.75	0.000
756.07	1.791
756.38	2.201
756.69	3.614
757.00	0.831
757.31	4.098
757.63	3.069
757.94	3.052
758.25	3.160
758.56	2.832
758.87	3.864
759.18	0.267
759.50	2.833
759.81	3.922
760.12	5.121
760.43	4.687
760.74	6.158
761.05	1.000
761.36	3.855
761.67	1.523
761.99	4.595
762.30	2.439
762.61	-0.330
762.92	-1.119
763.23	0.375
763.54	3.237
763.85	1.031
764.16	-0.673
764.47	-0.704
764.78	1.597
765.10	4.692
765.41	5.385
765.72	1.587
766.03	7.062
766.34	1.567
766.65	-2.091
766.96	-1.195
767.27	-5.530
767.58	-7.960
767.89	2.885
768.20	-0.939
768.51	-0.926
768.82	-0.803
769.13	1.515
769.44	-7.308
769.75	0.361
770.06	1.538
770.37	2.756
770.68	-0.851
770.99	-6.073
771.30	5.185
771.61	-0.380
771.92	-2.593
772.23	1.215
772.54	-10.185
772.85	1.843
773.16	1.429
773.47	-6.349
773.78	-7.568
774.09	-7.386
774.39	1.000
774.70	-3.279
775.01	-10.976
775.32	-13.529
775.63	-7.975
775.94	-14.650
776.25	-1.935
776.56	-6.410
776.87	-3.401
777.18	-11.034
777.48	-14.685
777.79	-12.162
778.10	-13.971
778.41	-4.861
778.72	-3.448
779.03	-6.173
779.34	-10.303
779.65	-5.699
779.95	-3.889
780.26	-3.977
780.57	-3.871
780.88	-13.043
781.19	-3.226
781.50	-3.529
781.80	-6.989
782.11	1.587
782.42	-8.081
782.73	-7.186
783.04	-7.821
783.34	-6.667
783.65	-15.686
783.96	-10.559
784.27	-6.548
784.57	-11.258
784.88	-15.000
785.19	-14.961
785.50	-14.961
785.81	-8.271
786.11	-6.154
786.42	-20.863
786.73	-15.827
787.04	-12.782
787.34	-12.295
787.65	-17.600
787.96	-12.687
788.26	-5.594
788.57	-8.392
788.88	-10.526
789.19	-9.804
789.49	-6.849
789.80	2.128
790.11	-11.024
790.41	-14.844
790.72	-16.949
791.03	-24.272
791.33	-14.783
791.64	-5.263
791.95	-20.536
792.25	-21.905
792.56	-8.036
792.87	-22.917
793.17	-14.286
793.48	-27.083
793.79	-39.759
794.09	-18.349
794.40	-13.761
794.70	-8.844
795.01	-13.636
795.32	-15.068
795.62	-16.901
795.93	-15.152
796.23	-9.016
796.54	-25.000
796.85	-17.021
797.15	-26.087
797.46	-34.247
797.76	-27.500
798.07	-20.652
798.37	-26.804
798.68	-29.870
798.99	-24.138
799.29	-14.607
799.60	-19.149
799.90	-26.506
800.21	-43.077
800.51	-40.299
800.82	-25.000
801.12	-50.685
801.43	-55.882
801.73	-49.153
802.04	-22.727
802.34	-46.667
802.65	-35.593
802.95	-37.313
803.26	-38.983
803.56	-34.247
803.87	-25.714
804.17	-24.658
804.48	-64.912
804.78	-38.889
805.09	-60.345
805.39	-35.135
805.70	-39.437
806.00	-12.195
806.30	-24.096
806.61	-36.986
806.91	-18.269
807.22	-15.556
807.52	-26.437
807.83	-27.778
808.13	-21.687
808.43	-30.337
808.74	-23.750
809.04	-36.765
809.35	-24.000
809.65	-37.143
809.95	-30.137
810.26	-49.123
810.56	-46.552
810.86	-29.412
811.17	-50.877
811.47	-52.459
811.77	-73.333
812.08	-42.373
812.38	-31.667
812.69	-41.379
812.99	-66.038
813.29	-79.487
813.59	-46.000
813.90	-43.860
814.20	-58.182
814.50	-18.310
814.81	-26.923
815.11	-27.869
815.41	-38.806
815.72	-36.207
816.02	-44.643
816.32	-46.667
816.62	-43.182
816.93	-64.444
817.23	-20.370
817.53	-53.191
817.84	-59.524
818.14	-85.294
818.44	-40.816
818.74	-48.889
819.04	-89.744
819.35	-94.286
819.65	-138.462
819.95	-32.075
820.25	-40.000
820.56	-83.333
820.86	-103.125
821.16	-76.923
821.46	-76.744
821.76	-64.000
822.07	-41.071
822.37	-58.696
822.67	-29.787
822.97	-72.973
823.27	-70.000
823.57	-42.857
823.88	-57.778
824.18	-57.500
824.48	-93.333
824.78	-108.000
825.08	-90.909
825.38	-42.222
825.69	-29.787
825.99	-50.000
826.29	-122.857
826.59	-82.051
826.89	-39.535
827.19	-42.000
827.49	-52.941
827.79	-35.417
828.09	-89.189
828.39	-83.333
828.70	-58.537
829.00	-62.791
829.30	-96.429
829.60	-88.235
829.90	-69.565
830.20	-85.714
830.50	-103.448
830.80	-200.000
831.10	-80.769
831.40	-64.706
831.70	-138.095
832.00	-67.742
832.30	-288.235
832.60	-166.667
832.90	-315.385
833.20	-247.368
833.50	-195.000
833.80	-136.842
834.10	-209.524
834.40	-61.111
834.70	-62.500
835.00	-94.286
835.30	-79.412
835.60	-100.000
835.90	-92.000
836.20	-200.000
836.50	-88.000
836.80	-121.212
837.10	-129.630
837.40	-100.000
837.70	-268.750
838.00	-85.714
838.30	-143.478
838.60	-48.276
838.90	-200.000
839.19	-191.304
839.49	-316.667
839.79	-121.739
840.09	-237.500
840.39	-190.000
840.69	-96.774
840.99	-107.143
841.29	-240.000
841.59	-126.316
841.88	-30.769
842.18	-138.462
842.48	-350.000
842.78	-150.000
843.08	-73.333
843.38	-100.000
843.68	-205.556
843.97	-52.941
844.27	-143.750
844.57	-163.158
844.87	-410.000
845.17	-206.667
845.47	-71.429
845.76	-138.095
846.06	-344.444
846.36	-170.588
846.66	-115.385
846.96	-173.333
847.25	-176.471
847.55	-121.739
847.85	-150.000
848.15	-164.706
848.44	-327.273
848.74	-95.238
849.04	-133.333
849.34	-206.250
849.63	-143.478
849.93	2200.000
850.23	-200.000
850.53	-84.615
850.82	-227.273
851.12	-77.273
851.42	-318.182
851.71	-223.077
852.01	-145.000
852.31	-230.769
852.61	-173.684
852.90	-191.667
853.20	-122.222
853.50	-377.778
853.79	-166.667
854.09	-163.636
854.39	-325.000
854.68	-80.645
854.98	-111.538
855.28	-105.556
855.57	-110.714
855.87	-88.000
856.17	-95.455
856.46	-74.074
856.76	-188.889
857.05	-173.913
857.35	-179.167
857.65	-246.154
857.94	-176.190
858.24	-74.074
858.53	-56.522
858.83	-88.235
859.13	-147.059
859.42	-141.176
859.72	-214.286
860.01	-130.000
860.31	-277.778
860.60	-270.000
860.90	-200.000
861.20	-177.778
861.49	-292.308
861.79	-93.333
862.08	-238.462
862.38	-75.000
862.67	-188.235
862.97	-187.500
863.26	-477.778
863.56	-340.000
863.85	-263.636
864.15	-122.222
864.44	-1100.000
864.74	-264.286
865.03	-125.000
865.33	-300.000
865.62	-90.323
865.92	-131.818
866.21	-91.304
866.51	-192.857
866.80	-640.000
867.10	-291.667
867.39	-266.667
867.69	4000.000
867.98	-471.429
868.27	-100.000
868.57	-4400.000
868.86	-340.000
869.16	-157.143
869.45	-87.500
869.75	-327.273
870.04	-457.143
870.33	-250.000
870.63	-585.714
870.92	-800.000
871.22	-425.000
871.51	-290.909
871.80	-1166.667
872.10	-1900.000
>>>>>End Processed Spectral Data<<<<<
