SpectraSuite Data File
++++++++++++++++++++++++++++++++++++
Date: Thu May 14 16:04:25 PDT 2015
User: schluterlab
Dark Spectrum Present: Yes
Reference Spectrum Present: Yes
Number of Sampled Component Spectra: 1
Spectrometers: USB2E3373
Integration Time (usec): 3000 (USB2E3373)
Spectra Averaged: 3 (USB2E3373)
Boxcar Smoothing: 0 (USB2E3373)
Correct for Electrical Dark: No (USB2E3373)
Strobe/Lamp Enabled: No (USB2E3373)
Correct for Detector Non-linearity: No (USB2E3373)
Correct for Stray Light: No (USB2E3373)
Number of Pixels in Processed Spectrum: 2048
>>>>>Begin Processed Spectral Data<<<<<
178.53	0.000
178.91	271.429
179.29	-2800.000
179.67	-1200.000
180.04	228.571
180.42	130.000
180.80	440.000
181.18	-1600.000
181.56	0.000
181.94	375.000
182.31	-475.000
182.69	466.667
183.07	-200.000
183.45	575.000
183.83	-266.667
184.20	-433.333
184.58	1400.000
184.96	-375.000
185.34	-166.667
185.72	-60.000
186.09	166.667
186.47	1100.000
186.85	420.000
187.23	-200.000
187.61	-1300.000
187.98	100.000
188.36	475.000
188.74	-350.000
189.12	-133.333
189.49	-56.250
189.87	-237.500
190.25	-100.000
190.63	-200.000
191.00	-155.556
191.38	0.000
191.76	-250.000
192.14	-183.333
192.51	350.000
192.89	-233.333
193.27	0.000
193.65	-200.000
194.02	-1400.000
194.40	-85.714
194.78	171.429
195.15	0.000
195.53	-81.818
195.91	0.000
196.29	-350.000
196.66	-61.538
197.04	-2000.000
197.42	-157.143
197.79	-900.000
198.17	-212.500
198.55	-271.429
198.92	-155.556
199.30	-225.000
199.68	-45.455
200.05	-57.143
200.43	-700.000
200.81	142.857
201.18	0.000
201.56	333.333
201.94	0.000
202.31	366.667
202.69	-177.778
203.07	700.000
203.44	-144.444
203.82	-475.000
204.19	-175.000
204.57	-316.667
204.95	-212.500
205.32	-1500.000
205.70	400.000
206.08	-250.000
206.45	-116.667
206.83	400.000
207.20	-50.000
207.58	-380.000
207.96	-200.000
208.33	-150.000
208.71	166.667
209.08	-100.000
209.46	0.000
209.84	300.000
210.21	600.000
210.59	950.000
210.96	900.000
211.34	-250.000
211.71	-262.500
212.09	-1200.000
212.46	0.000
212.84	1000.000
213.22	-300.000
213.59	-475.000
213.97	-210.000
214.34	-466.667
214.72	300.000
215.09	-275.000
215.47	0.000
215.84	214.286
216.22	1200.000
216.59	-140.000
216.97	-340.000
217.34	-450.000
217.72	-162.500
218.09	-400.000
218.47	-400.000
218.84	0.000
219.22	560.000
219.59	-47.059
219.97	-65.000
220.34	900.000
220.72	-166.667
221.09	-92.308
221.47	-466.667
221.84	-230.000
222.22	-214.286
222.59	0.000
222.97	-112.500
223.34	-280.000
223.72	-900.000
224.09	-575.000
224.46	-300.000
224.84	-180.000
225.21	-185.714
225.59	-350.000
225.96	-400.000
226.34	-34.615
226.71	283.333
227.08	-450.000
227.46	-73.333
227.83	-325.000
228.21	-21.053
228.58	225.000
228.95	650.000
229.33	-66.667
229.70	-130.000
230.08	15.789
230.45	150.000
230.82	-366.667
231.20	-71.429
231.57	-91.667
231.95	-109.091
232.32	-36.364
232.69	-5.000
233.07	-450.000
233.44	-58.824
233.81	-150.000
234.19	-11.111
234.56	-4.545
234.93	0.000
235.31	-47.368
235.68	-5.556
236.05	-20.000
236.43	26.923
236.80	24.000
237.17	-29.630
237.55	6.061
237.92	-70.000
238.29	-16.129
238.67	6.818
239.04	2.778
239.41	0.000
239.79	0.000
240.16	1.852
240.53	4.348
240.91	5.882
241.28	4.918
241.65	20.896
242.02	6.757
242.40	18.462
242.77	9.333
243.14	8.537
243.51	10.526
243.89	6.410
244.26	25.743
244.63	18.627
245.00	16.822
245.38	19.298
245.75	7.965
246.12	28.571
246.49	17.829
246.87	28.571
247.24	23.179
247.61	21.053
247.98	20.134
248.36	24.074
248.73	20.859
249.10	20.219
249.47	30.846
249.84	33.508
250.22	24.870
250.59	32.778
250.96	29.091
251.33	26.531
251.70	28.632
252.08	25.000
252.45	25.820
252.82	26.446
253.19	26.562
253.56	24.335
253.94	26.154
254.31	27.273
254.68	30.769
255.05	25.733
255.42	23.810
255.79	28.479
256.16	25.497
256.54	28.477
256.91	28.525
257.28	26.557
257.65	28.025
258.02	27.729
258.39	25.071
258.76	29.358
259.14	31.034
259.51	26.513
259.88	31.161
260.25	25.556
260.62	26.301
260.99	31.694
261.36	31.635
261.73	28.117
262.10	29.121
262.47	26.542
262.85	30.808
263.22	30.649
263.59	27.895
263.96	28.389
264.33	27.877
264.70	29.877
265.07	31.265
265.44	30.839
265.81	26.620
266.18	28.345
266.55	30.134
266.92	28.246
267.29	29.540
267.66	30.820
268.03	32.533
268.40	27.140
268.77	28.018
269.14	31.057
269.51	29.605
269.88	29.508
270.25	30.382
270.62	29.114
270.99	30.101
271.36	31.881
271.73	27.898
272.10	30.661
272.47	30.461
272.84	27.711
273.21	28.056
273.58	26.411
273.95	27.500
274.32	30.608
274.69	28.820
275.06	29.487
275.43	26.433
275.80	27.513
276.17	28.148
276.54	25.187
276.91	28.086
277.28	26.763
277.65	30.700
278.02	27.941
278.39	27.536
278.76	28.647
279.13	27.660
279.50	28.179
279.87	28.623
280.23	26.585
280.60	28.305
280.97	30.428
281.34	27.334
281.71	28.934
282.08	25.748
282.45	28.478
282.82	27.630
283.19	25.687
283.56	28.852
283.92	29.880
284.29	27.172
284.66	30.870
285.03	24.840
285.40	28.594
285.77	28.483
286.14	27.939
286.51	27.245
286.87	25.592
287.24	27.711
287.61	27.354
287.98	26.737
288.35	26.923
288.72	28.107
289.08	28.551
289.45	26.036
289.82	24.096
290.19	26.437
290.56	28.028
290.93	25.963
291.29	25.620
291.66	25.758
292.03	24.559
292.40	23.946
292.77	24.528
293.13	25.169
293.50	22.733
293.87	24.430
294.24	24.133
294.60	23.262
294.97	22.819
295.34	24.840
295.71	21.690
296.08	21.059
296.44	21.814
296.81	21.194
297.18	22.540
297.55	23.231
297.91	23.250
298.28	21.445
298.65	21.046
299.02	21.370
299.38	23.455
299.75	21.729
300.12	21.412
300.48	21.659
300.85	21.710
301.22	22.036
301.59	19.635
301.95	21.582
302.32	20.778
302.69	21.139
303.05	20.783
303.42	22.616
303.79	19.792
304.15	20.820
304.52	20.825
304.89	21.047
305.25	20.186
305.62	20.376
305.99	19.794
306.35	20.665
306.72	21.717
307.09	19.492
307.45	21.014
307.82	20.888
308.19	20.585
308.55	20.058
308.92	20.351
309.29	20.019
309.65	20.273
310.02	19.208
310.38	17.815
310.75	18.252
311.12	21.956
311.48	19.941
311.85	20.703
312.22	18.975
312.58	19.718
312.95	20.841
313.31	19.151
313.68	20.238
314.05	19.964
314.41	19.945
314.78	19.346
315.14	20.236
315.51	20.960
315.87	20.522
316.24	19.909
316.61	19.716
316.97	20.452
317.34	18.254
317.70	20.000
318.07	20.459
318.43	20.153
318.80	19.983
319.16	18.970
319.53	18.595
319.89	19.457
320.26	19.840
320.62	19.149
320.99	19.575
321.35	20.148
321.72	20.093
322.08	19.026
322.45	19.422
322.81	19.404
323.18	18.938
323.54	19.224
323.91	19.662
324.27	19.621
324.64	19.060
325.00	19.237
325.37	19.738
325.73	19.752
326.10	19.951
326.46	19.951
326.83	20.737
327.19	19.764
327.56	20.079
327.92	19.591
328.29	20.000
328.65	18.593
329.01	19.628
329.38	19.714
329.74	20.205
330.11	19.606
330.47	20.472
330.84	19.897
331.20	19.000
331.56	18.371
331.93	19.163
332.29	19.661
332.66	19.767
333.02	19.095
333.38	18.289
333.75	19.949
334.11	19.933
334.48	19.307
334.84	19.796
335.20	18.556
335.57	19.983
335.93	20.496
336.29	18.053
336.66	18.587
337.02	19.231
337.38	19.218
337.75	18.017
338.11	19.512
338.47	19.189
338.84	18.697
339.20	18.197
339.56	19.275
339.93	19.212
340.29	18.277
340.65	18.978
341.02	18.516
341.38	19.483
341.74	18.160
342.11	19.952
342.47	18.348
342.83	18.680
343.20	18.070
343.56	18.444
343.92	18.975
344.28	18.750
344.65	18.450
345.01	18.097
345.37	19.596
345.73	17.693
346.10	18.487
346.46	18.592
346.82	18.727
347.19	18.335
347.55	19.879
347.91	18.351
348.27	19.120
348.63	18.812
349.00	19.165
349.36	18.216
349.72	18.378
350.08	19.316
350.45	18.175
350.81	18.929
351.17	17.970
351.53	19.333
351.89	18.223
352.26	17.836
352.62	17.836
352.98	18.168
353.34	18.372
353.70	18.028
354.07	17.586
354.43	18.299
354.79	18.399
355.15	18.102
355.51	18.275
355.87	17.951
356.24	17.795
356.60	17.221
356.96	18.013
357.32	17.175
357.68	18.009
358.04	17.515
358.40	16.716
358.77	18.056
359.13	17.356
359.49	18.290
359.85	17.331
360.21	17.575
360.57	17.157
360.93	18.618
361.29	17.614
361.66	17.741
362.02	18.441
362.38	18.201
362.74	17.528
363.10	19.257
363.46	17.936
363.82	16.832
364.18	17.241
364.54	17.773
364.90	17.258
365.26	16.621
365.62	17.733
365.98	18.312
366.35	18.054
366.71	17.959
367.07	17.118
367.43	18.385
367.79	17.916
368.15	17.458
368.51	17.862
368.87	17.374
369.23	17.600
369.59	17.486
369.95	17.579
370.31	18.501
370.67	17.607
371.03	16.690
371.39	16.185
371.75	18.226
372.11	16.802
372.47	17.265
372.83	17.670
373.19	17.612
373.55	17.480
373.91	15.951
374.27	17.464
374.63	17.253
374.99	16.711
375.35	17.078
375.71	17.032
376.07	17.560
376.42	17.632
376.78	17.464
377.14	16.843
377.50	17.647
377.86	17.980
378.22	17.066
378.58	17.004
378.94	17.195
379.30	16.520
379.66	17.284
380.02	17.023
380.38	17.454
380.74	16.282
381.09	16.492
381.45	16.136
381.81	17.799
382.17	16.924
382.53	17.427
382.89	16.874
383.25	17.175
383.61	15.799
383.97	16.372
384.32	17.344
384.68	16.821
385.04	16.773
385.40	17.443
385.76	17.761
386.12	16.338
386.48	17.353
386.83	17.223
387.19	15.817
387.55	16.315
387.91	17.694
388.27	17.206
388.62	16.380
388.98	16.131
389.34	17.266
389.70	16.153
390.06	16.637
390.42	16.205
390.77	17.219
391.13	16.901
391.49	16.908
391.85	16.545
392.20	16.845
392.56	17.779
392.92	17.230
393.28	16.639
393.64	16.983
393.99	16.618
394.35	17.231
394.71	17.305
395.07	15.988
395.42	15.762
395.78	17.855
396.14	17.291
396.50	17.340
396.85	16.041
397.21	16.095
397.57	16.078
397.92	16.953
398.28	16.404
398.64	16.419
399.00	15.707
399.35	16.126
399.71	16.304
400.07	17.125
400.42	16.123
400.78	15.972
401.14	17.587
401.49	16.771
401.85	17.442
402.21	17.439
402.57	16.901
402.92	17.021
403.28	16.452
403.63	15.453
403.99	15.914
404.35	16.259
404.70	16.317
405.06	15.707
405.42	15.867
405.77	16.957
406.13	16.316
406.49	16.948
406.84	16.842
407.20	16.601
407.55	16.838
407.91	16.405
408.27	17.020
408.62	16.405
408.98	16.599
409.34	15.425
409.69	16.255
410.05	16.823
410.40	17.227
410.76	16.265
411.11	16.657
411.47	17.199
411.83	16.520
412.18	17.590
412.54	16.538
412.89	16.182
413.25	17.099
413.60	16.829
413.96	16.725
414.31	15.977
414.67	16.339
415.03	16.308
415.38	16.456
415.74	16.249
416.09	16.903
416.45	17.032
416.80	16.830
417.16	16.539
417.51	16.438
417.87	16.738
418.22	17.126
418.58	16.729
418.93	16.822
419.29	16.276
419.64	16.687
420.00	17.151
420.35	16.171
420.71	16.198
421.06	16.216
421.42	16.858
421.77	16.478
422.12	16.015
422.48	17.102
422.83	17.141
423.19	16.817
423.54	16.648
423.90	16.565
424.25	17.493
424.61	16.303
424.96	16.969
425.31	17.251
425.67	16.210
426.02	16.823
426.38	16.246
426.73	16.964
427.09	18.051
427.44	17.258
427.79	15.920
428.15	16.381
428.50	16.573
428.85	16.705
429.21	17.074
429.56	15.943
429.92	16.658
430.27	17.301
430.62	16.317
430.98	16.527
431.33	16.764
431.68	16.715
432.04	17.064
432.39	16.926
432.74	16.781
433.10	16.982
433.45	16.778
433.80	17.060
434.16	17.252
434.51	16.701
434.86	17.535
435.22	16.950
435.57	17.276
435.92	17.307
436.28	16.553
436.63	16.494
436.98	17.069
437.34	16.629
437.69	16.896
438.04	16.975
438.39	17.002
438.75	16.879
439.10	16.966
439.45	16.825
439.81	16.441
440.16	16.568
440.51	16.667
440.86	16.898
441.22	17.256
441.57	16.876
441.92	17.459
442.27	17.475
442.63	16.692
442.98	17.076
443.33	16.886
443.68	17.245
444.03	17.451
444.39	17.429
444.74	17.203
445.09	16.472
445.44	17.756
445.79	17.146
446.15	16.906
446.50	16.744
446.85	17.169
447.20	17.456
447.55	16.998
447.91	17.173
448.26	17.230
448.61	17.216
448.96	17.221
449.31	17.126
449.66	17.484
450.02	17.405
450.37	17.954
450.72	17.438
451.07	17.312
451.42	16.927
451.77	16.509
452.12	17.043
452.47	16.280
452.83	17.342
453.18	16.988
453.53	16.427
453.88	17.007
454.23	17.627
454.58	16.657
454.93	16.687
455.28	17.520
455.63	16.998
455.98	17.095
456.34	16.726
456.69	17.108
457.04	17.139
457.39	17.960
457.74	17.897
458.09	16.969
458.44	17.726
458.79	16.813
459.14	18.039
459.49	17.883
459.84	17.786
460.19	16.324
460.54	16.411
460.89	17.840
461.24	16.897
461.59	17.266
461.94	17.285
462.29	17.637
462.64	17.562
462.99	16.949
463.34	17.197
463.69	17.409
464.04	18.399
464.39	17.209
464.74	16.933
465.09	17.186
465.44	17.060
465.79	17.874
466.14	16.780
466.49	17.053
466.84	17.851
467.19	18.092
467.54	17.274
467.89	17.011
468.24	17.008
468.59	17.371
468.94	16.725
469.29	17.157
469.64	17.419
469.99	18.738
470.34	17.203
470.68	17.772
471.03	17.682
471.38	17.789
471.73	17.100
472.08	17.576
472.43	17.158
472.78	18.514
473.13	17.130
473.48	18.308
473.83	18.688
474.17	17.175
474.52	18.280
474.87	17.885
475.22	17.859
475.57	17.342
475.92	18.118
476.27	17.412
476.61	17.445
476.96	17.831
477.31	18.119
477.66	18.258
478.01	17.387
478.36	17.298
478.70	17.488
479.05	17.025
479.40	18.016
479.75	18.300
480.10	17.954
480.45	18.095
480.79	18.095
481.14	17.371
481.49	17.992
481.84	18.581
482.19	17.720
482.53	18.059
482.88	17.900
483.23	17.875
483.58	17.424
483.92	17.598
484.27	17.570
484.62	17.492
484.97	17.963
485.31	17.599
485.66	16.743
486.01	16.842
486.36	16.761
486.70	17.213
487.05	17.888
487.40	18.017
487.75	18.041
488.09	18.033
488.44	17.509
488.79	17.976
489.13	18.067
489.48	17.670
489.83	17.465
490.17	17.051
490.52	17.652
490.87	18.147
491.22	17.418
491.56	18.473
491.91	17.837
492.26	18.607
492.60	17.971
492.95	18.297
493.30	18.512
493.64	18.134
493.99	18.114
494.34	18.162
494.68	17.944
495.03	17.621
495.37	17.621
495.72	18.095
496.07	18.230
496.41	17.975
496.76	18.515
497.11	18.684
497.45	18.386
497.80	19.014
498.14	18.050
498.49	18.750
498.84	18.007
499.18	18.084
499.53	18.565
499.87	18.242
500.22	17.765
500.56	18.489
500.91	18.719
501.26	19.455
501.60	17.808
501.95	18.541
502.29	18.385
502.64	18.802
502.98	17.947
503.33	18.186
503.67	18.011
504.02	18.082
504.36	18.409
504.71	18.190
505.06	18.417
505.40	18.236
505.75	18.443
506.09	18.831
506.44	18.663
506.78	18.945
507.13	19.041
507.47	18.806
507.82	19.034
508.16	18.403
508.51	18.472
508.85	18.422
509.19	18.143
509.54	19.308
509.88	18.067
510.23	19.281
510.57	19.430
510.92	19.061
511.26	18.182
511.61	18.590
511.95	18.790
512.30	18.907
512.64	18.341
512.98	18.559
513.33	19.808
513.67	18.817
514.02	18.906
514.36	19.335
514.70	18.594
515.05	18.874
515.39	19.055
515.74	20.042
516.08	19.070
516.42	19.623
516.77	19.558
517.11	19.082
517.46	19.618
517.80	19.615
518.14	20.620
518.49	19.577
518.83	20.064
519.17	19.494
519.52	19.759
519.86	19.324
520.20	19.755
520.55	19.058
520.89	19.369
521.23	19.765
521.58	19.492
521.92	19.717
522.26	19.874
522.61	19.502
522.95	19.493
523.29	19.713
523.64	19.395
523.98	20.251
524.32	20.630
524.66	19.522
525.01	20.272
525.35	18.955
525.69	19.548
526.04	19.518
526.38	20.345
526.72	19.723
527.06	19.941
527.41	20.233
527.75	20.249
528.09	19.481
528.43	20.545
528.78	19.711
529.12	19.667
529.46	19.674
529.80	19.737
530.15	19.942
530.49	18.387
530.83	19.481
531.17	19.833
531.51	20.036
531.86	20.613
532.20	20.549
532.54	19.509
532.88	20.727
533.22	19.387
533.57	20.138
533.91	18.967
534.25	19.389
534.59	20.747
534.93	19.581
535.27	19.944
535.62	21.092
535.96	20.628
536.30	19.389
536.64	20.420
536.98	20.910
537.32	20.556
537.66	21.834
538.01	19.940
538.35	20.037
538.69	20.553
539.03	20.662
539.37	20.082
539.71	20.601
540.05	20.743
540.39	19.438
540.73	20.340
541.07	19.988
541.42	19.315
541.76	19.810
542.10	20.084
542.44	20.402
542.78	20.803
543.12	20.441
543.46	19.902
543.80	18.765
544.14	19.928
544.48	21.395
544.82	20.048
545.16	19.797
545.50	20.491
545.84	20.514
546.18	21.481
546.52	20.828
546.86	19.937
547.20	20.483
547.54	20.037
547.88	19.771
548.22	19.942
548.56	18.841
548.90	19.463
549.24	20.061
549.58	19.811
549.92	19.196
550.26	20.712
550.60	20.676
550.94	20.310
551.28	20.660
551.62	21.024
551.96	20.583
552.30	21.351
552.64	19.602
552.98	19.651
553.32	20.836
553.66	20.514
554.00	20.177
554.34	20.592
554.68	20.529
555.02	20.171
555.36	20.250
555.69	19.603
556.03	19.798
556.37	19.962
556.71	19.531
557.05	20.831
557.39	19.973
557.73	19.749
558.07	20.927
558.41	21.528
558.75	20.622
559.08	20.668
559.42	20.645
559.76	20.963
560.10	20.295
560.44	19.723
560.78	20.562
561.12	20.197
561.45	21.107
561.79	20.818
562.13	21.257
562.47	20.037
562.81	20.633
563.15	20.896
563.48	20.199
563.82	21.342
564.16	19.746
564.50	19.845
564.84	19.764
565.17	19.412
565.51	19.505
565.85	19.952
566.19	19.585
566.52	20.129
566.86	19.921
567.20	19.848
567.54	19.862
567.88	20.234
568.21	20.306
568.55	19.904
568.89	19.746
569.23	19.899
569.56	19.539
569.90	19.458
570.24	18.820
570.57	19.179
570.91	18.585
571.25	18.542
571.59	18.759
571.92	18.470
572.26	18.343
572.60	18.564
572.93	18.703
573.27	18.348
573.61	18.475
573.95	18.670
574.28	18.570
574.62	18.008
574.96	17.711
575.29	17.955
575.63	18.180
575.97	18.467
576.30	18.431
576.64	17.991
576.98	17.768
577.31	18.156
577.65	17.974
577.98	17.715
578.32	17.926
578.66	17.753
578.99	17.981
579.33	18.164
579.67	18.359
580.00	18.341
580.34	17.954
580.67	17.961
581.01	18.239
581.35	17.748
581.68	17.764
582.02	17.573
582.35	17.988
582.69	18.235
583.02	18.165
583.36	18.608
583.70	18.110
584.03	18.239
584.37	18.687
584.70	18.313
585.04	18.089
585.37	17.830
585.71	17.886
586.04	18.252
586.38	17.851
586.72	17.899
587.05	18.035
587.39	18.100
587.72	18.206
588.06	18.109
588.39	18.820
588.73	18.757
589.06	18.454
589.40	18.715
589.73	18.252
590.07	18.999
590.40	19.101
590.73	18.346
591.07	19.025
591.40	19.012
591.74	19.634
592.07	19.691
592.41	18.849
592.74	18.637
593.08	18.408
593.41	18.577
593.75	18.075
594.08	18.419
594.41	18.974
594.75	18.399
595.08	18.439
595.42	18.474
595.75	18.631
596.09	19.282
596.42	18.990
596.75	19.298
597.09	18.545
597.42	18.713
597.75	19.051
598.09	18.452
598.42	19.140
598.76	18.762
599.09	18.512
599.42	18.036
599.76	18.257
600.09	18.819
600.42	18.318
600.76	18.758
601.09	18.553
601.42	18.709
601.76	18.586
602.09	18.656
602.42	18.357
602.76	18.044
603.09	18.833
603.42	19.220
603.76	18.393
604.09	19.163
604.42	19.083
604.76	18.645
605.09	19.186
605.42	19.059
605.75	18.654
606.09	18.664
606.42	18.424
606.75	18.178
607.09	18.356
607.42	19.114
607.75	19.265
608.08	18.903
608.42	18.622
608.75	19.113
609.08	18.930
609.41	18.659
609.75	18.795
610.08	20.449
610.41	19.116
610.74	18.950
611.07	19.316
611.41	19.596
611.74	19.261
612.07	19.402
612.40	18.774
612.73	19.218
613.07	19.315
613.40	19.731
613.73	19.499
614.06	19.480
614.39	19.145
614.72	18.971
615.06	18.672
615.39	19.140
615.72	19.194
616.05	19.427
616.38	19.374
616.71	19.122
617.05	19.755
617.38	19.529
617.71	19.762
618.04	20.399
618.37	20.820
618.70	19.231
619.03	18.996
619.36	19.852
619.69	20.179
620.03	19.648
620.36	18.773
620.69	20.296
621.02	20.079
621.35	21.118
621.68	21.114
622.01	20.996
622.34	20.293
622.67	20.962
623.00	18.556
623.33	20.770
623.66	19.585
623.99	20.342
624.32	20.793
624.65	20.142
624.99	20.026
625.32	21.032
625.65	19.353
625.98	20.475
626.31	20.340
626.64	21.319
626.97	20.255
627.30	20.957
627.63	19.730
627.96	21.847
628.29	21.012
628.62	21.495
628.95	20.771
629.28	20.221
629.61	22.727
629.94	20.251
630.26	21.271
630.59	21.244
630.92	20.693
631.25	21.288
631.58	21.469
631.91	21.837
632.24	21.998
632.57	22.581
632.90	21.364
633.23	22.653
633.56	21.939
633.89	22.004
634.22	21.726
634.55	22.547
634.88	21.429
635.20	23.036
635.53	22.712
635.86	22.752
636.19	22.375
636.52	22.996
636.85	20.940
637.18	21.933
637.51	20.323
637.83	24.363
638.16	21.889
638.49	21.479
638.82	21.759
639.15	22.910
639.48	23.788
639.81	22.979
640.13	22.497
640.46	22.667
640.79	19.608
641.12	22.981
641.45	22.710
641.77	22.593
642.10	23.097
642.43	23.271
642.76	23.306
643.09	24.110
643.41	22.409
643.74	22.483
644.07	24.690
644.40	24.187
644.73	22.496
645.05	21.880
645.38	23.885
645.71	23.460
646.04	22.956
646.36	19.416
646.69	23.466
647.02	25.688
647.35	23.206
647.67	22.866
648.00	22.293
648.33	22.973
648.66	21.541
648.98	22.993
649.31	21.786
649.64	22.975
649.96	21.883
650.29	21.836
650.62	22.348
650.94	22.823
651.27	21.407
651.60	22.076
651.92	19.909
652.25	22.287
652.58	22.558
652.90	21.076
653.23	22.254
653.56	20.685
653.88	25.281
654.21	20.704
654.54	22.254
654.86	21.671
655.19	21.706
655.52	20.990
655.84	17.483
656.17	20.112
656.49	28.504
656.82	31.212
657.15	24.503
657.47	18.726
657.80	14.148
658.13	11.373
658.45	15.213
658.78	18.285
659.10	17.635
659.43	18.013
659.75	18.200
660.08	17.983
660.41	18.031
660.73	17.560
661.06	19.677
661.38	22.169
661.71	22.586
662.03	24.515
662.36	23.077
662.68	21.576
663.01	22.478
663.33	24.764
663.66	27.289
663.98	22.308
664.31	24.578
664.63	22.543
664.96	22.686
665.28	22.142
665.61	22.378
665.93	21.250
666.26	24.194
666.58	19.557
666.91	24.860
667.23	23.429
667.56	22.682
667.88	22.600
668.21	21.289
668.53	16.988
668.86	25.540
669.18	21.589
669.50	23.260
669.83	23.800
670.15	21.654
670.48	22.817
670.80	22.180
671.13	22.684
671.45	21.457
671.77	25.612
672.10	23.000
672.42	21.845
672.75	20.276
673.07	21.045
673.39	20.185
673.72	22.483
674.04	22.586
674.37	21.646
674.69	23.810
675.01	21.333
675.34	22.710
675.66	22.846
675.98	21.828
676.31	23.633
676.63	24.335
676.95	23.563
677.28	23.790
677.60	18.701
677.92	22.649
678.25	23.766
678.57	21.352
678.89	22.696
679.22	21.254
679.54	19.487
679.86	20.169
680.18	22.056
680.51	23.113
680.83	19.967
681.15	19.310
681.48	23.143
681.80	20.380
682.12	20.804
682.44	21.870
682.77	21.099
683.09	22.348
683.41	24.225
683.73	20.304
684.06	21.218
684.38	20.036
684.70	22.262
685.02	20.482
685.34	22.962
685.67	19.085
685.99	19.939
686.31	18.895
686.63	19.115
686.96	20.505
687.28	20.521
687.60	20.034
687.92	20.579
688.24	23.205
688.56	20.000
688.89	23.230
689.21	22.505
689.53	19.412
689.85	21.696
690.17	21.481
690.49	21.912
690.82	20.792
691.14	20.243
691.46	20.841
691.78	24.309
692.10	19.817
692.42	19.821
692.74	22.142
693.06	17.963
693.39	21.252
693.71	18.985
694.03	22.491
694.35	21.143
694.67	21.766
694.99	20.213
695.31	19.868
695.63	22.294
695.95	21.946
696.27	21.758
696.59	21.239
696.91	22.523
697.23	24.396
697.56	19.756
697.88	19.508
698.20	20.904
698.52	23.674
698.84	22.453
699.16	21.633
699.48	20.711
699.80	20.000
700.12	20.961
700.44	18.203
700.76	22.803
701.08	21.308
701.40	23.057
701.72	22.388
702.04	19.251
702.36	20.419
702.68	20.049
703.00	19.315
703.32	18.966
703.64	22.249
703.96	20.286
704.28	23.096
704.60	24.810
704.91	19.643
705.23	23.288
705.55	21.170
705.87	23.333
706.19	22.393
706.51	18.072
706.83	19.020
707.15	21.164
707.47	15.421
707.79	20.961
708.11	19.492
708.43	15.269
708.74	18.304
709.06	21.346
709.38	22.066
709.70	20.596
710.02	20.155
710.34	22.340
710.66	17.318
710.98	20.219
711.29	20.330
711.61	22.034
711.93	19.658
712.25	20.541
712.57	24.484
712.89	22.059
713.20	18.639
713.52	17.919
713.84	20.613
714.16	21.053
714.48	23.196
714.80	20.779
715.11	16.273
715.43	20.424
715.75	19.211
716.07	18.785
716.39	20.765
716.70	19.277
717.02	20.656
717.34	19.512
717.66	25.168
717.97	19.521
718.29	20.619
718.61	17.105
718.93	18.123
719.24	21.429
719.56	18.712
719.88	18.919
720.20	17.097
720.51	18.944
720.83	19.688
721.15	22.039
721.46	18.493
721.78	21.000
722.10	14.239
722.42	16.443
722.73	17.419
723.05	20.702
723.37	19.444
723.68	22.222
724.00	19.856
724.32	19.718
724.63	23.427
724.95	20.213
725.27	20.906
725.58	19.081
725.90	21.724
726.22	20.690
726.53	21.104
726.85	19.811
727.16	19.335
727.48	20.795
727.80	19.205
728.11	15.901
728.43	19.865
728.74	18.060
729.06	17.881
729.38	19.156
729.69	18.121
730.01	17.262
730.32	13.030
730.64	16.981
730.96	17.391
731.27	21.508
731.59	15.110
731.90	13.766
732.22	15.885
732.53	17.127
732.85	17.714
733.16	15.249
733.48	16.159
733.80	17.270
734.11	17.949
734.43	20.270
734.74	20.759
735.06	19.095
735.37	15.676
735.69	16.216
736.00	18.644
736.32	18.059
736.63	19.167
736.95	18.103
737.26	20.000
737.58	15.152
737.89	18.824
738.21	15.902
738.52	15.738
738.83	19.113
739.15	19.858
739.46	19.048
739.78	18.712
740.09	17.192
740.41	14.577
740.72	16.333
741.04	17.476
741.35	17.895
741.66	14.118
741.98	22.131
742.29	19.247
742.61	15.789
742.92	19.615
743.23	17.690
743.55	17.442
743.86	18.800
744.18	23.554
744.49	13.080
744.80	22.222
745.12	16.878
745.43	18.293
745.74	21.552
746.06	14.407
746.37	20.675
746.68	22.358
747.00	15.833
747.31	17.167
747.62	15.769
747.94	15.385
748.25	20.884
748.56	17.551
748.88	17.521
749.19	19.397
749.50	19.048
749.82	18.876
750.13	20.285
750.44	15.333
750.75	18.154
751.07	17.231
751.38	19.558
751.69	19.169
752.01	16.828
752.32	18.627
752.63	20.748
752.94	20.069
753.26	13.383
753.57	14.444
753.88	14.232
754.19	15.113
754.51	17.042
754.82	17.685
755.13	20.328
755.44	20.478
755.75	16.118
756.07	22.090
756.38	15.723
756.69	19.578
757.00	16.620
757.31	18.306
757.63	16.113
757.94	15.728
758.25	16.704
758.56	18.301
758.87	19.091
759.18	18.400
759.50	18.697
759.81	16.527
760.12	19.677
760.43	15.104
760.74	16.995
761.05	15.000
761.36	16.627
761.67	14.467
761.99	17.027
762.30	15.854
762.61	17.492
762.92	14.179
763.23	19.476
763.54	19.424
763.85	19.244
764.16	14.141
764.47	16.549
764.78	18.530
765.10	17.009
765.41	18.718
765.72	13.757
766.03	17.797
766.34	14.420
766.65	17.073
766.96	14.741
767.27	21.198
767.58	11.940
767.89	23.558
768.20	20.188
768.51	15.278
768.82	16.466
769.13	18.182
769.44	9.615
769.75	18.412
770.06	18.846
770.37	18.898
770.68	11.064
770.99	11.741
771.30	21.481
771.61	19.011
771.92	14.815
772.23	18.623
772.54	14.352
772.85	18.433
773.16	16.190
773.47	13.757
773.78	11.351
774.09	13.636
774.39	18.500
774.70	14.754
775.01	8.537
775.32	14.706
775.63	15.951
775.94	12.102
776.25	12.258
776.56	14.744
776.87	23.129
777.18	15.172
777.48	15.385
777.79	13.514
778.10	10.294
778.41	15.278
778.72	14.483
779.03	10.494
779.34	13.939
779.65	12.953
779.95	16.111
780.26	18.182
780.57	18.710
780.88	18.116
781.19	20.645
781.50	19.412
781.80	16.129
782.11	17.460
782.42	13.636
782.73	14.371
783.04	8.939
783.34	5.455
783.65	10.458
783.96	15.528
784.27	17.262
784.57	15.894
784.88	11.429
785.19	14.173
785.50	16.535
785.81	8.271
786.11	16.154
786.42	6.475
786.73	10.072
787.04	19.549
787.34	18.033
787.65	10.400
787.96	9.701
788.26	23.077
788.57	24.476
788.88	8.553
789.19	18.301
789.49	9.589
789.80	14.894
790.11	19.685
790.41	7.031
790.72	19.492
791.03	4.854
791.33	16.522
791.64	16.667
791.95	2.679
792.25	14.286
792.56	17.857
792.87	10.417
793.17	9.821
793.48	6.250
793.79	-8.434
794.09	3.670
794.40	8.257
794.70	12.925
795.01	7.792
795.32	9.589
795.62	10.563
795.93	9.848
796.23	12.295
796.54	4.464
796.85	3.191
797.15	5.435
797.46	5.479
797.76	11.250
798.07	7.609
798.37	-4.124
798.68	7.792
798.99	8.046
799.29	1.124
799.60	6.383
799.90	4.819
800.21	0.000
800.51	-7.463
800.82	-5.882
801.12	-19.178
801.43	-13.235
801.73	-5.085
802.04	10.606
802.34	-13.333
802.65	-3.390
802.95	5.970
803.26	1.695
803.56	5.479
803.87	12.857
804.17	13.699
804.48	-19.298
804.78	2.778
805.09	-15.517
805.39	6.757
805.70	4.225
806.00	6.098
806.30	4.819
806.61	0.000
806.91	11.538
807.22	-6.667
807.52	0.000
807.83	19.444
808.13	10.843
808.43	11.236
808.74	-3.750
809.04	-20.588
809.35	0.000
809.65	-7.143
809.95	12.329
810.26	-19.298
810.56	0.000
810.86	-5.882
811.17	-5.263
811.47	-3.279
811.77	-24.444
812.08	1.695
812.38	13.333
812.69	20.690
812.99	-18.868
813.29	-20.513
813.59	4.000
813.90	1.754
814.20	-18.182
814.50	0.000
814.81	15.385
815.11	6.557
815.41	-7.463
815.72	12.069
816.02	7.143
816.32	6.667
816.62	-20.455
816.93	0.000
817.23	3.704
817.53	-6.383
817.84	14.286
818.14	-17.647
818.44	-10.204
818.74	-8.889
819.04	-10.256
819.35	-22.857
819.65	-26.923
819.95	13.208
820.25	0.000
820.56	2.381
820.86	-28.125
821.16	-35.897
821.46	-30.233
821.76	-34.000
822.07	7.143
822.37	8.696
822.67	-25.532
822.97	-32.432
823.27	-37.500
823.57	0.000
823.88	-4.444
824.18	-7.500
824.48	-20.000
824.78	-20.000
825.08	-30.303
825.38	20.000
825.69	-10.638
825.99	-2.778
826.29	-57.143
826.59	-20.513
826.89	-6.977
827.19	-8.000
827.49	-11.765
827.79	2.083
828.09	-40.541
828.39	-30.000
828.70	-24.390
829.00	-20.930
829.30	-21.429
829.60	-5.882
829.90	-8.696
830.20	-25.714
830.50	-27.586
830.80	-44.444
831.10	-42.308
831.40	-11.765
831.70	-33.333
832.00	-32.258
832.30	-94.118
832.60	-29.167
832.90	-76.923
833.20	-47.368
833.50	-50.000
833.80	0.000
834.10	-95.238
834.40	19.444
834.70	-21.875
835.00	-51.429
835.30	-23.529
835.60	-30.000
835.90	-32.000
836.20	-77.273
836.50	-60.000
836.80	-45.455
837.10	-25.926
837.40	-18.519
837.70	-106.250
838.00	-28.571
838.30	-69.565
838.60	0.000
838.90	-78.571
839.19	-100.000
839.49	-150.000
839.79	-30.435
840.09	-75.000
840.39	-40.000
840.69	-12.903
840.99	-50.000
841.29	-86.667
841.59	-31.579
841.88	0.000
842.18	-50.000
842.48	-220.000
842.78	-85.000
843.08	-26.667
843.38	3.226
843.68	-100.000
843.97	-5.882
844.27	-81.250
844.57	-68.421
844.87	-120.000
845.17	-40.000
845.47	-19.048
845.76	-38.095
846.06	-211.111
846.36	-94.118
846.66	-50.000
846.96	-60.000
847.25	-100.000
847.55	-39.130
847.85	-55.000
848.15	-94.118
848.44	-172.727
848.74	9.524
849.04	-16.667
849.34	-87.500
849.63	-43.478
849.93	750.000
850.23	-26.667
850.53	-19.231
850.82	-90.909
851.12	36.364
851.42	-81.818
851.71	-61.538
852.01	-65.000
852.31	-61.538
852.61	-42.105
852.90	-158.333
853.20	-50.000
853.50	-188.889
853.79	-42.857
854.09	-31.818
854.39	-125.000
854.68	-19.355
854.98	-73.077
855.28	-61.111
855.57	-50.000
855.87	-56.000
856.17	-45.455
856.46	-14.815
856.76	-72.222
857.05	-56.522
857.35	-54.167
857.65	-192.308
857.94	-19.048
858.24	-14.815
858.53	17.391
858.83	-52.941
859.13	-105.882
859.42	-52.941
859.72	0.000
860.01	-30.000
860.31	-88.889
860.60	-80.000
860.90	-53.333
861.20	-27.778
861.49	-107.692
861.79	-30.000
862.08	-130.769
862.38	-40.625
862.67	17.647
862.97	31.250
863.26	-166.667
863.56	-70.000
863.85	-163.636
864.15	-61.111
864.44	-466.667
864.74	-71.429
865.03	-43.750
865.33	-120.000
865.62	-32.258
865.92	-50.000
866.21	-21.739
866.51	-21.429
866.80	-500.000
867.10	-141.667
867.39	-158.333
867.69	1700.000
867.98	-214.286
868.27	-41.176
868.57	-2700.000
868.86	-220.000
869.16	-28.571
869.45	-8.333
869.75	-118.182
870.04	-200.000
870.33	-25.000
870.63	-328.571
870.92	-275.000
871.22	-162.500
871.51	-90.909
871.80	-800.000
872.10	-650.000
>>>>>End Processed Spectral Data<<<<<
