SpectraSuite Data File
++++++++++++++++++++++++++++++++++++
Date: Thu May 14 15:52:00 PDT 2015
User: schluterlab
Dark Spectrum Present: Yes
Reference Spectrum Present: Yes
Number of Sampled Component Spectra: 1
Spectrometers: USB2E3373
Integration Time (usec): 3000 (USB2E3373)
Spectra Averaged: 3 (USB2E3373)
Boxcar Smoothing: 0 (USB2E3373)
Correct for Electrical Dark: No (USB2E3373)
Strobe/Lamp Enabled: No (USB2E3373)
Correct for Detector Non-linearity: No (USB2E3373)
Correct for Stray Light: No (USB2E3373)
Number of Pixels in Processed Spectrum: 2048
>>>>>Begin Processed Spectral Data<<<<<
178.53	0.000
178.91	614.286
179.29	-6300.000
179.67	-4800.000
180.04	392.857
180.42	430.000
180.80	980.000
181.18	-4600.000
181.56	-3400.000
181.94	1150.000
182.31	-1000.000
182.69	1500.000
183.07	-1600.000
183.45	1025.000
183.83	-566.667
184.20	-1400.000
184.58	3900.000
184.96	-1100.000
185.34	-433.333
185.72	-760.000
186.09	500.000
186.47	2100.000
186.85	820.000
187.23	-511.111
187.61	-4800.000
187.98	880.000
188.36	1025.000
188.74	-825.000
189.12	-1166.667
189.49	-250.000
189.87	-537.500
190.25	-444.444
190.63	-760.000
191.00	-522.222
191.38	0.000
191.76	-1200.000
192.14	-666.667
192.51	2050.000
192.89	-650.000
193.27	0.000
193.65	-528.571
194.02	-4800.000
194.40	-557.143
194.78	614.286
195.15	0.000
195.53	-318.182
195.91	0.000
196.29	-900.000
196.66	-261.538
197.04	-4000.000
197.42	-600.000
197.79	-2200.000
198.17	-562.500
198.55	-685.714
198.92	-411.111
199.30	-512.500
199.68	-300.000
200.05	-207.143
200.43	-2650.000
200.81	700.000
201.18	0.000
201.56	488.889
201.94	0.000
202.31	1466.667
202.69	-544.444
203.07	3600.000
203.44	-388.889
203.82	-875.000
204.19	-308.333
204.57	-700.000
204.95	-525.000
205.32	-4800.000
205.70	1125.000
206.08	-700.000
206.45	-700.000
206.83	1020.000
207.20	-650.000
207.58	-860.000
207.96	-733.333
208.33	-566.667
208.71	375.000
209.08	-450.000
209.46	0.000
209.84	783.333
210.21	1900.000
210.59	1800.000
210.96	1400.000
211.34	-775.000
211.71	-512.500
212.09	-4500.000
212.46	0.000
212.84	2700.000
213.22	-860.000
213.59	-950.000
213.97	-290.000
214.34	-1433.333
214.72	733.333
215.09	-1225.000
215.47	0.000
215.84	571.429
216.22	2150.000
216.59	-780.000
216.97	-780.000
217.34	-1050.000
217.72	-537.500
218.09	-975.000
218.47	-1000.000
218.84	0.000
219.22	820.000
219.59	-205.882
219.97	-145.000
220.34	2050.000
220.72	-433.333
221.09	-261.538
221.47	-1400.000
221.84	-400.000
222.22	-614.286
222.59	0.000
222.97	-487.500
223.34	-900.000
223.72	-4600.000
224.09	-950.000
224.46	-1100.000
224.84	-800.000
225.21	-685.714
225.59	-1200.000
225.96	-1275.000
226.34	-130.769
226.71	683.333
227.08	-2250.000
227.46	-220.000
227.83	-850.000
228.21	-142.105
228.58	525.000
228.95	1950.000
229.33	-325.000
229.70	-340.000
230.08	-168.421
230.45	520.000
230.82	-1433.333
231.20	-257.143
231.57	-283.333
231.95	-281.818
232.32	-290.909
232.69	-155.000
233.07	-725.000
233.44	-235.294
233.81	-320.000
234.19	-155.556
234.56	-150.000
234.93	-120.690
235.31	-147.368
235.68	-211.111
236.05	-210.000
236.43	-138.462
236.80	-72.000
237.17	-133.333
237.55	-96.970
237.92	-380.000
238.29	-96.774
238.67	-52.273
239.04	-94.444
239.41	-73.810
239.79	-76.087
240.16	-29.630
240.53	-56.522
240.91	-68.627
241.28	-54.098
241.65	-22.388
242.02	-22.973
242.40	-47.692
242.77	-30.667
243.14	-30.488
243.51	-35.526
243.89	-30.769
244.26	-13.861
244.63	-2.941
245.00	-10.280
245.38	-5.263
245.75	-19.469
246.12	-5.556
246.49	-11.628
246.87	-0.714
247.24	0.662
247.61	5.921
247.98	-1.342
248.36	-1.235
248.73	-8.589
249.10	1.093
249.47	4.975
249.84	4.712
250.22	0.518
250.59	1.111
250.96	2.727
251.33	0.000
251.70	6.410
252.08	9.167
252.45	7.787
252.82	7.438
253.19	3.516
253.56	6.084
253.94	8.077
254.31	7.955
254.68	11.189
255.05	13.029
255.42	8.163
255.79	8.414
256.16	10.927
256.54	7.616
256.91	8.197
257.28	10.820
257.65	7.962
258.02	7.670
258.39	9.687
258.76	14.985
259.14	12.356
259.51	12.392
259.88	9.915
260.25	9.722
260.62	12.329
260.99	14.208
261.36	14.745
261.73	10.345
262.10	14.560
262.47	9.383
262.85	14.899
263.22	12.208
263.59	7.632
263.96	12.020
264.33	11.509
264.70	12.840
265.07	13.126
265.44	16.553
265.81	12.963
266.18	17.234
266.55	14.732
266.92	13.895
267.29	16.411
267.66	14.856
268.03	16.157
268.40	12.735
268.77	12.301
269.14	10.793
269.51	15.570
269.88	13.934
270.25	14.085
270.62	17.089
270.99	17.778
271.36	15.446
271.73	13.949
272.10	17.234
272.47	15.431
272.84	14.659
273.21	14.629
273.58	15.121
273.95	13.654
274.32	15.399
274.69	15.280
275.06	16.667
275.43	12.200
275.80	15.168
276.17	13.333
276.54	13.806
276.91	14.669
277.28	13.924
277.65	17.056
278.02	14.522
278.39	13.768
278.76	15.114
279.13	14.539
279.50	16.323
279.87	14.132
280.23	13.380
280.60	14.746
280.97	17.270
281.34	16.299
281.71	16.582
282.08	14.618
282.45	12.766
282.82	15.228
283.19	13.893
283.56	15.082
283.92	16.066
284.29	15.324
284.66	15.764
285.03	14.263
285.40	15.920
285.77	15.789
286.14	16.031
286.51	13.699
286.87	13.902
287.24	15.663
287.61	15.546
287.98	14.048
288.35	13.166
288.72	14.645
289.08	15.813
289.45	13.609
289.82	14.157
290.19	14.511
290.56	15.352
290.93	14.551
291.29	13.361
291.66	14.601
292.03	12.212
292.40	15.782
292.77	12.668
293.13	12.855
293.50	13.535
293.87	12.617
294.24	14.800
294.60	14.539
294.97	11.678
295.34	14.981
295.71	13.241
296.08	12.274
296.44	13.725
296.81	12.058
297.18	12.329
297.55	13.797
297.91	11.981
298.28	11.374
298.65	12.723
299.02	11.334
299.38	12.929
299.75	12.734
300.12	11.690
300.48	13.134
300.85	12.036
301.22	12.864
301.59	12.100
301.95	11.977
302.32	12.889
302.69	12.377
303.05	12.405
303.42	11.973
303.79	12.812
304.15	13.880
304.52	10.888
304.89	12.356
305.25	12.112
305.62	10.658
305.99	12.990
306.35	11.190
306.72	12.203
307.09	11.878
307.45	11.801
307.82	12.311
308.19	12.412
308.55	12.343
308.92	11.782
309.29	12.835
309.65	13.450
310.02	10.693
310.38	11.909
310.75	11.942
311.12	12.752
311.48	12.805
311.85	12.346
312.22	12.524
312.58	12.582
312.95	13.002
313.31	13.731
313.68	13.553
314.05	14.815
314.41	13.024
314.78	13.987
315.14	14.338
315.51	14.220
315.87	13.411
316.24	13.516
316.61	15.719
316.97	13.484
317.34	14.462
317.70	14.498
318.07	15.079
318.43	14.201
318.80	16.722
319.16	15.622
319.53	14.053
319.89	14.812
320.26	16.281
320.62	16.401
320.99	15.789
321.35	15.989
321.72	18.140
322.08	16.592
322.45	17.706
322.81	18.412
323.18	18.319
323.54	18.621
323.91	18.683
324.27	19.880
324.64	19.899
325.00	20.149
325.37	19.902
325.73	20.331
326.10	21.087
326.46	21.498
326.83	22.258
327.19	21.260
327.56	21.976
327.92	23.053
328.29	22.500
328.65	23.116
329.01	23.012
329.38	23.420
329.74	24.144
330.11	24.914
330.47	23.757
330.84	24.806
331.20	25.250
331.56	25.910
331.93	25.272
332.29	24.153
332.66	25.332
333.02	24.958
333.38	25.419
333.75	26.178
334.11	26.355
334.48	26.073
334.84	26.423
335.20	26.280
335.57	27.909
335.93	26.777
336.29	26.456
336.66	26.325
337.02	27.341
337.38	26.190
337.75	26.033
338.11	27.334
338.47	27.874
338.84	27.496
339.20	26.285
339.56	27.265
339.93	26.437
340.29	26.570
340.65	27.088
341.02	27.773
341.38	27.809
341.74	27.361
342.11	28.158
342.47	26.608
342.83	28.905
343.20	28.373
343.56	28.388
343.92	28.343
344.28	28.516
344.65	29.070
345.01	29.563
345.37	28.538
345.73	28.215
346.10	30.577
346.46	29.905
346.82	28.839
347.19	28.801
347.55	29.514
347.91	29.495
348.27	29.514
348.63	29.094
349.00	28.784
349.36	29.740
349.72	30.357
350.08	29.643
350.45	30.951
350.81	28.884
351.17	30.526
351.53	30.933
351.89	30.144
352.26	30.373
352.62	31.119
352.98	30.076
353.34	30.471
353.70	31.510
354.07	31.967
354.43	31.283
354.79	31.414
355.15	30.905
355.51	32.895
355.87	30.740
356.24	32.548
356.60	30.525
356.96	32.098
357.32	32.045
357.68	31.259
358.04	30.988
358.40	31.866
358.77	32.091
359.13	32.275
359.49	32.639
359.85	32.125
360.21	31.636
360.57	32.879
360.93	32.722
361.29	32.351
361.66	33.454
362.02	34.099
362.38	34.294
362.74	33.031
363.10	32.806
363.46	34.695
363.82	34.091
364.18	35.046
364.54	34.578
364.90	34.916
365.26	34.000
365.62	36.400
365.98	35.262
366.35	35.168
366.71	35.714
367.07	35.250
367.43	34.997
367.79	36.297
368.15	36.187
368.51	35.386
368.87	36.055
369.23	35.933
369.59	37.842
369.95	37.120
370.31	37.407
370.67	36.382
371.03	36.773
371.39	37.139
371.75	37.276
372.11	37.060
372.47	36.831
372.83	37.631
373.19	37.425
373.55	37.602
373.91	36.401
374.27	37.516
374.63	39.039
374.99	38.395
375.35	39.156
375.71	37.677
376.07	38.476
376.42	38.161
376.78	39.776
377.14	39.239
377.50	39.469
377.86	40.086
378.22	40.419
378.58	39.774
378.94	39.085
379.30	39.719
379.66	40.388
380.02	40.739
380.38	41.302
380.74	40.282
381.09	41.986
381.45	40.966
381.81	41.862
382.17	41.211
382.53	41.345
382.89	40.463
383.25	41.501
383.61	41.377
383.97	41.225
384.32	42.883
384.68	41.705
385.04	42.857
385.40	42.487
385.76	42.438
386.12	41.113
386.48	42.706
386.83	43.087
387.19	42.526
387.55	42.547
387.91	42.808
388.27	43.303
388.62	41.237
388.98	41.455
389.34	42.958
389.70	44.218
390.06	42.392
390.42	43.373
390.77	42.745
391.13	43.310
391.49	42.210
391.85	43.152
392.20	42.645
392.56	42.587
392.92	43.948
393.28	43.449
393.64	42.626
393.99	43.521
394.35	44.042
394.71	44.731
395.07	42.874
395.42	42.147
395.78	44.302
396.14	43.672
396.50	44.359
396.85	42.516
397.21	44.260
397.57	43.286
397.92	43.643
398.28	43.455
398.64	43.478
399.00	43.246
399.35	44.031
399.71	42.935
400.07	44.975
400.42	44.645
400.78	44.502
401.14	42.573
401.49	44.173
401.85	43.663
402.21	45.655
402.57	44.425
402.92	43.322
403.28	43.208
403.63	44.332
403.99	43.171
404.35	43.434
404.70	44.249
405.06	43.261
405.42	44.438
405.77	43.511
406.13	45.273
406.49	44.820
406.84	44.321
407.20	44.326
407.55	44.034
407.91	43.997
408.27	44.641
408.62	43.921
408.98	44.225
409.34	43.460
409.69	44.561
410.05	44.373
410.40	44.780
410.76	43.130
411.11	44.360
411.47	44.533
411.83	44.974
412.18	44.699
412.54	44.517
412.89	43.306
413.25	44.131
413.60	44.974
413.96	44.347
414.31	44.419
414.67	43.590
415.03	44.308
415.38	45.082
415.74	43.433
416.09	44.047
416.45	42.893
416.80	43.819
417.16	44.253
417.51	42.839
417.87	44.390
418.22	45.210
418.58	43.432
418.93	44.994
419.29	43.896
419.64	43.277
420.00	44.036
420.35	43.739
420.71	43.423
421.06	43.416
421.42	43.349
421.77	43.296
422.12	43.288
422.48	44.649
422.83	45.838
423.19	44.668
423.54	45.243
423.90	44.727
424.25	44.267
424.61	44.145
424.96	45.524
425.31	44.268
425.67	45.196
426.02	43.498
426.38	44.374
426.73	44.475
427.09	45.502
427.44	42.654
427.79	44.555
428.15	44.235
428.50	44.382
428.85	44.030
429.21	45.160
429.56	44.817
429.92	43.587
430.27	44.434
430.62	44.700
430.98	44.417
431.33	43.891
431.68	44.349
432.04	44.845
432.39	44.938
432.74	43.664
433.10	44.997
433.45	44.370
433.80	43.884
434.16	44.215
434.51	45.221
434.86	45.440
435.22	44.474
435.57	45.401
435.92	44.352
436.28	44.767
436.63	46.204
436.98	44.015
437.34	44.138
437.69	44.524
438.04	44.950
438.39	43.136
438.75	45.102
439.10	45.507
439.45	45.221
439.81	44.915
440.16	44.129
440.51	45.151
440.86	43.635
441.22	43.944
441.57	45.178
441.92	43.550
442.27	44.091
442.63	44.610
442.98	45.518
443.33	44.135
443.68	44.301
444.03	46.049
444.39	45.446
444.74	44.155
445.09	43.842
445.44	45.047
445.79	44.923
446.15	44.347
446.50	43.824
446.85	44.650
447.20	44.052
447.55	44.351
447.91	43.822
448.26	44.873
448.61	42.774
448.96	46.191
449.31	42.630
449.66	42.919
450.02	43.143
450.37	44.166
450.72	43.703
451.07	44.362
451.42	44.079
451.77	44.469
452.12	44.695
452.47	43.850
452.83	46.171
453.18	43.549
453.53	43.940
453.88	43.898
454.23	44.463
454.58	44.980
454.93	44.478
455.28	44.913
455.63	43.206
455.98	44.358
456.34	43.698
456.69	43.739
457.04	43.381
457.39	43.016
457.74	44.966
458.09	42.943
458.44	43.265
458.79	43.837
459.14	43.209
459.49	43.973
459.84	43.075
460.19	42.754
460.54	43.441
460.89	43.833
461.24	43.908
461.59	43.774
461.94	41.757
462.29	43.169
462.64	43.271
462.99	43.315
463.34	42.959
463.69	42.145
464.04	44.080
464.39	42.769
464.74	42.303
465.09	42.272
465.44	41.416
465.79	41.988
466.14	42.053
466.49	42.789
466.84	42.920
467.19	41.503
467.54	43.067
467.89	42.356
468.24	42.659
468.59	41.054
468.94	42.075
469.29	41.692
469.64	41.767
469.99	42.320
470.34	42.017
470.68	42.515
471.03	43.549
471.38	42.642
471.73	42.328
472.08	41.434
472.43	42.324
472.78	42.254
473.13	43.110
473.48	42.659
473.83	42.194
474.17	41.618
474.52	41.311
474.87	41.085
475.22	41.859
475.57	41.900
475.92	42.160
476.27	42.119
476.61	41.848
476.96	41.919
477.31	41.683
477.66	41.973
478.01	41.586
478.36	42.074
478.70	41.232
479.05	42.894
479.40	42.646
479.75	41.883
480.10	41.686
480.45	40.930
480.79	41.859
481.14	40.809
481.49	41.345
481.84	42.080
482.19	41.892
482.53	41.976
482.88	41.914
483.23	40.729
483.58	40.961
483.92	40.780
484.27	41.279
484.62	41.213
484.97	40.863
485.31	39.247
485.66	37.348
486.01	36.768
486.36	38.175
486.70	39.483
487.05	41.561
487.40	41.467
487.75	40.127
488.09	40.490
488.44	40.166
488.79	40.472
489.13	39.211
489.48	39.301
489.83	39.678
490.17	40.745
490.52	40.189
490.87	40.059
491.22	40.381
491.56	40.401
491.91	39.555
492.26	40.026
492.60	39.309
492.95	40.193
493.30	40.206
493.64	40.342
493.99	39.737
494.34	39.678
494.68	39.615
495.03	39.780
495.37	40.657
495.72	41.043
496.07	40.491
496.41	39.683
496.76	40.575
497.11	39.278
497.45	40.354
497.80	39.405
498.14	39.546
498.49	39.063
498.84	40.814
499.18	39.136
499.53	39.193
499.87	40.440
500.22	39.181
500.56	39.091
500.91	40.458
501.26	39.591
501.60	38.533
501.95	38.993
502.29	39.140
502.64	39.703
502.98	38.309
503.33	38.747
503.67	38.727
504.02	39.361
504.36	39.455
504.71	38.080
505.06	38.972
505.40	39.397
505.75	38.069
506.09	39.180
506.44	38.951
506.78	38.807
507.13	40.018
507.47	39.555
507.82	39.678
508.16	39.436
508.51	37.506
508.85	39.490
509.19	39.507
509.54	39.289
509.88	39.048
510.23	38.951
510.57	40.116
510.92	38.849
511.26	38.576
511.61	38.049
511.95	37.677
512.30	38.848
512.64	38.381
512.98	39.270
513.33	38.911
513.67	39.113
514.02	38.937
514.36	39.335
514.70	38.229
515.05	38.895
515.39	38.530
515.74	39.820
516.08	39.461
516.42	39.299
516.77	39.169
517.11	37.700
517.46	40.191
517.80	38.963
518.14	40.261
518.49	39.317
518.83	38.425
519.17	38.180
519.52	38.103
519.86	39.916
520.20	38.871
520.55	37.842
520.89	39.245
521.23	39.028
521.58	39.435
521.92	38.697
522.26	39.233
522.61	40.104
522.95	39.735
523.29	39.023
523.64	38.621
523.98	38.677
524.32	39.713
524.66	38.930
525.01	38.109
525.35	38.311
525.69	37.819
526.04	38.232
526.38	39.655
526.72	37.889
527.06	39.413
527.41	38.484
527.75	39.667
528.09	39.079
528.43	38.899
528.78	38.439
529.12	39.106
529.46	38.730
529.80	36.899
530.15	37.855
530.49	38.197
530.83	38.843
531.17	38.650
531.51	38.748
531.86	38.822
532.20	38.415
532.54	38.300
532.88	38.606
533.22	37.537
533.57	38.430
533.91	37.823
534.25	38.101
534.59	37.586
534.93	37.408
535.27	38.028
535.62	37.919
535.96	37.943
536.30	37.309
536.64	37.718
536.98	38.069
537.32	37.593
537.66	37.929
538.01	37.644
538.35	37.942
538.69	36.779
539.03	37.707
539.37	35.866
539.71	37.718
540.05	37.530
540.39	36.980
540.73	36.733
541.07	36.297
541.42	36.149
541.76	36.062
542.10	36.731
542.44	35.932
542.78	36.010
543.12	35.161
543.46	36.935
543.80	36.391
544.14	36.146
544.48	35.402
544.82	35.129
545.16	36.374
545.50	36.369
545.84	36.252
546.18	35.988
546.52	35.796
546.86	35.597
547.20	36.196
547.54	35.019
547.88	34.780
548.22	34.737
548.56	35.108
548.90	35.821
549.24	35.502
549.58	34.763
549.92	35.651
550.26	35.599
550.60	35.482
550.94	35.446
551.28	35.182
551.62	35.243
551.96	35.599
552.30	36.393
552.64	35.096
552.98	34.560
553.32	36.141
553.66	34.598
554.00	35.309
554.34	36.229
554.68	34.797
555.02	35.283
555.36	36.292
555.69	35.618
556.03	34.805
556.37	34.981
556.71	35.384
557.05	34.696
557.39	35.368
557.73	34.478
558.07	34.901
558.41	35.415
558.75	34.077
559.08	33.751
559.42	34.156
559.76	34.328
560.10	34.561
560.44	33.971
560.78	35.062
561.12	34.914
561.45	33.516
561.79	34.493
562.13	34.504
562.47	33.600
562.81	35.000
563.15	33.712
563.48	34.058
563.82	34.220
564.16	33.253
564.50	32.539
564.84	32.271
565.17	32.647
565.51	33.084
565.85	33.135
566.19	32.373
566.52	32.709
566.86	33.107
567.20	32.681
567.54	32.820
567.88	32.977
568.21	32.115
568.55	32.518
568.89	32.229
569.23	31.939
569.56	31.497
569.90	30.756
570.24	30.185
570.57	30.629
570.91	30.098
571.25	30.084
571.59	30.031
571.92	29.424
572.26	29.619
572.60	29.866
572.93	28.834
573.27	29.587
573.61	29.857
573.95	29.255
574.28	28.825
574.62	29.081
574.96	28.694
575.29	28.773
575.63	28.783
575.97	29.653
576.30	28.818
576.64	28.967
576.98	28.223
577.31	28.887
577.65	28.704
577.98	28.106
578.32	27.965
578.66	27.742
578.99	27.954
579.33	28.568
579.67	28.876
580.00	28.433
580.34	28.076
580.67	28.045
581.01	27.910
581.35	27.703
581.68	27.773
582.02	27.524
582.35	27.984
582.69	28.088
583.02	28.611
583.36	28.322
583.70	28.516
584.03	28.222
584.37	27.944
584.70	28.166
585.04	27.714
585.37	27.419
585.71	27.681
586.04	27.455
586.38	28.087
586.72	28.203
587.05	27.373
587.39	27.549
587.72	27.656
588.06	27.732
588.39	28.330
588.73	28.016
589.06	27.793
589.40	28.519
589.73	27.860
590.07	27.851
590.40	28.871
590.73	27.925
591.07	28.444
591.40	28.266
591.74	28.657
592.07	28.096
592.41	28.273
592.74	28.080
593.08	27.771
593.41	27.238
593.75	27.270
594.08	27.386
594.41	28.237
594.75	27.831
595.08	27.725
595.42	27.403
595.75	27.866
596.09	27.855
596.42	28.305
596.75	27.518
597.09	28.162
597.42	28.049
597.75	27.636
598.09	27.937
598.42	28.388
598.76	27.130
599.09	27.625
599.42	27.254
599.76	27.039
600.09	27.160
600.42	27.361
600.76	27.576
601.09	26.884
601.42	26.742
601.76	26.862
602.09	27.448
602.42	27.226
602.76	26.937
603.09	27.129
603.42	26.842
603.76	26.568
604.09	27.644
604.42	26.752
604.76	26.788
605.09	27.363
605.42	27.592
605.75	27.115
606.09	26.689
606.42	26.450
606.75	26.499
607.09	25.960
607.42	26.474
607.75	26.338
608.08	26.559
608.42	26.320
608.75	26.949
609.08	26.740
609.41	26.952
609.75	26.250
610.08	27.441
610.41	26.296
610.74	26.513
611.07	26.465
611.41	27.085
611.74	26.744
612.07	26.180
612.40	27.947
612.73	27.482
613.07	27.042
613.40	26.997
613.73	26.818
614.06	26.595
614.39	26.190
614.72	26.929
615.06	25.794
615.39	26.583
615.72	26.682
616.05	27.003
616.38	26.892
616.71	26.803
617.05	26.784
617.38	27.127
617.71	27.646
618.04	26.983
618.37	26.885
618.70	28.507
619.03	27.121
619.36	27.004
619.69	27.290
620.03	26.554
620.36	27.301
620.69	26.712
621.02	27.625
621.35	28.012
621.68	28.200
622.01	27.260
622.34	26.499
622.67	28.797
623.00	25.978
623.33	26.742
623.66	27.821
623.99	26.596
624.32	27.485
624.65	26.834
624.99	27.958
625.32	28.086
625.65	28.186
625.98	27.390
626.31	27.640
626.64	27.473
626.97	27.007
627.30	26.348
627.63	27.082
627.96	27.477
628.29	28.171
628.62	27.624
628.95	27.783
629.28	28.207
629.61	28.367
629.94	28.117
630.26	27.458
630.59	27.807
630.92	27.100
631.25	27.818
631.58	28.249
631.91	28.772
632.24	27.474
632.57	27.989
632.90	28.185
633.23	29.694
633.56	28.776
633.89	27.893
634.22	26.507
634.55	28.810
634.88	26.515
635.20	28.633
635.53	28.814
635.86	29.252
636.19	30.329
636.52	27.848
636.85	28.396
637.18	28.794
637.51	28.172
637.83	28.793
638.16	28.341
638.49	29.930
638.82	29.651
639.15	26.460
639.48	30.831
639.81	29.099
640.13	28.740
640.46	27.030
640.79	28.186
641.12	28.199
641.45	26.976
641.77	28.755
642.10	28.871
642.43	28.723
642.76	28.049
643.09	29.178
643.41	28.852
643.74	27.034
644.07	28.276
644.40	27.864
644.73	28.737
645.05	29.662
645.38	28.489
645.71	28.592
646.04	28.407
646.36	26.715
646.69	29.601
647.02	28.440
647.35	29.313
647.67	28.502
648.00	27.070
648.33	28.378
648.66	26.819
648.98	25.850
649.31	27.334
649.64	28.154
649.96	25.995
650.29	25.174
650.62	27.440
650.94	25.826
651.27	24.551
651.60	25.000
651.92	26.900
652.25	27.062
652.58	26.547
652.90	25.727
653.23	28.732
653.56	25.678
653.88	27.107
654.21	26.620
654.54	26.156
654.86	26.912
655.19	26.223
655.52	25.778
655.84	23.858
656.17	26.822
656.49	37.043
656.82	39.527
657.15	30.971
657.47	23.611
657.80	17.379
658.13	13.671
658.45	18.130
658.78	21.430
659.10	20.726
659.43	20.796
659.75	20.024
660.08	19.440
660.41	21.257
660.73	23.147
661.06	24.082
661.38	25.199
661.71	25.862
662.03	26.984
662.36	27.013
662.68	27.392
663.01	27.965
663.33	25.520
663.66	25.824
663.98	24.615
664.31	27.955
664.63	23.507
664.96	24.682
665.28	25.045
665.61	27.797
665.93	27.143
666.26	25.448
666.58	24.539
666.91	26.168
667.23	27.810
667.56	23.866
667.88	27.400
668.21	25.000
668.53	25.290
668.86	23.379
669.18	26.069
669.50	27.634
669.83	24.400
670.15	24.016
670.48	25.397
670.80	24.092
671.13	24.386
671.45	26.181
671.77	28.249
672.10	25.333
672.42	22.977
672.75	22.734
673.07	24.925
673.39	23.575
673.72	23.490
674.04	26.552
674.37	25.224
674.69	26.984
675.01	25.143
675.34	25.000
675.66	22.846
675.98	22.201
676.31	25.000
676.63	25.665
676.95	25.287
677.28	27.823
677.60	22.835
677.92	25.528
678.25	24.497
678.57	25.801
678.89	24.061
679.22	23.519
679.54	24.957
679.86	21.356
680.18	23.217
680.51	23.428
680.83	25.532
681.15	23.621
681.48	25.043
681.80	24.525
682.12	23.601
682.44	24.207
682.77	21.454
683.09	23.864
683.41	24.612
683.73	23.150
684.06	24.539
684.38	20.930
684.70	23.698
685.02	22.892
685.34	21.298
685.67	23.817
685.99	21.012
686.31	21.802
686.63	22.275
686.96	22.713
687.28	22.313
687.60	20.539
687.92	21.061
688.24	21.703
688.56	22.414
688.89	22.505
689.21	23.288
689.53	20.980
689.85	22.485
690.17	21.111
690.49	21.912
690.82	23.960
691.14	22.065
691.46	23.518
691.78	21.731
692.10	23.303
692.42	20.179
692.74	22.142
693.06	19.074
693.39	23.719
693.71	19.737
694.03	21.190
694.35	20.762
694.67	22.587
694.99	22.979
695.31	21.192
695.63	25.758
695.95	19.669
696.27	20.659
696.59	21.903
696.91	19.595
697.23	25.934
697.56	22.200
697.88	21.212
698.20	22.034
698.52	24.811
698.84	22.869
699.16	23.673
699.48	17.782
699.80	22.128
700.12	20.087
700.44	22.350
700.76	17.577
701.08	21.065
701.40	21.244
701.72	22.886
702.04	23.262
702.36	21.466
702.68	20.538
703.00	21.027
703.32	21.182
703.64	19.804
703.96	21.241
704.28	20.147
704.60	21.013
704.91	21.173
705.23	17.534
705.55	20.613
705.87	20.606
706.19	22.086
706.51	15.663
706.83	21.902
707.15	17.196
707.47	18.224
707.79	19.432
708.11	18.856
708.43	17.419
708.74	16.518
709.06	18.329
709.38	21.596
709.70	18.859
710.02	19.897
710.34	22.074
710.66	18.436
710.98	18.852
711.29	18.132
711.61	18.644
711.93	16.809
712.25	19.730
712.57	20.649
712.89	20.000
713.20	18.639
713.52	17.630
713.84	20.613
714.16	19.474
714.48	20.876
714.80	20.000
715.11	17.848
715.43	20.424
715.75	18.684
716.07	15.470
716.39	19.672
716.70	15.964
717.02	16.721
717.34	17.770
717.66	16.443
717.97	17.123
718.29	18.900
718.61	16.118
718.93	12.945
719.24	15.217
719.56	16.564
719.88	18.318
720.20	16.129
720.51	15.528
720.83	19.063
721.15	12.829
721.46	12.329
721.78	17.333
722.10	14.239
722.42	14.094
722.73	16.452
723.05	17.895
723.37	13.542
723.68	16.487
724.00	15.884
724.32	14.437
724.63	13.986
724.95	18.440
725.27	14.634
725.58	13.781
725.90	16.897
726.22	14.734
726.53	14.286
726.85	16.038
727.16	17.523
727.48	17.125
727.80	16.225
728.11	14.134
728.43	14.815
728.74	12.709
729.06	12.252
729.38	17.208
729.69	13.087
730.01	13.095
730.32	12.727
730.64	12.893
730.96	12.422
731.27	20.112
731.59	18.132
731.90	13.247
732.22	14.583
732.53	10.773
732.85	13.143
733.16	15.249
733.48	12.195
733.80	12.813
734.11	13.390
734.43	17.027
734.74	20.000
735.06	14.824
735.37	18.108
735.69	16.757
736.00	18.079
736.32	16.442
736.63	17.500
736.95	14.655
737.26	14.242
737.58	13.636
737.89	17.941
738.21	12.232
738.52	12.787
738.83	11.945
739.15	12.766
739.46	13.946
739.78	17.791
740.09	11.748
740.41	16.910
740.72	15.000
741.04	16.505
741.35	11.579
741.66	10.980
741.98	15.574
742.29	14.226
742.61	11.404
742.92	13.077
743.23	14.440
743.55	12.791
743.86	16.000
744.18	8.678
744.49	10.549
744.80	10.288
745.12	13.924
745.43	13.008
745.74	13.362
746.06	11.017
746.37	10.970
746.68	15.447
747.00	15.833
747.31	10.300
747.62	14.231
747.94	7.692
748.25	12.450
748.56	8.980
748.88	5.983
749.19	15.517
749.50	6.061
749.82	14.056
750.13	17.082
750.44	10.667
750.75	14.769
751.07	12.308
751.38	12.303
751.69	13.099
752.01	15.210
752.32	15.033
752.63	12.925
752.94	14.187
753.26	11.896
753.57	12.963
753.88	13.109
754.19	13.505
754.51	13.505
754.82	11.576
755.13	18.033
755.44	13.311
755.75	16.776
756.07	13.134
756.38	11.321
756.69	17.771
757.00	10.803
757.31	14.481
757.63	13.043
757.94	13.146
758.25	15.801
758.56	11.983
758.87	17.045
759.18	12.533
759.50	13.314
759.81	16.807
760.12	15.094
760.43	15.885
760.74	16.010
761.05	13.750
761.36	8.434
761.67	13.959
761.99	13.784
762.30	14.024
762.61	9.901
762.92	11.940
763.23	8.989
763.54	9.353
763.85	9.622
764.16	10.774
764.47	14.437
764.78	14.696
765.10	12.903
765.41	15.128
765.72	11.376
766.03	11.864
766.34	7.837
766.65	9.408
766.96	7.171
767.27	14.747
767.58	7.463
767.89	10.096
768.20	9.390
768.51	8.796
768.82	12.851
769.13	9.470
769.44	4.615
769.75	11.191
770.06	10.769
770.37	12.598
770.68	8.085
770.99	4.049
771.30	13.333
771.61	8.745
771.92	7.778
772.23	10.121
772.54	4.167
772.85	13.825
773.16	10.952
773.47	6.878
773.78	1.081
774.09	6.250
774.39	11.500
774.70	11.475
775.01	1.829
775.32	-0.588
775.63	3.067
775.94	-0.637
776.25	7.097
776.56	6.410
776.87	3.401
777.18	2.759
777.48	-3.497
777.79	-2.027
778.10	-0.735
778.41	2.083
778.72	0.000
779.03	5.556
779.34	4.242
779.65	3.109
779.95	0.556
780.26	0.000
780.57	1.935
780.88	12.319
781.19	6.452
781.50	5.882
781.80	4.839
782.11	4.762
782.42	0.000
782.73	-1.796
783.04	2.235
783.34	-2.424
783.65	-5.229
783.96	-1.242
784.27	2.381
784.57	-1.325
784.88	1.429
785.19	1.575
785.50	-11.024
785.81	-5.263
786.11	-1.538
786.42	-12.230
786.73	-4.317
787.04	0.752
787.34	-4.098
787.65	1.600
787.96	-2.239
788.26	3.497
788.57	8.392
788.88	1.316
789.19	0.654
789.49	-10.959
789.80	-5.674
790.11	-9.449
790.41	-3.906
790.72	-8.475
791.03	-15.534
791.33	-6.957
791.64	-2.632
791.95	-9.821
792.25	-8.571
792.56	-6.250
792.87	-21.875
793.17	-2.679
793.48	-6.250
793.79	-28.916
794.09	-16.514
794.40	-5.505
794.70	0.680
795.01	2.597
795.32	-2.055
795.62	4.930
795.93	-6.818
796.23	-5.738
796.54	-6.250
796.85	-12.766
797.15	-11.957
797.46	-27.397
797.76	-25.000
798.07	-14.130
798.37	-24.742
798.68	-27.273
798.99	-22.989
799.29	-16.854
799.60	-9.574
799.90	-13.253
800.21	-30.769
800.51	-41.791
800.82	-30.882
801.12	-42.466
801.43	-41.176
801.73	-32.203
802.04	-31.818
802.34	-38.333
802.65	-32.203
802.95	-32.836
803.26	-33.898
803.56	-34.247
803.87	-15.714
804.17	-15.068
804.48	-61.404
804.78	-31.944
805.09	-53.448
805.39	-10.811
805.70	-26.761
806.00	-9.756
806.30	-28.916
806.61	-32.877
806.91	-12.500
807.22	-16.667
807.52	-27.586
807.83	-13.889
808.13	-7.229
808.43	-15.730
808.74	-25.000
809.04	-50.000
809.35	-29.333
809.65	-27.143
809.95	-24.658
810.26	-54.386
810.56	-50.000
810.86	-23.529
811.17	-42.105
811.47	-37.705
811.77	-77.778
812.08	-61.017
812.38	-41.667
812.69	-41.379
812.99	-50.943
813.29	-92.308
813.59	-40.000
813.90	-35.088
814.20	-54.545
814.50	-25.352
814.81	-15.385
815.11	-45.902
815.41	-38.806
815.72	-29.310
816.02	-28.571
816.32	-33.333
816.62	-52.273
816.93	-57.778
817.23	-37.037
817.53	-63.830
817.84	-61.905
818.14	-79.412
818.44	-59.184
818.74	-40.000
819.04	-71.795
819.35	-102.857
819.65	-184.615
819.95	-64.151
820.25	-60.000
820.56	-47.619
820.86	-103.125
821.16	-89.744
821.46	-74.419
821.76	-74.000
822.07	-37.500
822.37	-80.435
822.67	-46.809
822.97	-97.297
823.27	-77.500
823.57	-44.898
823.88	-44.444
824.18	-60.000
824.48	-100.000
824.78	-148.000
825.08	-100.000
825.38	-55.556
825.69	-53.191
825.99	-72.222
826.29	-117.143
826.59	-82.051
826.89	-93.023
827.19	-48.000
827.49	-85.294
827.79	-37.500
828.09	-78.378
828.39	-86.667
828.70	-78.049
829.00	-72.093
829.30	-139.286
829.60	-61.765
829.90	-60.870
830.20	-94.286
830.50	-134.483
830.80	-183.333
831.10	-123.077
831.40	-88.235
831.70	-133.333
832.00	-96.774
832.30	-294.118
832.60	-158.333
832.90	-292.308
833.20	-184.211
833.50	-185.000
833.80	-168.421
834.10	-219.048
834.40	-91.667
834.70	-106.250
835.00	-108.571
835.30	-70.588
835.60	-73.333
835.90	-96.000
836.20	-168.182
836.50	-104.000
836.80	-121.212
837.10	-107.407
837.40	-125.926
837.70	-306.250
838.00	-135.714
838.30	-191.304
838.60	-117.241
838.90	-235.714
839.19	-191.304
839.49	-366.667
839.79	-130.435
840.09	-225.000
840.39	-160.000
840.69	-96.774
840.99	-135.714
841.29	-240.000
841.59	-189.474
841.88	-46.154
842.18	-157.692
842.48	-340.000
842.78	-185.000
843.08	-86.667
843.38	-70.968
843.68	-205.556
843.97	-73.529
844.27	-212.500
844.57	-189.474
844.87	-460.000
845.17	-266.667
845.47	-157.143
845.76	-180.952
846.06	-411.111
846.36	-205.882
846.66	-126.923
846.96	-300.000
847.25	-235.294
847.55	-143.478
847.85	-145.000
848.15	-170.588
848.44	-390.909
848.74	-161.905
849.04	-145.833
849.34	-250.000
849.63	-139.130
849.93	2400.000
850.23	-233.333
850.53	-130.769
850.82	-372.727
851.12	-145.455
851.42	-345.455
851.71	-284.615
852.01	-195.000
852.31	-261.538
852.61	-178.947
852.90	-275.000
853.20	-166.667
853.50	-544.444
853.79	-166.667
854.09	-154.545
854.39	-366.667
854.68	-116.129
854.98	-96.154
855.28	-161.111
855.57	-132.143
855.87	-144.000
856.17	-159.091
856.46	-125.926
856.76	-238.889
857.05	-200.000
857.35	-145.833
857.65	-215.385
857.94	-119.048
858.24	-107.407
858.53	-113.043
858.83	-182.353
859.13	-182.353
859.42	-182.353
859.72	-221.429
860.01	-165.000
860.31	-366.667
860.60	-390.000
860.90	-246.667
861.20	-200.000
861.49	-253.846
861.79	-90.000
862.08	-315.385
862.38	-81.250
862.67	-152.941
862.97	-268.750
863.26	-400.000
863.56	-380.000
863.85	-381.818
864.15	-200.000
864.44	-1233.333
864.74	-257.143
865.03	-231.250
865.33	-410.000
865.62	-125.806
865.92	-154.545
866.21	-139.130
866.51	-242.857
866.80	-800.000
867.10	-291.667
867.39	-333.333
867.69	4200.000
867.98	-485.714
868.27	-176.471
868.57	-4800.000
868.86	-390.000
869.16	-176.190
869.45	-154.167
869.75	-336.364
870.04	-585.714
870.33	-233.333
870.63	-814.286
870.92	-625.000
871.22	-500.000
871.51	-445.455
871.80	-1666.667
872.10	-2050.000
>>>>>End Processed Spectral Data<<<<<
