SpectraSuite Data File
++++++++++++++++++++++++++++++++++++
Date: Thu May 14 15:52:04 PDT 2015
User: schluterlab
Dark Spectrum Present: Yes
Reference Spectrum Present: Yes
Number of Sampled Component Spectra: 1
Spectrometers: USB2E3373
Integration Time (usec): 3000 (USB2E3373)
Spectra Averaged: 3 (USB2E3373)
Boxcar Smoothing: 0 (USB2E3373)
Correct for Electrical Dark: No (USB2E3373)
Strobe/Lamp Enabled: No (USB2E3373)
Correct for Detector Non-linearity: No (USB2E3373)
Correct for Stray Light: No (USB2E3373)
Number of Pixels in Processed Spectrum: 2048
>>>>>Begin Processed Spectral Data<<<<<
178.53	0.000
178.91	542.857
179.29	-4600.000
179.67	-3900.000
180.04	407.143
180.42	380.000
180.80	860.000
181.18	-4400.000
181.56	-3800.000
181.94	950.000
182.31	-1050.000
182.69	1533.333
183.07	-1800.000
183.45	1000.000
183.83	-583.333
184.20	-1466.667
184.58	3700.000
184.96	-1075.000
185.34	-500.000
185.72	-720.000
186.09	433.333
186.47	1600.000
186.85	960.000
187.23	-500.000
187.61	-4400.000
187.98	760.000
188.36	1125.000
188.74	-1150.000
189.12	-1233.333
189.49	-193.750
189.87	-337.500
190.25	-444.444
190.63	-800.000
191.00	-433.333
191.38	0.000
191.76	-1250.000
192.14	-516.667
192.51	2100.000
192.89	-600.000
193.27	0.000
193.65	-500.000
194.02	-4800.000
194.40	-500.000
194.78	585.714
195.15	0.000
195.53	-336.364
195.91	0.000
196.29	-725.000
196.66	-323.077
197.04	-4700.000
197.42	-471.429
197.79	-1800.000
198.17	-425.000
198.55	-585.714
198.92	-333.333
199.30	-537.500
199.68	-263.636
200.05	-207.143
200.43	-2050.000
200.81	628.571
201.18	0.000
201.56	555.556
201.94	0.000
202.31	1633.333
202.69	-500.000
203.07	4000.000
203.44	-411.111
203.82	-850.000
204.19	-225.000
204.57	-600.000
204.95	-412.500
205.32	-3400.000
205.70	850.000
206.08	-566.667
206.45	-550.000
206.83	980.000
207.20	-883.333
207.58	-960.000
207.96	-733.333
208.33	-583.333
208.71	358.333
209.08	-416.667
209.46	0.000
209.84	766.667
210.21	2200.000
210.59	1900.000
210.96	1233.333
211.34	-950.000
211.71	-462.500
212.09	-4100.000
212.46	0.000
212.84	2800.000
213.22	-940.000
213.59	-750.000
213.97	-310.000
214.34	-1133.333
214.72	566.667
215.09	-900.000
215.47	0.000
215.84	442.857
216.22	2350.000
216.59	-780.000
216.97	-660.000
217.34	-850.000
217.72	-487.500
218.09	-1175.000
218.47	-1025.000
218.84	0.000
219.22	800.000
219.59	-188.235
219.97	-195.000
220.34	2550.000
220.72	-444.444
221.09	-215.385
221.47	-1400.000
221.84	-400.000
222.22	-585.714
222.59	0.000
222.97	-375.000
223.34	-900.000
223.72	-4200.000
224.09	-1025.000
224.46	-875.000
224.84	-760.000
225.21	-585.714
225.59	-1125.000
225.96	-875.000
226.34	-80.769
226.71	700.000
227.08	-1800.000
227.46	-220.000
227.83	-1000.000
228.21	-168.421
228.58	537.500
228.95	2150.000
229.33	-341.667
229.70	-340.000
230.08	-89.474
230.45	410.000
230.82	-1100.000
231.20	-228.571
231.57	-191.667
231.95	-363.636
232.32	-281.818
232.69	-170.000
233.07	-1000.000
233.44	-264.706
233.81	-340.000
234.19	-155.556
234.56	-131.818
234.93	-86.207
235.31	-173.684
235.68	-194.444
236.05	-165.000
236.43	-96.154
236.80	-112.000
237.17	-114.815
237.55	-60.606
237.92	-310.000
238.29	-87.097
238.67	-52.273
239.04	-47.222
239.41	-69.048
239.79	-45.652
240.16	-48.148
240.53	-41.304
240.91	-62.745
241.28	-36.066
241.65	-23.881
242.02	-12.162
242.40	-32.308
242.77	-20.000
243.14	-15.854
243.51	-18.421
243.89	-16.667
244.26	-5.941
244.63	-4.902
245.00	-4.673
245.38	0.000
245.75	-6.195
246.12	10.317
246.49	-3.101
246.87	8.571
247.24	8.609
247.61	9.211
247.98	2.685
248.36	7.407
248.73	9.202
249.10	9.836
249.47	19.403
249.84	15.707
250.22	15.544
250.59	15.000
250.96	20.455
251.33	9.184
251.70	17.949
252.08	15.417
252.45	17.213
252.82	19.421
253.19	21.875
253.56	20.152
253.94	17.692
254.31	21.591
254.68	23.077
255.05	25.407
255.42	19.388
255.79	18.770
256.16	23.179
256.54	22.185
256.91	25.246
257.28	21.967
257.65	21.338
258.02	18.879
258.39	20.798
258.76	24.771
259.14	25.000
259.51	23.919
259.88	22.946
260.25	24.444
260.62	24.932
260.99	26.503
261.36	25.469
261.73	25.464
262.10	26.923
262.47	23.056
262.85	27.020
263.22	22.078
263.59	22.105
263.96	27.366
264.33	22.506
264.70	25.926
265.07	28.162
265.44	26.304
265.81	29.167
266.18	29.478
266.55	27.232
266.92	27.107
267.29	24.945
267.66	24.612
268.03	25.764
268.40	25.887
268.77	25.057
269.14	23.568
269.51	23.684
269.88	28.074
270.25	26.157
270.62	28.059
270.99	27.879
271.36	28.911
271.73	27.112
272.10	28.657
272.47	27.054
272.84	26.104
273.21	25.050
273.58	26.411
273.95	25.192
274.32	24.335
274.69	25.919
275.06	26.190
275.43	24.214
275.80	27.513
276.17	26.667
276.54	23.881
276.91	24.866
277.28	26.401
277.65	25.853
278.02	28.493
278.39	26.993
278.76	28.471
279.13	26.773
279.50	27.148
279.87	26.476
280.23	22.535
280.60	29.831
280.97	25.329
281.34	27.165
281.71	26.734
282.08	25.914
282.45	26.350
282.82	26.688
283.19	25.202
283.56	25.082
283.92	27.477
284.29	26.698
284.66	28.571
285.03	23.077
285.40	26.893
285.77	22.910
286.14	27.481
286.51	25.875
286.87	26.066
287.24	26.205
287.61	24.664
287.98	24.471
288.35	24.852
288.72	27.663
289.08	25.329
289.45	21.893
289.82	25.301
290.19	25.862
290.56	23.521
290.93	23.395
291.29	25.620
291.66	24.105
292.03	22.388
292.40	23.946
292.77	24.528
293.13	23.816
293.50	22.602
293.87	23.893
294.24	22.800
294.60	23.009
294.97	21.879
295.34	23.560
295.71	21.816
296.08	21.447
296.44	21.814
296.81	23.143
297.18	21.544
297.55	22.170
297.91	20.759
298.28	19.313
298.65	21.403
299.02	21.015
299.38	23.227
299.75	20.093
300.12	20.370
300.48	19.931
300.85	19.123
301.22	23.714
301.59	19.863
301.95	21.695
302.32	21.111
302.69	20.153
303.05	21.763
303.42	21.286
303.79	21.667
304.15	22.082
304.52	21.353
304.89	20.000
305.25	20.911
305.62	19.436
305.99	20.619
306.35	18.548
306.72	22.130
307.09	19.797
307.45	19.876
307.82	20.585
308.19	19.879
308.55	22.179
308.92	20.156
309.29	21.073
309.65	22.027
310.02	20.495
310.38	20.276
310.75	20.971
311.12	22.148
311.48	20.919
311.85	22.222
312.22	20.873
312.58	21.596
312.95	21.224
313.31	22.493
313.68	21.337
314.05	21.951
314.41	23.224
314.78	21.435
315.14	21.960
315.51	22.622
315.87	22.502
316.24	22.648
316.61	22.913
316.97	22.986
317.34	23.721
317.70	24.454
318.07	23.369
318.43	25.680
318.80	23.997
319.16	24.206
319.53	24.250
319.89	23.225
320.26	24.199
320.62	24.645
320.99	25.392
321.35	25.970
321.72	28.651
322.08	25.518
322.45	27.100
322.81	27.347
323.18	27.788
323.54	27.586
323.91	28.915
324.27	28.657
324.64	30.479
325.00	29.436
325.37	29.648
325.73	30.413
326.10	30.738
326.46	30.782
326.83	31.705
327.19	31.654
327.56	31.304
327.92	33.045
328.29	32.258
328.65	31.575
329.01	33.418
329.38	34.035
329.74	35.959
330.11	33.904
330.47	34.878
330.84	34.022
331.20	36.500
331.56	34.749
331.93	35.397
332.29	35.254
332.66	35.797
333.02	35.595
333.38	35.487
333.75	36.279
334.11	36.197
334.48	36.551
334.84	37.553
335.20	36.524
335.57	36.678
335.93	37.107
336.29	35.774
336.66	35.240
337.02	37.793
337.38	35.374
337.75	35.702
338.11	38.183
338.47	36.807
338.84	36.548
339.20	36.479
339.56	36.985
339.93	37.438
340.29	35.829
340.65	37.551
341.02	39.106
341.38	37.106
341.74	37.530
342.11	38.455
342.47	37.490
342.83	37.601
343.20	38.348
343.56	38.412
343.92	38.831
344.28	38.828
344.65	39.070
345.01	38.144
345.37	39.736
345.73	38.504
346.10	37.988
346.46	38.766
346.82	39.401
347.19	39.419
347.55	38.619
347.91	39.896
348.27	39.302
348.63	40.137
349.00	39.001
349.36	38.736
349.72	39.063
350.08	40.119
350.45	40.228
350.81	39.291
351.17	41.955
351.53	40.409
351.89	41.078
352.26	40.746
352.62	39.478
352.98	41.756
353.34	39.432
353.70	41.294
354.07	41.505
354.43	41.610
354.79	41.511
355.15	40.250
355.51	43.056
355.87	41.810
356.24	42.205
356.60	41.390
356.96	41.883
357.32	41.784
357.68	40.922
358.04	41.168
358.40	42.313
358.77	42.471
359.13	43.353
359.49	42.082
359.85	43.002
360.21	42.898
360.57	42.929
360.93	44.217
361.29	44.281
361.66	42.433
362.02	44.885
362.38	44.835
362.74	44.483
363.10	44.223
363.46	44.598
363.82	45.028
364.18	45.391
364.54	44.537
364.90	46.154
365.26	44.690
365.62	45.400
365.98	45.882
366.35	45.302
366.71	46.395
367.07	44.723
367.43	47.669
367.79	46.649
368.15	48.161
368.51	46.549
368.87	45.918
369.23	47.067
369.59	47.199
369.95	48.411
370.31	47.738
370.67	47.593
371.03	47.438
371.39	46.944
371.75	49.794
372.11	46.477
372.47	47.596
372.83	49.215
373.19	47.832
373.55	49.119
373.91	46.558
374.27	48.189
374.63	48.782
374.99	48.210
375.35	48.506
375.71	49.935
376.07	48.225
376.42	48.741
376.78	50.218
377.14	50.343
377.50	50.538
377.86	49.815
378.22	50.180
378.58	50.238
378.94	49.765
379.30	49.268
379.66	51.029
380.02	50.029
380.38	52.189
380.74	49.465
381.09	52.091
381.45	50.852
381.81	51.288
382.17	51.485
382.53	51.404
382.89	50.959
383.25	51.407
383.61	51.389
383.97	51.649
384.32	53.828
384.68	51.276
385.04	52.516
385.40	53.094
385.76	53.224
386.12	51.287
386.48	52.706
386.83	52.503
387.19	52.433
387.55	53.169
387.91	52.568
388.27	53.349
388.62	52.692
388.98	52.341
389.34	53.270
389.70	53.864
390.06	51.747
390.42	53.855
390.77	53.642
391.13	52.523
391.49	52.355
391.85	52.606
392.20	52.195
392.56	52.806
392.92	52.236
393.28	52.902
393.64	52.123
393.99	53.109
394.35	53.329
394.71	54.072
395.07	52.635
395.42	53.741
395.78	52.895
396.14	53.119
396.50	53.919
396.85	52.475
397.21	53.018
397.57	53.534
397.92	52.978
398.28	53.123
398.64	52.346
399.00	51.990
399.35	53.874
399.71	53.207
400.07	52.892
400.42	53.900
400.78	53.588
401.14	52.419
401.49	54.235
401.85	53.779
402.21	53.882
402.57	54.460
402.92	53.369
403.28	52.635
403.63	53.520
403.99	52.197
404.35	52.473
404.70	52.748
405.06	52.446
405.42	53.279
405.77	53.544
406.13	52.836
406.49	53.547
406.84	53.241
407.20	53.270
407.55	51.969
407.91	53.740
408.27	52.415
408.62	52.647
408.98	52.176
409.34	52.493
409.69	54.141
410.05	52.227
410.40	52.320
410.76	52.776
411.11	53.887
411.47	52.887
411.83	52.087
412.18	53.916
412.54	52.993
412.89	52.852
413.25	52.427
413.60	53.188
413.96	52.448
414.31	51.785
414.67	51.222
415.03	52.677
415.38	52.333
415.74	52.352
416.09	52.128
416.45	51.722
416.80	52.081
417.16	52.554
417.51	51.308
417.87	52.728
418.22	52.575
418.58	52.107
418.93	52.328
419.29	52.898
419.64	54.082
420.00	52.878
420.35	52.499
420.71	52.326
421.06	51.294
421.42	51.319
421.77	51.427
422.12	51.268
422.48	50.947
422.83	52.519
423.19	52.042
423.54	53.042
423.90	51.739
424.25	52.320
424.61	52.583
424.96	52.059
425.31	52.389
425.67	51.315
426.02	52.241
426.38	50.976
426.73	51.618
427.09	51.730
427.44	51.775
427.79	51.299
428.15	50.913
428.50	51.742
428.85	51.435
429.21	53.138
429.56	51.185
429.92	50.565
430.27	51.373
430.62	51.588
430.98	51.107
431.33	51.417
431.68	50.670
432.04	51.854
432.39	52.062
432.74	50.628
433.10	50.460
433.45	51.505
433.80	50.322
434.16	50.103
434.51	51.387
434.86	51.737
435.22	51.647
435.57	52.653
435.92	50.417
436.28	50.853
436.63	51.775
436.98	50.081
437.34	51.860
437.69	51.403
438.04	50.608
438.39	50.948
438.75	51.909
439.10	51.163
439.45	50.419
439.81	51.130
440.16	50.402
440.51	51.561
440.86	51.751
441.22	50.536
441.57	52.149
441.92	49.903
442.27	51.566
442.63	50.869
442.98	51.281
443.33	50.237
443.68	51.487
444.03	51.881
444.39	51.641
444.74	52.016
445.09	50.431
445.44	52.318
445.79	52.395
446.15	51.233
446.50	50.956
446.85	51.070
447.20	51.354
447.55	51.046
447.91	50.576
448.26	51.321
448.61	51.010
448.96	51.985
449.31	51.697
449.66	51.307
450.02	50.897
450.37	51.625
450.72	51.453
451.07	51.481
451.42	50.722
451.77	51.473
452.12	52.032
452.47	49.792
452.83	51.914
453.18	49.796
453.53	51.177
453.88	50.248
454.23	51.469
454.58	50.900
454.93	50.789
455.28	51.415
455.63	50.881
455.98	50.726
456.34	50.412
456.69	51.029
457.04	51.478
457.39	51.552
457.74	51.174
458.09	51.016
458.44	50.970
458.79	50.645
459.14	50.760
459.49	51.104
459.84	50.997
460.19	49.806
460.54	49.858
460.89	51.191
461.24	50.172
461.59	50.968
461.94	49.401
462.29	50.504
462.64	51.780
462.99	51.852
463.34	50.876
463.69	50.117
464.04	51.362
464.39	50.504
464.74	50.456
465.09	49.654
465.44	49.839
465.79	50.026
466.14	49.661
466.49	50.526
466.84	50.138
467.19	49.595
467.54	49.119
467.89	49.713
468.24	48.643
468.59	50.318
468.94	49.417
469.29	49.910
469.64	50.477
469.99	50.159
470.34	49.319
470.68	50.854
471.03	50.491
471.38	50.360
471.73	50.065
472.08	49.683
472.43	49.970
472.78	49.811
473.13	49.747
473.48	49.909
473.83	50.900
474.17	50.176
474.52	49.489
474.87	48.228
475.22	50.648
475.57	49.169
475.92	49.278
476.27	49.521
476.61	50.415
476.96	48.592
477.31	49.901
477.66	50.420
478.01	49.059
478.36	49.053
478.70	48.867
479.05	50.358
479.40	49.556
479.75	49.135
480.10	49.976
480.45	48.177
480.79	49.161
481.14	48.759
481.49	49.159
481.84	50.131
482.19	48.903
482.53	49.279
482.88	50.022
483.23	48.955
483.58	49.432
483.92	48.848
484.27	48.645
484.62	47.360
484.97	48.367
485.31	46.603
485.66	44.315
486.01	43.564
486.36	45.018
486.70	46.741
487.05	48.831
487.40	49.153
487.75	48.626
488.09	48.464
488.44	47.256
488.79	47.690
489.13	47.900
489.48	47.612
489.83	47.807
490.17	47.388
490.52	48.112
490.87	48.223
491.22	47.574
491.56	47.952
491.91	47.710
492.26	48.031
492.60	47.836
492.95	47.477
493.30	47.961
493.64	48.051
493.99	48.158
494.34	46.559
494.68	48.180
495.03	47.885
495.37	47.936
495.72	48.526
496.07	47.108
496.41	47.190
496.76	47.456
497.11	47.516
497.45	47.303
497.80	47.623
498.14	47.619
498.49	48.024
498.84	47.898
499.18	47.458
499.53	48.251
499.87	47.604
500.22	46.527
500.56	46.919
500.91	48.146
501.26	47.227
501.60	47.194
501.95	46.982
502.29	47.960
502.64	47.792
502.98	47.153
503.33	47.084
503.67	46.489
504.02	47.680
504.36	47.230
504.71	47.267
505.06	45.975
505.40	47.258
505.75	47.268
506.09	47.422
506.44	47.354
506.78	47.202
507.13	46.243
507.47	47.655
507.82	47.396
508.16	46.797
508.51	47.070
508.85	47.473
509.19	48.034
509.54	46.782
509.88	47.207
510.23	48.082
510.57	47.414
510.92	48.089
511.26	46.224
511.61	46.451
511.95	46.706
512.30	47.464
512.64	46.227
512.98	47.624
513.33	47.782
513.67	46.711
514.02	48.135
514.36	46.803
514.70	47.188
515.05	46.976
515.39	48.084
515.74	48.780
516.08	48.125
516.42	47.357
516.77	48.107
517.11	47.653
517.46	47.773
517.80	48.156
518.14	48.857
518.49	48.265
518.83	46.621
519.17	47.388
519.52	47.904
519.86	48.099
520.20	47.657
520.55	47.371
520.89	48.086
521.23	48.241
521.58	49.266
521.92	46.912
522.26	46.907
522.61	49.537
522.95	49.135
523.29	49.195
523.64	46.637
523.98	48.716
524.32	49.341
524.66	47.923
525.01	47.792
525.35	47.961
525.69	48.376
526.04	48.106
526.38	48.046
526.72	48.155
527.06	48.094
527.41	48.455
527.75	48.812
528.09	47.816
528.43	47.957
528.78	47.572
529.12	47.878
529.46	46.374
529.80	47.540
530.15	47.420
530.49	47.746
530.83	48.465
531.17	47.611
531.51	48.135
531.86	47.837
532.20	47.683
532.54	46.619
532.88	47.455
533.22	46.317
533.57	46.797
533.91	46.521
534.25	47.032
534.59	47.874
534.93	46.123
535.27	46.761
535.62	46.902
535.96	46.949
536.30	47.004
536.64	48.048
536.98	46.617
537.32	47.778
537.66	46.725
538.01	46.163
538.35	46.529
538.69	46.454
539.03	46.229
539.37	46.408
539.71	46.907
540.05	46.583
540.39	46.455
540.73	45.537
541.07	47.088
541.42	44.654
541.76	46.204
542.10	45.296
542.44	46.224
542.78	46.959
543.12	44.875
543.46	44.628
543.80	44.904
544.14	45.362
544.48	46.395
544.82	45.242
545.16	43.769
545.50	44.697
545.84	45.070
546.18	45.988
546.52	45.350
546.86	45.220
547.20	45.165
547.54	44.944
547.88	45.087
548.22	44.620
548.56	44.353
548.90	44.060
549.24	45.532
549.58	45.110
549.92	44.834
550.26	44.919
550.60	44.352
550.94	44.761
551.28	44.488
551.62	45.553
551.96	44.854
552.30	44.296
552.64	44.368
552.98	44.666
553.32	44.051
553.66	45.402
554.00	44.830
554.34	44.273
554.68	43.641
555.02	44.809
555.36	44.707
555.69	44.010
556.03	43.947
556.37	44.618
556.71	44.895
557.05	44.217
557.39	44.459
557.73	44.848
558.07	44.702
558.41	44.850
558.75	44.895
559.08	45.303
559.42	44.376
559.76	45.319
560.10	44.541
560.44	44.921
560.78	45.250
561.12	44.335
561.45	43.978
561.79	43.773
562.13	44.547
562.47	43.033
562.81	43.354
563.15	43.308
563.48	43.567
563.82	42.624
564.16	42.823
564.50	41.538
564.84	42.832
565.17	42.000
565.51	41.715
565.85	43.052
566.19	42.569
566.52	42.832
566.86	42.218
567.20	42.414
567.54	41.423
567.88	40.928
568.21	42.045
568.55	41.247
568.89	41.262
569.23	40.093
569.56	39.820
569.90	38.738
570.24	38.954
570.57	38.807
570.91	38.212
571.25	38.039
571.59	38.380
571.92	37.473
572.26	37.877
572.60	38.302
572.93	38.158
573.27	37.792
573.61	37.957
573.95	37.193
574.28	36.790
574.62	37.267
574.96	36.745
575.29	36.241
575.63	36.498
575.97	37.437
576.30	36.640
576.64	36.626
576.98	36.446
577.31	36.487
577.65	36.793
577.98	36.050
578.32	35.576
578.66	35.809
578.99	36.535
579.33	36.705
579.67	36.537
580.00	35.828
580.34	35.951
580.67	36.187
581.01	35.915
581.35	35.944
581.68	35.492
582.02	35.163
582.35	36.156
582.69	36.469
583.02	36.199
583.36	36.332
583.70	36.219
584.03	36.429
584.37	36.312
584.70	35.697
585.04	35.294
585.37	35.020
585.71	35.448
586.04	36.151
586.38	35.330
586.72	35.498
587.05	35.994
587.39	36.225
587.72	35.742
588.06	35.397
588.39	35.947
588.73	35.979
589.06	35.525
589.40	36.724
589.73	36.118
590.07	36.837
590.40	36.545
590.73	35.949
591.07	37.305
591.40	35.809
591.74	36.685
592.07	36.825
592.41	36.238
592.74	36.280
593.08	35.510
593.41	35.871
593.75	35.632
594.08	36.141
594.41	36.218
594.75	35.304
595.08	35.666
595.42	36.234
595.75	35.260
596.09	36.225
596.42	35.901
596.75	36.241
597.09	36.970
597.42	35.797
597.75	35.594
598.09	35.794
598.42	36.912
598.76	35.078
599.09	34.532
599.42	33.959
599.76	34.896
600.09	35.202
600.42	34.735
600.76	34.709
601.09	34.683
601.42	34.741
601.76	35.759
602.09	34.596
602.42	34.933
602.76	35.461
603.09	35.059
603.42	35.079
603.76	34.567
604.09	35.309
604.42	34.716
604.76	35.350
605.09	35.660
605.42	35.287
605.75	34.500
606.09	35.050
606.42	33.710
606.75	34.108
607.09	34.332
607.42	34.566
607.75	34.584
608.08	34.333
608.42	34.744
608.75	35.531
609.08	34.465
609.41	35.377
609.75	34.955
610.08	35.840
610.41	35.302
610.74	34.958
611.07	35.879
611.41	35.202
611.74	35.935
612.07	35.157
612.40	35.551
612.73	35.990
613.07	35.306
613.40	35.756
613.73	35.388
614.06	36.212
614.39	34.742
614.72	35.953
615.06	35.515
615.39	34.703
615.72	35.355
616.05	35.357
616.38	36.075
616.71	35.893
617.05	34.718
617.38	35.688
617.71	36.717
618.04	35.510
618.37	35.027
618.70	35.690
619.03	35.364
619.36	35.327
619.69	35.618
620.03	36.284
620.36	35.276
620.69	36.212
621.02	36.614
621.35	37.881
621.68	37.599
622.01	37.367
622.34	35.286
622.67	36.770
623.00	34.818
623.33	35.567
623.66	35.992
623.99	35.813
624.32	35.283
624.65	35.328
624.99	35.631
625.32	35.990
625.65	35.671
625.98	35.729
626.31	35.719
626.64	37.582
626.97	36.684
627.30	36.219
627.63	35.409
627.96	36.712
628.29	37.354
628.62	36.692
628.95	37.686
629.28	36.279
629.61	38.468
629.94	35.565
630.26	36.271
630.59	37.047
630.92	38.095
631.25	38.462
631.58	39.360
631.91	38.519
632.24	39.001
632.57	36.907
632.90	37.914
633.23	37.857
633.56	37.959
633.89	36.570
634.22	38.150
634.55	37.996
634.88	38.420
635.20	37.783
635.53	38.305
635.86	37.486
636.19	38.812
636.52	38.924
636.85	36.466
637.18	37.110
637.51	38.065
637.83	38.095
638.16	40.553
638.49	37.089
638.82	36.753
639.15	36.541
639.48	38.337
639.81	37.991
640.13	38.398
640.46	39.152
640.79	38.235
641.12	38.385
641.45	38.143
641.77	40.950
642.10	37.533
642.43	39.894
642.76	35.366
643.09	39.863
643.41	37.815
643.74	36.414
644.07	39.586
644.40	39.604
644.73	36.575
645.05	37.445
645.38	37.122
645.71	37.830
646.04	38.594
646.36	36.788
646.69	36.963
647.02	39.144
647.35	37.863
647.67	39.291
648.00	36.783
648.33	37.087
648.66	37.946
648.98	36.327
649.31	37.889
649.64	38.247
649.96	35.676
650.29	36.300
650.62	35.502
650.94	36.186
651.27	35.629
651.60	35.819
651.92	36.930
652.25	36.614
652.58	35.763
652.90	37.209
653.23	37.606
653.56	35.663
653.88	36.236
654.21	36.056
654.54	34.971
654.86	35.694
655.19	32.873
655.52	34.637
655.84	31.400
656.17	34.642
656.49	47.695
656.82	51.294
657.15	40.290
657.47	31.007
657.80	23.198
658.13	18.082
658.45	24.155
658.78	29.459
659.10	27.845
659.43	27.648
659.75	26.388
660.08	26.611
660.41	27.792
660.73	32.041
661.06	32.893
661.38	34.769
661.71	35.862
662.03	36.332
662.36	38.819
662.68	35.272
663.01	35.044
663.33	37.429
663.66	39.011
663.98	36.154
664.31	38.274
664.63	37.380
664.96	36.116
665.28	33.575
665.61	38.986
665.93	33.929
666.26	36.022
666.58	34.133
666.91	37.009
667.23	38.667
667.56	36.292
667.88	38.200
668.21	35.156
668.53	34.942
668.86	36.149
669.18	37.067
669.50	37.177
669.83	34.200
670.15	36.614
670.48	37.103
670.80	34.417
671.13	33.837
671.45	34.843
671.77	36.535
672.10	31.333
672.42	33.172
672.75	33.026
673.07	32.090
673.39	32.820
673.72	34.396
674.04	34.483
674.37	35.778
674.69	34.744
675.01	33.143
675.34	33.588
675.66	32.772
675.98	35.634
676.31	33.398
676.63	33.080
676.95	37.356
677.28	33.065
677.60	32.480
677.92	34.357
678.25	33.272
678.57	34.875
678.89	33.106
679.22	32.404
679.54	33.333
679.86	32.542
680.18	33.997
680.51	33.019
680.83	32.733
681.15	32.586
681.48	34.542
681.80	33.333
682.12	34.441
682.44	31.219
682.77	31.738
683.09	31.629
683.41	35.465
683.73	32.258
684.06	33.210
684.38	30.233
684.70	35.189
685.02	32.530
685.34	30.449
685.67	28.549
685.99	30.368
686.31	28.343
686.63	30.016
686.96	31.546
687.28	30.782
687.60	30.808
687.92	30.547
688.24	31.052
688.56	29.655
688.89	30.853
689.21	30.333
689.53	29.608
689.85	29.783
690.17	31.667
690.49	28.884
690.82	32.475
691.14	29.757
691.46	30.784
691.78	30.939
692.10	30.642
692.42	30.000
692.74	29.764
693.06	29.259
693.39	31.120
693.71	29.135
694.03	31.041
694.35	29.905
694.67	33.265
694.99	29.149
695.31	31.788
695.63	32.468
695.95	28.986
696.27	32.308
696.59	29.867
696.91	29.505
697.23	32.088
697.56	27.902
697.88	29.545
698.20	29.755
698.52	30.871
698.84	32.640
699.16	32.449
699.48	29.498
699.80	28.936
700.12	31.441
700.44	29.263
700.76	29.216
701.08	27.361
701.40	33.420
701.72	27.363
702.04	30.481
702.36	27.487
702.68	26.895
703.00	28.362
703.32	27.833
703.64	27.628
703.96	31.504
704.28	25.799
704.60	29.367
704.91	28.571
705.23	29.041
705.55	29.526
705.87	31.818
706.19	32.822
706.51	23.795
706.83	27.089
707.15	27.778
707.47	28.505
707.79	24.236
708.11	23.305
708.43	27.742
708.74	24.107
709.06	25.754
709.38	27.934
709.70	30.025
710.02	28.165
710.34	29.521
710.66	25.140
710.98	30.055
711.29	25.275
711.61	27.119
711.93	24.501
712.25	27.568
712.57	27.434
712.89	23.235
713.20	27.515
713.52	26.012
713.84	27.577
714.16	27.368
714.48	28.093
714.80	27.273
715.11	25.984
715.43	29.973
715.75	25.526
716.07	27.348
716.39	28.689
716.70	21.687
717.02	26.557
717.34	20.557
717.66	25.839
717.97	25.000
718.29	26.804
718.61	21.382
718.93	23.301
719.24	22.050
719.56	26.074
719.88	25.225
720.20	26.774
720.51	26.708
720.83	26.250
721.15	24.013
721.46	22.603
721.78	24.333
722.10	22.654
722.42	22.819
722.73	20.000
723.05	25.965
723.37	21.875
723.68	24.014
724.00	22.744
724.32	25.000
724.63	26.573
724.95	20.567
725.27	17.770
725.58	24.382
725.90	26.207
726.22	23.824
726.53	25.974
726.85	23.585
727.16	21.752
727.48	22.324
727.80	24.834
728.11	25.795
728.43	21.886
728.74	19.732
729.06	19.536
729.38	21.429
729.69	23.154
730.01	21.726
730.32	18.182
730.64	21.384
730.96	22.671
731.27	22.626
731.59	25.824
731.90	21.558
732.22	20.833
732.53	19.337
732.85	18.286
733.16	20.821
733.48	19.512
733.80	19.777
734.11	23.077
734.43	22.432
734.74	25.063
735.06	20.603
735.37	20.270
735.69	22.432
736.00	21.469
736.32	23.450
736.63	21.944
736.95	18.103
737.26	20.909
737.58	21.818
737.89	22.059
738.21	18.654
738.52	19.672
738.83	18.771
739.15	20.922
739.46	22.449
739.78	22.699
740.09	20.344
740.41	21.574
740.72	19.000
741.04	19.741
741.35	20.702
741.66	16.863
741.98	20.492
742.29	18.410
742.61	25.000
742.92	18.077
743.23	23.466
743.55	20.543
743.86	16.000
744.18	16.116
744.49	15.190
744.80	20.988
745.12	18.987
745.43	20.325
745.74	18.103
746.06	22.881
746.37	23.207
746.68	25.610
747.00	17.917
747.31	19.742
747.62	26.923
747.94	20.243
748.25	15.261
748.56	15.102
748.88	18.803
749.19	22.845
749.50	22.511
749.82	21.285
750.13	19.929
750.44	18.000
750.75	19.077
751.07	23.077
751.38	19.558
751.69	15.974
752.01	17.476
752.32	15.686
752.63	19.388
752.94	20.761
753.26	16.357
753.57	16.296
753.88	18.727
754.19	19.936
754.51	18.650
754.82	20.900
755.13	19.344
755.44	20.819
755.75	20.066
756.07	20.000
756.38	18.239
756.69	20.783
757.00	17.452
757.31	16.940
757.63	18.414
757.94	20.188
758.25	19.639
758.56	20.261
758.87	20.909
759.18	17.333
759.50	17.847
759.81	17.367
760.12	19.677
760.43	20.312
760.74	24.138
761.05	21.000
761.36	18.795
761.67	21.827
761.99	19.189
762.30	18.902
762.61	14.521
762.92	18.657
763.23	16.105
763.54	15.468
763.85	15.464
764.16	18.855
764.47	15.845
764.78	17.252
765.10	18.475
765.41	18.974
765.72	19.312
766.03	20.621
766.34	18.182
766.65	16.376
766.96	15.538
767.27	21.198
767.58	10.448
767.89	21.154
768.20	10.798
768.51	11.574
768.82	17.671
769.13	15.909
769.44	8.846
769.75	17.329
770.06	17.692
770.37	14.961
770.68	11.064
770.99	14.980
771.30	20.000
771.61	15.970
771.92	15.556
772.23	14.980
772.54	9.722
772.85	10.599
773.16	16.190
773.47	15.873
773.78	10.811
774.09	14.205
774.39	16.500
774.70	12.568
775.01	2.439
775.32	6.471
775.63	8.589
775.94	3.185
776.25	8.387
776.56	10.897
776.87	12.925
777.18	13.103
777.48	5.594
777.79	6.757
778.10	4.412
778.41	11.111
778.72	6.207
779.03	16.667
779.34	12.121
779.65	6.218
779.95	10.556
780.26	8.523
780.57	10.968
780.88	13.768
781.19	8.387
781.50	21.176
781.80	10.215
782.11	8.995
782.42	8.081
782.73	5.389
783.04	5.028
783.34	6.667
783.65	6.536
783.96	6.211
784.27	1.190
784.57	5.960
784.88	2.143
785.19	9.449
785.50	9.449
785.81	9.023
786.11	9.231
786.42	-2.878
786.73	-1.439
787.04	-0.752
787.34	-1.639
787.65	2.400
787.96	5.970
788.26	8.392
788.57	8.392
788.88	2.632
789.19	7.843
789.49	1.370
789.80	8.511
790.11	5.512
790.41	-0.781
790.72	0.000
791.03	-14.563
791.33	0.000
791.64	-4.386
791.95	-3.571
792.25	-3.810
792.56	-1.786
792.87	-12.500
793.17	0.893
793.48	-7.292
793.79	-22.892
794.09	-12.844
794.40	-2.752
794.70	0.680
795.01	-1.299
795.32	-0.685
795.62	3.521
795.93	-2.273
796.23	0.000
796.54	-4.464
796.85	-13.830
797.15	-9.783
797.46	-21.918
797.76	-13.750
798.07	-10.870
798.37	-17.526
798.68	-10.390
798.99	-10.345
799.29	-12.360
799.60	-5.319
799.90	-22.892
800.21	-10.769
800.51	-35.821
800.82	-22.059
801.12	-27.397
801.43	-30.882
801.73	-40.678
802.04	-24.242
802.34	-41.667
802.65	-28.814
802.95	-40.299
803.26	-32.203
803.56	-31.507
803.87	-21.429
804.17	-27.397
804.48	-59.649
804.78	-19.444
805.09	-29.310
805.39	-21.622
805.70	-29.577
806.00	-13.415
806.30	-24.096
806.61	-31.507
806.91	-9.615
807.22	-17.778
807.52	-20.690
807.83	-2.778
808.13	-8.434
808.43	-19.101
808.74	-13.750
809.04	-42.647
809.35	-22.667
809.65	-25.714
809.95	-21.918
810.26	-57.895
810.56	-41.379
810.86	-25.000
811.17	-40.351
811.47	-45.902
811.77	-77.778
812.08	-25.424
812.38	-35.000
812.69	-31.034
812.99	-64.151
813.29	-92.308
813.59	-44.000
813.90	-24.561
814.20	-30.909
814.50	-14.085
814.81	-25.641
815.11	-36.066
815.41	-37.313
815.72	-25.862
816.02	-48.214
816.32	-44.444
816.62	-56.818
816.93	-66.667
817.23	-37.037
817.53	-61.702
817.84	-71.429
818.14	-97.059
818.44	-51.020
818.74	-62.222
819.04	-92.308
819.35	-102.857
819.65	-134.615
819.95	-45.283
820.25	-64.444
820.56	-71.429
820.86	-71.875
821.16	-74.359
821.46	-65.116
821.76	-52.000
822.07	-33.929
822.37	-63.043
822.67	-53.191
822.97	-94.595
823.27	-82.500
823.57	-26.531
823.88	-64.444
824.18	-50.000
824.48	-90.000
824.78	-132.000
825.08	-69.697
825.38	-42.222
825.69	-51.064
825.99	-88.889
826.29	-102.857
826.59	-89.744
826.89	-74.419
827.19	-54.000
827.49	-61.765
827.79	-41.667
828.09	-89.189
828.39	-106.667
828.70	-70.732
829.00	-67.442
829.30	-153.571
829.60	-58.824
829.90	-63.043
830.20	-68.571
830.50	-89.655
830.80	-172.222
831.10	-96.154
831.40	-73.529
831.70	-152.381
832.00	-58.065
832.30	-247.059
832.60	-133.333
832.90	-284.615
833.20	-173.684
833.50	-185.000
833.80	-194.737
834.10	-209.524
834.40	-61.111
834.70	-46.875
835.00	-100.000
835.30	-82.353
835.60	-90.000
835.90	-124.000
836.20	-200.000
836.50	-136.000
836.80	-106.061
837.10	-96.296
837.40	-133.333
837.70	-243.750
838.00	-139.286
838.30	-173.913
838.60	-72.414
838.90	-235.714
839.19	-186.957
839.49	-341.667
839.79	-156.522
840.09	-225.000
840.39	-185.000
840.69	-70.968
840.99	-150.000
841.29	-213.333
841.59	-142.105
841.88	-64.103
842.18	-103.846
842.48	-350.000
842.78	-185.000
843.08	-86.667
843.38	-100.000
843.68	-250.000
843.97	-94.118
844.27	-225.000
844.57	-215.789
844.87	-490.000
845.17	-240.000
845.47	-152.381
845.76	-166.667
846.06	-333.333
846.36	-194.118
846.66	-150.000
846.96	-280.000
847.25	-176.471
847.55	-121.739
847.85	-115.000
848.15	-194.118
848.44	-336.364
848.74	-157.143
849.04	-170.833
849.34	-268.750
849.63	-152.174
849.93	1550.000
850.23	-226.667
850.53	-92.308
850.82	-290.909
851.12	-154.545
851.42	-327.273
851.71	-184.615
852.01	-185.000
852.31	-230.769
852.61	-168.421
852.90	-283.333
853.20	-144.444
853.50	-555.556
853.79	-200.000
854.09	-172.727
854.39	-366.667
854.68	-112.903
854.98	-130.769
855.28	-111.111
855.57	-128.571
855.87	-124.000
856.17	-145.455
856.46	-114.815
856.76	-194.444
857.05	-182.609
857.35	-162.500
857.65	-276.923
857.94	-157.143
858.24	-66.667
858.53	-113.043
858.83	-205.882
859.13	-164.706
859.42	-182.353
859.72	-214.286
860.01	-160.000
860.31	-355.556
860.60	-370.000
860.90	-246.667
861.20	-166.667
861.49	-323.077
861.79	-103.333
862.08	-292.308
862.38	-59.375
862.67	-176.471
862.97	-250.000
863.26	-466.667
863.56	-380.000
863.85	-318.182
864.15	-183.333
864.44	-1333.333
864.74	-271.429
865.03	-212.500
865.33	-460.000
865.62	-90.323
865.92	-127.273
866.21	-139.130
866.51	-257.143
866.80	-800.000
867.10	-341.667
867.39	-391.667
867.69	4000.000
867.98	-457.143
868.27	-152.941
868.57	-4900.000
868.86	-430.000
869.16	-142.857
869.45	-120.833
869.75	-318.182
870.04	-400.000
870.33	-208.333
870.63	-571.429
870.92	-975.000
871.22	-600.000
871.51	-418.182
871.80	-1500.000
872.10	-2150.000
>>>>>End Processed Spectral Data<<<<<
