SpectraSuite Data File
++++++++++++++++++++++++++++++++++++
Date: Thu May 14 16:00:49 PDT 2015
User: schluterlab
Dark Spectrum Present: Yes
Reference Spectrum Present: Yes
Number of Sampled Component Spectra: 1
Spectrometers: USB2E3373
Integration Time (usec): 3000 (USB2E3373)
Spectra Averaged: 3 (USB2E3373)
Boxcar Smoothing: 0 (USB2E3373)
Correct for Electrical Dark: No (USB2E3373)
Strobe/Lamp Enabled: No (USB2E3373)
Correct for Detector Non-linearity: No (USB2E3373)
Correct for Stray Light: No (USB2E3373)
Number of Pixels in Processed Spectrum: 2048
>>>>>Begin Processed Spectral Data<<<<<
178.53	0.000
178.91	142.857
179.29	-2500.000
179.67	-1800.000
180.04	214.286
180.42	210.000
180.80	460.000
181.18	-1600.000
181.56	-800.000
181.94	400.000
182.31	-400.000
182.69	566.667
183.07	-800.000
183.45	500.000
183.83	-66.667
184.20	-533.333
184.58	1300.000
184.96	-675.000
185.34	-144.444
185.72	-160.000
186.09	244.444
186.47	1250.000
186.85	580.000
187.23	-300.000
187.61	-2400.000
187.98	400.000
188.36	575.000
188.74	-400.000
189.12	-300.000
189.49	-68.750
189.87	-112.500
190.25	-100.000
190.63	-340.000
191.00	-177.778
191.38	0.000
191.76	-625.000
192.14	-283.333
192.51	900.000
192.89	-100.000
193.27	0.000
193.65	-185.714
194.02	-1900.000
194.40	-71.429
194.78	328.571
195.15	0.000
195.53	-136.364
195.91	0.000
196.29	-350.000
196.66	-100.000
197.04	-3000.000
197.42	-314.286
197.79	-650.000
198.17	-112.500
198.55	-314.286
198.92	-144.444
199.30	-212.500
199.68	-136.364
200.05	-50.000
200.43	-1050.000
200.81	328.571
201.18	0.000
201.56	333.333
201.94	0.000
202.31	766.667
202.69	-144.444
203.07	1700.000
203.44	-122.222
203.82	-475.000
204.19	-33.333
204.57	-383.333
204.95	-212.500
205.32	-1800.000
205.70	350.000
206.08	-183.333
206.45	-266.667
206.83	480.000
207.20	-233.333
207.58	-380.000
207.96	-350.000
208.33	-183.333
208.71	158.333
209.08	-250.000
209.46	0.000
209.84	283.333
210.21	600.000
210.59	1200.000
210.96	700.000
211.34	-225.000
211.71	-262.500
212.09	-2000.000
212.46	0.000
212.84	1050.000
213.22	-300.000
213.59	-500.000
213.97	-100.000
214.34	-500.000
214.72	283.333
215.09	-525.000
215.47	0.000
215.84	342.857
216.22	1100.000
216.59	-300.000
216.97	-500.000
217.34	-425.000
217.72	-262.500
218.09	-400.000
218.47	-450.000
218.84	0.000
219.22	380.000
219.59	-64.706
219.97	-40.000
220.34	800.000
220.72	-144.444
221.09	-84.615
221.47	-300.000
221.84	-170.000
222.22	-257.143
222.59	0.000
222.97	-125.000
223.34	-340.000
223.72	-1600.000
224.09	-450.000
224.46	-575.000
224.84	-100.000
225.21	-214.286
225.59	-300.000
225.96	-275.000
226.34	-46.154
226.71	466.667
227.08	-1000.000
227.46	-106.667
227.83	-425.000
228.21	-42.105
228.58	150.000
228.95	900.000
229.33	-100.000
229.70	-140.000
230.08	-36.842
230.45	150.000
230.82	-366.667
231.20	-150.000
231.57	-133.333
231.95	-118.182
232.32	-154.545
232.69	-45.000
233.07	-375.000
233.44	-94.118
233.81	-220.000
234.19	11.111
234.56	-50.000
234.93	-10.345
235.31	-36.842
235.68	-77.778
236.05	-140.000
236.43	-34.615
236.80	4.000
237.17	-51.852
237.55	-18.182
237.92	-250.000
238.29	-38.710
238.67	-38.636
239.04	-33.333
239.41	-38.095
239.79	-52.174
240.16	-38.889
240.53	-23.913
240.91	-45.098
241.28	-21.311
241.65	-11.940
242.02	-13.514
242.40	-26.154
242.77	-14.667
243.14	-18.293
243.51	-27.632
243.89	-19.231
244.26	1.980
244.63	-6.863
245.00	-3.738
245.38	-9.649
245.75	-26.549
246.12	-8.730
246.49	-11.628
246.87	2.143
247.24	-3.974
247.61	-2.632
247.98	-10.738
248.36	-5.556
248.73	-12.270
249.10	-5.464
249.47	-1.493
249.84	-2.094
250.22	-5.181
250.59	-2.222
250.96	-4.091
251.33	-14.796
251.70	-4.274
252.08	-0.417
252.45	-2.459
252.82	-8.264
253.19	0.781
253.56	-1.901
253.94	-3.846
254.31	0.758
254.68	-2.448
255.05	-1.303
255.42	-1.020
255.79	-5.178
256.16	-2.980
256.54	-2.980
256.91	-2.295
257.28	-1.311
257.65	-2.548
258.02	-2.655
258.39	3.134
258.76	1.529
259.14	-2.011
259.51	2.017
259.88	-2.550
260.25	-2.778
260.62	-0.548
260.99	1.366
261.36	-1.340
261.73	-1.857
262.10	-1.923
262.47	-3.485
262.85	1.768
263.22	-0.260
263.59	-4.474
263.96	1.535
264.33	-2.558
264.70	0.988
265.07	0.477
265.44	2.494
265.81	0.463
266.18	-1.134
266.55	-1.339
266.92	-2.050
267.29	2.407
267.66	1.109
268.03	-0.873
268.40	0.626
268.77	-2.278
269.14	-4.626
269.51	0.658
269.88	-1.230
270.25	0.402
270.62	-0.211
270.99	1.616
271.36	0.990
271.73	1.375
272.10	2.004
272.47	0.000
272.84	0.201
273.21	1.002
273.58	1.210
273.95	0.577
274.32	-1.141
274.69	-1.354
275.06	1.099
275.43	-1.109
275.80	2.469
276.17	-0.185
276.54	-0.373
276.91	-1.431
277.28	1.266
277.65	-0.180
278.02	-0.551
278.39	1.268
278.76	1.054
279.13	1.241
279.50	3.436
279.87	1.968
280.23	-2.289
280.60	2.542
280.97	1.974
281.34	-0.679
281.71	2.030
282.08	0.997
282.45	-0.164
282.82	1.256
283.19	-1.292
283.56	0.328
283.92	2.703
284.29	3.002
284.66	2.135
285.03	-0.962
285.40	1.546
285.77	0.929
286.14	1.985
286.51	1.065
286.87	1.106
287.24	0.602
287.61	1.196
287.98	-1.360
288.35	0.444
288.72	1.331
289.08	1.611
289.45	-0.444
289.82	0.904
290.19	-0.431
290.56	1.268
290.93	-0.285
291.29	0.275
291.66	0.138
292.03	0.136
292.40	1.769
292.77	1.482
293.13	1.218
293.50	-0.131
293.87	1.074
294.24	1.733
294.60	1.643
294.97	-0.805
295.34	1.921
295.71	0.631
296.08	1.938
296.44	0.123
296.81	1.705
297.18	0.125
297.55	0.000
297.91	0.830
298.28	-0.118
298.65	0.951
299.02	0.826
299.38	1.487
299.75	1.285
300.12	0.810
300.48	0.922
300.85	0.112
301.22	2.013
301.59	0.114
301.95	0.904
302.32	0.889
302.69	1.095
303.05	1.850
303.42	1.109
303.79	1.875
304.15	1.052
304.52	0.740
304.89	1.990
305.25	1.139
305.62	1.358
305.99	1.959
306.35	1.210
306.72	1.551
307.09	1.624
307.45	1.553
307.82	1.312
308.19	1.211
308.55	1.832
308.92	1.558
309.29	2.778
309.65	1.657
310.02	0.198
310.38	2.461
310.75	2.039
311.12	1.726
311.48	1.271
311.85	1.614
312.22	1.233
312.58	2.160
312.95	2.103
313.31	2.168
313.68	3.114
314.05	3.884
314.41	2.641
314.78	2.452
315.14	3.993
315.51	3.509
315.87	3.690
316.24	4.475
316.61	4.440
316.97	3.258
317.34	3.616
317.70	3.755
318.07	5.026
318.43	5.442
318.80	5.936
319.16	6.009
319.53	4.370
319.89	5.171
320.26	6.050
320.62	4.344
320.99	5.633
321.35	5.730
321.72	6.605
322.08	5.861
322.45	6.594
322.81	8.394
323.18	7.699
323.54	8.793
323.91	6.584
324.27	8.176
324.64	7.976
325.00	7.877
325.37	9.009
325.73	9.421
326.10	9.084
326.46	9.935
326.83	10.408
327.19	9.606
327.56	10.672
327.92	10.228
328.29	9.839
328.65	10.302
329.01	8.799
329.38	10.025
329.74	10.788
330.11	11.045
330.47	10.699
330.84	10.853
331.20	11.083
331.56	9.965
331.93	11.883
332.29	11.949
332.66	10.548
333.02	9.883
333.38	11.493
333.75	11.111
334.11	11.009
334.48	10.809
334.84	11.385
335.20	10.327
335.57	10.624
335.93	11.488
336.29	9.983
336.66	10.261
337.02	11.288
337.38	10.714
337.75	11.322
338.11	11.018
338.47	10.587
338.84	10.998
339.20	9.688
339.56	10.873
339.93	11.658
340.29	11.272
340.65	11.273
341.02	11.572
341.38	10.994
341.74	10.734
342.11	10.780
342.47	10.087
342.83	10.950
343.20	11.202
343.56	10.666
343.92	10.889
344.28	10.234
344.65	11.938
345.01	10.920
345.37	11.198
345.73	9.587
346.10	11.622
346.46	9.810
346.82	11.011
347.19	11.383
347.55	10.470
347.91	11.441
348.27	11.760
348.63	11.500
349.00	10.291
349.36	10.632
349.72	10.789
350.08	10.698
350.45	10.418
350.81	11.086
351.17	10.075
351.53	11.600
351.89	10.706
352.26	10.373
352.62	10.896
352.98	10.763
353.34	10.978
353.70	11.094
354.07	11.624
354.43	10.706
354.79	10.995
355.15	10.890
355.51	11.111
355.87	10.845
356.24	9.962
356.60	10.939
356.96	10.749
357.32	9.740
357.68	10.835
358.04	10.704
358.40	10.896
358.77	10.599
359.13	10.487
359.49	10.186
359.85	11.240
360.21	11.047
360.57	10.768
360.93	11.001
361.29	11.018
361.66	10.717
362.02	11.413
362.38	10.401
362.74	12.011
363.10	12.036
363.46	11.842
363.82	10.511
364.18	10.697
364.54	11.342
364.90	11.037
365.26	10.207
365.62	11.067
365.98	12.117
366.35	10.537
366.71	11.293
367.07	10.758
367.43	11.753
367.79	12.940
368.15	11.973
368.51	11.367
368.87	11.888
369.23	12.067
369.59	10.792
369.95	11.224
370.31	12.357
370.67	11.279
371.03	12.050
371.39	10.678
371.75	11.073
372.11	11.721
372.47	11.984
372.83	12.435
373.19	11.408
373.55	12.331
373.91	12.134
374.27	11.708
374.63	12.585
374.99	12.003
375.35	13.506
375.71	12.387
376.07	12.266
376.42	12.720
376.78	12.430
377.14	12.664
377.50	11.765
377.86	13.177
378.22	13.832
378.58	13.496
378.94	13.028
379.30	12.888
379.66	12.757
380.02	13.272
380.38	13.652
380.74	12.563
381.09	13.298
381.45	13.182
381.81	12.998
382.17	14.252
382.53	13.041
382.89	12.923
383.25	13.423
383.61	13.252
383.97	12.603
384.32	13.457
384.68	13.109
385.04	14.112
385.40	14.850
385.76	14.009
386.12	14.183
386.48	14.471
386.83	13.826
387.19	13.731
387.55	13.380
387.91	14.155
388.27	14.781
388.62	13.803
388.98	13.649
389.34	14.614
389.70	15.049
390.06	13.381
390.42	14.217
390.77	15.473
391.13	13.791
391.49	14.493
391.85	14.424
392.20	14.353
392.56	15.416
392.92	15.049
393.28	14.704
393.64	14.637
393.99	15.282
394.35	14.953
394.71	14.431
395.07	14.731
395.42	14.849
395.78	16.027
396.14	15.508
396.50	14.133
396.85	14.550
397.21	14.911
397.57	14.723
397.92	15.636
398.28	14.829
398.64	15.275
399.00	15.340
399.35	15.550
399.71	15.000
400.07	15.946
400.42	15.250
400.78	15.336
401.14	15.766
401.49	16.316
401.85	15.814
402.21	16.107
402.57	16.197
402.92	15.721
403.28	15.984
403.63	15.692
403.99	15.914
404.35	15.577
404.70	15.751
405.06	15.652
405.42	15.281
405.77	16.412
406.13	15.127
406.49	16.498
406.84	16.122
407.20	16.154
407.55	15.445
407.91	15.588
408.27	15.253
408.62	15.474
408.98	15.554
409.34	15.543
409.69	15.204
410.05	16.647
410.40	16.299
410.76	16.321
411.11	16.423
411.47	16.462
411.83	16.049
412.18	16.386
412.54	16.183
412.89	16.356
413.25	16.084
413.60	16.083
413.96	17.016
414.31	16.204
414.67	16.756
415.03	15.692
415.38	16.330
415.74	17.104
416.09	16.039
416.45	16.406
416.80	16.279
417.16	16.028
417.51	16.750
417.87	16.370
418.22	17.126
418.58	16.853
418.93	17.288
419.29	17.571
419.64	16.987
420.00	16.439
420.35	16.957
420.71	16.600
421.06	16.216
421.42	17.087
421.77	16.101
422.12	16.279
422.48	16.897
422.83	17.963
423.19	16.870
423.54	17.699
423.90	17.007
424.25	17.707
424.61	15.959
424.96	17.353
425.31	17.994
425.67	16.801
426.02	16.713
426.38	16.705
426.73	17.076
427.09	17.820
427.44	16.658
427.79	16.915
428.15	17.066
428.50	16.966
428.85	17.164
429.21	17.606
429.56	16.041
429.92	16.953
430.27	17.108
430.62	17.587
430.98	16.921
431.33	17.155
431.68	16.331
432.04	17.318
432.39	17.568
432.74	17.295
433.10	17.361
433.45	17.224
433.80	17.328
434.16	17.252
434.51	17.986
434.86	16.938
435.22	16.950
435.57	17.630
435.92	17.529
436.28	16.837
436.63	18.569
436.98	17.123
437.34	17.982
437.69	17.611
438.04	17.451
438.39	17.576
438.75	17.432
439.10	18.393
439.45	17.775
439.81	17.345
440.16	17.587
440.51	18.116
440.86	16.787
441.22	17.953
441.57	18.134
441.92	17.992
442.27	17.727
442.63	18.033
442.98	17.769
443.33	18.464
443.68	18.781
444.03	19.003
444.39	18.493
444.74	18.428
445.09	17.892
445.44	18.282
445.79	18.247
446.15	18.088
446.50	17.984
446.85	18.385
447.20	18.037
447.55	18.358
447.91	17.539
448.26	17.918
448.61	18.172
448.96	19.099
449.31	17.922
449.66	17.375
450.02	18.618
450.37	18.700
450.72	17.922
451.07	17.483
451.42	18.429
451.77	17.399
452.12	19.018
452.47	16.815
452.83	18.412
453.18	17.396
453.53	17.519
453.88	17.946
454.23	18.023
454.58	17.876
454.93	18.507
455.28	18.964
455.63	18.022
455.98	17.486
456.34	18.316
456.69	17.931
457.04	17.553
457.39	18.847
457.74	18.680
458.09	17.683
458.44	17.888
458.79	17.896
459.14	18.249
459.49	17.544
459.84	18.730
460.19	18.212
460.54	17.888
460.89	18.052
461.24	17.184
461.59	18.207
461.94	17.399
462.29	18.029
462.64	18.105
462.99	18.330
463.34	17.910
463.69	17.644
464.04	17.565
464.39	18.105
464.74	17.617
465.09	17.532
465.44	18.133
465.79	18.139
466.14	18.343
466.49	17.789
466.84	17.466
467.19	17.977
467.54	16.863
467.89	17.126
468.24	18.006
468.59	16.850
468.94	17.599
469.29	17.157
469.64	17.419
469.99	16.189
470.34	17.450
470.68	18.387
471.03	17.682
471.38	17.659
471.73	17.100
472.08	17.322
472.43	17.219
472.78	17.191
473.13	17.573
473.48	17.946
473.83	17.528
474.17	17.351
474.52	17.739
474.87	16.777
475.22	17.803
475.57	17.394
475.92	17.372
476.27	17.785
476.61	17.601
476.96	17.727
477.31	17.327
477.66	18.258
478.01	17.692
478.36	17.049
478.70	17.094
479.05	18.252
479.40	16.387
479.75	17.675
480.10	17.527
480.45	17.548
480.79	17.506
481.14	17.142
481.49	16.856
481.84	17.581
482.19	17.032
482.53	17.184
482.88	17.501
483.23	16.941
483.58	16.376
483.92	16.445
484.27	16.808
484.62	16.832
484.97	17.341
485.31	16.438
485.66	16.662
486.01	16.639
486.36	17.266
486.70	18.015
487.05	17.611
487.40	17.181
487.75	17.608
488.09	16.991
488.44	16.985
488.79	17.099
489.13	16.510
489.48	16.466
489.83	15.855
490.17	15.715
490.52	16.379
490.87	15.948
491.22	16.941
491.56	16.681
491.91	16.529
492.26	16.486
492.60	15.960
492.95	16.191
493.30	16.540
493.64	15.900
493.99	15.833
494.34	15.810
494.68	16.017
495.03	16.256
495.37	16.023
495.72	15.964
496.07	17.090
496.41	15.659
496.76	15.847
497.11	15.796
497.45	15.192
497.80	16.171
498.14	15.918
498.49	15.809
498.84	16.408
499.18	16.014
499.53	16.233
499.87	16.615
500.22	15.850
500.56	15.385
500.91	15.973
501.26	15.909
501.60	16.129
501.95	15.762
502.29	16.191
502.64	16.310
502.98	16.048
503.33	15.637
503.67	15.395
504.02	15.718
504.36	15.818
504.71	15.847
505.06	15.871
505.40	15.082
505.75	15.574
506.09	15.654
506.44	15.320
506.78	15.000
507.13	15.814
507.47	15.064
507.82	15.009
508.16	15.201
508.51	15.893
508.85	15.305
509.19	15.538
509.54	15.370
509.88	15.590
510.23	15.299
510.57	16.385
510.92	15.675
511.26	15.103
511.61	14.631
511.95	15.129
512.30	16.051
512.64	14.443
512.98	14.857
513.33	16.280
513.67	15.196
514.02	15.330
514.36	15.243
514.70	15.312
515.05	15.433
515.39	15.538
515.74	15.695
516.08	15.478
516.42	15.646
516.77	15.247
517.11	14.956
517.46	15.005
517.80	16.676
518.14	15.669
518.49	14.967
518.83	15.487
519.17	14.755
519.52	14.832
519.86	16.262
520.20	15.868
520.55	15.279
520.89	15.146
521.23	14.629
521.58	15.480
521.92	14.901
522.26	15.578
522.61	14.410
522.95	14.533
523.29	14.483
523.64	14.518
523.98	14.775
524.32	16.103
524.66	15.595
525.01	14.723
525.35	15.164
525.69	14.849
526.04	14.753
526.38	15.000
526.72	15.167
527.06	15.425
527.41	14.810
527.75	15.024
528.09	15.112
528.43	14.446
528.78	14.277
529.12	14.908
529.46	15.289
529.80	15.046
530.15	15.072
530.49	14.531
530.83	15.348
531.17	14.516
531.51	14.019
531.86	15.685
532.20	15.061
532.54	15.021
532.88	14.545
533.22	15.144
533.57	15.465
533.91	14.759
534.25	14.585
534.59	14.885
534.93	14.544
535.27	14.423
535.62	15.691
535.96	14.468
536.30	14.924
536.64	15.495
536.98	13.653
537.32	14.938
537.66	15.596
538.01	14.079
538.35	15.043
538.69	13.522
539.03	14.838
539.37	14.605
539.71	15.255
540.05	15.108
540.39	13.998
540.73	13.722
541.07	14.592
541.42	14.058
541.76	13.938
542.10	15.018
542.44	13.520
542.78	14.964
543.12	14.243
543.46	14.408
543.80	13.609
544.14	14.363
544.48	14.421
544.82	14.063
545.16	14.729
545.50	14.080
545.84	14.023
546.18	15.185
546.52	14.140
546.86	13.711
547.20	13.868
547.54	12.921
547.88	12.960
548.22	14.327
548.56	14.160
548.90	12.776
549.24	13.860
549.58	13.060
549.92	13.202
550.26	13.592
550.60	14.103
550.94	13.519
551.28	13.201
551.62	13.949
551.96	13.010
552.30	13.894
552.64	13.441
552.98	13.288
553.32	13.891
553.66	13.312
554.00	13.556
554.34	13.900
554.68	12.589
555.02	13.272
555.36	13.675
555.69	12.812
556.03	13.304
556.37	14.080
556.71	13.316
557.05	13.419
557.39	12.940
557.73	12.616
558.07	13.245
558.41	13.488
558.75	13.320
559.08	12.665
559.42	13.512
559.76	13.026
560.10	14.133
560.44	12.401
560.78	13.938
561.12	12.131
561.45	13.017
561.79	13.858
562.13	12.939
562.47	12.885
562.81	12.595
563.15	12.753
563.48	13.052
563.82	13.180
564.16	12.720
564.50	12.932
564.84	13.097
565.17	12.471
565.51	12.716
565.85	12.470
566.19	12.385
566.52	13.283
566.86	13.073
567.20	12.833
567.54	13.170
567.88	11.927
568.21	12.401
568.55	12.374
568.89	12.665
569.23	12.421
569.56	12.974
569.90	13.222
570.24	12.850
570.57	12.412
570.91	12.523
571.25	12.959
571.59	12.914
571.92	12.607
572.26	12.493
572.60	13.077
572.93	13.220
573.27	12.700
573.61	13.049
573.95	12.722
574.28	12.474
574.62	12.642
574.96	12.770
575.29	12.470
575.63	12.451
575.97	12.695
576.30	12.485
576.64	12.527
576.98	12.323
577.31	12.593
577.65	12.670
577.98	12.726
578.32	12.557
578.66	12.476
578.99	12.103
579.33	12.783
579.67	12.330
580.00	12.407
580.34	12.304
580.67	12.467
581.01	12.224
581.35	12.468
581.68	12.103
582.02	12.769
582.35	12.496
582.69	12.385
583.02	12.540
583.36	12.713
583.70	12.224
584.03	12.167
584.37	12.096
584.70	11.907
585.04	11.951
585.37	11.931
585.71	12.255
586.04	12.153
586.38	12.628
586.72	11.732
587.05	11.998
587.39	12.142
587.72	12.081
588.06	12.089
588.39	12.248
588.73	11.958
589.06	11.569
589.40	11.801
589.73	12.179
590.07	11.638
590.40	12.103
590.73	12.160
591.07	12.137
591.40	11.275
591.74	11.526
592.07	12.140
592.41	11.672
592.74	12.318
593.08	12.197
593.41	12.015
593.75	11.839
594.08	11.875
594.41	11.923
594.75	11.690
595.08	11.541
595.42	11.104
595.75	11.624
596.09	11.928
596.42	11.322
596.75	11.540
597.09	11.960
597.42	11.641
597.75	11.250
598.09	11.825
598.42	11.982
598.76	11.005
599.09	11.606
599.42	11.063
599.76	11.093
600.09	11.712
600.42	11.645
600.76	10.997
601.09	11.152
601.42	10.951
601.76	11.379
602.09	10.865
602.42	11.378
602.76	11.033
603.09	11.233
603.42	11.561
603.76	10.712
604.09	11.533
604.42	11.450
604.76	11.339
605.09	10.850
605.42	10.845
605.75	10.846
606.09	10.713
606.42	11.383
606.75	10.870
607.09	11.175
607.42	11.060
607.75	11.254
608.08	10.616
608.42	10.923
608.75	10.738
609.08	10.654
609.41	10.851
609.75	10.759
610.08	11.258
610.41	10.875
610.74	10.210
611.07	10.879
611.41	10.852
611.74	10.577
612.07	10.612
612.40	10.456
612.73	11.198
613.07	10.513
613.40	10.587
613.73	10.881
614.06	10.648
614.39	10.933
614.72	10.820
615.06	9.962
615.39	10.343
615.72	10.379
616.05	9.762
616.38	10.595
616.71	10.920
617.05	10.543
617.38	11.236
617.71	11.231
618.04	9.930
618.37	11.694
618.70	10.181
619.03	9.677
619.36	9.556
619.69	10.442
620.03	10.609
620.36	10.675
620.69	9.870
621.02	9.974
621.35	10.595
621.68	11.063
622.01	9.609
622.34	10.251
622.67	10.653
623.00	8.907
623.33	10.219
623.66	10.376
623.99	9.941
624.32	10.916
624.65	9.653
624.99	10.273
625.32	10.451
625.65	10.317
625.98	9.220
626.31	9.780
626.64	9.304
626.97	9.602
627.30	9.112
627.63	9.752
627.96	11.036
628.29	9.494
628.62	8.984
628.95	9.290
629.28	9.431
629.61	9.764
629.94	9.372
630.26	8.983
630.59	9.499
630.92	9.091
631.25	10.197
631.58	10.358
631.91	9.185
632.24	9.414
632.57	9.393
632.90	9.930
633.23	9.082
633.56	7.653
633.89	7.955
634.22	8.836
634.55	10.021
634.88	8.983
635.20	9.257
635.53	8.701
635.86	10.184
636.19	10.074
636.52	8.861
636.85	9.908
637.18	10.083
637.51	8.065
637.83	9.192
638.16	9.217
638.49	9.977
638.82	8.568
639.15	7.675
639.48	10.046
639.81	7.968
640.13	9.894
640.46	7.515
640.79	7.598
641.12	8.696
641.45	7.779
641.77	9.884
642.10	8.005
642.43	9.176
642.76	8.130
643.09	7.671
643.41	7.003
643.74	9.517
644.07	8.138
644.40	7.072
644.73	9.434
645.05	9.104
645.38	7.338
645.71	8.504
646.04	9.182
646.36	8.029
646.69	7.515
647.02	8.869
647.35	8.092
647.67	7.729
648.00	7.803
648.33	10.210
648.66	8.417
648.98	9.252
649.31	7.172
649.64	9.296
649.96	7.825
650.29	5.702
650.62	7.496
650.94	6.907
651.27	6.886
651.60	6.579
651.92	6.839
652.25	8.249
652.58	7.978
652.90	6.831
653.23	8.028
653.56	7.989
653.88	9.551
654.21	8.451
654.54	7.514
654.86	5.949
655.19	7.779
655.52	8.619
655.84	9.333
656.17	11.036
656.49	15.763
656.82	17.095
657.15	13.368
657.47	10.245
657.80	7.405
658.13	5.750
658.45	7.402
658.78	9.142
659.10	9.110
659.43	8.797
659.75	7.783
660.08	8.908
660.41	7.361
660.73	5.929
661.06	4.993
661.38	6.539
661.71	7.241
662.03	7.584
662.36	10.197
662.68	6.004
663.01	6.372
663.33	6.049
663.66	8.608
663.98	5.962
664.31	7.129
664.63	5.973
664.96	7.623
665.28	5.445
665.61	9.091
665.93	6.964
666.26	5.018
666.58	4.982
666.91	5.794
667.23	7.810
667.56	7.298
667.88	6.600
668.21	4.297
668.53	4.247
668.86	7.269
669.18	5.499
669.50	4.175
669.83	4.600
670.15	5.709
670.48	8.333
670.80	5.927
671.13	6.049
671.45	4.724
671.77	7.910
672.10	5.500
672.42	7.282
672.75	5.684
673.07	5.970
673.39	4.777
673.72	5.872
674.04	6.897
674.37	7.513
674.69	7.231
675.01	6.667
675.34	5.344
675.66	5.618
675.98	7.463
676.31	7.031
676.63	6.844
676.95	6.322
677.28	5.645
677.60	3.937
677.92	6.526
678.25	8.044
678.57	8.007
678.89	9.898
679.22	6.098
679.54	5.299
679.86	4.746
680.18	4.643
680.51	6.447
680.83	6.710
681.15	5.517
681.48	6.908
681.80	8.117
682.12	6.119
682.44	6.177
682.77	6.915
683.09	5.682
683.41	5.620
683.73	5.882
684.06	4.982
684.38	4.293
684.70	7.361
685.02	6.713
685.34	5.990
685.67	5.205
685.99	7.822
686.31	6.250
686.63	6.003
686.96	6.467
687.28	6.678
687.60	5.556
687.92	5.305
688.24	6.678
688.56	4.655
688.89	5.808
689.21	6.458
689.53	4.706
689.85	3.945
690.17	5.185
690.49	4.382
690.82	6.535
691.14	3.441
691.46	6.692
691.78	5.525
692.10	5.321
692.42	4.821
692.74	5.626
693.06	4.259
693.39	6.831
693.71	6.767
694.03	8.922
694.35	5.905
694.67	6.160
694.99	5.957
695.31	5.519
695.63	3.463
695.95	5.176
696.27	1.319
696.59	7.743
696.91	5.856
697.23	6.154
697.56	2.444
697.88	4.167
698.20	5.650
698.52	8.712
698.84	4.366
699.16	6.327
699.48	5.439
699.80	4.681
700.12	5.677
700.44	4.608
700.76	3.088
701.08	3.390
701.40	4.145
701.72	5.224
702.04	6.684
702.36	3.403
702.68	3.667
703.00	3.178
703.32	2.709
703.64	4.401
703.96	3.819
704.28	4.423
704.60	6.835
704.91	4.592
705.23	4.658
705.55	4.178
705.87	3.636
706.19	4.294
706.51	0.000
706.83	3.170
707.15	3.439
707.47	2.570
707.79	4.148
708.11	3.602
708.43	4.731
708.74	2.679
709.06	4.640
709.38	7.277
709.70	5.459
710.02	3.618
710.34	3.457
710.66	2.793
710.98	5.738
711.29	1.923
711.61	4.802
711.93	3.134
712.25	3.243
712.57	3.245
712.89	5.294
713.20	0.592
713.52	6.069
713.84	2.507
714.16	5.263
714.48	5.155
714.80	4.416
715.11	2.625
715.43	2.918
715.75	2.895
716.07	1.657
716.39	5.464
716.70	1.506
717.02	5.574
717.34	-3.136
717.66	2.349
717.97	3.425
718.29	3.093
718.61	1.316
718.93	2.589
719.24	4.037
719.56	4.294
719.88	3.604
720.20	1.290
720.51	2.174
720.83	-1.562
721.15	-0.658
721.46	0.685
721.78	0.333
722.10	0.324
722.42	3.356
722.73	2.258
723.05	2.105
723.37	3.125
723.68	1.434
724.00	2.888
724.32	3.521
724.63	0.699
724.95	4.610
725.27	4.181
725.58	1.060
725.90	5.172
726.22	0.313
726.53	1.299
726.85	5.031
727.16	2.719
727.48	2.446
727.80	4.305
728.11	-2.120
728.43	1.684
728.74	1.338
729.06	4.305
729.38	1.948
729.69	4.027
730.01	5.060
730.32	1.212
730.64	1.572
730.96	3.727
731.27	5.866
731.59	5.495
731.90	1.818
732.22	2.604
732.53	1.934
732.85	4.286
733.16	2.346
733.48	-0.610
733.80	3.343
734.11	-0.285
734.43	3.784
734.74	5.316
735.06	3.518
735.37	1.622
735.69	2.432
736.00	3.955
736.32	4.043
736.63	5.833
736.95	2.011
737.26	1.515
737.58	0.000
737.89	3.824
738.21	-1.529
738.52	1.639
738.83	3.072
739.15	-0.355
739.46	2.041
739.78	3.067
740.09	-1.146
740.41	3.499
740.72	-2.667
741.04	3.236
741.35	0.702
741.66	3.529
741.98	-0.410
742.29	-2.929
742.61	-2.632
742.92	-0.385
743.23	3.610
743.55	-1.550
743.86	0.400
744.18	-2.893
744.49	-7.595
744.80	3.292
745.12	0.422
745.43	3.659
745.74	-3.448
746.06	2.119
746.37	-0.422
746.68	4.878
747.00	2.083
747.31	5.150
747.62	5.000
747.94	-1.215
748.25	-2.811
748.56	-3.265
748.88	-1.709
749.19	4.310
749.50	-0.866
749.82	0.803
750.13	4.982
750.44	-0.667
750.75	0.923
751.07	1.846
751.38	0.946
751.69	3.195
752.01	2.589
752.32	2.288
752.63	1.361
752.94	2.076
753.26	-1.115
753.57	-2.222
753.88	-2.247
754.19	1.608
754.51	2.894
754.82	1.608
755.13	1.639
755.44	-2.389
755.75	1.645
756.07	5.970
756.38	0.943
756.69	5.422
757.00	0.831
757.31	2.186
757.63	0.256
757.94	3.286
758.25	4.289
758.56	2.614
758.87	5.000
759.18	3.200
759.50	3.683
759.81	-1.681
760.12	2.156
760.43	2.344
760.74	3.941
761.05	1.750
761.36	3.133
761.67	1.015
761.99	-0.541
762.30	0.915
762.61	-0.990
762.92	1.119
763.23	1.124
763.54	2.518
763.85	2.062
764.16	1.684
764.47	2.817
764.78	5.431
765.10	4.399
765.41	7.949
765.72	1.852
766.03	3.672
766.34	-0.313
766.65	0.697
766.96	0.398
767.27	-0.461
767.58	-3.483
767.89	0.962
768.20	-0.939
768.51	-2.778
768.82	1.205
769.13	0.379
769.44	-2.308
769.75	0.000
770.06	1.154
770.37	2.362
770.68	-3.830
770.99	-5.668
771.30	6.667
771.61	3.422
771.92	2.593
772.23	2.024
772.54	-4.630
772.85	0.461
773.16	3.333
773.47	-2.646
773.78	-7.568
774.09	-2.841
774.39	8.500
774.70	1.639
775.01	-4.878
775.32	-7.647
775.63	-5.521
775.94	-7.643
776.25	5.161
776.56	-0.641
776.87	-1.361
777.18	-2.759
777.48	-4.895
777.79	-5.405
778.10	-11.765
778.41	-4.167
778.72	-6.897
779.03	-6.173
779.34	-1.818
779.65	1.554
779.95	1.667
780.26	-2.273
780.57	-5.161
780.88	-0.725
781.19	-0.645
781.50	2.353
781.80	-4.301
782.11	2.646
782.42	0.000
782.73	-7.784
783.04	-6.145
783.34	-6.061
783.65	-11.111
783.96	-4.348
784.27	-4.167
784.57	-3.974
784.88	-5.000
785.19	-9.449
785.50	-9.449
785.81	-3.008
786.11	-7.692
786.42	-7.194
786.73	-6.475
787.04	-3.008
787.34	-12.295
787.65	-12.000
787.96	-5.970
788.26	0.699
788.57	0.000
788.88	0.000
789.19	0.000
789.49	-4.110
789.80	-4.965
790.11	-6.299
790.41	-4.687
790.72	-8.475
791.03	-21.359
791.33	-9.565
791.64	-5.263
791.95	-17.857
792.25	-4.762
792.56	-8.036
792.87	-12.500
793.17	-4.464
793.48	-16.667
793.79	-24.096
794.09	-10.092
794.40	-10.092
794.70	-2.721
795.01	-6.494
795.32	-4.795
795.62	-5.634
795.93	-5.303
796.23	-9.016
796.54	-18.750
796.85	-12.766
797.15	-8.696
797.46	-16.438
797.76	-23.750
798.07	-7.609
798.37	-9.278
798.68	-24.675
798.99	-20.690
799.29	-12.360
799.60	-3.191
799.90	-10.843
800.21	-30.769
800.51	-22.388
800.82	-23.529
801.12	-24.658
801.43	-38.235
801.73	-54.237
802.04	-27.273
802.34	-33.333
802.65	-25.424
802.95	-13.433
803.26	-18.644
803.56	-23.288
803.87	-21.429
804.17	-17.808
804.48	-50.877
804.78	-27.778
805.09	-25.862
805.39	-28.378
805.70	-38.028
806.00	-19.512
806.30	-16.867
806.61	-24.658
806.91	-6.731
807.22	-13.333
807.52	-18.391
807.83	-1.389
808.13	7.229
808.43	-8.989
808.74	-20.000
809.04	-17.647
809.35	-18.667
809.65	-25.714
809.95	-20.548
810.26	-38.596
810.56	-29.310
810.86	-8.824
811.17	-15.789
811.47	-24.590
811.77	-46.667
812.08	-25.424
812.38	-11.667
812.69	-20.690
812.99	-30.189
813.29	-53.846
813.59	-30.000
813.90	-12.281
814.20	-40.000
814.50	-5.634
814.81	-12.821
815.11	-22.951
815.41	-19.403
815.72	-6.897
816.02	-19.643
816.32	-8.889
816.62	-29.545
816.93	-40.000
817.23	-20.370
817.53	-23.404
817.84	-19.048
818.14	-58.824
818.44	-28.571
818.74	-31.111
819.04	-64.103
819.35	-60.000
819.65	-88.462
819.95	-33.962
820.25	-17.778
820.56	-35.714
820.86	-34.375
821.16	-43.590
821.46	-41.860
821.76	-42.000
822.07	-25.000
822.37	-39.130
822.67	-25.532
822.97	-81.081
823.27	-42.500
823.57	-8.163
823.88	-4.444
824.18	-30.000
824.48	-66.667
824.78	-84.000
825.08	-48.485
825.38	-28.889
825.69	-21.277
825.99	-27.778
826.29	-88.571
826.59	-43.590
826.89	-55.814
827.19	-2.000
827.49	-50.000
827.79	-16.667
828.09	-45.946
828.39	-83.333
828.70	-29.268
829.00	-44.186
829.30	-53.571
829.60	-52.941
829.90	-43.478
830.20	-45.714
830.50	-72.414
830.80	-122.222
831.10	-50.000
831.40	-50.000
831.70	-61.905
832.00	9.677
832.30	-147.059
832.60	-79.167
832.90	-200.000
833.20	-94.737
833.50	-55.000
833.80	-126.316
834.10	-133.333
834.40	-2.778
834.70	-9.375
835.00	-80.000
835.30	-29.412
835.60	-66.667
835.90	-76.000
836.20	-127.273
836.50	-64.000
836.80	-51.515
837.10	-85.185
837.40	-44.444
837.70	-156.250
838.00	-46.429
838.30	-104.348
838.60	-55.172
838.90	-114.286
839.19	-100.000
839.49	-158.333
839.79	-52.174
840.09	-131.250
840.39	-120.000
840.69	-45.161
840.99	-64.286
841.29	-100.000
841.59	-84.211
841.88	2.564
842.18	-73.077
842.48	-240.000
842.78	-100.000
843.08	-46.667
843.38	-41.935
843.68	-122.222
843.97	-29.412
844.27	-131.250
844.57	-63.158
844.87	-150.000
845.17	-146.667
845.47	-42.857
845.76	-85.714
846.06	-188.889
846.36	-123.529
846.66	-73.077
846.96	-126.667
847.25	-123.529
847.55	-47.826
847.85	-70.000
848.15	-64.706
848.44	-163.636
848.74	-28.571
849.04	-83.333
849.34	-143.750
849.63	-82.609
849.93	1000.000
850.23	-166.667
850.53	-38.462
850.82	-218.182
851.12	-59.091
851.42	-154.545
851.71	-138.462
852.01	-75.000
852.31	-107.692
852.61	-36.842
852.90	-108.333
853.20	-100.000
853.50	-266.667
853.79	-114.286
854.09	-77.273
854.39	-200.000
854.68	-25.806
854.98	-96.154
855.28	-88.889
855.57	-57.143
855.87	-36.000
856.17	-4.545
856.46	-51.852
856.76	-105.556
857.05	-34.783
857.35	-91.667
857.65	-123.077
857.94	-80.952
858.24	-22.222
858.53	-56.522
858.83	-35.294
859.13	-58.824
859.42	-52.941
859.72	-64.286
860.01	-90.000
860.31	-244.444
860.60	-160.000
860.90	-86.667
861.20	-72.222
861.49	-123.077
861.79	-23.333
862.08	-153.846
862.38	-6.250
862.67	-76.471
862.97	-62.500
863.26	-244.444
863.56	-160.000
863.85	-200.000
864.15	-111.111
864.44	-433.333
864.74	-100.000
865.03	-87.500
865.33	-250.000
865.62	-61.290
865.92	-68.182
866.21	-56.522
866.51	-135.714
866.80	-520.000
867.10	-150.000
867.39	-166.667
867.69	2400.000
867.98	-214.286
868.27	-82.353
868.57	-2300.000
868.86	-200.000
869.16	-85.714
869.45	-29.167
869.75	-145.455
870.04	-157.143
870.33	-158.333
870.63	-400.000
870.92	-425.000
871.22	-312.500
871.51	-72.727
871.80	-733.333
872.10	-1150.000
>>>>>End Processed Spectral Data<<<<<
