SpectraSuite Data File
++++++++++++++++++++++++++++++++++++
Date: Thu May 14 16:03:17 PDT 2015
User: schluterlab
Dark Spectrum Present: Yes
Reference Spectrum Present: Yes
Number of Sampled Component Spectra: 1
Spectrometers: USB2E3373
Integration Time (usec): 3000 (USB2E3373)
Spectra Averaged: 3 (USB2E3373)
Boxcar Smoothing: 0 (USB2E3373)
Correct for Electrical Dark: No (USB2E3373)
Strobe/Lamp Enabled: No (USB2E3373)
Correct for Detector Non-linearity: No (USB2E3373)
Correct for Stray Light: No (USB2E3373)
Number of Pixels in Processed Spectrum: 2048
>>>>>Begin Processed Spectral Data<<<<<
178.53	0.000
178.91	171.429
179.29	-2000.000
179.67	-1900.000
180.04	242.857
180.42	150.000
180.80	400.000
181.18	-1600.000
181.56	-600.000
181.94	450.000
182.31	-150.000
182.69	433.333
183.07	-650.000
183.45	450.000
183.83	-150.000
184.20	-300.000
184.58	1800.000
184.96	-475.000
185.34	-133.333
185.72	-120.000
186.09	333.333
186.47	850.000
186.85	580.000
187.23	-222.222
187.61	-2500.000
187.98	340.000
188.36	225.000
188.74	-350.000
189.12	-166.667
189.49	-43.750
189.87	-137.500
190.25	-88.889
190.63	-340.000
191.00	-200.000
191.38	0.000
191.76	-650.000
192.14	-283.333
192.51	1050.000
192.89	-216.667
193.27	0.000
193.65	-157.143
194.02	-2800.000
194.40	-142.857
194.78	314.286
195.15	0.000
195.53	-118.182
195.91	0.000
196.29	-375.000
196.66	-115.385
197.04	-1900.000
197.42	-228.571
197.79	-800.000
198.17	-100.000
198.55	-142.857
198.92	-177.778
199.30	-225.000
199.68	-54.545
200.05	-57.143
200.43	-750.000
200.81	185.714
201.18	0.000
201.56	255.556
201.94	0.000
202.31	766.667
202.69	-255.556
203.07	1300.000
203.44	-122.222
203.82	-325.000
204.19	-100.000
204.57	-200.000
204.95	-200.000
205.32	-1900.000
205.70	275.000
206.08	-100.000
206.45	-200.000
206.83	580.000
207.20	-150.000
207.58	-420.000
207.96	-283.333
208.33	-233.333
208.71	166.667
209.08	-183.333
209.46	0.000
209.84	266.667
210.21	450.000
210.59	600.000
210.96	566.667
211.34	-225.000
211.71	-275.000
212.09	-1500.000
212.46	0.000
212.84	1000.000
213.22	-340.000
213.59	-525.000
213.97	-170.000
214.34	-533.333
214.72	333.333
215.09	-425.000
215.47	0.000
215.84	342.857
216.22	1200.000
216.59	-340.000
216.97	-300.000
217.34	-300.000
217.72	-125.000
218.09	-475.000
218.47	-350.000
218.84	0.000
219.22	100.000
219.59	-5.882
219.97	-70.000
220.34	950.000
220.72	-155.556
221.09	-7.692
221.47	-433.333
221.84	-110.000
222.22	-142.857
222.59	0.000
222.97	-162.500
223.34	-240.000
223.72	-1600.000
224.09	-425.000
224.46	-500.000
224.84	60.000
225.21	-214.286
225.59	-550.000
225.96	-300.000
226.34	0.000
226.71	383.333
227.08	-600.000
227.46	-53.333
227.83	-350.000
228.21	15.789
228.58	275.000
228.95	1050.000
229.33	-25.000
229.70	10.000
230.08	31.579
230.45	270.000
230.82	-466.667
231.20	-7.143
231.57	-66.667
231.95	-200.000
232.32	-54.545
232.69	-60.000
233.07	-400.000
233.44	-76.471
233.81	-150.000
234.19	-27.778
234.56	-4.545
234.93	-13.793
235.31	-63.158
235.68	11.111
236.05	-115.000
236.43	23.077
236.80	32.000
237.17	-37.037
237.55	-36.364
237.92	-140.000
238.29	-12.903
238.67	-34.091
239.04	-27.778
239.41	-21.429
239.79	-13.043
240.16	3.704
240.53	-28.261
240.91	-27.451
241.28	-3.279
241.65	4.478
242.02	4.054
242.40	-15.385
242.77	-4.000
243.14	-7.317
243.51	-1.316
243.89	-2.564
244.26	4.950
244.63	8.824
245.00	-2.804
245.38	3.509
245.75	1.770
246.12	15.079
246.49	4.651
246.87	12.143
247.24	12.583
247.61	15.132
247.98	10.738
248.36	12.346
248.73	7.975
249.10	16.393
249.47	21.393
249.84	20.419
250.22	16.062
250.59	13.333
250.96	13.636
251.33	7.143
251.70	11.966
252.08	16.667
252.45	13.525
252.82	16.116
253.19	9.375
253.56	18.631
253.94	13.077
254.31	14.394
254.68	17.832
255.05	14.658
255.42	15.306
255.79	14.887
256.16	19.205
256.54	14.901
256.91	14.754
257.28	16.721
257.65	12.420
258.02	13.274
258.39	15.954
258.76	20.183
259.14	17.529
259.51	18.732
259.88	16.714
260.25	17.222
260.62	17.260
260.99	17.213
261.36	17.426
261.73	18.568
262.10	18.407
262.47	17.962
262.85	17.172
263.22	15.584
263.59	16.579
263.96	16.113
264.33	18.670
264.70	16.790
265.07	18.138
265.44	21.088
265.81	16.667
266.18	20.181
266.55	18.527
266.92	18.679
267.29	17.724
267.66	17.295
268.03	17.904
268.40	16.284
268.77	17.312
269.14	17.181
269.51	18.640
269.88	21.311
270.25	18.913
270.62	18.565
270.99	19.394
271.36	19.208
271.73	17.289
272.10	20.441
272.47	19.238
272.84	20.884
273.21	18.838
273.58	17.742
273.95	16.731
274.32	17.110
274.69	16.441
275.06	19.414
275.43	17.006
275.80	20.282
276.17	15.926
276.54	16.604
276.91	16.637
277.28	18.083
277.65	17.235
278.02	16.728
278.39	20.652
278.76	16.520
279.13	19.858
279.50	19.072
279.87	18.068
280.23	15.317
280.60	18.136
280.97	16.612
281.34	17.148
281.71	19.459
282.08	16.445
282.45	16.858
282.82	17.111
283.19	15.994
283.56	16.230
283.92	18.769
284.29	18.483
284.66	19.376
285.03	15.865
285.40	18.083
285.77	16.409
286.14	19.237
286.51	17.656
286.87	17.536
287.24	19.428
287.61	16.741
287.98	16.012
288.35	16.124
288.72	18.195
289.08	17.130
289.45	16.420
289.82	16.867
290.19	17.672
290.56	17.324
290.93	17.261
291.29	15.978
291.66	15.565
292.03	14.790
292.40	18.095
292.77	15.094
293.13	14.344
293.50	14.323
293.87	15.034
294.24	15.200
294.60	15.929
294.97	13.826
295.34	15.877
295.71	14.502
296.08	14.858
296.44	14.216
296.81	14.129
297.18	12.827
297.55	15.448
297.91	13.523
298.28	13.152
298.65	14.388
299.02	14.050
299.38	14.302
299.75	15.421
300.12	13.657
300.48	14.862
300.85	15.298
301.22	14.206
301.59	14.954
301.95	13.898
302.32	14.000
302.69	13.801
303.05	14.799
303.42	12.528
303.79	12.812
304.15	14.721
304.52	13.319
304.89	13.927
305.25	13.872
305.62	12.330
305.99	13.608
306.35	12.601
306.72	14.064
307.09	13.503
307.45	14.182
307.82	13.219
308.19	13.219
308.55	13.308
308.92	13.437
309.29	13.602
309.65	12.378
310.02	12.376
310.38	12.303
310.75	12.816
311.12	13.710
311.48	13.783
311.85	13.580
312.22	12.429
312.58	13.991
312.95	13.767
313.31	13.369
313.68	13.095
314.05	13.911
314.41	14.572
314.78	13.715
315.14	13.884
315.51	14.127
315.87	14.491
316.24	14.064
316.61	15.364
316.97	13.756
317.34	13.757
317.70	15.546
318.07	15.168
318.43	15.306
318.80	16.054
319.16	14.936
319.53	14.567
319.89	15.074
320.26	14.591
320.62	14.628
320.99	15.328
321.35	15.712
321.72	15.814
322.08	16.772
322.45	15.899
322.81	15.975
323.18	15.487
323.54	15.862
323.91	16.281
324.27	15.491
324.64	17.380
325.00	16.335
325.37	17.854
325.73	16.942
326.10	18.329
326.46	17.264
326.83	18.094
327.19	18.504
327.56	16.601
327.92	17.388
328.29	17.823
328.65	18.258
329.01	18.951
329.38	18.787
329.74	18.408
330.11	19.092
330.47	18.450
330.84	19.294
331.20	18.667
331.56	18.804
331.93	18.996
332.29	20.169
332.66	19.518
333.02	19.263
333.38	19.631
333.75	18.687
334.11	19.433
334.48	20.050
334.84	20.986
335.20	18.892
335.57	19.983
335.93	20.909
336.29	18.552
336.66	20.101
337.02	19.565
337.38	19.898
337.75	19.669
338.11	20.185
338.47	19.686
338.84	19.120
339.20	19.714
339.56	20.675
339.93	19.212
340.29	19.082
340.65	19.708
341.02	20.192
341.38	19.725
341.74	19.693
342.11	20.032
342.47	19.142
342.83	20.370
343.20	19.460
343.56	19.888
343.92	20.016
344.28	19.062
344.65	21.163
345.01	19.969
345.37	21.151
345.73	19.486
346.10	21.451
346.46	20.570
346.82	21.498
347.19	20.092
347.55	20.106
347.91	20.877
348.27	20.637
348.63	21.325
349.00	21.402
349.36	21.784
349.72	20.833
350.08	21.545
350.45	19.468
350.81	20.287
351.17	21.654
351.53	21.001
351.89	20.577
352.26	21.045
352.62	20.896
352.98	20.916
353.34	21.509
353.70	21.109
354.07	21.311
354.43	21.412
354.79	21.391
355.15	21.413
355.51	22.588
355.87	20.942
356.24	23.118
356.60	21.656
356.96	21.942
357.32	21.561
357.68	22.767
358.04	21.407
358.40	22.612
358.77	22.442
359.13	22.157
359.49	21.561
359.85	22.553
360.21	21.664
360.57	22.613
360.93	22.426
361.29	23.088
361.66	23.316
362.02	23.800
362.38	22.839
362.74	23.743
363.10	23.590
363.46	24.723
363.82	24.361
364.18	23.223
364.54	24.412
364.90	23.880
365.26	23.862
365.62	24.133
365.98	23.962
366.35	24.362
366.71	23.401
367.07	24.222
367.43	23.966
367.79	24.751
368.15	25.819
368.51	24.290
368.87	24.886
369.23	24.533
369.59	24.863
369.95	25.220
370.31	25.726
370.67	25.034
371.03	25.069
371.39	25.319
371.75	25.585
372.11	24.932
372.47	25.592
372.83	25.916
373.19	25.751
373.55	24.932
373.91	25.290
374.27	25.744
374.63	24.831
374.99	26.194
375.35	26.623
375.71	26.129
376.07	25.113
376.42	26.134
376.78	27.222
377.14	26.513
377.50	26.692
377.86	26.355
378.22	27.126
378.58	26.278
378.94	26.585
379.30	26.362
379.66	26.690
380.02	27.063
380.38	26.901
380.74	26.704
381.09	26.945
381.45	27.273
381.81	26.991
382.17	27.375
382.53	27.076
382.89	26.749
383.25	27.784
383.61	27.257
383.97	27.915
384.32	28.469
384.68	26.392
385.04	27.473
385.40	27.637
385.76	28.195
386.12	26.152
386.48	27.353
386.83	29.082
387.19	27.810
387.55	27.347
387.91	27.397
388.27	27.887
388.62	27.320
388.98	27.355
389.34	28.462
389.70	28.181
390.06	28.242
390.42	27.831
390.77	28.417
391.13	28.345
391.49	28.442
391.85	27.636
392.20	27.699
392.56	27.643
392.92	27.481
393.28	27.474
393.64	27.989
393.99	28.181
394.35	28.037
394.71	28.743
395.07	27.246
395.42	26.842
395.78	29.129
396.14	27.807
396.50	26.841
396.85	27.907
397.21	28.284
397.57	28.210
397.92	28.522
398.28	28.028
398.64	27.860
399.00	27.016
399.35	28.115
399.71	27.500
400.07	27.906
400.42	27.590
400.78	27.778
401.14	27.092
401.49	27.800
401.85	27.849
402.21	28.389
402.57	28.169
402.92	27.778
403.28	27.225
403.63	27.029
403.99	27.138
404.35	27.459
404.70	27.139
405.06	27.228
405.42	27.225
405.77	26.881
406.13	26.850
406.49	27.815
406.84	26.981
407.20	27.390
407.55	27.559
407.91	27.718
408.27	25.854
408.62	27.225
408.98	27.510
409.34	26.510
409.69	27.379
410.05	27.550
410.40	27.900
410.76	27.145
411.11	26.885
411.47	27.457
411.83	26.808
412.18	26.807
412.54	26.971
412.89	26.484
413.25	27.088
413.60	26.364
413.96	26.457
414.31	25.496
414.67	26.357
415.03	26.400
415.38	26.797
415.74	26.634
416.09	26.589
416.45	25.548
416.80	26.499
417.16	27.139
417.51	25.903
417.87	26.119
418.22	26.826
418.58	26.766
418.93	27.066
419.29	24.661
419.64	26.291
420.00	26.113
420.35	26.502
420.71	26.594
421.06	26.222
421.42	25.803
421.77	25.525
422.12	26.268
422.48	25.960
422.83	27.218
423.19	25.995
423.54	26.604
423.90	26.063
424.25	26.453
424.61	25.603
424.96	26.963
425.31	26.858
425.67	25.604
426.02	26.785
426.38	25.775
426.73	26.618
427.09	27.047
427.44	25.724
427.79	26.479
428.15	25.628
428.50	26.067
428.85	26.005
429.21	26.968
429.56	26.061
429.92	26.437
430.27	26.120
430.62	26.575
430.98	26.316
431.33	25.758
431.68	25.718
432.04	26.765
432.39	26.834
432.74	26.256
433.10	25.960
433.45	25.084
433.80	26.556
434.16	25.620
434.51	26.619
434.86	27.524
435.22	25.930
435.57	27.300
435.92	25.876
436.28	26.906
436.63	26.925
436.98	26.302
437.34	26.663
437.69	25.482
438.04	26.230
438.39	26.939
438.75	26.287
439.10	26.427
439.45	27.446
439.81	26.328
440.16	26.220
440.51	26.812
440.86	25.570
441.22	25.884
441.57	25.419
441.92	26.285
442.27	26.111
442.63	26.180
442.98	25.720
443.33	25.355
443.68	26.710
444.03	27.093
444.39	26.075
444.74	27.208
445.09	26.001
445.44	25.922
445.79	27.059
446.15	27.184
446.50	25.323
446.85	26.848
447.20	26.596
447.55	25.889
447.91	25.916
448.26	27.008
448.61	26.514
448.96	26.985
449.31	26.511
449.66	26.089
450.02	26.108
450.37	26.585
450.72	26.211
451.07	25.797
451.42	25.303
451.77	26.014
452.12	27.032
452.47	26.144
452.83	26.239
453.18	26.503
453.53	25.330
453.88	25.732
454.23	26.271
454.58	25.595
454.93	26.092
455.28	26.189
455.63	25.014
455.98	26.257
456.34	25.324
456.69	25.985
457.04	27.778
457.39	25.887
457.74	25.783
458.09	25.865
458.44	25.916
458.79	25.374
459.14	25.275
459.49	26.089
459.84	25.918
460.19	24.931
460.54	25.894
460.89	25.569
461.24	25.632
461.59	25.678
461.94	24.472
462.29	26.484
462.64	25.226
462.99	25.298
463.34	25.373
463.69	24.795
464.04	26.181
464.39	25.336
464.74	25.200
465.09	24.683
465.44	25.322
465.79	24.696
466.14	24.909
466.49	25.684
466.84	25.620
467.19	25.896
467.54	24.971
467.89	24.483
468.24	25.208
468.59	24.667
468.94	24.592
469.29	25.495
469.64	25.683
469.99	25.430
470.34	25.619
470.68	25.632
471.03	25.213
471.38	25.311
471.73	25.943
472.08	25.571
472.43	24.925
472.78	26.259
473.13	25.537
473.48	26.103
473.83	26.001
474.17	25.322
474.52	25.917
474.87	25.028
475.22	25.577
475.57	24.663
475.92	25.137
476.27	26.092
476.61	25.130
476.96	24.870
477.31	25.693
477.66	25.498
478.01	25.826
478.36	25.025
478.70	25.468
479.05	26.534
479.40	25.864
479.75	25.793
480.10	25.296
480.45	25.387
480.79	24.762
481.14	24.770
481.49	25.170
481.84	25.109
482.19	25.505
482.53	25.361
482.88	25.831
483.23	25.611
483.58	25.066
483.92	25.222
484.27	24.640
484.62	24.505
484.97	23.950
485.31	24.041
485.66	23.359
486.01	23.176
486.36	23.282
486.70	24.149
487.05	24.723
487.40	24.890
487.75	24.377
488.09	24.993
488.44	24.044
488.79	24.384
489.13	24.837
489.48	23.961
489.83	24.386
490.17	24.625
490.52	23.892
490.87	25.296
491.22	24.913
491.56	25.000
491.91	25.033
492.26	25.141
492.60	24.661
492.95	24.660
493.30	25.056
493.64	24.748
493.99	24.430
494.34	23.998
494.68	24.026
495.03	23.744
495.37	24.678
495.72	24.626
496.07	24.058
496.41	23.381
496.76	24.354
497.11	24.628
497.45	24.687
497.80	25.233
498.14	24.354
498.49	24.265
498.84	24.132
499.18	23.527
499.53	24.574
499.87	24.703
500.22	23.419
500.56	23.887
500.91	24.577
501.26	24.500
501.60	24.569
501.95	24.620
502.29	24.748
502.64	24.574
502.98	24.202
503.33	24.017
503.67	23.550
504.02	23.117
504.36	24.844
504.71	24.299
505.06	24.466
505.40	23.675
505.75	23.907
506.09	23.849
506.44	24.791
506.78	25.138
507.13	24.112
507.47	25.201
507.82	24.053
508.16	24.092
508.51	24.332
508.85	24.610
509.19	25.201
509.54	24.976
509.88	25.255
510.23	24.769
510.57	25.713
510.92	24.915
511.26	24.820
511.61	24.771
511.95	24.549
512.30	25.111
512.64	24.738
512.98	24.812
513.33	24.899
513.67	24.987
514.02	25.089
514.36	25.524
514.70	25.729
515.05	25.547
515.39	25.512
515.74	26.087
516.08	25.198
516.42	27.054
516.77	25.657
517.11	25.116
517.46	24.920
517.80	26.510
518.14	26.877
518.49	25.813
518.83	25.599
519.17	25.202
519.52	26.730
519.86	25.977
520.20	25.453
520.55	26.013
520.89	26.014
521.23	26.633
521.58	26.384
521.92	26.459
522.26	26.518
522.61	26.157
522.95	25.952
523.29	26.494
523.64	26.906
523.98	26.355
524.32	27.335
524.66	26.807
525.01	25.651
525.35	25.962
525.69	25.870
526.04	26.406
526.38	25.632
526.72	27.105
527.06	26.804
527.41	26.531
527.75	26.781
528.09	26.682
528.43	26.347
528.78	25.434
529.12	26.147
529.46	26.363
529.80	25.858
530.15	25.623
530.49	25.682
530.83	27.037
531.17	27.180
531.51	26.294
531.86	26.082
532.20	27.317
532.54	25.913
532.88	25.515
533.22	25.928
533.57	26.717
533.91	25.758
534.25	26.399
534.59	25.172
534.93	25.580
535.27	25.690
535.62	26.094
535.96	26.438
536.30	26.263
536.64	26.486
536.98	26.261
537.32	26.420
537.66	26.201
538.01	24.894
538.35	25.335
538.69	25.661
539.03	26.487
539.37	25.795
539.71	25.465
540.05	26.139
540.39	24.878
540.73	25.562
541.07	26.487
541.42	24.985
541.76	24.555
542.10	25.151
542.44	25.213
542.78	25.669
543.12	24.851
543.46	25.275
543.80	23.861
544.14	25.913
544.48	25.118
544.82	25.015
545.16	25.820
545.50	24.685
545.84	24.495
546.18	26.173
546.52	24.586
546.86	24.277
547.20	25.700
547.54	24.844
547.88	24.171
548.22	24.152
548.56	24.751
548.90	25.254
549.24	25.714
549.58	25.363
549.92	24.362
550.26	24.595
550.60	25.080
550.94	24.838
551.28	25.215
551.62	26.550
551.96	24.725
552.30	25.430
552.64	24.829
552.98	24.579
553.32	25.531
553.66	24.309
554.00	24.905
554.34	24.453
554.68	24.080
555.02	24.639
555.36	25.115
555.69	22.806
556.03	24.086
556.37	24.781
556.71	24.984
557.05	24.792
557.39	24.950
557.73	24.571
558.07	23.974
558.41	25.116
558.75	24.138
559.08	25.052
559.42	24.348
559.76	25.645
560.10	23.711
560.44	24.604
560.78	23.312
561.12	24.076
561.45	24.148
561.79	24.420
562.13	24.276
562.47	23.490
562.81	24.241
563.15	23.548
563.48	24.487
563.82	23.096
564.16	23.440
564.50	24.255
564.84	23.481
565.17	23.647
565.51	23.590
565.85	23.812
566.19	23.675
566.52	23.698
566.86	23.147
567.20	23.382
567.54	23.261
567.88	24.057
568.21	23.123
568.55	23.405
568.89	22.515
569.23	21.969
569.56	22.235
569.90	21.882
570.24	21.079
570.57	21.873
570.91	21.188
571.25	21.290
571.59	21.681
571.92	21.082
572.26	21.228
572.60	21.239
572.93	21.486
573.27	21.354
573.61	21.043
573.95	21.097
574.28	20.813
574.62	20.691
574.96	20.049
575.29	20.621
575.63	20.906
575.97	21.126
576.30	20.923
576.64	20.854
576.98	20.501
577.31	20.631
577.65	20.491
577.98	20.294
578.32	20.151
578.66	19.883
578.99	19.926
579.33	20.720
579.67	20.286
580.00	20.139
580.34	20.572
580.67	19.748
581.01	19.926
581.35	20.086
581.68	19.858
582.02	19.479
582.35	20.191
582.69	20.099
583.02	20.333
583.36	20.107
583.70	20.109
584.03	19.990
584.37	20.118
584.70	19.976
585.04	19.391
585.37	19.576
585.71	19.806
586.04	19.727
586.38	19.870
586.72	19.604
587.05	20.005
587.39	19.870
587.72	19.976
588.06	19.971
588.39	19.990
588.73	19.788
589.06	20.514
589.40	20.436
589.73	20.051
590.07	20.325
590.40	20.487
590.73	20.042
591.07	20.812
591.40	20.840
591.74	20.350
592.07	21.112
592.41	20.110
592.74	20.057
593.08	20.478
593.41	20.385
593.75	19.684
594.08	20.085
594.41	19.808
594.75	20.359
595.08	19.717
595.42	19.968
595.75	20.116
596.09	19.925
596.42	20.423
596.75	20.378
597.09	20.727
597.42	20.064
597.75	20.737
598.09	19.722
598.42	20.909
598.76	20.634
599.09	19.722
599.42	19.376
599.76	18.785
600.09	19.620
600.42	20.420
600.76	19.551
601.09	19.283
601.42	20.082
601.76	19.172
602.09	20.122
602.42	19.811
602.76	19.520
603.09	20.264
603.42	19.617
603.76	19.168
604.09	20.121
604.42	20.330
604.76	18.569
605.09	20.343
605.42	20.016
605.75	19.962
606.09	19.298
606.42	19.409
606.75	19.303
607.09	18.280
607.42	19.499
607.75	19.461
608.08	19.376
608.42	19.307
608.75	19.569
609.08	19.822
609.41	19.894
609.75	19.732
610.08	19.921
610.41	19.754
610.74	19.664
611.07	19.627
611.41	20.135
611.74	20.277
612.07	20.290
612.40	19.914
612.73	20.342
613.07	20.342
613.40	20.115
613.73	19.740
614.06	19.480
614.39	19.874
614.72	19.554
615.06	19.779
615.39	19.188
615.72	19.621
616.05	19.961
616.38	19.879
616.71	19.958
617.05	19.808
617.38	20.011
617.71	20.032
618.04	19.320
618.37	20.820
618.70	20.079
619.03	19.773
619.36	20.469
619.69	20.307
620.03	19.648
620.36	20.429
620.69	19.926
621.02	20.604
621.35	21.843
621.68	20.897
622.01	20.285
622.34	19.456
622.67	19.381
623.00	19.433
623.33	20.305
623.66	20.233
623.99	19.026
624.32	21.313
624.65	19.627
624.99	20.546
625.32	20.509
625.65	20.701
625.98	20.271
626.31	20.553
626.64	20.220
626.97	20.180
627.30	19.666
627.63	20.105
627.96	21.396
628.29	20.700
628.62	20.571
628.95	21.034
629.28	20.731
629.61	19.949
629.94	20.669
630.26	19.322
630.59	21.071
630.92	19.567
631.25	21.646
631.58	21.186
631.91	21.556
632.24	21.806
632.57	19.734
632.90	20.261
633.23	20.306
633.56	21.531
633.89	18.595
634.22	21.933
634.55	21.712
634.88	21.320
635.20	22.282
635.53	22.712
635.86	21.668
636.19	21.739
636.52	21.519
636.85	20.123
637.18	20.166
637.51	21.720
637.83	21.484
638.16	21.313
638.49	22.418
638.82	22.097
639.15	20.160
639.48	21.824
639.81	21.940
640.13	22.850
640.46	19.394
640.79	21.446
641.12	21.863
641.45	21.330
641.77	23.235
642.10	21.916
642.43	21.941
642.76	21.545
643.09	22.192
643.41	21.429
643.74	22.759
644.07	22.897
644.40	19.519
644.73	22.206
645.05	22.320
645.38	23.453
645.71	21.848
646.04	23.099
646.36	23.066
646.69	21.779
647.02	23.242
647.35	23.053
647.67	23.027
648.00	23.089
648.33	23.874
648.66	20.970
648.98	21.633
649.31	20.974
649.64	21.381
649.96	21.751
650.29	19.193
650.62	23.055
650.94	21.622
651.27	21.557
651.60	21.637
651.92	21.125
652.25	21.563
652.58	21.183
652.90	20.058
653.23	20.563
653.56	21.541
653.88	24.298
654.21	21.549
654.54	20.231
654.86	21.671
655.19	19.072
655.52	20.431
655.84	17.647
656.17	20.816
656.49	28.554
656.82	30.754
657.15	23.774
657.47	18.090
657.80	13.299
658.13	10.474
658.45	13.686
658.78	16.546
659.10	16.089
659.43	16.038
659.75	15.930
660.08	15.854
660.41	16.046
660.73	18.358
661.06	17.474
661.38	18.979
661.71	20.862
662.03	20.988
662.36	22.898
662.68	20.826
663.01	20.000
663.33	23.062
663.66	23.260
663.98	22.308
664.31	22.889
664.63	23.121
664.96	20.327
665.28	18.512
665.61	23.077
665.93	21.071
666.26	22.581
666.58	22.509
666.91	21.121
667.23	20.190
667.56	20.907
667.88	20.400
668.21	18.945
668.53	19.498
668.86	21.218
669.18	21.181
669.50	22.068
669.83	17.000
670.15	19.685
670.48	21.825
670.80	21.033
671.13	18.526
671.45	19.094
671.77	22.599
672.10	21.000
672.42	22.168
672.75	20.123
673.07	19.552
673.39	17.565
673.72	20.470
674.04	20.862
674.37	21.109
674.69	20.459
675.01	20.000
675.34	19.275
675.66	18.352
675.98	21.455
676.31	21.094
676.63	23.764
676.95	21.839
677.28	21.169
677.60	19.094
677.92	19.194
678.25	20.293
678.57	21.352
678.89	20.478
679.22	17.596
679.54	18.974
679.86	20.339
680.18	18.076
680.51	18.868
680.83	19.640
681.15	18.966
681.48	20.725
681.80	18.998
682.12	18.531
682.44	18.364
682.77	17.908
683.09	18.182
683.41	21.705
683.73	18.975
684.06	19.373
684.38	15.742
684.70	21.005
685.02	19.105
685.34	18.968
685.67	18.139
685.99	20.706
686.31	19.477
686.63	18.167
686.96	19.243
687.28	19.707
687.60	17.172
687.92	19.614
688.24	20.200
688.56	18.448
688.89	21.053
689.21	18.787
689.53	16.667
689.85	18.146
690.17	18.519
690.49	18.127
690.82	19.406
691.14	18.623
691.46	17.973
691.78	18.969
692.10	19.450
692.42	17.679
692.74	17.967
693.06	16.296
693.39	21.632
693.71	19.361
694.03	18.216
694.35	20.000
694.67	19.918
694.99	20.000
695.31	17.219
695.63	18.182
695.95	18.634
696.27	19.560
696.59	20.354
696.91	20.045
697.23	21.538
697.56	19.552
697.88	18.371
698.20	18.267
698.52	20.644
698.84	19.543
699.16	18.776
699.48	17.992
699.80	18.511
700.12	16.812
700.44	20.276
700.76	18.765
701.08	18.886
701.40	19.171
701.72	19.154
702.04	18.449
702.36	16.754
702.68	18.093
703.00	17.848
703.32	15.517
703.64	19.560
703.96	19.093
704.28	16.216
704.60	18.228
704.91	16.582
705.23	18.904
705.55	18.663
705.87	17.879
706.19	20.552
706.51	14.759
706.83	16.715
707.15	16.402
707.47	17.991
707.79	16.812
708.11	15.254
708.43	16.344
708.74	17.411
709.06	17.401
709.38	18.310
709.70	19.851
710.02	17.571
710.34	18.617
710.66	18.994
710.98	19.399
711.29	16.758
711.61	18.927
711.93	15.954
712.25	14.324
712.57	17.994
712.89	20.294
713.20	13.314
713.52	17.919
713.84	17.270
714.16	20.263
714.48	18.299
714.80	20.519
715.11	16.010
715.43	15.650
715.75	16.316
716.07	15.193
716.39	20.219
716.70	15.964
717.02	16.721
717.34	17.770
717.66	13.758
717.97	17.466
718.29	16.495
718.61	17.763
718.93	15.210
719.24	18.323
719.56	17.791
719.88	18.018
720.20	17.419
720.51	16.149
720.83	17.812
721.15	14.474
721.46	14.041
721.78	18.333
722.10	13.592
722.42	14.430
722.73	16.129
723.05	17.193
723.37	17.361
723.68	19.355
724.00	18.412
724.32	15.845
724.63	13.287
724.95	17.021
725.27	18.118
725.58	17.668
725.90	17.931
726.22	14.420
726.53	16.234
726.85	15.723
727.16	17.825
727.48	16.820
727.80	15.563
728.11	14.134
728.43	14.478
728.74	15.719
729.06	15.563
729.38	18.506
729.69	11.745
730.01	18.750
730.32	10.909
730.64	15.409
730.96	12.733
731.27	17.598
731.59	16.209
731.90	14.545
732.22	15.885
732.53	11.326
732.85	12.571
733.16	15.543
733.48	15.854
733.80	12.813
734.11	17.949
734.43	14.865
734.74	18.481
735.06	13.819
735.37	14.324
735.69	17.027
736.00	14.407
736.32	14.286
736.63	16.944
736.95	16.379
737.26	15.152
737.58	12.727
737.89	17.059
738.21	15.291
738.52	14.426
738.83	16.724
739.15	12.766
739.46	16.327
739.78	16.258
740.09	16.046
740.41	18.076
740.72	15.000
741.04	16.181
741.35	15.789
741.66	16.471
741.98	15.574
742.29	13.389
742.61	13.158
742.92	13.846
743.23	15.523
743.55	12.791
743.86	17.200
744.18	13.636
744.49	10.127
744.80	20.165
745.12	16.456
745.43	18.699
745.74	13.362
746.06	18.644
746.37	16.878
746.68	19.106
747.00	16.250
747.31	14.163
747.62	16.538
747.94	16.194
748.25	10.040
748.56	12.245
748.88	16.667
749.19	13.362
749.50	14.719
749.82	17.671
750.13	19.217
750.44	12.333
750.75	15.077
751.07	14.769
751.38	15.773
751.69	12.460
752.01	15.858
752.32	15.686
752.63	14.626
752.94	12.803
753.26	13.011
753.57	14.444
753.88	16.854
754.19	13.826
754.51	14.469
754.82	14.791
755.13	18.033
755.44	14.334
755.75	13.158
756.07	20.896
756.38	13.522
756.69	14.458
757.00	11.911
757.31	10.656
757.63	12.276
757.94	16.901
758.25	14.221
758.56	16.776
758.87	14.318
759.18	16.533
759.50	14.164
759.81	15.686
760.12	12.399
760.43	12.760
760.74	16.502
761.05	14.250
761.36	12.771
761.67	14.467
761.99	16.757
762.30	14.024
762.61	13.201
762.92	11.940
763.23	9.738
763.54	15.108
763.85	13.746
764.16	14.141
764.47	15.141
764.78	9.904
765.10	16.129
765.41	14.872
765.72	11.111
766.03	14.972
766.34	9.404
766.65	11.847
766.96	13.944
767.27	10.599
767.58	6.965
767.89	13.942
768.20	13.146
768.51	9.722
768.82	12.048
769.13	12.879
769.44	6.923
769.75	16.245
770.06	14.231
770.37	14.961
770.68	11.489
770.99	6.478
771.30	18.519
771.61	14.829
771.92	14.074
772.23	15.789
772.54	9.259
772.85	17.972
773.16	17.619
773.47	10.053
773.78	11.892
774.09	13.636
774.39	17.500
774.70	12.568
775.01	12.195
775.32	6.471
775.63	17.178
775.94	1.274
776.25	12.258
776.56	19.872
776.87	17.687
777.18	17.241
777.48	8.392
777.79	15.541
778.10	8.824
778.41	8.333
778.72	13.793
779.03	7.407
779.34	10.303
779.65	16.062
779.95	10.556
780.26	9.091
780.57	11.613
780.88	14.493
781.19	9.677
781.50	23.529
781.80	11.828
782.11	14.815
782.42	7.576
782.73	1.796
783.04	7.821
783.34	8.485
783.65	10.458
783.96	6.832
784.27	11.310
784.57	11.258
784.88	12.143
785.19	9.449
785.50	13.386
785.81	8.271
786.11	9.231
786.42	9.353
786.73	2.878
787.04	15.789
787.34	7.377
787.65	2.400
787.96	11.940
788.26	12.587
788.57	12.587
788.88	11.842
789.19	9.804
789.49	7.534
789.80	7.801
790.11	14.173
790.41	7.031
790.72	4.237
791.03	2.913
791.33	-1.739
791.64	8.772
791.95	8.929
792.25	0.952
792.56	8.929
792.87	4.167
793.17	2.679
793.48	-4.167
793.79	-8.434
794.09	0.000
794.40	4.587
794.70	9.524
795.01	3.896
795.32	8.904
795.62	7.042
795.93	8.333
796.23	17.213
796.54	5.357
796.85	3.191
797.15	4.348
797.46	6.849
797.76	-5.000
798.07	7.609
798.37	1.031
798.68	-10.390
798.99	0.000
799.29	4.494
799.60	10.638
799.90	13.253
800.21	-6.154
800.51	-7.463
800.82	-7.353
801.12	-9.589
801.43	-7.353
801.73	-11.864
802.04	-4.545
802.34	-11.667
802.65	1.695
802.95	4.478
803.26	-1.695
803.56	2.740
803.87	8.571
804.17	9.589
804.48	-15.789
804.78	5.556
805.09	-22.414
805.39	-9.459
805.70	-4.225
806.00	7.317
806.30	4.819
806.61	-4.110
806.91	-0.962
807.22	6.667
807.52	3.448
807.83	-5.556
808.13	7.229
808.43	2.247
808.74	-3.750
809.04	-8.824
809.35	-5.333
809.65	-2.857
809.95	-1.370
810.26	-7.018
810.56	-6.897
810.86	5.882
811.17	1.754
811.47	-14.754
811.77	-35.556
812.08	-6.780
812.38	18.333
812.69	-3.448
812.99	-22.642
813.29	-15.385
813.59	6.000
813.90	5.263
814.20	-14.545
814.50	5.634
814.81	10.256
815.11	-3.279
815.41	4.478
815.72	10.345
816.02	3.571
816.32	15.556
816.62	-4.545
816.93	-13.333
817.23	16.667
817.53	-4.255
817.84	-7.143
818.14	-20.588
818.44	-12.245
818.74	-4.444
819.04	-12.821
819.35	-57.143
819.65	-76.923
819.95	-5.660
820.25	-13.333
820.56	-4.762
820.86	-31.250
821.16	-41.026
821.46	-37.209
821.76	-34.000
822.07	-5.357
822.37	-21.739
822.67	-2.128
822.97	-45.946
823.27	-12.500
823.57	-8.163
823.88	-2.222
824.18	5.000
824.48	-66.667
824.78	-16.000
825.08	-36.364
825.38	-8.889
825.69	2.128
825.99	-11.111
826.29	-62.857
826.59	-46.154
826.89	-27.907
827.19	-8.000
827.49	-14.706
827.79	-16.667
828.09	-54.054
828.39	-56.667
828.70	-36.585
829.00	-27.907
829.30	-35.714
829.60	2.941
829.90	-10.870
830.20	-40.000
830.50	-41.379
830.80	-77.778
831.10	-38.462
831.40	-32.353
831.70	-47.619
832.00	-3.226
832.30	-82.353
832.60	-54.167
832.90	-146.154
833.20	-73.684
833.50	-80.000
833.80	-100.000
834.10	-71.429
834.40	-30.556
834.70	-12.500
835.00	-37.143
835.30	-26.471
835.60	-20.000
835.90	-24.000
836.20	-68.182
836.50	-20.000
836.80	-57.576
837.10	-51.852
837.40	-40.741
837.70	-112.500
838.00	-14.286
838.30	-69.565
838.60	-24.138
838.90	-128.571
839.19	-78.261
839.49	-175.000
839.79	-78.261
840.09	-87.500
840.39	-75.000
840.69	-16.129
840.99	-42.857
841.29	-80.000
841.59	-42.105
841.88	-5.128
842.18	-38.462
842.48	-170.000
842.78	-35.000
843.08	13.333
843.38	-25.806
843.68	-61.111
843.97	-23.529
844.27	-118.750
844.57	-89.474
844.87	-190.000
845.17	-100.000
845.47	-4.762
845.76	-33.333
846.06	-222.222
846.36	-100.000
846.66	-53.846
846.96	-106.667
847.25	-82.353
847.55	-43.478
847.85	-25.000
848.15	-88.235
848.44	-163.636
848.74	-42.857
849.04	-75.000
849.34	-81.250
849.63	-26.087
849.93	750.000
850.23	-20.000
850.53	-38.462
850.82	-118.182
851.12	-27.273
851.42	-154.545
851.71	-15.385
852.01	-25.000
852.31	-76.923
852.61	-73.684
852.90	-100.000
853.20	-61.111
853.50	-255.556
853.79	-85.714
854.09	-4.545
854.39	-150.000
854.68	-19.355
854.98	-34.615
855.28	-55.556
855.57	-25.000
855.87	-32.000
856.17	-45.455
856.46	0.000
856.76	-5.556
857.05	-30.435
857.35	-70.833
857.65	-123.077
857.94	-23.810
858.24	7.407
858.53	-30.435
858.83	-58.824
859.13	-100.000
859.42	-47.059
859.72	21.429
860.01	-70.000
860.31	-122.222
860.60	-150.000
860.90	-93.333
861.20	-77.778
861.49	-115.385
861.79	-36.667
862.08	-76.923
862.38	-3.125
862.67	-82.353
862.97	-68.750
863.26	-122.222
863.56	-80.000
863.85	-18.182
864.15	-44.444
864.44	-400.000
864.74	-114.286
865.03	-75.000
865.33	-180.000
865.62	-25.806
865.92	-9.091
866.21	-17.391
866.51	-107.143
866.80	-320.000
867.10	-133.333
867.39	-125.000
867.69	1200.000
867.98	-42.857
868.27	-17.647
868.57	-1300.000
868.86	-240.000
869.16	-80.952
869.45	-62.500
869.75	-90.909
870.04	-271.429
870.33	-66.667
870.63	-414.286
870.92	-250.000
871.22	-275.000
871.51	-127.273
871.80	-666.667
872.10	-700.000
>>>>>End Processed Spectral Data<<<<<
