SpectraSuite Data File
++++++++++++++++++++++++++++++++++++
Date: Thu May 14 15:51:47 PDT 2015
User: schluterlab
Dark Spectrum Present: Yes
Reference Spectrum Present: Yes
Number of Sampled Component Spectra: 1
Spectrometers: USB2E3373
Integration Time (usec): 3000 (USB2E3373)
Spectra Averaged: 3 (USB2E3373)
Boxcar Smoothing: 0 (USB2E3373)
Correct for Electrical Dark: No (USB2E3373)
Strobe/Lamp Enabled: No (USB2E3373)
Correct for Detector Non-linearity: No (USB2E3373)
Correct for Stray Light: No (USB2E3373)
Number of Pixels in Processed Spectrum: 2048
>>>>>Begin Processed Spectral Data<<<<<
178.53	0.000
178.91	585.714
179.29	-5000.000
179.67	-4600.000
180.04	428.571
180.42	410.000
180.80	940.000
181.18	-3900.000
181.56	-4100.000
181.94	1150.000
182.31	-1150.000
182.69	1300.000
183.07	-1900.000
183.45	1100.000
183.83	-650.000
184.20	-1433.333
184.58	4500.000
184.96	-1050.000
185.34	-366.667
185.72	-720.000
186.09	600.000
186.47	2000.000
186.85	1040.000
187.23	-488.889
187.61	-4800.000
187.98	760.000
188.36	1225.000
188.74	-975.000
189.12	-1200.000
189.49	-243.750
189.87	-500.000
190.25	-466.667
190.63	-740.000
191.00	-477.778
191.38	0.000
191.76	-1200.000
192.14	-666.667
192.51	2150.000
192.89	-600.000
193.27	0.000
193.65	-528.571
194.02	-5500.000
194.40	-557.143
194.78	671.429
195.15	0.000
195.53	-381.818
195.91	0.000
196.29	-1125.000
196.66	-361.538
197.04	-4800.000
197.42	-671.429
197.79	-2300.000
198.17	-487.500
198.55	-514.286
198.92	-455.556
199.30	-637.500
199.68	-309.091
200.05	-257.143
200.43	-2050.000
200.81	614.286
201.18	0.000
201.56	611.111
201.94	0.000
202.31	1466.667
202.69	-488.889
203.07	3700.000
203.44	-422.222
203.82	-1075.000
204.19	-275.000
204.57	-616.667
204.95	-500.000
205.32	-4600.000
205.70	850.000
206.08	-650.000
206.45	-766.667
206.83	1100.000
207.20	-700.000
207.58	-940.000
207.96	-666.667
208.33	-616.667
208.71	358.333
209.08	-666.667
209.46	0.000
209.84	750.000
210.21	2050.000
210.59	2050.000
210.96	1466.667
211.34	-925.000
211.71	-550.000
212.09	-4500.000
212.46	0.000
212.84	2550.000
213.22	-820.000
213.59	-875.000
213.97	-340.000
214.34	-1133.333
214.72	716.667
215.09	-1150.000
215.47	0.000
215.84	500.000
216.22	2600.000
216.59	-680.000
216.97	-900.000
217.34	-1150.000
217.72	-450.000
218.09	-1075.000
218.47	-1200.000
218.84	0.000
219.22	760.000
219.59	-188.235
219.97	-155.000
220.34	2000.000
220.72	-455.556
221.09	-230.769
221.47	-1433.333
221.84	-360.000
222.22	-628.571
222.59	0.000
222.97	-512.500
223.34	-980.000
223.72	-4500.000
224.09	-1125.000
224.46	-1225.000
224.84	-740.000
225.21	-642.857
225.59	-1000.000
225.96	-925.000
226.34	-134.615
226.71	716.667
227.08	-1950.000
227.46	-260.000
227.83	-1125.000
228.21	-205.263
228.58	587.500
228.95	2200.000
229.33	-266.667
229.70	-420.000
230.08	-173.684
230.45	490.000
230.82	-1300.000
231.20	-307.143
231.57	-300.000
231.95	-318.182
232.32	-290.909
232.69	-165.000
233.07	-1075.000
233.44	-229.412
233.81	-400.000
234.19	-216.667
234.56	-127.273
234.93	-113.793
235.31	-168.421
235.68	-200.000
236.05	-200.000
236.43	-111.538
236.80	-92.000
237.17	-114.815
237.55	-103.030
237.92	-400.000
238.29	-132.258
238.67	-93.182
239.04	-88.889
239.41	-88.095
239.79	-76.087
240.16	-44.444
240.53	-67.391
240.91	-72.549
241.28	-62.295
241.65	-32.836
242.02	-33.784
242.40	-56.923
242.77	-46.667
243.14	-35.366
243.51	-43.421
243.89	-42.308
244.26	-26.733
244.63	-17.647
245.00	-28.037
245.38	-28.947
245.75	-37.168
246.12	-13.492
246.49	-17.054
246.87	-12.143
247.24	-5.960
247.61	-12.500
247.98	-13.423
248.36	-13.580
248.73	-9.202
249.10	-4.918
249.47	1.990
249.84	0.000
250.22	-5.181
250.59	-7.778
250.96	-1.818
251.33	-5.102
251.70	-2.991
252.08	-2.917
252.45	-3.279
252.82	-1.240
253.19	-3.125
253.56	3.802
253.94	-3.462
254.31	3.409
254.68	3.846
255.05	5.863
255.42	-1.020
255.79	2.589
256.16	1.656
256.54	-1.987
256.91	1.311
257.28	0.984
257.65	1.911
258.02	3.540
258.39	2.279
258.76	1.835
259.14	6.609
259.51	5.476
259.88	3.399
260.25	5.556
260.62	3.014
260.99	6.284
261.36	9.115
261.73	6.631
262.10	5.769
262.47	6.434
262.85	6.818
263.22	4.935
263.59	0.000
263.96	5.882
264.33	3.836
264.70	5.926
265.07	5.012
265.44	7.483
265.81	6.944
266.18	9.070
266.55	8.929
266.92	4.328
267.29	9.190
267.66	8.869
268.03	8.079
268.40	6.681
268.77	4.556
269.14	5.507
269.51	7.456
269.88	9.631
270.25	5.835
270.62	6.329
270.99	7.677
271.36	10.099
271.73	7.859
272.10	9.018
272.47	6.012
272.84	6.225
273.21	7.415
273.58	8.266
273.95	6.731
274.32	5.513
274.69	7.737
275.06	8.242
275.43	5.545
275.80	8.289
276.17	7.222
276.54	7.649
276.91	5.188
277.28	8.680
277.65	8.618
278.02	7.904
278.39	5.072
278.76	7.557
279.13	8.688
279.50	9.450
279.87	9.123
280.23	4.225
280.60	9.492
280.97	8.553
281.34	7.301
281.71	9.983
282.08	8.472
282.45	7.529
282.82	8.948
283.19	6.139
283.56	6.885
283.92	9.610
284.29	10.427
284.66	9.360
285.03	6.090
285.40	8.964
285.77	8.204
286.14	8.397
286.51	9.285
286.87	6.635
287.24	8.133
287.61	9.118
287.98	7.402
288.35	8.432
288.72	7.988
289.08	8.785
289.45	7.544
289.82	6.476
290.19	8.621
290.56	7.887
290.93	9.843
291.29	8.402
291.66	7.713
292.03	8.820
292.40	9.116
292.77	7.547
293.13	8.254
293.50	7.096
293.87	5.906
294.24	8.533
294.60	7.459
294.97	5.235
295.34	8.323
295.71	8.323
296.08	6.202
296.44	7.108
296.81	7.674
297.18	5.853
297.55	5.189
297.91	6.762
298.28	7.109
298.65	7.015
299.02	4.959
299.38	7.895
299.75	8.061
300.12	6.250
300.48	6.336
300.85	6.749
301.22	7.271
301.59	7.763
301.95	6.667
302.32	7.556
302.69	7.229
303.05	7.835
303.42	6.319
303.79	7.708
304.15	6.730
304.52	5.708
304.89	6.492
305.25	8.075
305.62	5.852
305.99	7.113
306.35	5.645
306.72	6.722
307.09	5.584
307.45	7.867
307.82	6.559
308.19	6.559
308.55	7.425
308.92	6.719
309.29	6.130
309.65	6.238
310.02	5.743
310.38	6.496
310.75	6.699
311.12	7.478
311.48	5.670
311.85	6.268
312.22	7.021
312.58	6.854
312.95	4.971
313.31	7.769
313.68	6.777
314.05	7.498
314.41	6.922
314.78	7.175
315.14	7.078
315.51	7.849
315.87	6.301
316.24	7.489
316.61	7.460
316.97	6.244
317.34	6.437
317.70	6.812
318.07	8.113
318.43	7.398
318.80	7.191
319.16	6.867
319.53	6.341
319.89	7.099
320.26	8.096
320.62	6.649
320.99	8.310
321.35	6.470
321.72	7.628
322.08	6.041
322.45	6.865
322.81	6.769
323.18	6.460
323.54	7.500
323.91	7.206
324.27	7.143
324.64	6.885
325.00	7.463
325.37	7.781
325.73	7.769
326.10	8.516
326.46	7.248
326.83	7.926
327.19	8.110
327.56	8.142
327.92	6.766
328.29	6.613
328.65	5.863
329.01	6.514
329.38	7.245
329.74	7.877
330.11	7.791
330.47	5.981
330.84	7.321
331.20	8.500
331.56	6.326
331.93	8.452
332.29	7.627
332.66	7.475
333.02	7.035
333.38	6.628
333.75	7.155
334.11	6.756
334.48	7.426
334.84	8.241
335.20	6.465
335.57	7.757
335.93	7.438
336.29	7.238
336.66	6.897
337.02	7.776
337.38	6.973
337.75	7.190
338.11	7.485
338.47	7.940
338.84	7.445
339.20	5.560
339.56	7.249
339.93	6.897
340.29	6.924
340.65	6.407
341.02	7.981
341.38	8.246
341.74	6.376
342.11	6.597
342.47	6.434
342.83	7.246
343.20	7.277
343.56	6.897
343.92	7.846
344.28	7.578
344.65	7.597
345.01	6.864
345.37	7.309
345.73	7.015
346.10	7.722
346.46	7.199
346.82	8.090
347.19	7.869
347.55	7.663
347.91	6.686
348.27	6.829
348.63	8.302
349.00	7.084
349.36	7.509
349.72	7.068
350.08	8.544
350.45	6.160
350.81	6.938
351.17	7.519
351.53	7.354
351.89	7.289
352.26	7.388
352.62	7.164
352.98	6.718
353.34	6.497
353.70	6.780
354.07	6.855
354.43	7.213
354.79	6.283
355.15	6.917
355.51	7.822
355.87	7.629
356.24	7.376
356.60	7.095
356.96	6.597
357.32	5.725
357.68	6.881
358.04	6.587
358.40	7.537
358.77	6.579
359.13	7.090
359.49	6.022
359.85	7.397
360.21	7.102
360.57	6.102
360.93	6.135
361.29	7.789
361.66	6.445
362.02	7.655
362.38	5.903
362.74	6.844
363.10	7.015
363.46	6.787
363.82	6.463
364.18	6.756
364.54	7.192
364.90	7.224
365.26	5.862
365.62	7.267
365.98	7.488
366.35	6.107
366.71	6.871
367.07	7.037
367.43	6.697
367.79	7.432
368.15	6.756
368.51	6.563
368.87	7.511
369.23	7.333
369.59	6.489
369.95	5.882
370.31	6.887
370.67	6.190
371.03	6.302
371.39	6.044
371.75	5.433
372.11	6.707
372.47	6.567
372.83	7.330
373.19	5.937
373.55	6.572
373.91	5.930
374.27	6.598
374.63	6.495
374.99	6.565
375.35	6.753
375.71	6.387
376.07	6.779
376.42	6.612
376.78	6.899
377.14	6.675
377.50	6.515
377.86	7.020
378.22	7.006
378.58	6.837
378.94	7.277
379.30	6.444
379.66	6.526
380.02	6.982
380.38	7.546
380.74	6.197
381.09	7.027
381.45	6.420
381.81	7.553
382.17	6.948
382.53	6.491
382.89	7.223
383.25	6.858
383.61	5.671
383.97	6.655
384.32	7.656
384.68	6.148
385.04	7.808
385.40	7.484
385.76	7.444
386.12	7.062
386.48	7.471
386.83	6.794
387.19	6.199
387.55	6.162
387.91	6.336
388.27	6.697
388.62	6.586
388.98	6.712
389.34	7.484
389.70	7.554
390.06	6.039
390.42	7.048
390.77	6.984
391.13	6.514
391.49	6.159
391.85	6.182
392.20	6.346
392.56	6.556
392.92	7.088
393.28	7.573
393.64	6.592
393.99	6.973
394.35	7.068
394.71	7.545
395.07	6.168
395.42	6.796
395.78	6.825
396.14	7.130
396.50	6.770
396.85	6.202
397.21	6.450
397.57	6.302
397.92	7.045
398.28	6.301
398.64	6.407
399.00	6.492
399.35	6.702
399.71	6.196
400.07	6.064
400.42	6.461
400.78	6.771
401.14	6.887
401.49	7.220
401.85	6.686
402.21	6.431
402.57	7.746
402.92	6.501
403.28	6.792
403.63	6.265
403.99	6.888
404.35	6.879
404.70	6.969
405.06	6.848
405.42	6.206
405.77	7.579
406.13	7.509
406.49	6.644
406.84	6.814
407.20	6.708
407.55	5.754
407.91	6.034
408.27	7.067
408.62	7.039
408.98	6.036
409.34	6.276
409.69	6.675
410.05	6.624
410.40	7.019
410.76	7.011
411.11	7.189
411.47	6.327
411.83	6.878
412.18	7.229
412.54	7.528
412.89	6.810
413.25	7.223
413.60	6.146
413.96	7.343
414.31	6.459
414.67	6.917
415.03	6.523
415.38	6.494
415.74	7.208
416.09	7.279
416.45	7.076
416.80	5.875
417.16	6.258
417.51	6.600
417.87	6.499
418.22	7.066
418.58	6.072
418.93	7.567
419.29	6.412
419.64	7.143
420.00	6.231
420.35	6.962
420.71	6.778
421.06	5.980
421.42	6.193
421.77	7.054
422.12	6.924
422.48	7.424
422.83	7.612
423.19	6.897
423.54	7.688
423.90	6.295
424.25	6.987
424.61	6.372
424.96	7.084
425.31	7.643
425.67	6.978
426.02	7.250
426.38	6.544
426.73	6.864
427.09	7.785
427.44	6.991
427.79	6.689
428.15	6.621
428.50	6.854
428.85	6.315
429.21	7.340
429.56	6.861
429.92	7.371
430.27	7.181
430.62	7.816
430.98	7.329
431.33	7.625
431.68	6.609
432.04	7.110
432.39	7.070
432.74	6.678
433.10	6.923
433.45	6.800
433.80	7.779
434.16	7.025
434.51	7.503
434.86	7.275
435.22	6.642
435.57	6.781
435.92	6.288
436.28	7.110
436.63	6.499
436.98	7.729
437.34	6.877
437.69	6.990
438.04	6.928
438.39	7.237
438.75	6.309
439.10	7.770
439.45	6.540
439.81	6.949
440.16	7.078
440.51	7.079
440.86	6.726
441.22	7.181
441.57	7.547
441.92	7.371
442.27	7.121
442.63	6.955
442.98	6.990
443.33	7.785
443.68	7.830
444.03	7.620
444.39	7.397
444.74	7.810
445.09	7.299
445.44	6.797
445.79	7.902
446.15	7.348
446.50	6.977
446.85	8.268
447.20	7.689
447.55	7.322
447.91	7.330
448.26	7.558
448.61	7.120
448.96	7.082
449.31	7.370
449.66	6.863
450.02	7.753
450.37	7.725
450.72	7.051
451.07	7.232
451.42	7.106
451.77	7.059
452.12	7.619
452.47	7.190
452.83	7.770
453.18	6.655
453.53	6.835
453.88	7.234
454.23	8.362
454.58	7.313
454.93	7.403
455.28	7.104
455.63	7.504
455.98	7.821
456.34	7.597
456.69	7.466
457.04	7.329
457.39	7.539
457.74	8.277
458.09	7.688
458.44	8.459
458.79	7.942
459.14	7.184
459.49	7.583
459.84	8.342
460.19	7.218
460.54	7.893
460.89	7.835
461.24	6.609
461.59	7.803
461.94	7.359
462.29	7.951
462.64	7.363
462.99	7.407
463.34	7.787
463.69	8.089
464.04	8.116
464.39	7.287
464.74	7.982
465.09	7.151
465.44	7.994
465.79	8.620
466.14	7.921
466.49	7.632
466.84	7.603
467.19	7.746
467.54	7.756
467.89	7.471
468.24	7.978
468.59	7.296
468.94	7.459
469.29	7.079
469.64	7.247
469.99	7.457
470.34	7.116
470.68	7.450
471.03	7.924
471.38	7.325
471.73	6.632
472.08	8.439
472.43	8.128
472.78	8.501
473.13	7.396
473.48	7.553
473.83	8.241
474.17	7.737
474.52	6.434
474.87	7.973
475.22	7.887
475.57	7.529
475.92	8.761
476.27	8.413
476.61	7.840
476.96	7.664
477.31	9.010
477.66	8.447
478.01	7.982
478.36	7.029
478.70	7.882
479.05	8.027
479.40	8.045
479.75	8.694
480.10	8.337
480.45	8.614
480.79	8.798
481.14	8.226
481.49	8.133
481.84	8.703
482.19	8.817
482.53	8.220
482.88	8.728
483.23	8.048
483.58	8.646
483.92	7.890
484.27	8.340
484.62	8.457
484.97	8.709
485.31	8.483
485.66	8.399
486.01	8.920
486.36	9.261
486.70	9.698
487.05	9.370
487.40	9.264
487.75	8.499
488.09	8.397
488.44	8.076
488.79	8.465
489.13	8.255
489.48	8.427
489.83	8.048
490.17	8.262
490.52	8.251
490.87	8.756
491.22	8.232
491.56	8.959
491.91	8.504
492.26	8.524
492.60	8.133
492.95	9.171
493.30	7.844
493.64	8.103
493.99	8.509
494.34	8.449
494.68	8.180
495.03	9.295
495.37	8.344
495.72	8.481
496.07	8.589
496.41	9.009
496.76	9.174
497.11	8.535
497.45	8.373
497.80	8.618
498.14	8.571
498.49	8.548
498.84	8.638
499.18	8.052
499.53	9.013
499.87	9.187
500.22	7.881
500.56	8.367
500.91	8.421
501.26	9.455
501.60	7.512
501.95	8.597
502.29	8.293
502.64	8.789
502.98	8.628
503.33	8.207
503.67	8.591
504.02	8.450
504.36	8.490
504.71	8.498
505.06	8.868
505.40	8.592
505.75	8.333
506.09	8.564
506.44	9.471
506.78	9.037
507.13	8.668
507.47	8.716
507.82	9.517
508.16	7.744
508.51	9.001
508.85	8.739
509.19	8.622
509.54	9.078
509.88	8.645
510.23	9.665
510.57	9.328
510.92	9.482
511.26	8.369
511.61	8.450
511.95	8.541
512.30	8.813
512.64	8.196
512.98	8.854
513.33	8.921
513.67	8.669
514.02	8.585
514.36	8.951
514.70	9.375
515.05	8.655
515.39	9.239
515.74	9.915
516.08	8.875
516.42	9.053
516.77	9.201
517.11	8.303
517.46	9.385
517.80	9.407
518.14	9.630
518.49	9.816
518.83	9.420
519.17	8.831
519.52	9.486
519.86	9.187
520.20	9.318
520.55	8.927
520.89	9.459
521.23	8.654
521.58	9.209
521.92	9.122
522.26	9.221
522.61	9.780
522.95	8.939
523.29	9.253
523.64	8.744
523.98	9.926
524.32	9.914
524.66	9.050
525.01	8.834
525.35	8.443
525.69	8.295
526.04	9.013
526.38	9.080
526.72	9.343
527.06	8.446
527.41	8.921
527.75	9.501
528.09	9.386
528.43	9.591
528.78	8.728
529.12	9.060
529.46	8.825
529.80	9.211
530.15	9.449
530.49	8.660
530.83	9.504
531.17	9.200
531.51	9.085
531.86	10.036
532.20	9.695
532.54	9.037
532.88	9.818
533.22	9.841
533.57	9.521
533.91	10.157
534.25	9.893
534.59	9.138
534.93	9.338
535.27	8.789
535.62	9.949
535.96	9.181
536.30	9.048
536.64	9.670
536.98	9.779
537.32	9.630
537.66	8.983
538.01	8.459
538.35	9.196
538.69	8.954
539.03	8.645
539.37	10.365
539.71	9.610
540.05	9.652
540.39	8.741
540.73	9.290
541.07	9.687
541.42	8.978
541.76	9.312
542.10	9.288
542.44	8.831
542.78	9.367
543.12	10.369
543.46	9.219
543.80	8.873
544.14	8.857
544.48	9.929
544.82	10.592
545.16	9.481
545.50	9.347
545.84	9.369
546.18	10.370
546.52	9.427
546.86	9.623
547.20	8.969
547.54	8.989
547.88	9.102
548.22	9.532
548.56	9.304
548.90	9.552
549.24	9.544
549.58	9.527
549.92	9.056
550.26	9.579
550.60	9.572
550.94	9.444
551.28	9.967
551.62	8.895
551.96	8.932
552.30	10.006
552.64	9.396
552.98	9.295
553.32	9.839
553.66	9.132
554.00	10.277
554.34	10.167
554.68	9.877
555.02	9.461
555.36	10.322
555.69	8.712
556.03	9.458
556.37	10.388
556.71	9.131
557.05	9.073
557.39	9.091
557.73	9.049
558.07	8.742
558.41	8.837
558.75	9.195
559.08	9.186
559.42	8.436
559.76	10.855
560.10	9.109
560.44	9.499
560.78	10.688
561.12	9.667
561.45	9.915
561.79	10.195
562.13	10.290
562.47	9.125
562.81	9.430
563.15	9.596
563.48	10.131
563.82	10.218
564.16	9.146
564.50	9.297
564.84	8.968
565.17	9.882
565.51	9.148
565.85	9.679
566.19	8.871
566.52	9.304
566.86	9.677
567.20	8.646
567.54	9.187
567.88	9.582
568.21	10.030
568.55	10.168
568.89	10.168
569.23	10.055
569.56	10.356
569.90	10.406
570.24	10.219
570.57	10.038
570.91	9.829
571.25	9.662
571.59	10.687
571.92	10.155
572.26	10.296
572.60	9.719
572.93	9.880
573.27	10.256
573.61	9.979
573.95	10.100
574.28	10.512
574.62	10.277
574.96	10.057
575.29	9.804
575.63	9.702
575.97	9.916
576.30	10.165
576.64	9.711
576.98	9.886
577.31	10.074
577.65	10.256
577.98	10.128
578.32	10.149
578.66	9.913
578.99	9.994
579.33	10.027
579.67	9.610
580.00	9.710
580.34	9.926
580.67	9.554
581.01	9.801
581.35	10.150
581.68	10.115
582.02	10.293
582.35	10.506
582.69	10.263
583.02	10.241
583.36	10.207
583.70	9.566
584.03	9.887
584.37	9.282
584.70	9.364
585.04	9.742
585.37	9.589
585.71	10.291
586.04	10.348
586.38	9.981
586.72	9.326
587.05	9.491
587.39	9.748
587.72	10.096
588.06	10.058
588.39	10.082
588.73	9.841
589.06	9.340
589.40	9.588
589.73	9.512
590.07	9.748
590.40	10.311
590.73	9.721
591.07	9.903
591.40	9.292
591.74	9.658
592.07	10.069
592.41	9.779
592.74	9.833
593.08	9.841
593.41	10.528
593.75	10.259
594.08	10.058
594.41	9.872
594.75	9.532
595.08	9.623
595.42	9.610
595.75	9.848
596.09	9.692
596.42	9.638
596.75	9.533
597.09	9.980
597.42	9.535
597.75	9.800
598.09	9.960
598.42	9.811
598.76	10.011
599.09	10.110
599.42	9.822
599.76	10.036
600.09	10.143
600.42	10.077
600.76	9.841
601.09	9.658
601.42	9.784
601.76	9.517
602.09	10.007
602.42	9.706
602.76	9.151
603.09	9.728
603.42	10.043
603.76	9.796
604.09	10.326
604.42	10.165
604.76	9.094
605.09	9.294
605.42	9.370
605.75	10.000
606.09	10.116
606.42	9.704
606.75	9.595
607.09	8.756
607.42	9.981
607.75	9.652
608.08	10.339
608.42	9.311
608.75	9.453
609.08	9.253
609.41	9.793
609.75	9.464
610.08	9.982
610.41	9.601
610.74	9.286
611.07	9.458
611.41	10.269
611.74	9.838
612.07	9.677
612.40	9.221
612.73	9.487
613.07	9.633
613.40	9.480
613.73	8.714
614.06	10.157
614.39	9.232
614.72	9.413
615.06	9.480
615.39	9.763
615.72	9.858
616.05	9.762
616.38	9.839
616.71	9.770
617.05	9.531
617.38	9.738
617.71	9.503
618.04	9.984
618.37	9.836
618.70	9.842
619.03	8.483
619.36	9.433
619.69	9.097
620.03	9.102
620.36	8.712
620.69	9.562
621.02	9.055
621.35	8.999
621.68	11.135
622.01	8.399
622.34	8.647
622.67	9.210
623.00	9.312
623.33	9.423
623.66	9.792
623.99	9.348
624.32	10.851
624.65	9.266
624.99	8.908
625.32	9.471
625.65	9.238
625.98	8.881
626.31	8.859
626.64	8.791
626.97	9.377
627.30	8.732
627.63	9.452
627.96	9.685
628.29	10.039
628.62	7.976
628.95	8.940
629.28	9.006
629.61	9.259
629.94	8.201
630.26	9.068
630.59	9.240
630.92	9.091
631.25	8.945
631.58	8.569
631.91	8.716
632.24	8.453
632.57	9.677
632.90	8.425
633.23	7.857
633.56	9.388
633.89	7.645
634.22	9.563
634.55	8.977
634.88	6.818
635.20	9.473
635.53	7.684
635.86	8.667
636.19	10.180
636.52	9.494
636.85	8.069
637.18	7.692
637.51	9.032
637.83	8.970
638.16	8.180
638.49	7.629
638.82	7.892
639.15	7.216
639.48	8.661
639.81	8.776
640.13	8.952
640.46	7.152
640.79	6.985
641.12	8.820
641.45	7.277
641.77	9.884
642.10	6.824
642.43	8.511
642.76	7.859
643.09	6.438
643.41	7.143
643.74	7.034
644.07	7.586
644.40	8.062
644.73	6.531
645.05	7.048
645.38	7.050
645.71	6.598
646.04	7.747
646.36	8.321
646.69	6.442
647.02	8.716
647.35	8.855
647.67	6.924
648.00	6.369
648.33	7.357
648.66	6.419
648.98	7.347
649.31	6.901
649.64	9.296
649.96	8.355
650.29	6.676
650.62	7.638
650.94	6.607
651.27	7.934
651.60	6.287
651.92	5.775
652.25	7.815
652.58	7.703
652.90	5.669
653.23	7.042
653.56	6.847
653.88	8.708
654.21	7.183
654.54	5.925
654.86	7.365
655.19	7.026
655.52	10.615
655.84	12.060
656.17	14.200
656.49	19.981
656.82	20.429
657.15	14.649
657.47	10.567
657.80	7.345
658.13	5.284
658.45	6.598
658.78	7.599
659.10	6.581
659.43	6.403
659.75	5.715
660.08	5.322
660.41	6.038
660.73	5.245
661.06	3.965
661.38	5.263
661.71	6.379
662.03	5.291
662.36	7.156
662.68	6.754
663.01	7.788
663.33	5.104
663.66	8.425
663.98	7.115
664.31	5.066
664.63	2.312
664.96	6.715
665.28	4.900
665.61	7.517
665.93	5.357
666.26	6.989
666.58	5.166
666.91	7.477
667.23	7.048
667.56	5.128
667.88	5.400
668.21	3.711
668.53	3.668
668.86	5.108
669.18	3.666
669.50	5.567
669.83	3.200
670.15	4.921
670.48	5.754
670.80	4.589
671.13	4.915
671.45	4.528
671.77	4.331
672.10	5.667
672.42	5.340
672.75	6.605
673.07	7.015
673.39	5.239
673.72	6.879
674.04	5.172
674.37	3.936
674.69	5.996
675.01	4.762
675.34	6.298
675.66	5.618
675.98	6.157
676.31	5.469
676.63	6.654
676.95	8.621
677.28	7.056
677.60	4.134
677.92	5.950
678.25	7.861
678.57	5.694
678.89	7.167
679.22	4.007
679.54	5.641
679.86	3.390
680.18	4.643
680.51	7.075
680.83	8.674
681.15	1.897
681.48	5.181
681.80	7.081
682.12	6.643
682.44	7.012
682.77	5.851
683.09	5.492
683.41	4.651
683.73	3.795
684.06	4.982
684.38	2.683
684.70	5.925
685.02	6.713
685.34	3.328
685.67	6.151
685.99	5.982
686.31	4.942
686.63	5.055
686.96	5.205
687.28	5.049
687.60	4.377
687.92	4.502
688.24	5.342
688.56	5.862
688.89	6.715
689.21	5.284
689.53	1.765
689.85	2.761
690.17	5.556
690.49	4.183
690.82	5.347
691.14	1.822
691.46	5.545
691.78	4.972
692.10	4.587
692.42	4.821
692.74	5.082
693.06	2.222
693.39	5.123
693.71	3.571
694.03	4.275
694.35	2.286
694.67	2.053
694.99	3.404
695.31	3.532
695.63	6.061
695.95	5.176
696.27	1.538
696.59	2.434
696.91	4.505
697.23	6.593
697.56	3.666
697.88	3.598
698.20	4.520
698.52	5.682
698.84	6.653
699.16	6.531
699.48	4.812
699.80	4.043
700.12	3.712
700.44	3.687
700.76	2.850
701.08	3.874
701.40	0.777
701.72	4.478
702.04	4.278
702.36	0.785
702.68	2.689
703.00	0.733
703.32	3.202
703.64	3.912
703.96	5.251
704.28	5.160
704.60	3.291
704.91	2.041
705.23	0.000
705.55	1.114
705.87	3.333
706.19	1.534
706.51	0.301
706.83	0.576
707.15	0.265
707.47	1.636
707.79	6.550
708.11	2.119
708.43	1.720
708.74	1.563
709.06	2.784
709.38	2.582
709.70	3.722
710.02	2.842
710.34	0.532
710.66	0.279
710.98	0.273
711.29	-1.099
711.61	2.825
711.93	3.704
712.25	1.081
712.57	5.605
712.89	3.529
713.20	2.071
713.52	3.468
713.84	1.950
714.16	1.579
714.48	1.804
714.80	3.896
715.11	0.262
715.43	1.061
715.75	1.316
716.07	0.276
716.39	2.459
716.70	-1.506
717.02	-1.967
717.34	-5.923
717.66	-3.020
717.97	-1.027
718.29	-1.031
718.61	-2.303
718.93	-3.560
719.24	-1.242
719.56	-0.307
719.88	0.000
720.20	1.290
720.51	0.932
720.83	-0.938
721.15	-1.974
721.46	-2.397
721.78	-0.333
722.10	-2.265
722.42	-4.362
722.73	0.968
723.05	-3.158
723.37	-4.861
723.68	-0.717
724.00	-1.805
724.32	-3.169
724.63	0.000
724.95	-0.709
725.27	-3.484
725.58	-7.774
725.90	1.724
726.22	0.627
726.53	-2.273
726.85	0.314
727.16	2.719
727.48	1.529
727.80	-1.325
728.11	-3.534
728.43	0.673
728.74	-0.669
729.06	1.987
729.38	-2.597
729.69	-0.336
730.01	1.488
730.32	-1.515
730.64	-0.314
730.96	-4.037
731.27	3.352
731.59	2.473
731.90	2.857
732.22	0.260
732.53	-0.552
732.85	1.714
733.16	1.173
733.48	-7.622
733.80	1.950
734.11	0.855
734.43	1.351
734.74	3.797
735.06	2.010
735.37	0.541
735.69	1.081
736.00	0.000
736.32	-1.348
736.63	1.667
736.95	0.575
737.26	0.606
737.58	-2.121
737.89	0.294
738.21	-0.306
738.52	-3.607
738.83	-2.389
739.15	-1.064
739.46	2.041
739.78	0.613
740.09	-0.860
740.41	3.499
740.72	-2.333
741.04	1.294
741.35	1.404
741.66	-7.843
741.98	-3.689
742.29	-3.347
742.61	0.000
742.92	-3.846
743.23	0.722
743.55	-3.488
743.86	-2.400
744.18	-4.959
744.49	-7.595
744.80	-6.996
745.12	-8.439
745.43	-2.846
745.74	-4.741
746.06	-4.661
746.37	-6.751
746.68	-0.407
747.00	-5.417
747.31	-8.584
747.62	-5.000
747.94	-5.668
748.25	-0.803
748.56	-6.122
748.88	-2.564
749.19	-2.586
749.50	-6.494
749.82	-1.205
750.13	0.712
750.44	-3.667
750.75	0.923
751.07	-0.615
751.38	2.524
751.69	-1.278
752.01	-1.294
752.32	0.327
752.63	-4.422
752.94	-3.114
753.26	-4.833
753.57	-7.037
753.88	-6.367
754.19	-0.643
754.51	-2.251
754.82	-1.286
755.13	-1.639
755.44	-2.389
755.75	-0.987
756.07	1.493
756.38	-2.201
756.69	3.313
757.00	-3.047
757.31	1.913
757.63	-1.023
757.94	1.643
758.25	3.612
758.56	1.525
758.87	4.773
759.18	0.267
759.50	0.567
759.81	1.961
760.12	1.078
760.43	1.302
760.74	2.956
761.05	-2.250
761.36	1.446
761.67	1.523
761.99	2.162
762.30	0.000
762.61	-5.941
762.92	-5.597
763.23	-2.996
763.54	-5.036
763.85	-1.031
764.16	-1.010
764.47	-0.352
764.78	-0.958
765.10	-1.466
765.41	3.077
765.72	2.116
766.03	0.282
766.34	-2.194
766.65	-3.136
766.96	-3.187
767.27	-4.608
767.58	-11.443
767.89	-4.327
768.20	-2.347
768.51	-5.093
768.82	-3.213
769.13	-0.758
769.44	-6.154
769.75	-1.444
770.06	-3.077
770.37	-1.181
770.68	-7.660
770.99	-9.312
771.30	0.370
771.61	-3.422
771.92	-6.296
772.23	-3.239
772.54	-9.259
772.85	0.461
773.16	-1.905
773.47	-5.820
773.78	-16.757
774.09	-9.091
774.39	-6.000
774.70	-7.650
775.01	-18.293
775.32	-8.824
775.63	-11.043
775.94	-14.650
776.25	-13.548
776.56	-12.179
776.87	-13.605
777.18	-19.310
777.48	-18.881
777.79	-16.892
778.10	-19.853
778.41	-10.417
778.72	-13.793
779.03	-17.284
779.34	-13.939
779.65	-10.881
779.95	-10.556
780.26	-10.795
780.57	-16.774
780.88	-13.768
781.19	-7.097
781.50	-3.529
781.80	-6.452
782.11	-10.053
782.42	-10.606
782.73	-12.575
783.04	-13.408
783.34	-22.424
783.65	-23.529
783.96	-9.317
784.27	-13.095
784.57	-15.894
784.88	-12.857
785.19	-22.835
785.50	-18.898
785.81	-15.038
786.11	-18.462
786.42	-25.180
786.73	-18.705
787.04	-9.774
787.34	-21.311
787.65	-24.800
787.96	-18.657
788.26	-17.483
788.57	-8.392
788.88	-11.184
789.19	-9.150
789.49	-9.589
789.80	-12.766
790.11	-16.535
790.41	-24.219
790.72	-25.424
791.03	-43.689
791.33	-14.783
791.64	-17.544
791.95	-32.143
792.25	-29.524
792.56	-17.857
792.87	-36.458
793.17	-19.643
793.48	-26.042
793.79	-44.578
794.09	-32.110
794.40	-39.450
794.70	-14.966
795.01	-17.532
795.32	-17.123
795.62	-20.423
795.93	-15.909
796.23	-15.574
796.54	-24.107
796.85	-30.851
797.15	-28.261
797.46	-32.877
797.76	-47.500
798.07	-26.087
798.37	-34.021
798.68	-48.052
798.99	-45.977
799.29	-34.831
799.60	-23.404
799.90	-33.735
800.21	-61.538
800.51	-61.194
800.82	-58.824
801.12	-57.534
801.43	-69.118
801.73	-67.797
802.04	-54.545
802.34	-71.667
802.65	-55.932
802.95	-43.284
803.26	-52.542
803.56	-41.096
803.87	-44.286
804.17	-38.356
804.48	-73.684
804.78	-40.278
805.09	-63.793
805.39	-44.595
805.70	-50.704
806.00	-36.585
806.30	-45.783
806.61	-52.055
806.91	-17.308
807.22	-31.111
807.52	-42.529
807.83	-44.444
808.13	-24.096
808.43	-41.573
808.74	-50.000
809.04	-61.765
809.35	-41.333
809.65	-41.429
809.95	-47.945
810.26	-68.421
810.56	-55.172
810.86	-42.647
811.17	-56.140
811.47	-49.180
811.77	-84.444
812.08	-64.407
812.38	-41.667
812.69	-46.552
812.99	-69.811
813.29	-89.744
813.59	-46.000
813.90	-52.632
814.20	-67.273
814.50	-36.620
814.81	-32.051
815.11	-54.098
815.41	-37.313
815.72	-55.172
816.02	-55.357
816.32	-55.556
816.62	-70.455
816.93	-84.444
817.23	-50.000
817.53	-70.213
817.84	-66.667
818.14	-102.941
818.44	-59.184
818.74	-68.889
819.04	-97.436
819.35	-111.429
819.65	-157.692
819.95	-75.472
820.25	-66.667
820.56	-90.476
820.86	-134.375
821.16	-97.436
821.46	-83.721
821.76	-84.000
822.07	-48.214
822.37	-91.304
822.67	-72.340
822.97	-127.027
823.27	-105.000
823.57	-55.102
823.88	-53.333
824.18	-82.500
824.48	-123.333
824.78	-152.000
825.08	-106.061
825.38	-68.889
825.69	-53.191
825.99	-86.111
826.29	-154.286
826.59	-100.000
826.89	-106.977
827.19	-80.000
827.49	-123.529
827.79	-58.333
828.09	-102.703
828.39	-140.000
828.70	-92.683
829.00	-81.395
829.30	-157.143
829.60	-97.059
829.90	-67.391
830.20	-131.429
830.50	-144.828
830.80	-244.444
831.10	-150.000
831.40	-108.824
831.70	-180.952
832.00	-93.548
832.30	-264.706
832.60	-179.167
832.90	-323.077
833.20	-231.579
833.50	-220.000
833.80	-184.211
834.10	-252.381
834.40	-83.333
834.70	-71.875
835.00	-128.571
835.30	-108.824
835.60	-136.667
835.90	-140.000
836.20	-222.727
836.50	-160.000
836.80	-133.333
837.10	-170.370
837.40	-133.333
837.70	-312.500
838.00	-128.571
838.30	-195.652
838.60	-131.034
838.90	-271.429
839.19	-234.783
839.49	-416.667
839.79	-169.565
840.09	-300.000
840.39	-225.000
840.69	-106.452
840.99	-171.429
841.29	-266.667
841.59	-242.105
841.88	-97.436
842.18	-130.769
842.48	-450.000
842.78	-230.000
843.08	-143.333
843.38	-87.097
843.68	-227.778
843.97	-102.941
844.27	-218.750
844.57	-173.684
844.87	-450.000
845.17	-340.000
845.47	-209.524
845.76	-190.476
846.06	-444.444
846.36	-258.824
846.66	-165.385
846.96	-300.000
847.25	-229.412
847.55	-186.957
847.85	-195.000
848.15	-217.647
848.44	-372.727
848.74	-147.619
849.04	-170.833
849.34	-293.750
849.63	-152.174
849.93	2500.000
850.23	-293.333
850.53	-92.308
850.82	-390.909
851.12	-145.455
851.42	-363.636
851.71	-253.846
852.01	-260.000
852.31	-369.231
852.61	-205.263
852.90	-283.333
853.20	-172.222
853.50	-422.222
853.79	-219.048
854.09	-236.364
854.39	-366.667
854.68	-109.677
854.98	-161.538
855.28	-211.111
855.57	-132.143
855.87	-148.000
856.17	-204.545
856.46	-137.037
856.76	-261.111
857.05	-173.913
857.35	-166.667
857.65	-338.462
857.94	-128.571
858.24	-107.407
858.53	-126.087
858.83	-229.412
859.13	-223.529
859.42	-264.706
859.72	-235.714
860.01	-205.000
860.31	-511.111
860.60	-370.000
860.90	-226.667
861.20	-216.667
861.49	-261.538
861.79	-80.000
862.08	-338.462
862.38	-100.000
862.67	-205.882
862.97	-256.250
863.26	-500.000
863.56	-380.000
863.85	-345.455
864.15	-188.889
864.44	-1500.000
864.74	-235.714
865.03	-250.000
865.33	-480.000
865.62	-151.613
865.92	-131.818
866.21	-186.957
866.51	-300.000
866.80	-960.000
867.10	-350.000
867.39	-425.000
867.69	5200.000
867.98	-528.571
868.27	-205.882
868.57	-5700.000
868.86	-400.000
869.16	-195.238
869.45	-145.833
869.75	-309.091
870.04	-500.000
870.33	-300.000
870.63	-657.143
870.92	-825.000
871.22	-637.500
871.51	-454.545
871.80	-1866.667
872.10	-2000.000
>>>>>End Processed Spectral Data<<<<<
