SpectraSuite Data File
++++++++++++++++++++++++++++++++++++
Date: Thu May 14 15:56:35 PDT 2015
User: schluterlab
Dark Spectrum Present: Yes
Reference Spectrum Present: Yes
Number of Sampled Component Spectra: 1
Spectrometers: USB2E3373
Integration Time (usec): 3000 (USB2E3373)
Spectra Averaged: 3 (USB2E3373)
Boxcar Smoothing: 0 (USB2E3373)
Correct for Electrical Dark: No (USB2E3373)
Strobe/Lamp Enabled: No (USB2E3373)
Correct for Detector Non-linearity: No (USB2E3373)
Correct for Stray Light: No (USB2E3373)
Number of Pixels in Processed Spectrum: 2048
>>>>>Begin Processed Spectral Data<<<<<
178.53	0.000
178.91	371.429
179.29	-3300.000
179.67	-3500.000
180.04	335.714
180.42	270.000
180.80	480.000
181.18	-2100.000
181.56	-2400.000
181.94	450.000
182.31	-650.000
182.69	766.667
183.07	-700.000
183.45	525.000
183.83	-383.333
184.20	-1166.667
184.58	1700.000
184.96	-475.000
185.34	-277.778
185.72	-340.000
186.09	344.444
186.47	1400.000
186.85	540.000
187.23	-411.111
187.61	-2900.000
187.98	420.000
188.36	750.000
188.74	-750.000
189.12	-700.000
189.49	-118.750
189.87	-350.000
190.25	-133.333
190.63	-300.000
191.00	-444.444
191.38	0.000
191.76	-850.000
192.14	-466.667
192.51	1500.000
192.89	-316.667
193.27	0.000
193.65	-400.000
194.02	-3600.000
194.40	-242.857
194.78	357.143
195.15	0.000
195.53	-181.818
195.91	0.000
196.29	-500.000
196.66	-207.692
197.04	-2700.000
197.42	-300.000
197.79	-1300.000
198.17	-300.000
198.55	-400.000
198.92	-166.667
199.30	-287.500
199.68	-181.818
200.05	-164.286
200.43	-1450.000
200.81	557.143
201.18	0.000
201.56	377.778
201.94	0.000
202.31	1100.000
202.69	-333.333
203.07	2700.000
203.44	-288.889
203.82	-1025.000
204.19	-275.000
204.57	-316.667
204.95	-337.500
205.32	-2300.000
205.70	425.000
206.08	-383.333
206.45	-350.000
206.83	640.000
207.20	-333.333
207.58	-760.000
207.96	-400.000
208.33	-350.000
208.71	233.333
209.08	-400.000
209.46	0.000
209.84	566.667
210.21	850.000
210.59	1300.000
210.96	900.000
211.34	-525.000
211.71	-287.500
212.09	-2300.000
212.46	0.000
212.84	1650.000
213.22	-620.000
213.59	-825.000
213.97	-240.000
214.34	-866.667
214.72	533.333
215.09	-825.000
215.47	0.000
215.84	471.429
216.22	1450.000
216.59	-520.000
216.97	-500.000
217.34	-650.000
217.72	-250.000
218.09	-575.000
218.47	-825.000
218.84	0.000
219.22	620.000
219.59	-123.529
219.97	-130.000
220.34	1950.000
220.72	-277.778
221.09	-176.923
221.47	-766.667
221.84	-240.000
222.22	-428.571
222.59	0.000
222.97	-275.000
223.34	-600.000
223.72	-3600.000
224.09	-725.000
224.46	-500.000
224.84	-260.000
225.21	-428.571
225.59	-800.000
225.96	-675.000
226.34	-84.615
226.71	583.333
227.08	-1450.000
227.46	-153.333
227.83	-775.000
228.21	-110.526
228.58	237.500
228.95	1900.000
229.33	-200.000
229.70	-190.000
230.08	-31.579
230.45	240.000
230.82	-666.667
231.20	-178.571
231.57	-158.333
231.95	-272.727
232.32	-172.727
232.69	-80.000
233.07	-575.000
233.44	-135.294
233.81	-290.000
234.19	-122.222
234.56	-63.636
234.93	-31.034
235.31	-100.000
235.68	-122.222
236.05	-150.000
236.43	-46.154
236.80	-32.000
237.17	-66.667
237.55	-36.364
237.92	-260.000
238.29	-41.935
238.67	-43.182
239.04	-36.111
239.41	-40.476
239.79	-26.087
240.16	-18.519
240.53	-17.391
240.91	-23.529
241.28	8.197
241.65	-8.955
242.02	0.000
242.40	-1.538
242.77	2.667
243.14	2.439
243.51	10.526
243.89	1.282
244.26	13.861
244.63	16.667
245.00	25.234
245.38	15.789
245.75	14.159
246.12	21.429
246.49	18.605
246.87	24.286
247.24	21.192
247.61	22.368
247.98	14.765
248.36	23.457
248.73	20.245
249.10	22.951
249.47	35.821
249.84	27.749
250.22	27.979
250.59	30.000
250.96	31.818
251.33	22.449
251.70	29.915
252.08	27.083
252.45	32.377
252.82	28.926
253.19	28.906
253.56	30.798
253.94	30.769
254.31	29.545
254.68	30.420
255.05	30.945
255.42	27.211
255.79	30.744
256.16	28.477
256.54	31.126
256.91	34.098
257.28	29.836
257.65	28.662
258.02	24.779
258.39	30.199
258.76	33.333
259.14	31.609
259.51	31.988
259.88	31.728
260.25	32.778
260.62	32.877
260.99	32.240
261.36	34.316
261.73	27.586
262.10	30.769
262.47	31.903
262.85	34.091
263.22	31.169
263.59	30.000
263.96	29.156
264.33	32.481
264.70	32.346
265.07	34.368
265.44	32.880
265.81	31.019
266.18	31.973
266.55	31.920
266.92	33.030
267.29	30.853
267.66	33.259
268.03	31.878
268.40	30.898
268.77	31.207
269.14	29.956
269.51	30.702
269.88	32.582
270.25	32.998
270.62	33.122
270.99	31.111
271.36	31.683
271.73	30.452
272.10	33.267
272.47	31.062
272.84	28.916
273.21	30.261
273.58	33.871
273.95	29.231
274.32	27.376
274.69	29.207
275.06	31.319
275.43	29.390
275.80	30.688
276.17	30.370
276.54	29.664
276.91	28.801
277.28	28.752
277.65	29.443
278.02	32.537
278.39	31.341
278.76	30.228
279.13	30.319
279.50	30.241
279.87	31.127
280.23	29.754
280.60	30.339
280.97	29.770
281.34	29.372
281.71	28.934
282.08	31.728
282.45	28.805
282.82	29.356
283.19	29.241
283.56	29.508
283.92	33.333
284.29	29.068
284.66	29.064
285.03	28.205
285.40	27.666
285.77	30.186
286.14	30.229
286.51	31.202
286.87	28.752
287.24	31.024
287.61	30.344
287.98	28.399
288.35	29.882
288.72	30.473
289.08	33.089
289.45	29.586
289.82	30.873
290.19	30.747
290.56	32.394
290.93	31.669
291.29	30.303
291.66	30.028
292.03	29.037
292.40	30.068
292.77	29.650
293.13	29.229
293.50	29.172
293.87	28.725
294.24	31.467
294.60	30.341
294.97	29.262
295.34	30.474
295.71	27.743
296.08	28.553
296.44	28.676
296.81	31.547
297.18	30.884
297.55	29.599
297.91	29.063
298.28	30.687
298.65	30.797
299.02	27.981
299.38	28.604
299.75	30.374
300.12	30.093
300.48	28.687
300.85	30.034
301.22	29.866
301.59	28.425
301.95	30.960
302.32	29.778
302.69	30.778
303.05	29.162
303.42	30.488
303.79	30.000
304.15	29.548
304.52	28.964
304.89	30.471
305.25	28.364
305.62	28.213
305.99	29.691
306.35	31.552
306.72	30.610
307.09	30.355
307.45	31.781
307.82	30.172
308.19	29.667
308.55	30.087
308.92	29.796
309.29	29.981
309.65	29.435
310.02	29.802
310.38	29.429
310.75	29.417
311.12	29.434
311.48	31.378
311.85	30.959
312.22	31.594
312.58	29.859
312.95	29.541
313.31	29.720
313.68	29.853
314.05	30.714
314.41	30.783
314.78	30.609
315.14	30.490
315.51	31.025
315.87	31.593
316.24	30.868
316.61	31.172
316.97	28.778
317.34	29.894
317.70	31.616
318.07	30.423
318.43	30.442
318.80	30.100
319.16	29.528
319.53	29.563
319.89	29.010
320.26	31.317
320.62	30.408
320.99	30.102
321.35	30.037
321.72	32.000
322.08	31.199
322.45	31.075
322.81	31.498
323.18	32.389
323.54	31.638
323.91	32.562
324.27	31.842
324.64	31.570
325.00	32.007
325.37	32.842
325.73	32.479
326.10	33.739
326.46	33.306
326.83	33.707
327.19	33.386
327.56	34.862
327.92	33.045
328.29	32.097
328.65	33.501
329.01	33.756
329.38	34.120
329.74	36.216
330.11	34.846
330.47	34.878
330.84	33.419
331.20	35.333
331.56	34.229
331.93	34.393
332.29	35.000
332.66	35.465
333.02	34.087
333.38	33.977
333.75	34.343
334.11	35.279
334.48	35.231
334.84	35.854
335.20	33.669
335.57	34.907
335.93	34.215
336.29	34.193
336.66	33.389
337.02	35.702
337.38	33.163
337.75	33.140
338.11	34.230
338.47	32.920
338.84	33.756
339.20	33.783
339.56	33.937
339.93	32.923
340.29	34.622
340.65	34.225
341.02	34.078
341.38	33.145
341.74	32.930
342.11	32.985
342.47	31.136
342.83	33.897
343.20	33.361
343.56	35.124
343.92	33.387
344.28	33.594
344.65	33.798
345.01	32.449
345.37	32.193
345.73	32.736
346.10	32.839
346.46	33.703
346.82	31.086
347.19	34.072
347.55	32.701
347.91	33.135
348.27	33.460
348.63	32.216
349.00	31.096
349.36	32.788
349.72	32.143
350.08	32.392
350.45	31.711
350.81	31.297
351.17	32.556
351.53	33.434
351.89	31.891
352.26	32.910
352.62	32.090
352.98	33.282
353.34	32.562
353.70	32.435
354.07	32.042
354.43	33.030
354.79	31.862
355.15	31.714
355.51	33.114
355.87	32.311
356.24	32.395
356.60	32.520
356.96	32.543
357.32	31.822
357.68	32.284
358.04	32.036
358.40	32.239
358.77	32.895
359.13	30.576
359.49	31.599
359.85	31.690
360.21	32.568
360.57	31.730
360.93	31.453
361.29	31.439
361.66	32.730
362.02	33.055
362.38	31.904
362.74	32.123
363.10	32.531
363.46	32.341
363.82	31.676
364.18	32.301
364.54	32.365
364.90	32.977
365.26	32.000
365.62	32.867
365.98	32.199
366.35	32.081
366.71	32.789
367.07	32.341
367.43	32.173
367.79	32.847
368.15	32.642
368.51	31.935
368.87	31.483
369.23	31.467
369.59	32.240
369.95	32.792
370.31	30.993
370.67	31.499
371.03	32.064
371.39	32.102
371.75	31.912
372.11	32.453
372.47	32.024
372.83	33.704
373.19	32.422
373.55	31.978
373.91	31.970
374.27	32.600
374.63	33.085
374.99	32.294
375.35	32.273
375.71	32.129
376.07	31.569
376.42	32.809
376.78	33.002
377.14	32.190
377.50	32.385
377.86	32.451
378.22	32.934
378.58	32.580
378.94	31.221
379.30	32.103
379.66	33.686
380.02	33.064
380.38	33.813
380.74	32.901
381.09	32.927
381.45	33.864
381.81	34.368
382.17	32.957
382.53	32.398
382.89	31.264
383.25	32.708
383.61	32.407
383.97	32.921
384.32	33.433
384.68	32.715
385.04	34.124
385.40	33.471
385.76	33.998
386.12	33.154
386.48	33.471
386.83	32.956
387.19	33.140
387.55	32.277
387.91	33.562
388.27	33.083
388.62	33.391
388.98	32.826
389.34	33.648
389.70	33.411
390.06	33.333
390.42	32.590
390.77	33.895
391.13	33.979
391.49	33.514
391.85	33.636
392.20	33.986
392.56	33.904
392.92	33.697
393.28	33.665
393.64	33.408
393.99	34.166
394.35	34.287
394.71	33.713
395.07	33.832
395.42	34.495
395.78	34.186
396.14	33.928
396.50	34.086
396.85	33.751
397.21	33.432
397.57	33.981
397.92	34.708
398.28	34.329
398.64	33.867
399.00	33.665
399.35	33.665
399.71	34.348
400.07	34.868
400.42	34.342
400.78	34.606
401.14	33.808
401.49	33.485
401.85	35.581
402.21	35.052
402.57	35.270
402.92	34.279
403.28	33.489
403.63	34.308
403.99	34.561
404.35	34.338
404.70	34.901
405.06	34.022
405.42	34.719
405.77	34.624
406.13	34.198
406.49	34.572
406.84	35.346
407.20	34.656
407.55	34.949
407.91	35.261
408.27	35.159
408.62	34.671
408.98	35.984
409.34	34.604
409.69	34.549
410.05	35.463
410.40	36.195
410.76	34.829
411.11	35.944
411.47	34.828
411.83	36.390
412.18	36.627
412.54	34.795
412.89	35.215
413.25	35.722
413.60	35.899
413.96	35.431
414.31	36.204
414.67	35.540
415.03	35.877
415.38	36.696
415.74	35.308
416.09	36.212
416.45	35.504
416.80	35.373
417.16	35.632
417.51	36.177
417.87	36.665
418.22	36.108
418.58	36.617
418.93	36.321
419.29	37.423
419.64	35.834
420.00	36.795
420.35	36.440
420.71	36.186
421.06	35.998
421.42	37.041
421.77	36.403
422.12	36.152
422.48	36.559
422.83	37.240
423.19	36.711
423.54	37.832
423.90	36.610
424.25	37.493
424.61	37.256
424.96	36.848
425.31	37.420
425.67	36.769
426.02	37.687
426.38	37.371
426.73	36.663
427.09	37.889
427.44	36.920
427.79	36.595
428.15	36.587
428.50	37.584
428.85	36.625
429.21	38.138
429.56	37.117
429.92	37.690
430.27	38.458
430.62	37.811
430.98	37.678
431.33	37.341
431.68	36.830
432.04	39.005
432.39	38.190
432.74	37.614
433.10	37.426
433.45	37.291
433.80	38.197
434.16	38.275
434.51	37.821
434.86	39.197
435.22	39.745
435.57	38.620
435.92	38.843
436.28	39.078
436.63	38.558
436.98	37.574
437.34	38.444
437.69	37.920
438.04	37.864
438.39	38.024
438.75	38.517
439.10	38.953
439.45	39.352
439.81	37.853
440.16	38.231
440.51	39.075
440.86	38.466
441.22	38.960
441.57	38.994
441.92	37.827
442.27	39.949
442.63	39.841
442.98	38.847
443.33	39.506
443.68	39.544
444.03	39.746
444.39	39.297
444.74	39.867
445.09	39.128
445.44	39.410
445.79	39.416
446.15	38.849
446.50	38.760
446.85	39.640
447.20	39.652
447.55	39.592
447.91	39.319
448.26	39.852
448.61	39.639
448.96	40.343
449.31	39.767
449.66	38.943
450.02	40.823
450.37	39.904
450.72	39.828
451.07	40.262
451.42	39.284
451.77	38.911
452.12	39.334
452.47	39.394
452.83	40.709
453.18	39.288
453.53	39.747
453.88	39.757
454.23	40.734
454.58	40.104
454.93	39.442
455.28	39.374
455.63	40.648
455.98	40.391
456.34	40.754
456.69	39.800
457.04	41.608
457.39	40.022
457.74	41.331
458.09	40.198
458.44	41.272
458.79	39.608
459.14	39.801
459.49	40.238
459.84	40.189
460.19	41.199
460.54	40.943
460.89	40.815
461.24	40.460
461.59	41.063
461.94	39.076
462.29	40.817
462.64	40.616
462.99	39.422
463.34	40.883
463.69	39.508
464.04	39.744
464.39	40.303
464.74	39.681
465.09	40.773
465.44	41.202
465.79	40.666
466.14	40.334
466.49	40.368
466.84	41.047
467.19	41.272
467.54	38.954
467.89	40.460
468.24	42.105
468.59	40.475
468.94	40.326
469.29	41.812
469.64	41.195
469.99	41.810
470.34	41.399
470.68	41.422
471.03	42.109
471.38	41.923
471.73	40.312
472.08	41.307
472.43	40.759
472.78	40.932
473.13	42.162
473.48	41.873
473.83	41.439
474.17	41.266
474.52	43.175
474.87	41.251
475.22	41.634
475.57	41.693
475.92	40.966
476.27	41.321
476.61	41.537
476.96	42.231
477.31	41.634
477.66	42.078
478.01	42.145
478.36	41.276
478.70	41.921
479.05	42.587
479.40	42.201
479.75	41.595
480.10	41.497
480.45	41.203
480.79	40.952
481.14	41.406
481.49	42.572
481.84	41.601
482.19	42.237
482.53	41.976
482.88	42.136
483.23	41.574
483.58	42.402
483.92	40.913
484.27	41.914
484.62	42.120
484.97	41.213
485.31	40.760
485.66	38.671
486.01	37.802
486.36	38.160
486.70	39.563
487.05	41.640
487.40	40.632
487.75	41.221
488.09	41.195
488.44	40.074
488.79	41.551
489.13	40.949
489.48	41.359
489.83	41.288
490.17	42.284
490.52	41.995
490.87	42.343
491.22	42.981
491.56	42.619
491.91	42.477
492.26	42.968
492.60	42.457
492.95	41.729
493.30	41.999
493.64	42.663
493.99	42.719
494.34	41.943
494.68	41.285
495.03	42.996
495.37	43.187
495.72	43.220
496.07	42.945
496.41	41.828
496.76	42.952
497.11	42.463
497.45	41.692
497.80	43.447
498.14	43.583
498.49	42.325
498.84	42.824
499.18	42.780
499.53	42.870
499.87	41.890
500.22	41.941
500.56	42.735
500.91	42.471
501.26	43.955
501.60	42.643
501.95	42.944
502.29	42.606
502.64	42.589
502.98	42.192
503.33	41.296
503.67	42.303
504.02	42.820
504.36	43.119
504.71	43.041
505.06	43.201
505.40	42.505
505.75	42.851
506.09	43.508
506.44	42.990
506.78	43.440
507.13	43.338
507.47	43.534
507.82	43.087
508.16	42.878
508.51	43.132
508.85	43.836
509.19	43.439
509.54	43.468
509.88	43.273
510.23	44.099
510.57	43.499
510.92	44.122
511.26	43.434
511.61	42.347
511.95	42.899
512.30	45.150
512.64	44.078
512.98	43.622
513.33	45.010
513.67	44.773
514.02	45.069
514.36	43.223
514.70	44.583
515.05	44.369
515.39	45.039
515.74	44.327
516.08	45.219
516.42	45.421
516.77	46.109
517.11	44.507
517.46	45.175
517.80	45.430
518.14	45.267
518.49	46.095
518.83	43.853
519.17	45.342
519.52	45.335
519.86	44.298
520.20	45.367
520.55	45.071
520.89	46.622
521.23	44.333
521.58	46.045
521.92	45.892
522.26	44.960
522.61	46.412
522.95	45.732
523.29	46.724
523.64	45.291
523.98	45.693
524.32	46.762
524.66	44.849
525.01	44.507
525.35	45.261
525.69	44.722
526.04	45.580
526.38	46.092
526.72	45.905
527.06	46.862
527.41	45.714
527.75	46.615
528.09	45.218
528.43	45.411
528.78	44.566
529.12	44.897
529.46	44.857
529.80	45.137
530.15	45.333
530.49	45.967
530.83	44.746
531.17	44.922
531.51	46.270
531.86	45.553
532.20	46.159
532.54	45.901
532.88	46.000
533.22	44.903
533.57	43.912
533.91	45.398
534.25	45.732
534.59	45.057
534.93	44.312
535.27	43.718
535.62	44.741
535.96	45.555
536.30	44.242
536.64	45.766
536.98	46.310
537.32	45.556
537.66	45.664
538.01	44.773
538.35	44.945
538.69	44.591
539.03	46.107
539.37	44.700
539.71	44.505
540.05	45.743
540.39	44.010
540.73	44.505
541.07	44.513
541.42	44.300
541.76	43.832
542.10	44.089
542.44	43.849
542.78	45.499
543.12	43.981
543.46	45.238
543.80	43.645
544.14	43.686
544.48	43.499
544.82	44.943
545.16	45.975
545.50	44.398
545.84	43.172
546.18	45.679
546.52	44.713
546.86	44.214
547.20	45.038
547.54	44.632
547.88	43.942
548.22	44.094
548.56	43.827
548.90	42.448
549.24	45.653
549.58	44.290
549.92	45.408
550.26	44.725
550.60	43.969
550.94	45.602
551.28	44.554
551.62	45.889
551.96	44.401
552.30	45.379
552.64	43.871
552.98	45.165
553.32	45.981
553.66	44.373
554.00	44.010
554.34	44.402
554.68	43.641
555.02	45.532
555.36	45.036
555.69	43.498
556.03	43.443
556.37	43.617
556.71	44.578
557.05	44.920
557.39	44.194
557.73	43.461
558.07	43.576
558.41	43.787
558.75	45.030
559.08	46.277
559.42	43.759
559.76	44.030
560.10	43.603
560.44	43.799
560.78	43.500
561.12	43.534
561.45	42.762
561.79	42.491
562.13	44.116
562.47	42.725
562.81	44.367
563.15	43.434
563.48	43.630
563.82	43.349
564.16	41.793
564.50	43.325
564.84	43.127
565.17	42.824
565.51	42.348
565.85	43.052
566.19	41.647
566.52	42.774
566.86	43.181
567.20	41.816
567.54	41.742
567.88	42.661
568.21	41.996
568.55	41.295
568.89	41.353
569.23	40.515
569.56	40.289
569.90	39.594
570.24	39.663
570.57	38.582
570.91	38.151
571.25	37.923
571.59	38.575
571.92	37.713
572.26	36.977
572.60	37.892
572.93	37.824
573.27	37.848
573.61	37.057
573.95	37.048
574.28	36.440
574.62	36.585
574.96	36.061
575.29	36.594
575.63	36.983
575.97	37.078
576.30	36.689
576.64	36.722
576.98	36.674
577.31	36.640
577.65	36.422
577.98	35.919
578.32	35.576
578.66	35.846
578.99	35.941
579.33	36.772
579.67	36.650
580.00	36.165
580.34	36.693
580.67	36.077
581.01	36.218
581.35	35.515
581.68	35.563
582.02	35.179
582.35	35.597
582.69	36.401
583.02	36.255
583.36	36.188
583.70	36.719
584.03	36.381
584.37	36.435
584.70	35.770
585.04	36.503
585.37	36.014
585.71	35.728
586.04	35.931
586.38	35.562
586.72	35.498
587.05	36.633
587.39	36.849
587.72	36.435
588.06	36.388
588.39	36.296
588.73	35.661
589.06	36.315
589.40	37.431
589.73	37.018
590.07	36.804
590.40	37.221
590.73	37.646
591.07	37.453
591.40	37.364
591.74	37.003
592.07	37.475
592.41	37.106
592.74	36.706
593.08	35.828
593.41	36.016
593.75	35.374
594.08	37.110
594.41	36.026
594.75	36.898
595.08	36.810
595.42	36.429
595.75	36.874
596.09	36.835
596.42	37.728
596.75	37.514
597.09	37.939
597.42	37.147
597.75	37.162
598.09	37.262
598.42	37.475
598.76	35.728
599.09	35.956
599.42	35.434
599.76	35.127
600.09	35.636
600.42	35.335
600.76	35.964
601.09	35.878
601.42	35.359
601.76	36.034
602.09	35.490
602.42	35.914
602.76	36.421
603.09	35.866
603.42	36.236
603.76	36.998
604.09	36.302
604.42	36.037
604.76	36.339
605.09	36.338
605.42	37.201
605.75	35.654
606.09	34.938
606.42	35.534
606.75	34.483
607.09	35.868
607.42	35.645
607.75	35.756
608.08	35.478
608.42	35.711
608.75	36.194
609.08	36.375
609.41	36.039
609.75	35.938
610.08	37.379
610.41	35.726
610.74	36.092
611.07	35.835
611.41	36.637
611.74	36.998
612.07	36.933
612.40	36.787
612.73	38.093
613.07	37.017
613.40	37.873
613.73	36.880
614.06	36.359
614.39	36.297
614.72	36.875
615.06	35.371
615.39	36.539
615.72	35.640
616.05	36.425
616.38	37.386
616.71	36.729
617.05	35.836
617.38	37.132
617.71	36.717
618.04	36.751
618.37	37.213
618.70	37.726
619.03	37.814
619.36	36.991
619.69	37.284
620.03	37.100
620.36	36.258
620.69	37.323
621.02	38.451
621.35	40.203
621.68	39.190
622.01	37.651
622.34	37.796
622.67	39.107
623.00	37.517
623.33	38.752
623.66	38.457
623.99	38.117
624.32	38.661
624.65	36.680
624.99	37.386
625.32	37.688
625.65	37.626
625.98	39.254
626.31	39.192
626.64	39.707
626.97	39.235
627.30	38.573
627.63	37.134
627.96	39.114
628.29	39.377
628.62	39.966
628.95	39.351
629.28	39.422
629.61	40.404
629.94	38.243
630.26	39.661
630.59	39.551
630.92	38.355
631.25	39.893
631.58	41.808
631.91	40.769
632.24	41.402
632.57	38.899
632.90	39.318
633.23	42.959
633.56	39.694
633.89	40.599
634.22	40.956
634.55	40.814
634.88	40.693
635.20	42.519
635.53	43.164
635.86	41.603
636.19	40.509
636.52	40.506
636.85	39.428
637.18	38.462
637.51	42.258
637.83	40.532
638.16	41.129
638.49	42.019
638.82	38.444
639.15	40.779
639.48	40.647
639.81	39.723
640.13	41.343
640.46	37.697
640.79	39.216
641.12	41.118
641.45	40.652
641.77	43.261
642.10	40.682
642.43	41.489
642.76	41.734
643.09	41.233
643.41	42.437
643.74	41.931
644.07	42.483
644.40	42.150
644.73	41.655
645.05	42.291
645.38	41.295
645.71	42.522
646.04	41.463
646.36	40.146
646.69	42.791
647.02	43.425
647.35	42.595
647.67	40.419
648.00	43.312
648.33	39.640
648.66	37.803
648.98	38.912
649.31	40.866
649.64	38.114
649.96	39.390
650.29	39.638
650.62	40.170
650.94	40.691
651.27	38.024
651.60	38.743
651.92	40.122
652.25	38.929
652.58	37.139
652.90	38.953
653.23	38.028
653.56	38.944
653.88	41.994
654.21	38.028
654.54	39.595
654.86	40.793
655.19	36.888
655.52	35.435
655.84	29.954
656.17	33.989
656.49	48.222
656.82	53.432
657.15	42.387
657.47	32.627
657.80	24.427
658.13	19.574
658.45	25.968
658.78	32.819
659.10	31.382
659.43	32.136
659.75	32.266
660.08	31.597
660.41	33.168
660.73	34.892
661.06	37.885
661.38	37.480
661.71	38.621
662.03	40.035
662.36	39.535
662.68	39.775
663.01	39.292
663.33	41.021
663.66	40.842
663.98	40.385
664.31	41.276
664.63	37.765
664.96	39.383
665.28	37.568
665.61	37.762
665.93	38.929
666.26	40.681
666.58	37.638
666.91	42.056
667.23	37.524
667.56	40.828
667.88	41.600
668.21	36.523
668.53	38.996
668.86	41.650
669.18	38.289
669.50	41.153
669.83	39.200
670.15	39.173
670.48	38.095
670.80	38.050
671.13	36.862
671.45	37.008
671.77	39.736
672.10	34.667
672.42	35.922
672.75	34.562
673.07	36.866
673.39	34.206
673.72	38.255
674.04	38.621
674.37	39.356
674.69	38.095
675.01	38.857
675.34	37.214
675.66	36.517
675.98	36.940
676.31	38.672
676.63	37.452
676.95	39.464
677.28	38.105
677.60	35.827
677.92	36.276
678.25	36.197
678.57	35.053
678.89	37.543
679.22	34.146
679.54	38.120
679.86	34.746
680.18	36.153
680.51	34.906
680.83	36.661
681.15	36.897
681.48	37.997
681.80	36.097
682.12	36.364
682.44	33.890
682.77	36.170
683.09	34.470
683.41	38.372
683.73	34.725
684.06	34.686
684.38	34.168
684.70	38.241
685.02	36.489
685.34	34.443
685.67	32.492
685.99	32.209
686.31	32.994
686.63	32.070
686.96	34.227
687.28	35.342
687.60	32.828
687.92	30.547
688.24	34.391
688.56	35.000
688.89	34.301
689.21	37.573
689.53	32.157
689.85	34.714
690.17	35.000
690.49	34.661
690.82	34.851
691.14	34.615
691.46	34.034
691.78	33.886
692.10	33.028
692.42	34.107
692.74	34.846
693.06	33.704
693.39	34.535
693.71	31.767
694.03	34.201
694.35	33.905
694.67	35.934
694.99	34.894
695.31	33.113
695.63	35.065
695.95	32.712
696.27	33.187
696.59	33.407
696.91	34.685
697.23	36.484
697.56	33.401
697.88	31.629
698.20	31.450
698.52	33.523
698.84	34.511
699.16	34.082
699.48	33.891
699.80	30.638
700.12	34.934
700.44	31.336
700.76	36.580
701.08	32.688
701.40	35.751
701.72	34.826
702.04	32.620
702.36	32.461
702.68	33.252
703.00	31.785
703.32	34.483
703.64	31.051
703.96	29.833
704.28	33.415
704.60	34.177
704.91	31.122
705.23	36.164
705.55	33.426
705.87	34.242
706.19	31.902
706.51	28.012
706.83	30.259
707.15	32.540
707.47	28.505
707.79	28.603
708.11	29.025
708.43	30.108
708.74	29.464
709.06	31.323
709.38	31.925
709.70	35.732
710.02	30.233
710.34	30.851
710.66	29.330
710.98	31.148
711.29	31.319
711.61	31.921
711.93	33.618
712.25	28.919
712.57	33.923
712.89	35.294
713.20	27.219
713.52	32.948
713.84	34.819
714.16	30.526
714.48	29.124
714.80	28.831
715.11	30.971
715.43	29.178
715.75	28.158
716.07	28.453
716.39	30.055
716.70	29.819
717.02	28.525
717.34	28.571
717.66	26.510
717.97	23.973
718.29	27.491
718.61	30.592
718.93	26.537
719.24	29.193
719.56	26.074
719.88	30.631
720.20	31.290
720.51	27.640
720.83	31.563
721.15	30.921
721.46	24.658
721.78	27.333
722.10	27.832
722.42	25.168
722.73	25.161
723.05	27.368
723.37	27.083
723.68	30.824
724.00	29.603
724.32	25.000
724.63	25.524
724.95	24.823
725.27	28.571
725.58	25.088
725.90	27.241
726.22	27.586
726.53	26.623
726.85	27.673
727.16	25.982
727.48	28.135
727.80	26.490
728.11	24.028
728.43	27.273
728.74	25.418
729.06	25.828
729.38	28.571
729.69	27.517
730.01	25.893
730.32	25.455
730.64	24.214
730.96	26.087
731.27	26.257
731.59	24.176
731.90	24.416
732.22	24.219
732.53	21.271
732.85	26.571
733.16	27.273
733.48	25.305
733.80	24.791
734.11	25.356
734.43	25.405
734.74	25.570
735.06	24.121
735.37	25.676
735.69	25.946
736.00	27.684
736.32	27.224
736.63	22.500
736.95	24.713
737.26	27.576
737.58	22.121
737.89	26.471
738.21	24.465
738.52	22.623
738.83	25.939
739.15	24.113
739.46	25.850
739.78	23.620
740.09	23.496
740.41	25.656
740.72	23.667
741.04	29.126
741.35	25.965
741.66	20.000
741.98	23.361
742.29	25.523
742.61	27.632
742.92	25.769
743.23	21.661
743.55	28.295
743.86	24.000
744.18	19.835
744.49	17.722
744.80	23.457
745.12	19.831
745.43	28.862
745.74	25.431
746.06	22.881
746.37	26.582
746.68	26.016
747.00	23.750
747.31	25.751
747.62	27.308
747.94	28.340
748.25	23.293
748.56	20.816
748.88	23.504
749.19	24.569
749.50	21.645
749.82	21.687
750.13	26.335
750.44	19.333
750.75	23.385
751.07	26.154
751.38	22.713
751.69	23.962
752.01	22.006
752.32	24.837
752.63	24.490
752.94	23.183
753.26	22.677
753.57	24.815
753.88	22.097
754.19	17.685
754.51	22.186
754.82	23.473
755.13	22.951
755.44	23.208
755.75	23.684
756.07	22.090
756.38	22.013
756.69	24.398
757.00	21.053
757.31	17.760
757.63	20.205
757.94	21.362
758.25	26.637
758.56	19.172
758.87	22.955
759.18	22.133
759.50	25.496
759.81	24.650
760.12	25.606
760.43	23.698
760.74	20.936
761.05	19.500
761.36	19.518
761.67	19.289
761.99	19.730
762.30	19.207
762.61	17.492
762.92	22.388
763.23	18.727
763.54	21.223
763.85	17.182
764.16	19.865
764.47	19.366
764.78	23.962
765.10	20.821
765.41	23.333
765.72	16.931
766.03	22.034
766.34	20.063
766.65	19.164
766.96	20.319
767.27	18.433
767.58	17.413
767.89	23.077
768.20	21.596
768.51	16.667
768.82	22.490
769.13	18.561
769.44	11.154
769.75	22.383
770.06	18.846
770.37	25.984
770.68	16.170
770.99	15.789
771.30	21.852
771.61	15.970
771.92	18.519
772.23	23.887
772.54	14.815
772.85	21.198
773.16	23.333
773.47	13.757
773.78	11.892
774.09	23.864
774.39	26.500
774.70	11.475
775.01	19.512
775.32	12.941
775.63	17.791
775.94	10.191
776.25	18.065
776.56	17.949
776.87	12.925
777.18	15.862
777.48	12.587
777.79	14.865
778.10	10.294
778.41	13.889
778.72	12.414
779.03	11.728
779.34	14.545
779.65	16.580
779.95	20.000
780.26	14.205
780.57	16.774
780.88	7.971
781.19	11.613
781.50	19.412
781.80	17.204
782.11	17.989
782.42	10.101
782.73	8.982
783.04	12.849
783.34	12.121
783.65	11.111
783.96	11.801
784.27	7.738
784.57	12.583
784.88	10.714
785.19	7.087
785.50	9.449
785.81	15.038
786.11	10.000
786.42	2.158
786.73	10.072
787.04	6.767
787.34	6.557
787.65	10.400
787.96	14.925
788.26	13.986
788.57	15.385
788.88	10.526
789.19	11.111
789.49	8.219
789.80	7.801
790.11	8.661
790.41	11.719
790.72	6.780
791.03	-8.738
791.33	3.478
791.64	3.509
791.95	8.929
792.25	2.857
792.56	6.250
792.87	8.333
793.17	8.929
793.48	3.125
793.79	-20.482
794.09	-0.917
794.40	10.092
794.70	12.245
795.01	3.896
795.32	5.479
795.62	5.634
795.93	8.333
796.23	6.557
796.54	-7.143
796.85	-9.574
797.15	1.087
797.46	-4.110
797.76	-5.000
798.07	0.000
798.37	-15.464
798.68	-2.597
798.99	-6.897
799.29	4.494
799.60	-1.064
799.90	0.000
800.21	-15.385
800.51	-7.463
800.82	-22.059
801.12	-19.178
801.43	-10.294
801.73	-15.254
802.04	-6.061
802.34	-26.667
802.65	-20.339
802.95	-7.463
803.26	-3.390
803.56	-8.219
803.87	-2.857
804.17	-5.479
804.48	-21.053
804.78	-5.556
805.09	-18.966
805.39	-2.703
805.70	-22.535
806.00	1.220
806.30	-3.614
806.61	-12.329
806.91	-2.885
807.22	-3.333
807.52	-20.690
807.83	-4.167
808.13	12.048
808.43	1.124
808.74	-6.250
809.04	-23.529
809.35	-10.667
809.65	-4.286
809.95	9.589
810.26	-22.807
810.56	-12.069
810.86	5.882
811.17	-22.807
811.47	-32.787
811.77	-42.222
812.08	-10.169
812.38	-6.667
812.69	-15.517
812.99	-32.075
813.29	-25.641
813.59	-6.000
813.90	-12.281
814.20	-21.818
814.50	1.408
814.81	-6.410
815.11	-6.557
815.41	-13.433
815.72	-6.897
816.02	-14.286
816.32	-15.556
816.62	-22.727
816.93	-37.778
817.23	-5.556
817.53	-17.021
817.84	-14.286
818.14	-8.824
818.44	-38.776
818.74	-28.889
819.04	-71.795
819.35	-45.714
819.65	-92.308
819.95	-30.189
820.25	-31.111
820.56	-35.714
820.86	-75.000
821.16	-28.205
821.46	-41.860
821.76	-44.000
822.07	-32.143
822.37	-41.304
822.67	-29.787
822.97	-75.676
823.27	-55.000
823.57	-30.612
823.88	-11.111
824.18	-45.000
824.48	-53.333
824.78	-84.000
825.08	-63.636
825.38	-11.111
825.69	-8.511
825.99	-19.444
826.29	-62.857
826.59	-43.590
826.89	-48.837
827.19	-42.000
827.49	-55.882
827.79	-18.750
828.09	-56.757
828.39	-73.333
828.70	-48.780
829.00	-30.233
829.30	-71.429
829.60	-55.882
829.90	-30.435
830.20	-60.000
830.50	-75.862
830.80	-172.222
831.10	-69.231
831.40	-47.059
831.70	-90.476
832.00	-41.935
832.30	-194.118
832.60	-87.500
832.90	-192.308
833.20	-105.263
833.50	-110.000
833.80	-136.842
834.10	-176.190
834.40	-50.000
834.70	-46.875
835.00	-48.571
835.30	-5.882
835.60	-63.333
835.90	-68.000
836.20	-118.182
836.50	-80.000
836.80	-60.606
837.10	-85.185
837.40	-44.444
837.70	-181.250
838.00	-53.571
838.30	-86.957
838.60	-58.621
838.90	-157.143
839.19	-152.174
839.49	-225.000
839.79	-73.913
840.09	-200.000
840.39	-65.000
840.69	-35.484
840.99	-100.000
841.29	-166.667
841.59	-115.789
841.88	-38.462
842.18	-76.923
842.48	-260.000
842.78	-150.000
843.08	-73.333
843.38	-35.484
843.68	-144.444
843.97	-50.000
844.27	-100.000
844.57	-126.316
844.87	-300.000
845.17	-146.667
845.47	-61.905
845.76	-123.810
846.06	-200.000
846.36	-141.176
846.66	-61.538
846.96	-126.667
847.25	-147.059
847.55	-47.826
847.85	-110.000
848.15	-100.000
848.44	-190.909
848.74	-76.190
849.04	-62.500
849.34	-150.000
849.63	-104.348
849.93	1500.000
850.23	-146.667
850.53	-46.154
850.82	-227.273
851.12	-90.909
851.42	-236.364
851.71	-138.462
852.01	-160.000
852.31	-200.000
852.61	-184.211
852.90	-125.000
853.20	-116.667
853.50	-377.778
853.79	-128.571
854.09	-109.091
854.39	-275.000
854.68	-61.290
854.98	-80.769
855.28	-77.778
855.57	-64.286
855.87	-84.000
856.17	-86.364
856.46	-74.074
856.76	-116.667
857.05	-108.696
857.35	-125.000
857.65	-200.000
857.94	-90.476
858.24	-70.370
858.53	-95.652
858.83	-170.588
859.13	-105.882
859.42	-117.647
859.72	-157.143
860.01	-130.000
860.31	-333.333
860.60	-290.000
860.90	-166.667
861.20	-83.333
861.49	-138.462
861.79	-63.333
862.08	-261.538
862.38	-46.875
862.67	-135.294
862.97	-181.250
863.26	-322.222
863.56	-220.000
863.85	-172.727
864.15	-144.444
864.44	-1000.000
864.74	-164.286
865.03	-156.250
865.33	-250.000
865.62	-70.968
865.92	-72.727
866.21	-69.565
866.51	-185.714
866.80	-680.000
867.10	-166.667
867.39	-250.000
867.69	2500.000
867.98	-428.571
868.27	-88.235
868.57	-3600.000
868.86	-350.000
869.16	-138.095
869.45	-79.167
869.75	-172.727
870.04	-328.571
870.33	-175.000
870.63	-500.000
870.92	-575.000
871.22	-287.500
871.51	-227.273
871.80	-1133.333
872.10	-1400.000
>>>>>End Processed Spectral Data<<<<<
