SpectraSuite Data File
++++++++++++++++++++++++++++++++++++
Date: Thu May 14 16:03:24 PDT 2015
User: schluterlab
Dark Spectrum Present: Yes
Reference Spectrum Present: Yes
Number of Sampled Component Spectra: 1
Spectrometers: USB2E3373
Integration Time (usec): 3000 (USB2E3373)
Spectra Averaged: 3 (USB2E3373)
Boxcar Smoothing: 0 (USB2E3373)
Correct for Electrical Dark: No (USB2E3373)
Strobe/Lamp Enabled: No (USB2E3373)
Correct for Detector Non-linearity: No (USB2E3373)
Correct for Stray Light: No (USB2E3373)
Number of Pixels in Processed Spectrum: 2048
>>>>>Begin Processed Spectral Data<<<<<
178.53	0.000
178.91	171.429
179.29	-1900.000
179.67	-1800.000
180.04	142.857
180.42	130.000
180.80	400.000
181.18	-1900.000
181.56	-800.000
181.94	425.000
182.31	-100.000
182.69	400.000
183.07	-850.000
183.45	475.000
183.83	-216.667
184.20	-300.000
184.58	700.000
184.96	-450.000
185.34	-244.444
185.72	-280.000
186.09	333.333
186.47	1050.000
186.85	240.000
187.23	-222.222
187.61	-2400.000
187.98	300.000
188.36	400.000
188.74	-350.000
189.12	-266.667
189.49	-31.250
189.87	-137.500
190.25	-44.444
190.63	-300.000
191.00	-255.556
191.38	0.000
191.76	-500.000
192.14	-250.000
192.51	850.000
192.89	-166.667
193.27	0.000
193.65	-185.714
194.02	-2400.000
194.40	-100.000
194.78	171.429
195.15	0.000
195.53	-63.636
195.91	0.000
196.29	-325.000
196.66	-76.923
197.04	-1500.000
197.42	-114.286
197.79	0.000
198.17	-225.000
198.55	-257.143
198.92	-77.778
199.30	-137.500
199.68	0.000
200.05	-42.857
200.43	-800.000
200.81	314.286
201.18	0.000
201.56	211.111
201.94	0.000
202.31	700.000
202.69	-211.111
203.07	1100.000
203.44	-155.556
203.82	-200.000
204.19	-108.333
204.57	-216.667
204.95	-275.000
205.32	-1900.000
205.70	450.000
206.08	-150.000
206.45	-333.333
206.83	480.000
207.20	-66.667
207.58	-180.000
207.96	-433.333
208.33	-133.333
208.71	75.000
209.08	16.667
209.46	0.000
209.84	366.667
210.21	900.000
210.59	600.000
210.96	733.333
211.34	-500.000
211.71	-250.000
212.09	-1500.000
212.46	0.000
212.84	1300.000
213.22	-280.000
213.59	-300.000
213.97	-70.000
214.34	-533.333
214.72	283.333
215.09	-350.000
215.47	0.000
215.84	100.000
216.22	1500.000
216.59	-400.000
216.97	-300.000
217.34	-250.000
217.72	-100.000
218.09	-400.000
218.47	-475.000
218.84	0.000
219.22	280.000
219.59	-47.059
219.97	-10.000
220.34	700.000
220.72	-122.222
221.09	-61.538
221.47	-400.000
221.84	-180.000
222.22	-285.714
222.59	0.000
222.97	-125.000
223.34	-280.000
223.72	-1300.000
224.09	-250.000
224.46	-500.000
224.84	20.000
225.21	-271.429
225.59	-475.000
225.96	-250.000
226.34	-15.385
226.71	216.667
227.08	-700.000
227.46	-80.000
227.83	-325.000
228.21	-47.368
228.58	187.500
228.95	750.000
229.33	-50.000
229.70	-150.000
230.08	5.263
230.45	140.000
230.82	-433.333
231.20	-78.571
231.57	-58.333
231.95	-181.818
232.32	-81.818
232.69	5.000
233.07	-325.000
233.44	-29.412
233.81	-90.000
234.19	5.556
234.56	-22.727
234.93	-6.897
235.31	-31.579
235.68	-11.111
236.05	-115.000
236.43	-11.538
236.80	16.000
237.17	-29.630
237.55	12.121
237.92	-140.000
238.29	-38.710
238.67	-13.636
239.04	11.111
239.41	-21.429
239.79	-19.565
240.16	5.556
240.53	-2.174
240.91	-15.686
241.28	0.000
241.65	-1.493
242.02	21.622
242.40	3.077
242.77	2.667
243.14	2.439
243.51	0.000
243.89	15.385
244.26	23.762
244.63	13.725
245.00	1.869
245.38	13.158
245.75	-0.885
246.12	13.492
246.49	12.403
246.87	15.714
247.24	17.219
247.61	11.184
247.98	9.396
248.36	17.284
248.73	9.202
249.10	11.475
249.47	24.876
249.84	23.560
250.22	15.544
250.59	12.222
250.96	16.364
251.33	14.286
251.70	16.239
252.08	19.583
252.45	20.902
252.82	14.876
253.19	14.453
253.56	19.011
253.94	15.000
254.31	18.939
254.68	19.231
255.05	23.779
255.42	19.048
255.79	16.505
256.16	17.550
256.54	16.887
256.91	19.344
257.28	16.721
257.65	20.382
258.02	12.389
258.39	20.798
258.76	18.960
259.14	22.126
259.51	20.749
259.88	17.564
260.25	19.444
260.62	18.904
260.99	21.038
261.36	21.180
261.73	18.568
262.10	20.879
262.47	20.643
262.85	18.434
263.22	19.221
263.59	17.632
263.96	21.995
264.33	20.972
264.70	20.494
265.07	22.196
265.44	21.769
265.81	20.139
266.18	20.408
266.55	22.098
266.92	18.451
267.29	21.882
267.66	20.177
268.03	20.087
268.40	22.547
268.77	17.768
269.14	17.181
269.51	21.272
269.88	21.926
270.25	19.517
270.62	22.152
270.99	21.414
271.36	19.604
271.73	20.629
272.10	22.244
272.47	20.240
272.84	19.679
273.21	20.441
273.58	19.758
273.95	18.269
274.32	20.152
274.69	18.182
275.06	21.062
275.43	20.148
275.80	20.459
276.17	19.630
276.54	19.776
276.91	20.215
277.28	18.807
277.65	21.185
278.02	20.772
278.39	19.928
278.76	21.265
279.13	19.504
279.50	20.962
279.87	19.141
280.23	16.549
280.60	20.339
280.97	20.395
281.34	19.355
281.71	23.689
282.08	18.937
282.45	19.313
282.82	19.780
283.19	18.578
283.56	19.836
283.92	21.772
284.29	21.959
284.66	21.675
285.03	18.590
285.40	17.929
285.77	19.350
286.14	20.000
286.51	19.330
286.87	18.957
287.24	18.825
287.61	17.489
287.98	17.523
288.35	18.787
288.72	18.491
289.08	19.327
289.45	17.308
289.82	19.578
290.19	18.247
290.56	18.310
290.93	17.832
291.29	18.044
291.66	17.493
292.03	17.368
292.40	20.000
292.77	15.903
293.13	17.185
293.50	16.820
293.87	16.242
294.24	19.867
294.60	16.688
294.97	13.691
295.34	17.286
295.71	16.772
296.08	16.537
296.44	17.157
296.81	15.834
297.18	17.186
297.55	16.392
297.91	16.251
298.28	13.507
298.65	16.647
299.02	14.876
299.38	14.989
299.75	16.472
300.12	14.815
300.48	16.244
300.85	16.760
301.22	17.002
301.59	14.954
301.95	15.932
302.32	16.222
302.69	15.005
303.05	16.431
303.42	16.741
303.79	15.937
304.15	15.563
304.52	15.328
304.89	15.602
305.25	16.563
305.62	16.405
305.99	16.082
306.35	14.516
306.72	16.339
307.09	15.431
307.45	16.667
307.82	16.549
308.19	15.943
308.55	16.683
308.92	17.332
309.29	15.326
309.65	15.692
310.02	15.248
310.38	16.142
310.75	16.019
311.12	17.450
311.48	16.422
311.85	16.239
312.22	16.888
312.58	17.089
312.95	16.826
313.31	18.067
313.68	16.667
314.05	18.970
314.41	19.035
314.78	17.711
315.14	18.693
315.51	18.837
315.87	19.622
316.24	19.361
316.61	20.959
316.97	19.548
317.34	19.312
317.70	21.048
318.07	21.605
318.43	22.024
318.80	21.990
319.16	22.575
319.53	20.051
319.89	21.911
320.26	22.865
320.62	22.695
320.99	23.823
321.35	23.383
321.72	25.209
322.08	24.527
322.45	26.920
322.81	26.986
323.18	27.611
323.54	27.328
323.91	27.491
324.27	28.399
324.64	29.051
325.00	27.612
325.37	28.419
325.73	30.000
326.10	30.251
326.46	30.863
326.83	30.745
327.19	30.315
327.56	32.253
327.92	30.685
328.29	31.613
328.65	32.328
329.01	34.518
329.38	33.698
329.74	35.188
330.11	34.589
330.47	33.446
330.84	34.711
331.20	34.417
331.56	34.229
331.93	35.314
332.29	35.000
332.66	34.468
333.02	35.846
333.38	35.235
333.75	35.438
334.11	36.197
334.48	34.983
334.84	36.024
335.20	36.440
335.57	36.931
335.93	36.364
336.29	34.443
336.66	35.408
337.02	36.120
337.38	36.905
337.75	35.785
338.11	36.501
338.47	35.980
338.84	36.210
339.20	35.973
339.56	35.255
339.93	36.700
340.29	35.507
340.65	35.766
341.02	36.233
341.38	35.732
341.74	37.288
342.11	37.168
342.47	35.902
342.83	37.601
343.20	35.895
343.56	37.370
343.92	37.230
344.28	36.328
344.65	36.744
345.01	36.895
345.37	36.625
345.73	35.776
346.10	37.988
346.46	37.342
346.82	36.180
347.19	37.433
347.55	36.571
347.91	36.404
348.27	36.039
348.63	37.243
349.00	37.360
349.36	36.580
349.72	36.310
350.08	36.627
350.45	36.502
350.81	37.783
351.17	36.241
351.53	38.666
351.89	38.193
352.26	36.194
352.62	38.284
352.98	36.412
353.34	35.624
353.70	36.980
354.07	36.587
354.43	37.130
354.79	35.901
355.15	36.056
355.51	36.915
355.87	35.976
356.24	37.490
356.60	35.994
356.96	36.397
357.32	35.167
357.68	36.603
358.04	36.377
358.40	36.418
358.77	34.942
359.13	35.968
359.49	35.390
359.85	36.186
360.21	36.442
360.57	36.540
360.93	35.684
361.29	35.930
361.66	37.002
362.02	36.952
362.38	35.699
362.74	36.592
363.10	35.832
363.46	36.634
363.82	36.151
364.18	36.031
364.54	36.169
364.90	37.793
365.26	35.448
365.62	36.867
365.98	37.781
366.35	36.107
366.71	36.054
367.07	36.265
367.43	36.113
367.79	35.501
368.15	35.585
368.51	35.792
368.87	36.185
369.23	36.533
369.59	35.519
369.95	35.429
370.31	36.394
370.67	35.282
371.03	35.526
371.39	33.915
371.75	36.107
372.11	36.382
372.47	35.680
372.83	35.733
373.19	35.490
373.55	34.959
373.91	33.947
374.27	33.571
374.63	35.995
374.99	35.080
375.35	35.909
375.71	35.226
376.07	34.861
376.42	35.013
376.78	35.674
377.14	35.184
377.50	35.610
377.86	35.714
378.22	35.269
378.58	35.077
378.94	34.624
379.30	34.446
379.66	35.861
380.02	34.853
380.38	36.578
380.74	34.930
381.09	34.204
381.45	35.170
381.81	34.778
382.17	35.511
382.53	34.269
382.89	34.537
383.25	35.346
383.61	33.391
383.97	34.217
384.32	34.629
384.68	33.991
385.04	34.586
385.40	35.651
385.76	33.822
386.12	33.573
386.48	33.765
386.83	34.386
387.19	33.372
387.55	33.862
387.91	34.361
388.27	34.988
388.62	33.734
388.98	32.939
389.34	35.180
389.70	34.515
390.06	33.156
390.42	33.434
390.77	33.534
391.13	33.627
391.49	34.118
391.85	33.394
392.20	33.037
392.56	32.841
392.92	32.388
393.28	33.389
393.64	32.626
393.99	33.178
394.35	34.054
394.71	32.695
395.07	33.293
395.42	32.439
395.78	33.577
396.14	33.274
396.50	31.651
396.85	32.677
397.21	32.249
397.57	32.568
397.92	32.875
398.28	32.048
398.64	31.522
399.00	31.257
399.35	32.880
399.71	32.120
400.07	31.668
400.42	32.072
400.78	31.539
401.14	31.417
401.49	31.950
401.85	32.616
402.21	31.170
402.57	32.394
402.92	31.442
403.28	30.152
403.63	30.967
403.99	30.404
404.35	30.131
404.70	30.368
405.06	30.652
405.42	31.382
405.77	31.134
406.13	30.902
406.49	30.124
406.84	30.859
407.20	30.967
407.55	29.255
407.91	30.170
408.27	29.093
408.62	30.017
408.98	29.716
409.34	28.328
409.69	30.655
410.05	30.422
410.40	29.756
410.76	29.893
411.11	30.041
411.47	29.177
411.83	29.453
412.18	29.940
412.54	29.105
412.89	29.627
413.25	29.684
413.60	28.374
413.96	28.788
414.31	29.292
414.67	28.980
415.03	28.615
415.38	29.887
415.74	28.650
416.09	28.994
416.45	28.366
416.80	27.234
417.16	29.055
417.51	28.456
417.87	27.713
418.22	28.503
418.58	27.819
418.93	28.813
419.29	28.052
419.64	28.031
420.00	27.715
420.35	27.850
420.71	26.996
421.06	27.085
421.42	27.982
421.77	26.925
422.12	26.903
422.48	27.087
422.83	27.382
423.19	26.737
423.54	27.544
423.90	26.781
424.25	27.733
424.61	27.268
424.96	26.908
425.31	26.274
425.67	26.033
426.02	26.397
426.38	26.521
426.73	26.674
427.09	27.278
427.44	26.379
427.79	25.263
428.15	25.228
428.50	27.022
428.85	25.488
429.21	27.713
429.56	26.752
429.92	26.486
430.27	25.398
430.62	25.550
430.98	25.332
431.33	25.464
431.68	25.383
432.04	25.343
432.39	25.603
432.74	24.829
433.10	25.635
433.45	25.474
433.80	25.483
434.16	24.690
434.51	25.694
434.86	25.244
435.22	26.196
435.57	25.236
435.92	24.875
436.28	25.313
436.63	25.451
436.98	24.852
437.34	24.803
437.69	24.381
438.04	24.749
438.39	25.158
438.75	24.073
439.10	24.207
439.45	23.868
439.81	23.616
440.16	23.646
440.51	24.192
440.86	24.569
441.22	24.277
441.57	24.476
441.92	24.006
442.27	23.990
442.63	24.342
442.98	23.693
443.33	23.724
443.68	25.372
444.03	24.365
444.39	24.087
444.74	24.400
445.09	23.365
445.44	24.816
445.79	24.234
446.15	23.792
446.50	23.463
446.85	23.638
447.20	23.888
447.55	24.268
447.91	23.141
448.26	22.886
448.61	23.273
448.96	24.303
449.31	22.747
449.66	22.603
450.02	23.470
450.37	23.708
450.72	23.358
451.07	23.121
451.42	22.761
451.77	22.513
452.12	23.589
452.47	22.757
452.83	23.029
453.18	22.884
453.53	21.884
453.88	23.026
454.23	22.825
454.58	23.506
454.93	22.330
455.28	22.336
455.63	22.229
455.98	22.291
456.34	22.261
456.69	22.457
457.04	22.222
457.39	22.007
457.74	23.322
458.09	21.527
458.44	22.252
458.79	22.022
459.14	22.077
459.49	22.524
459.84	21.878
460.19	21.766
460.54	21.976
460.89	22.234
461.24	21.264
461.59	21.859
461.94	21.392
462.29	22.508
462.64	21.907
462.99	21.343
463.34	21.350
463.69	21.981
464.04	22.290
464.39	22.365
464.74	21.152
465.09	21.338
465.44	21.888
465.79	21.206
466.14	20.584
466.49	21.421
466.84	20.882
467.19	21.445
467.54	21.093
467.89	20.862
468.24	20.554
468.59	20.672
468.94	21.096
469.29	21.476
469.64	20.788
469.99	20.650
470.34	20.606
470.68	22.351
471.03	21.742
471.38	20.078
471.73	19.766
472.08	21.320
472.43	20.831
472.78	21.285
473.13	20.354
473.48	21.148
473.83	20.662
474.17	21.571
474.52	20.204
474.87	20.930
475.22	21.014
475.57	20.665
475.92	20.060
476.27	20.501
476.61	20.768
476.96	19.917
477.31	20.792
477.66	20.986
478.01	19.878
478.36	20.140
478.70	20.345
479.05	20.245
479.40	20.188
479.75	20.557
480.10	20.701
480.45	19.644
480.79	20.862
481.14	19.577
481.49	20.036
481.84	20.279
482.19	20.645
482.53	20.114
482.88	20.160
483.23	19.742
483.58	19.869
483.92	20.745
484.27	19.602
484.62	19.018
484.97	20.062
485.31	19.641
485.66	19.255
486.01	18.079
486.36	18.047
486.70	19.348
487.05	20.246
487.40	20.432
487.75	20.992
488.09	20.907
488.44	21.054
488.79	20.675
489.13	20.203
489.48	18.990
489.83	19.759
490.17	19.482
490.52	19.171
490.87	19.628
491.22	19.844
491.56	19.326
491.91	19.756
492.26	19.602
492.60	19.545
492.95	19.614
493.30	19.005
493.64	18.528
493.99	20.044
494.34	18.728
494.68	19.572
495.03	18.855
495.37	18.287
495.72	19.229
496.07	18.712
496.41	18.662
496.76	18.599
497.11	19.703
497.45	19.033
497.80	19.280
498.14	19.546
498.49	18.796
498.84	19.561
499.18	18.713
499.53	18.879
499.87	18.857
500.22	18.566
500.56	18.623
500.91	17.941
501.26	19.136
501.60	17.941
501.95	18.628
502.29	19.175
502.64	18.627
502.98	18.680
503.33	17.883
503.67	18.186
504.02	18.433
504.36	18.275
504.71	18.833
505.06	18.508
505.40	18.373
505.75	18.534
506.09	18.785
506.44	19.127
506.78	18.807
507.13	18.718
507.47	18.333
507.82	18.466
508.16	18.834
508.51	18.331
508.85	18.753
509.19	19.327
509.54	19.597
509.88	18.213
510.23	19.233
510.57	19.381
510.92	18.723
511.26	17.653
511.61	17.866
511.95	18.350
512.30	18.661
512.64	17.841
512.98	18.159
513.33	18.599
513.67	18.664
514.02	18.140
514.36	18.005
514.70	18.125
515.05	18.300
515.39	18.425
515.74	18.770
516.08	17.750
516.42	19.466
516.77	18.244
517.11	17.999
517.46	18.823
517.80	18.653
518.14	18.444
518.49	19.035
518.83	17.829
519.17	18.309
519.52	18.239
519.86	19.219
520.20	18.317
520.55	17.634
520.89	18.525
521.23	18.649
521.58	17.910
521.92	18.924
522.26	18.499
522.61	17.998
522.95	17.647
523.29	18.391
523.64	18.442
523.98	18.483
524.32	18.223
524.66	18.384
525.01	18.063
525.35	17.461
525.69	17.691
526.04	17.336
526.38	18.506
526.72	17.474
527.06	18.475
527.41	18.659
527.75	18.646
528.09	18.005
528.43	17.940
528.78	17.746
529.12	16.858
529.46	17.594
529.80	17.849
530.15	17.507
530.49	17.734
530.83	17.946
531.17	17.921
531.51	17.990
531.86	18.209
532.20	18.232
532.54	18.372
532.88	17.758
533.22	18.444
533.57	17.888
533.91	18.294
534.25	16.902
534.59	18.161
534.93	17.148
535.27	18.366
535.62	18.022
535.96	17.722
536.30	17.568
536.64	17.838
536.98	18.450
537.32	18.086
537.66	17.779
538.01	17.825
538.35	17.966
538.69	17.788
539.03	17.167
539.37	17.845
539.71	17.838
540.05	17.806
540.39	16.687
540.73	16.818
541.07	17.474
541.42	17.602
541.76	16.845
542.10	18.335
542.44	16.931
542.78	18.005
543.12	16.746
543.46	17.460
543.80	16.966
544.14	17.056
544.48	17.967
544.82	17.295
545.16	17.651
545.50	17.016
545.84	18.004
546.18	18.148
546.52	17.134
546.86	16.855
547.20	17.303
547.54	17.228
547.88	17.722
548.22	17.076
548.56	17.086
548.90	17.194
549.24	16.778
549.58	16.088
549.92	17.028
550.26	17.217
550.60	16.656
550.94	16.882
551.28	17.096
551.62	17.318
551.96	17.152
552.30	17.973
552.64	16.739
552.98	17.342
553.32	17.556
553.66	17.363
554.00	17.276
554.34	16.281
554.68	17.301
555.02	16.886
555.36	18.475
555.69	17.040
556.03	16.646
556.37	16.959
556.71	17.755
557.05	17.380
557.39	17.386
557.73	16.843
558.07	16.821
558.41	17.342
558.75	16.565
559.08	17.049
559.42	16.461
559.76	17.232
560.10	16.477
560.44	17.018
560.78	16.562
561.12	16.256
561.45	17.032
561.79	17.338
562.13	17.067
562.47	16.461
562.81	16.709
563.15	16.856
563.48	17.340
563.82	17.412
564.16	16.233
564.50	16.865
564.84	16.106
565.17	16.824
565.51	16.571
565.85	16.568
566.19	16.244
566.52	17.086
566.86	16.016
567.20	16.476
567.54	17.313
567.88	16.565
568.21	16.354
568.55	16.787
568.89	16.024
569.23	16.181
569.56	16.139
569.90	15.788
570.24	15.717
570.57	15.715
570.91	15.799
571.25	15.910
571.59	16.198
571.92	16.018
572.26	16.173
572.60	16.216
572.93	16.449
573.27	16.437
573.61	16.305
573.95	16.363
574.28	15.884
574.62	15.848
574.96	15.770
575.29	16.017
575.63	16.055
575.97	16.335
576.30	16.013
576.64	16.130
576.98	15.877
577.31	15.791
577.65	15.683
577.98	15.606
578.32	15.352
578.66	15.398
578.99	15.953
579.33	16.118
579.67	16.228
580.00	15.689
580.34	15.969
580.67	15.733
581.01	16.140
581.35	15.878
581.68	15.404
582.02	15.261
582.35	15.751
582.69	15.771
583.02	16.072
583.36	16.430
583.70	16.087
584.03	16.439
584.37	16.588
584.70	15.550
585.04	15.462
585.37	15.709
585.71	15.599
586.04	15.698
586.38	15.645
586.72	15.718
587.05	15.733
587.39	15.757
587.72	15.550
588.06	15.474
588.39	15.882
588.73	15.794
589.06	16.084
589.40	16.533
589.73	16.228
590.07	15.650
590.40	16.193
590.73	16.048
591.07	16.679
591.40	16.058
591.74	15.501
592.07	16.119
592.41	14.866
592.74	15.868
593.08	15.669
593.41	15.661
593.75	15.172
594.08	16.116
594.41	15.897
594.75	15.809
595.08	15.612
595.42	16.266
595.75	16.080
596.09	16.571
596.42	16.087
596.75	16.210
597.09	16.323
597.42	15.971
597.75	16.425
598.09	15.675
598.42	16.365
598.76	15.361
599.09	14.988
599.42	14.851
599.76	15.484
600.09	15.816
600.42	15.249
600.76	15.026
601.09	15.765
601.42	15.242
601.76	15.931
602.09	15.904
602.42	15.449
602.76	15.941
603.09	15.786
603.42	15.354
603.76	14.940
604.09	16.075
604.42	15.743
604.76	15.335
605.09	15.836
605.42	16.108
605.75	15.385
606.09	15.080
606.42	14.812
606.75	14.730
607.09	14.670
607.42	15.607
607.75	15.084
608.08	15.154
608.42	15.437
608.75	16.169
609.08	15.365
609.41	15.351
609.75	15.402
610.08	15.787
610.41	14.528
610.74	15.000
611.07	15.631
611.41	16.009
611.74	16.074
612.07	15.288
612.40	15.447
612.73	15.599
613.07	15.697
613.40	15.207
613.73	15.311
614.06	15.260
614.39	14.917
614.72	14.702
615.06	15.111
615.39	14.693
615.72	16.398
616.05	15.444
616.38	15.691
616.71	16.196
617.05	14.590
617.38	15.195
617.71	15.335
618.04	14.895
618.37	15.137
618.70	16.233
619.03	15.114
619.36	14.920
619.69	16.464
620.03	15.254
620.36	14.908
620.69	13.942
621.02	15.354
621.35	16.763
621.68	15.329
622.01	15.943
622.34	15.202
622.67	15.326
623.00	14.305
623.33	15.727
623.66	15.175
623.99	14.483
624.32	16.049
624.65	15.315
624.99	14.304
625.32	16.395
625.65	15.779
625.98	15.390
626.31	16.584
626.64	15.897
626.97	15.979
627.30	14.427
627.63	14.404
627.96	15.841
628.29	15.564
628.62	15.617
628.95	15.776
629.28	14.698
629.61	15.741
629.94	14.644
630.26	14.237
630.59	13.731
630.92	14.372
631.25	15.295
631.58	15.537
631.91	15.745
632.24	15.850
632.57	15.560
632.90	15.747
633.23	14.694
633.56	15.816
633.89	14.979
634.22	15.385
634.55	15.866
634.88	14.610
635.20	15.393
635.53	15.819
635.86	14.518
636.19	16.225
636.52	14.768
636.85	14.402
637.18	14.137
637.51	13.978
637.83	15.504
638.16	15.323
638.49	13.498
638.82	15.558
639.15	14.777
639.48	15.242
639.81	15.127
640.13	16.019
640.46	12.606
640.79	13.113
641.12	16.025
641.45	13.802
641.77	16.046
642.10	13.911
642.43	14.894
642.76	13.550
643.09	15.342
643.41	13.585
643.74	14.621
644.07	16.414
644.40	14.427
644.73	14.949
645.05	15.419
645.38	16.403
645.71	14.809
646.04	16.069
646.36	15.620
646.69	13.650
647.02	17.584
647.35	16.336
647.67	14.815
648.00	16.242
648.33	13.664
648.66	15.264
648.98	15.374
649.31	14.344
649.64	14.874
649.96	14.987
650.29	14.186
650.62	14.003
650.94	13.363
651.27	14.222
651.60	13.450
651.92	14.286
652.25	14.616
652.58	14.168
652.90	13.227
653.23	15.915
653.56	15.121
653.88	15.449
654.21	14.648
654.54	15.462
654.86	15.581
655.19	13.551
655.52	14.765
655.84	12.964
656.17	14.709
656.49	21.272
656.82	24.756
657.15	20.752
657.47	16.801
657.80	12.977
658.13	10.516
658.45	14.517
658.78	18.031
659.10	17.822
659.43	18.402
659.75	17.308
660.08	16.751
660.41	15.467
660.73	13.911
661.06	15.125
661.38	15.152
661.71	12.931
662.03	14.462
662.36	13.059
662.68	13.696
663.01	15.221
663.33	14.556
663.66	15.751
663.98	14.423
664.31	13.321
664.63	11.753
664.96	14.701
665.28	12.523
665.61	15.909
665.93	11.964
666.26	13.441
666.58	12.731
666.91	14.206
667.23	13.905
667.56	15.187
667.88	13.600
668.21	13.281
668.53	13.900
668.86	14.735
669.18	10.591
669.50	15.905
669.83	13.800
670.15	15.748
670.48	15.079
670.80	12.811
671.13	12.854
671.45	15.551
671.77	14.878
672.10	14.167
672.42	13.430
672.75	10.138
673.07	13.134
673.39	13.405
673.72	13.255
674.04	15.172
674.37	14.848
674.69	15.168
675.01	13.714
675.34	14.313
675.66	12.921
675.98	12.687
676.31	13.867
676.63	13.498
676.95	14.176
677.28	15.121
677.60	10.827
677.92	13.628
678.25	13.346
678.57	14.413
678.89	16.382
679.22	12.369
679.54	15.043
679.86	12.203
680.18	14.096
680.51	14.465
680.83	14.566
681.15	13.103
681.48	15.371
681.80	13.299
682.12	13.462
682.44	16.194
682.77	13.298
683.09	14.583
683.41	15.116
683.73	12.713
684.06	11.808
684.38	12.165
684.70	13.824
685.02	13.941
685.34	12.479
685.67	13.565
685.99	12.730
686.31	12.500
686.63	13.270
686.96	12.303
687.28	13.844
687.60	11.785
687.92	13.023
688.24	13.856
688.56	13.448
688.89	15.245
689.21	13.894
689.53	9.804
689.85	11.637
690.17	14.444
690.49	13.546
690.82	11.683
691.14	11.134
691.46	12.811
691.78	13.812
692.10	11.927
692.42	11.250
692.74	12.341
693.06	10.000
693.39	12.524
693.71	11.654
694.03	13.197
694.35	11.429
694.67	14.579
694.99	12.766
695.31	11.700
695.63	12.338
695.95	12.422
696.27	10.110
696.59	14.159
696.91	13.063
697.23	14.286
697.56	10.387
697.88	11.174
698.20	11.864
698.52	14.773
698.84	13.929
699.16	13.469
699.48	15.063
699.80	13.191
700.12	11.572
700.44	9.908
700.76	11.876
701.08	15.012
701.40	10.622
701.72	12.687
702.04	13.369
702.36	9.948
702.68	11.247
703.00	11.736
703.32	8.621
703.64	11.247
703.96	12.411
704.28	9.337
704.60	14.937
704.91	13.265
705.23	10.411
705.55	10.864
705.87	11.818
706.19	14.417
706.51	9.940
706.83	9.510
707.15	11.905
707.47	10.514
707.79	8.952
708.11	9.958
708.43	12.258
708.74	10.714
709.06	11.833
709.38	13.146
709.70	14.888
710.02	11.370
710.34	13.564
710.66	9.497
710.98	11.202
711.29	9.066
711.61	14.689
711.93	11.681
712.25	11.351
712.57	15.634
712.89	14.706
713.20	10.651
713.52	10.694
713.84	10.306
714.16	15.000
714.48	12.113
714.80	12.208
715.11	9.449
715.43	13.263
715.75	10.000
716.07	12.707
716.39	12.022
716.70	10.542
717.02	8.525
717.34	6.969
717.66	14.094
717.97	10.274
718.29	11.684
718.61	8.882
718.93	9.385
719.24	9.627
719.56	11.963
719.88	10.210
720.20	10.968
720.51	9.317
720.83	8.438
721.15	8.224
721.46	6.849
721.78	5.667
722.10	5.825
722.42	7.718
722.73	8.710
723.05	9.825
723.37	8.681
723.68	12.903
724.00	12.274
724.32	8.803
724.63	11.538
724.95	12.411
725.27	8.711
725.58	8.127
725.90	14.483
726.22	7.837
726.53	7.468
726.85	12.264
727.16	11.480
727.48	11.927
727.80	9.934
728.11	6.360
728.43	10.438
728.74	10.033
729.06	12.252
729.38	10.065
729.69	11.074
730.01	6.548
730.32	7.879
730.64	11.635
730.96	8.696
731.27	13.966
731.59	12.637
731.90	11.169
732.22	10.937
732.53	9.669
732.85	10.286
733.16	11.730
733.48	5.183
733.80	11.142
734.11	9.972
734.43	12.703
734.74	10.886
735.06	11.055
735.37	11.351
735.69	9.459
736.00	12.994
736.32	10.782
736.63	11.667
736.95	10.345
737.26	7.273
737.58	8.182
737.89	11.471
738.21	9.480
738.52	7.541
738.83	11.945
739.15	10.993
739.46	7.823
739.78	11.656
740.09	6.590
740.41	8.455
740.72	9.333
741.04	8.738
741.35	16.140
741.66	10.980
741.98	4.508
742.29	9.623
742.61	6.140
742.92	7.308
743.23	10.830
743.55	7.364
743.86	10.400
744.18	2.066
744.49	5.485
744.80	11.111
745.12	7.595
745.43	12.602
745.74	1.293
746.06	9.322
746.37	8.017
746.68	10.569
747.00	8.333
747.31	2.575
747.62	12.692
747.94	4.049
748.25	7.631
748.56	7.347
748.88	3.419
749.19	15.086
749.50	7.792
749.82	8.434
750.13	9.609
750.44	4.333
750.75	9.538
751.07	8.308
751.38	9.464
751.69	7.029
752.01	6.796
752.32	8.824
752.63	9.184
752.94	9.689
753.26	5.576
753.57	3.333
753.88	4.120
754.19	9.968
754.51	9.325
754.82	10.289
755.13	7.869
755.44	8.874
755.75	9.868
756.07	12.537
756.38	7.547
756.69	11.145
757.00	5.263
757.31	12.022
757.63	6.138
757.94	7.746
758.25	9.029
758.56	10.022
758.87	10.000
759.18	9.867
759.50	9.915
759.81	10.924
760.12	9.973
760.43	9.115
760.74	9.113
761.05	9.000
761.36	6.506
761.67	9.137
761.99	8.919
762.30	9.146
762.61	6.931
762.92	6.343
763.23	10.861
763.54	9.353
763.85	7.904
764.16	6.734
764.47	7.746
764.78	10.543
765.10	10.264
765.41	13.333
765.72	9.259
766.03	11.017
766.34	7.837
766.65	5.575
766.96	9.163
767.27	8.295
767.58	4.478
767.89	13.462
768.20	9.390
768.51	7.870
768.82	7.631
769.13	10.227
769.44	3.462
769.75	6.498
770.06	7.692
770.37	8.661
770.68	2.553
770.99	7.692
771.30	15.556
771.61	5.323
771.92	9.630
772.23	7.287
772.54	3.241
772.85	11.521
773.16	4.762
773.47	-1.587
773.78	-2.162
774.09	5.114
774.39	5.000
774.70	5.464
775.01	3.049
775.32	-3.529
775.63	7.362
775.94	-2.548
776.25	3.871
776.56	11.538
776.87	7.483
777.18	6.207
777.48	2.098
777.79	8.784
778.10	-8.088
778.41	2.083
778.72	-2.759
779.03	2.469
779.34	1.818
779.65	7.772
779.95	7.778
780.26	1.705
780.57	5.161
780.88	13.043
781.19	1.935
781.50	11.176
781.80	8.602
782.11	2.116
782.42	1.515
782.73	0.000
783.04	4.469
783.34	0.606
783.65	-1.307
783.96	-1.863
784.27	11.310
784.57	3.974
784.88	0.000
785.19	7.087
785.50	1.575
785.81	1.504
786.11	9.231
786.42	-0.719
786.73	3.597
787.04	4.511
787.34	-2.459
787.65	3.200
787.96	10.448
788.26	4.895
788.57	12.587
788.88	3.947
789.19	10.458
789.49	-0.685
789.80	1.418
790.11	7.087
790.41	-1.562
790.72	6.780
791.03	-9.709
791.33	4.348
791.64	3.509
791.95	1.786
792.25	-1.905
792.56	-5.357
792.87	-4.167
793.17	3.571
793.48	-7.292
793.79	-18.072
794.09	-11.927
794.40	-3.670
794.70	4.082
795.01	3.896
795.32	3.425
795.62	-0.704
795.93	1.515
796.23	-3.279
796.54	0.893
796.85	-5.319
797.15	-14.130
797.46	-15.068
797.76	-5.000
798.07	4.348
798.37	-14.433
798.68	-11.688
798.99	-2.299
799.29	-2.247
799.60	6.383
799.90	-16.867
800.21	-10.769
800.51	-14.925
800.82	0.000
801.12	-13.699
801.43	-16.176
801.73	-18.644
802.04	-18.182
802.34	-21.667
802.65	-3.390
802.95	-8.955
803.26	-18.644
803.56	-4.110
803.87	2.857
804.17	1.370
804.48	-24.561
804.78	-1.389
805.09	-43.103
805.39	0.000
805.70	-18.310
806.00	-2.439
806.30	-16.867
806.61	-15.068
806.91	-3.846
807.22	0.000
807.52	-14.943
807.83	5.556
808.13	-2.410
808.43	-13.483
808.74	-13.750
809.04	-17.647
809.35	0.000
809.65	1.429
809.95	1.370
810.26	-19.298
810.56	-5.172
810.86	2.941
811.17	-17.544
811.47	-24.590
811.77	-53.333
812.08	-16.949
812.38	-13.333
812.69	-5.172
812.99	-18.868
813.29	-51.282
813.59	-16.000
813.90	-8.772
814.20	-29.091
814.50	11.268
814.81	12.821
815.11	-4.918
815.41	-4.478
815.72	1.724
816.02	0.000
816.32	-6.667
816.62	-2.273
816.93	-20.000
817.23	-9.259
817.53	6.383
817.84	-9.524
818.14	-23.529
818.44	-10.204
818.74	-24.444
819.04	-38.462
819.35	-65.714
819.65	-57.692
819.95	-9.434
820.25	-20.000
820.56	-21.429
820.86	-59.375
821.16	-23.077
821.46	-34.884
821.76	-42.000
822.07	-10.714
822.37	-2.174
822.67	-19.149
822.97	-35.135
823.27	-37.500
823.57	-16.327
823.88	-17.778
824.18	-5.000
824.48	-40.000
824.78	-48.000
825.08	-36.364
825.38	-6.667
825.69	4.255
825.99	-13.889
826.29	-77.143
826.59	-43.590
826.89	-6.977
827.19	-16.000
827.49	-26.471
827.79	-14.583
828.09	-43.243
828.39	-26.667
828.70	-19.512
829.00	-25.581
829.30	-50.000
829.60	-38.235
829.90	-32.609
830.20	-42.857
830.50	-41.379
830.80	-83.333
831.10	-65.385
831.40	-29.412
831.70	-33.333
832.00	-19.355
832.30	-76.471
832.60	-41.667
832.90	-115.385
833.20	-73.684
833.50	-65.000
833.80	-78.947
834.10	-104.762
834.40	-22.222
834.70	-34.375
835.00	-60.000
835.30	-26.471
835.60	-50.000
835.90	-72.000
836.20	-113.636
836.50	-60.000
836.80	-54.545
837.10	-55.556
837.40	-48.148
837.70	-131.250
838.00	-32.143
838.30	-104.348
838.60	-27.586
838.90	-57.143
839.19	-104.348
839.49	-133.333
839.79	-39.130
840.09	-131.250
840.39	-105.000
840.69	-25.806
840.99	-32.143
841.29	-73.333
841.59	-47.368
841.88	7.692
842.18	-61.538
842.48	-200.000
842.78	-45.000
843.08	-23.333
843.38	-29.032
843.68	-122.222
843.97	-35.294
844.27	-118.750
844.57	-63.158
844.87	-170.000
845.17	-60.000
845.47	-4.762
845.76	-66.667
846.06	-166.667
846.36	-105.882
846.66	-15.385
846.96	-133.333
847.25	-105.882
847.55	-39.130
847.85	-90.000
848.15	-94.118
848.44	-127.273
848.74	-28.571
849.04	-66.667
849.34	-68.750
849.63	-21.739
849.93	950.000
850.23	-13.333
850.53	0.000
850.82	-154.545
851.12	-50.000
851.42	-190.909
851.71	-92.308
852.01	-70.000
852.31	-69.231
852.61	-84.211
852.90	-150.000
853.20	-105.556
853.50	-266.667
853.79	-100.000
854.09	-86.364
854.39	-166.667
854.68	-51.613
854.98	-46.154
855.28	-16.667
855.57	-35.714
855.87	-64.000
856.17	-77.273
856.46	-40.741
856.76	-88.889
857.05	-56.522
857.35	-50.000
857.65	-153.846
857.94	-23.810
858.24	-22.222
858.53	-34.783
858.83	-52.941
859.13	-70.588
859.42	-100.000
859.72	-100.000
860.01	-40.000
860.31	-244.444
860.60	-150.000
860.90	-66.667
861.20	-61.111
861.49	-146.154
861.79	-36.667
862.08	-92.308
862.38	-34.375
862.67	-76.471
862.97	-68.750
863.26	-188.889
863.56	-90.000
863.85	-136.364
864.15	-33.333
864.44	-500.000
864.74	-50.000
865.03	-56.250
865.33	-240.000
865.62	-54.839
865.92	-50.000
866.21	-39.130
866.51	-50.000
866.80	-340.000
867.10	-50.000
867.39	-191.667
867.69	3100.000
867.98	-185.714
868.27	-58.824
868.57	-2700.000
868.86	-230.000
869.16	-104.762
869.45	-33.333
869.75	-9.091
870.04	-142.857
870.33	-108.333
870.63	-285.714
870.92	50.000
871.22	-287.500
871.51	-154.545
871.80	-666.667
872.10	-500.000
>>>>>End Processed Spectral Data<<<<<
