SpectraSuite Data File
++++++++++++++++++++++++++++++++++++
Date: Thu May 14 16:01:41 PDT 2015
User: schluterlab
Dark Spectrum Present: Yes
Reference Spectrum Present: Yes
Number of Sampled Component Spectra: 1
Spectrometers: USB2E3373
Integration Time (usec): 3000 (USB2E3373)
Spectra Averaged: 3 (USB2E3373)
Boxcar Smoothing: 0 (USB2E3373)
Correct for Electrical Dark: No (USB2E3373)
Strobe/Lamp Enabled: No (USB2E3373)
Correct for Detector Non-linearity: No (USB2E3373)
Correct for Stray Light: No (USB2E3373)
Number of Pixels in Processed Spectrum: 2048
>>>>>Begin Processed Spectral Data<<<<<
178.53	0.000
178.91	114.286
179.29	-2500.000
179.67	-1900.000
180.04	185.714
180.42	130.000
180.80	380.000
181.18	-2300.000
181.56	-200.000
181.94	450.000
182.31	-225.000
182.69	266.667
183.07	-450.000
183.45	550.000
183.83	-333.333
184.20	-466.667
184.58	1900.000
184.96	-350.000
185.34	-144.444
185.72	-240.000
186.09	288.889
186.47	1100.000
186.85	380.000
187.23	-277.778
187.61	-2500.000
187.98	220.000
188.36	725.000
188.74	-225.000
189.12	-433.333
189.49	-31.250
189.87	-262.500
190.25	-155.556
190.63	-180.000
191.00	-222.222
191.38	0.000
191.76	-425.000
192.14	-233.333
192.51	950.000
192.89	-166.667
193.27	0.000
193.65	-157.143
194.02	-2200.000
194.40	-228.571
194.78	200.000
195.15	0.000
195.53	-90.909
195.91	0.000
196.29	-375.000
196.66	-92.308
197.04	-1500.000
197.42	-285.714
197.79	-850.000
198.17	-250.000
198.55	-242.857
198.92	-11.111
199.30	-225.000
199.68	-90.909
200.05	-21.429
200.43	-800.000
200.81	328.571
201.18	0.000
201.56	277.778
201.94	0.000
202.31	900.000
202.69	-111.111
203.07	800.000
203.44	-177.778
203.82	-375.000
204.19	-66.667
204.57	-183.333
204.95	-100.000
205.32	-1800.000
205.70	525.000
206.08	-233.333
206.45	-133.333
206.83	620.000
207.20	-150.000
207.58	-320.000
207.96	-300.000
208.33	-66.667
208.71	108.333
209.08	-200.000
209.46	0.000
209.84	366.667
210.21	850.000
210.59	750.000
210.96	566.667
211.34	-425.000
211.71	-200.000
212.09	-2000.000
212.46	0.000
212.84	1400.000
213.22	-520.000
213.59	-450.000
213.97	-230.000
214.34	-466.667
214.72	250.000
215.09	-500.000
215.47	0.000
215.84	242.857
216.22	1050.000
216.59	-260.000
216.97	-360.000
217.34	-375.000
217.72	-175.000
218.09	-325.000
218.47	-625.000
218.84	0.000
219.22	360.000
219.59	-70.588
219.97	-30.000
220.34	950.000
220.72	-200.000
221.09	-92.308
221.47	-666.667
221.84	-180.000
222.22	-271.429
222.59	0.000
222.97	-50.000
223.34	-380.000
223.72	-2400.000
224.09	-125.000
224.46	-400.000
224.84	-220.000
225.21	-314.286
225.59	-775.000
225.96	-675.000
226.34	-34.615
226.71	333.333
227.08	-850.000
227.46	-66.667
227.83	-300.000
228.21	-36.842
228.58	300.000
228.95	800.000
229.33	-66.667
229.70	-100.000
230.08	21.053
230.45	240.000
230.82	-800.000
231.20	-121.429
231.57	-150.000
231.95	-118.182
232.32	-81.818
232.69	-60.000
233.07	-425.000
233.44	-100.000
233.81	-230.000
234.19	-33.333
234.56	-68.182
234.93	-31.034
235.31	-73.684
235.68	-61.111
236.05	-55.000
236.43	0.000
236.80	-8.000
237.17	3.704
237.55	-18.182
237.92	-170.000
238.29	-9.677
238.67	-4.545
239.04	13.889
239.41	-14.286
239.79	-10.870
240.16	-20.370
240.53	-2.174
240.91	-33.333
241.28	1.639
241.65	8.955
242.02	16.216
242.40	-9.231
242.77	6.667
243.14	1.220
243.51	-6.579
243.89	-8.974
244.26	7.921
244.63	0.980
245.00	9.346
245.38	0.000
245.75	7.965
246.12	11.111
246.49	11.628
246.87	14.286
247.24	21.192
247.61	9.868
247.98	10.067
248.36	9.259
248.73	9.202
249.10	11.475
249.47	17.413
249.84	19.372
250.22	10.881
250.59	18.333
250.96	16.364
251.33	9.694
251.70	16.667
252.08	16.667
252.45	16.393
252.82	14.876
253.19	12.109
253.56	17.871
253.94	17.308
254.31	19.697
254.68	19.231
255.05	18.241
255.42	14.286
255.79	16.505
256.16	16.225
256.54	18.212
256.91	17.377
257.28	19.016
257.65	19.745
258.02	15.044
258.39	16.809
258.76	19.266
259.14	20.690
259.51	15.850
259.88	18.130
260.25	18.056
260.62	19.178
260.99	19.399
261.36	21.448
261.73	16.976
262.10	16.484
262.47	19.303
262.85	19.444
263.22	19.221
263.59	15.526
263.96	19.182
264.33	19.437
264.70	20.494
265.07	20.525
265.44	20.635
265.81	18.750
266.18	21.088
266.55	20.089
266.92	18.679
267.29	20.788
267.66	20.177
268.03	20.524
268.40	18.372
268.77	17.768
269.14	17.841
269.51	18.202
269.88	22.746
270.25	19.920
270.62	22.996
270.99	21.212
271.36	18.416
271.73	21.022
272.10	21.643
272.47	21.242
272.84	19.277
273.21	20.040
273.58	21.573
273.95	20.000
274.32	17.490
274.69	18.569
275.06	20.879
275.43	18.115
275.80	19.577
276.17	15.000
276.54	19.030
276.91	18.962
277.28	19.349
277.65	19.210
278.02	22.426
278.39	18.659
278.76	20.562
279.13	20.213
279.50	20.447
279.87	19.857
280.23	17.606
280.60	19.492
280.97	18.750
281.34	19.864
281.71	20.305
282.08	19.601
282.45	19.313
282.82	17.739
283.19	16.478
283.56	17.869
283.92	20.120
284.29	20.537
284.66	18.555
285.03	15.385
285.40	18.547
285.77	19.350
286.14	18.473
286.51	18.569
286.87	18.957
287.24	18.675
287.61	18.386
287.98	17.674
288.35	18.639
288.72	19.231
289.08	19.619
289.45	16.420
289.82	17.169
290.19	17.529
290.56	18.169
290.93	17.546
291.29	16.529
291.66	17.355
292.03	16.147
292.40	17.143
292.77	16.442
293.13	16.779
293.50	15.112
293.87	15.973
294.24	18.267
294.60	16.941
294.97	14.899
295.34	16.389
295.71	15.259
296.08	15.633
296.44	15.196
296.81	16.078
297.18	14.072
297.55	15.920
297.91	14.591
298.28	13.626
298.65	14.863
299.02	14.286
299.38	15.446
299.75	14.836
300.12	13.426
300.48	13.479
300.85	14.061
301.22	16.107
301.59	14.726
301.95	14.689
302.32	14.889
302.69	14.677
303.05	13.166
303.42	15.078
303.79	13.854
304.15	14.406
304.52	13.002
304.89	13.298
305.25	14.182
305.62	12.957
305.99	13.814
306.35	14.617
306.72	14.271
307.09	12.893
307.45	14.493
307.82	13.118
308.19	12.714
308.55	15.043
308.92	14.021
309.29	13.793
309.65	13.645
310.02	13.465
310.38	14.173
310.75	13.398
311.12	13.710
311.48	13.001
311.85	14.055
312.22	13.472
312.58	12.864
312.95	13.576
313.31	14.905
313.68	14.469
314.05	14.544
314.41	14.208
314.78	13.170
315.14	13.067
315.51	13.943
315.87	14.041
316.24	13.607
316.61	14.831
316.97	13.213
317.34	13.404
317.70	15.371
318.07	12.963
318.43	13.946
318.80	15.468
319.16	14.335
319.53	12.853
319.89	13.322
320.26	14.324
320.62	12.500
320.99	13.204
321.35	13.401
321.72	15.070
322.08	12.804
322.45	14.002
322.81	12.906
323.18	11.770
323.54	12.069
323.91	14.680
324.27	12.823
324.64	14.190
325.00	13.765
325.37	14.578
325.73	14.628
326.10	13.625
326.46	14.169
326.83	14.812
327.19	14.094
327.56	13.518
327.92	14.555
328.29	13.387
328.65	13.065
329.01	13.621
329.38	13.395
329.74	14.555
330.11	13.271
330.47	14.069
330.84	14.040
331.20	14.167
331.56	13.518
331.93	15.146
332.29	14.068
332.66	13.621
333.02	13.819
333.38	14.346
333.75	14.226
334.11	13.428
334.48	13.779
334.84	13.509
335.20	13.098
335.57	14.081
335.93	14.298
336.29	12.313
336.66	13.204
337.02	14.298
337.38	13.180
337.75	12.066
338.11	13.120
338.47	12.986
338.84	13.536
339.20	12.721
339.56	13.344
339.93	13.136
340.29	13.768
340.65	12.814
341.02	14.046
341.38	13.743
341.74	13.317
342.11	13.194
342.47	12.153
342.83	13.124
343.20	13.164
343.56	13.232
343.92	12.890
344.28	13.359
344.65	13.488
345.01	12.949
345.37	13.764
345.73	11.847
346.10	14.119
346.46	12.975
346.82	13.184
347.19	12.376
347.55	13.278
347.91	12.259
348.27	12.595
348.63	13.481
349.00	13.050
349.36	13.532
349.72	12.426
350.08	12.927
350.45	12.700
350.81	12.670
351.17	13.609
351.53	12.358
351.89	13.895
352.26	12.313
352.62	13.060
352.98	12.519
353.34	12.696
353.70	11.864
354.07	13.785
354.43	13.136
354.79	12.640
355.15	11.921
355.51	13.450
355.87	12.341
356.24	13.460
356.60	12.343
356.96	12.009
357.32	11.747
357.68	11.201
358.04	11.976
358.40	11.791
358.77	12.573
359.13	12.038
359.49	10.781
359.85	12.618
360.21	12.267
360.57	11.773
360.93	12.623
361.29	12.561
361.66	13.034
362.02	12.804
362.38	12.368
362.74	12.779
363.10	12.448
363.46	12.119
363.82	11.364
364.18	10.978
364.54	12.310
364.90	12.308
365.26	11.310
365.62	12.667
365.98	11.504
366.35	11.678
366.71	12.789
367.07	12.720
367.43	13.132
367.79	13.006
368.15	12.508
368.51	12.246
368.87	12.671
369.23	11.333
369.59	11.954
369.95	11.968
370.31	12.897
370.67	12.173
371.03	11.496
371.39	11.350
371.75	11.761
372.11	12.602
372.47	12.187
372.83	12.435
373.19	11.674
373.55	11.382
373.91	10.702
374.27	12.678
374.63	11.976
374.99	11.804
375.35	12.273
375.71	12.129
376.07	11.556
376.42	11.902
376.78	12.306
377.14	11.853
377.50	11.701
377.86	12.254
378.22	12.156
378.58	11.950
378.94	11.385
379.30	11.834
379.66	12.463
380.02	12.349
380.38	12.270
380.74	11.944
381.09	11.789
381.45	11.193
381.81	12.763
382.17	11.817
382.53	11.111
382.89	12.133
383.25	11.489
383.61	10.995
383.97	11.249
384.32	11.304
384.68	11.543
385.04	11.683
385.40	12.434
385.76	12.075
386.12	11.730
386.48	11.471
386.83	12.574
387.19	11.587
387.55	11.150
387.91	12.329
388.27	12.067
388.62	11.684
388.98	11.450
389.34	11.844
389.70	11.621
390.06	11.782
390.42	11.747
390.77	12.402
391.13	11.502
391.49	11.896
391.85	10.667
392.20	11.566
392.56	12.227
392.92	11.668
393.28	12.217
393.64	11.899
393.99	12.551
394.35	12.266
394.71	11.317
395.07	11.437
395.42	11.136
395.78	11.761
396.14	11.943
396.50	11.223
396.85	12.582
397.21	12.071
397.57	11.249
397.92	11.627
398.28	11.135
398.64	10.812
399.00	10.890
399.35	11.675
399.71	11.196
400.07	11.791
400.42	10.943
400.78	11.516
401.14	12.009
401.49	12.280
401.85	11.395
402.21	11.761
402.57	12.089
402.92	12.234
403.28	11.300
403.63	10.143
403.99	11.817
404.35	11.882
404.70	12.011
405.06	11.630
405.42	11.827
405.77	11.069
406.13	11.994
406.49	11.205
406.84	11.856
407.20	11.962
407.55	11.872
407.91	12.256
408.27	12.191
408.62	11.693
408.98	12.014
409.34	10.792
409.69	11.743
410.05	12.368
410.40	11.079
410.76	11.105
411.11	11.981
411.47	12.101
411.83	12.169
412.18	11.747
412.54	11.974
412.89	11.234
413.25	12.020
413.60	11.258
413.96	11.772
414.31	11.048
414.67	11.747
415.03	10.277
415.38	11.160
415.74	11.607
416.09	11.598
416.45	11.709
416.80	11.567
417.16	11.941
417.51	12.080
417.87	12.201
418.22	11.856
418.58	11.772
418.93	12.806
419.29	11.714
419.64	11.585
420.00	11.573
420.35	12.072
420.71	11.775
421.06	11.788
421.42	11.411
421.77	11.255
422.12	12.051
422.48	11.623
422.83	11.336
423.19	11.671
423.54	11.615
423.90	11.651
424.25	11.467
424.61	10.563
424.96	11.477
425.31	11.783
425.67	11.218
426.02	11.898
426.38	11.538
426.73	11.496
427.09	12.514
427.44	11.360
427.79	11.498
428.15	11.587
428.50	11.685
428.85	11.309
429.21	12.234
429.56	11.352
429.92	11.548
430.27	12.241
430.62	11.431
430.98	11.658
431.33	11.632
431.68	10.872
432.04	11.529
432.39	11.623
432.74	11.530
433.10	12.169
433.45	10.702
433.80	11.910
434.16	11.932
434.51	11.562
434.86	12.106
435.22	11.371
435.57	12.382
435.92	12.688
436.28	11.832
436.63	11.415
436.98	11.970
437.34	11.274
437.69	11.668
438.04	11.211
438.39	11.258
438.75	11.400
439.10	12.368
439.45	11.850
439.81	11.243
440.16	11.528
440.51	11.427
440.86	11.062
441.22	12.272
441.57	11.845
441.92	11.397
442.27	11.515
442.63	11.923
442.98	11.686
443.33	11.310
443.68	12.537
444.03	12.324
444.39	12.159
444.74	11.945
445.09	11.404
445.44	12.592
445.79	11.351
446.15	11.768
446.50	10.956
446.85	12.208
447.20	12.379
447.55	11.192
447.91	11.518
448.26	11.522
448.61	11.158
448.96	12.661
449.31	11.824
449.66	11.057
450.02	12.078
450.37	12.680
450.72	11.625
451.07	12.358
451.42	12.132
451.77	11.173
452.12	11.738
452.47	11.408
452.83	11.486
453.18	12.259
453.53	11.832
453.88	12.203
454.23	12.090
454.58	11.782
454.93	12.075
455.28	12.824
455.63	12.621
455.98	11.844
456.34	11.837
456.69	11.170
457.04	11.584
457.39	11.807
457.74	12.360
458.09	11.752
458.44	12.769
458.79	11.604
459.14	11.904
459.49	12.054
459.84	12.225
460.19	11.938
460.54	12.266
460.89	11.646
461.24	12.184
461.59	12.175
461.94	10.667
462.29	11.926
462.64	11.949
462.99	11.613
463.34	11.875
463.69	12.837
464.04	12.618
464.39	11.659
464.74	12.030
465.09	12.341
465.44	12.768
465.79	12.639
466.14	12.090
466.49	12.316
466.84	11.625
467.19	11.272
467.54	10.870
467.89	12.241
468.24	11.745
468.59	11.175
468.94	11.189
469.29	12.178
469.64	11.380
469.99	10.707
470.34	11.943
470.68	12.919
471.03	12.836
471.38	12.688
471.73	12.224
472.08	12.437
472.43	11.921
472.78	12.028
473.13	12.769
473.48	12.326
473.83	11.898
474.17	12.603
474.52	12.568
474.87	12.680
475.22	12.394
475.57	11.942
475.92	12.245
476.27	12.407
476.61	11.890
476.96	12.096
477.31	12.228
477.66	12.487
478.01	11.896
478.36	12.463
478.70	12.020
479.05	12.321
479.40	12.241
479.75	12.680
480.10	12.032
480.45	12.899
480.79	11.882
481.14	11.811
481.49	11.858
481.84	11.575
482.19	12.258
482.53	12.768
482.88	12.938
483.23	12.317
483.58	11.703
483.92	12.190
484.27	12.532
484.62	12.087
484.97	12.830
485.31	12.003
485.66	12.395
486.01	12.705
486.36	12.919
486.70	13.487
487.05	13.094
487.40	12.375
487.75	11.858
488.09	11.496
488.44	11.776
488.79	11.771
489.13	12.274
489.48	11.340
489.83	11.670
490.17	12.070
490.52	12.315
490.87	12.098
491.22	12.348
491.56	12.500
491.91	12.647
492.26	12.895
492.60	12.549
492.95	12.944
493.30	11.564
493.64	12.352
493.99	13.114
494.34	11.977
494.68	11.820
495.03	12.291
495.37	11.851
495.72	11.837
496.07	12.708
496.41	12.012
496.76	12.385
497.11	12.824
497.45	12.344
497.80	12.528
498.14	12.698
498.49	12.178
498.84	12.020
499.18	12.821
499.53	12.556
499.87	12.571
500.22	12.511
500.56	12.056
500.91	12.082
501.26	12.273
501.60	12.506
501.95	12.549
502.29	12.637
502.64	12.156
502.98	12.295
503.33	12.138
503.67	11.819
504.02	12.303
504.36	12.511
504.71	12.311
505.06	12.324
505.40	12.386
505.75	12.614
506.09	12.753
506.44	12.163
506.78	12.752
507.13	12.586
507.47	12.411
507.82	12.405
508.16	12.524
508.51	12.564
508.85	12.234
509.19	12.269
509.54	12.920
509.88	12.045
510.23	12.579
510.57	12.663
510.92	12.240
511.26	11.977
511.61	12.313
511.95	12.494
512.30	12.703
512.64	11.394
512.98	12.156
513.33	12.500
513.67	12.290
514.02	12.519
514.36	12.276
514.70	13.229
515.05	12.930
515.39	12.651
515.74	13.150
516.08	13.048
516.42	13.239
516.77	12.566
517.11	12.481
517.46	13.097
517.80	13.415
518.14	13.330
518.49	12.419
518.83	12.773
519.17	12.278
519.52	13.103
519.86	12.672
520.20	13.046
520.55	12.870
520.89	13.739
521.23	12.674
521.58	12.712
521.92	12.521
522.26	12.314
522.61	13.194
522.95	12.687
523.29	13.103
523.64	12.164
523.98	12.949
524.32	13.410
524.66	12.464
525.01	13.137
525.35	12.522
525.69	12.877
526.04	12.572
526.38	13.333
526.72	12.457
527.06	13.079
527.41	13.178
527.75	12.589
528.09	13.518
528.43	13.025
528.78	12.659
529.12	12.901
529.46	12.929
529.80	12.700
530.15	12.986
530.49	11.922
530.83	12.751
531.17	12.843
531.51	12.094
531.86	14.123
532.20	13.598
532.54	13.226
532.88	13.091
533.22	13.553
533.57	12.926
533.91	13.412
534.25	13.454
534.59	12.471
534.93	12.450
535.27	13.296
535.62	13.132
535.96	13.074
536.30	12.573
536.64	13.393
536.98	13.284
537.32	13.333
537.66	13.412
538.01	12.628
538.35	13.520
538.69	13.101
539.03	13.059
539.37	12.367
539.71	13.213
540.05	13.010
540.39	13.142
540.73	12.933
541.07	11.833
541.42	12.877
541.76	11.744
542.10	12.967
542.44	12.546
542.78	13.564
543.12	13.170
543.46	13.004
543.80	12.650
544.14	11.909
544.48	12.943
544.82	13.585
545.16	14.013
545.50	13.002
545.84	12.921
546.18	13.025
546.52	12.675
546.86	13.270
547.20	12.659
547.54	12.422
547.88	12.779
548.22	12.339
548.56	13.458
548.90	12.179
549.24	12.523
549.58	12.303
549.92	12.181
550.26	12.621
550.60	12.827
550.94	13.325
551.28	13.465
551.62	13.410
551.96	13.139
552.30	13.576
552.64	13.255
552.98	13.100
553.32	13.505
553.66	12.862
554.00	13.871
554.34	12.420
554.68	12.008
555.02	12.878
555.36	13.281
555.69	12.428
556.03	13.367
556.37	13.517
556.71	13.190
557.05	13.099
557.39	13.139
557.73	13.276
558.07	12.185
558.41	13.488
558.75	12.914
559.08	12.596
559.42	12.346
559.76	12.958
560.10	12.726
560.44	13.522
560.78	14.375
561.12	13.239
561.45	13.990
561.79	13.553
562.13	13.555
562.47	12.454
562.81	13.228
563.15	13.258
563.48	12.989
563.82	13.180
564.16	12.659
564.50	12.694
564.84	12.566
565.17	12.941
565.51	11.910
565.85	12.470
566.19	11.694
566.52	12.522
566.86	13.130
567.20	12.507
567.54	12.586
567.88	13.710
568.21	12.846
568.55	12.758
568.89	13.663
569.23	13.181
569.56	13.013
569.90	12.545
570.24	12.715
570.57	12.733
570.91	12.094
571.25	12.525
571.59	12.719
571.92	12.447
572.26	12.785
572.60	12.258
572.93	12.497
573.27	12.504
573.61	12.626
573.95	12.406
574.28	12.801
574.62	12.415
574.96	11.866
575.29	12.161
575.63	12.451
575.97	12.527
576.30	12.386
576.64	12.121
576.98	12.551
577.31	12.308
577.65	12.670
577.98	12.519
578.32	12.208
578.66	12.288
578.99	12.308
579.33	12.205
579.67	12.103
580.00	12.272
580.34	11.976
580.67	11.981
581.01	12.138
581.35	12.429
581.68	12.547
582.02	12.769
582.35	12.726
582.69	12.521
583.02	12.521
583.36	12.035
583.70	11.793
584.03	11.471
584.37	12.195
584.70	11.834
585.04	12.485
585.37	12.174
585.71	12.449
586.04	12.131
586.38	12.442
586.72	12.058
587.05	11.998
587.39	12.117
587.72	12.584
588.06	12.282
588.39	12.298
588.73	12.063
589.06	12.359
589.40	11.985
589.73	11.954
590.07	12.599
590.40	12.306
590.73	12.195
591.07	12.472
591.40	12.208
591.74	12.599
592.07	12.749
592.41	12.263
592.74	12.638
593.08	12.675
593.41	13.182
593.75	12.874
594.08	12.663
594.41	12.500
594.75	12.222
595.08	12.214
595.42	12.240
595.75	12.205
596.09	12.369
596.42	12.146
596.75	12.312
597.09	12.687
597.42	12.475
597.75	12.270
598.09	12.421
598.42	12.384
598.76	12.381
599.09	12.033
599.42	13.208
599.76	12.380
600.09	12.513
600.42	12.546
600.76	12.550
601.09	12.114
601.42	12.049
601.76	11.621
602.09	12.223
602.42	11.959
602.76	11.993
603.09	12.188
603.42	12.861
603.76	12.509
604.09	12.420
604.42	12.183
604.76	11.796
605.09	12.206
605.42	12.321
605.75	12.000
606.09	13.065
606.42	12.404
606.75	11.657
607.09	12.135
607.42	12.678
607.75	12.192
608.08	12.826
608.42	12.052
608.75	12.521
609.08	12.182
609.41	12.042
609.75	11.830
610.08	12.401
610.41	11.810
610.74	12.563
611.07	11.767
611.41	12.691
611.74	12.333
612.07	12.950
612.40	12.167
612.73	11.834
613.07	12.616
613.40	12.705
613.73	12.518
614.06	12.120
614.39	11.710
614.72	12.858
615.06	12.271
615.39	11.745
615.72	12.512
616.05	11.753
616.38	12.765
616.71	12.957
617.05	12.407
617.38	13.216
617.71	12.797
618.04	12.466
618.37	13.333
618.70	12.783
619.03	11.768
619.36	12.022
619.69	11.595
620.03	12.743
620.36	12.638
620.69	12.708
621.02	12.205
621.35	11.901
621.68	11.858
622.01	12.171
622.34	11.994
622.67	13.333
623.00	11.471
623.33	13.338
623.66	12.581
623.99	11.521
624.32	13.645
624.65	12.098
624.99	12.224
625.32	13.129
625.65	12.610
625.98	11.661
626.31	12.544
626.64	12.527
626.97	12.528
627.30	11.845
627.63	12.603
627.96	13.964
628.29	12.529
628.62	12.930
628.95	12.358
629.28	11.895
629.61	13.215
629.94	12.385
630.26	13.475
630.59	12.003
630.92	12.468
631.25	13.953
631.58	13.183
631.91	12.465
632.24	12.488
632.57	13.283
632.90	12.638
633.23	12.755
633.56	12.857
633.89	11.674
634.22	12.786
634.55	12.109
634.88	12.771
635.20	14.209
635.53	11.412
635.86	12.351
636.19	13.574
636.52	12.342
636.85	13.075
637.18	13.306
637.51	11.505
637.83	13.953
638.16	14.171
638.49	12.559
638.82	13.303
639.15	14.204
639.48	13.972
639.81	13.857
640.13	14.134
640.46	12.848
640.79	12.500
641.12	13.292
641.45	12.923
641.77	14.763
642.10	11.286
642.43	14.096
642.76	13.415
643.09	13.562
643.41	11.625
643.74	11.034
644.07	12.828
644.40	11.598
644.73	12.772
645.05	13.656
645.38	13.381
645.71	12.610
646.04	15.208
646.36	11.971
646.69	12.730
647.02	13.150
647.35	11.603
647.67	11.755
648.00	12.580
648.33	12.312
648.66	12.839
648.98	12.789
649.31	12.043
649.64	13.147
649.96	12.865
650.29	10.987
650.62	12.871
650.94	11.111
651.27	11.826
651.60	9.503
651.92	11.094
652.25	13.603
652.58	13.893
652.90	11.773
653.23	13.521
653.56	11.840
653.88	13.764
654.21	11.549
654.54	13.728
654.86	11.898
655.19	12.045
655.52	13.807
655.84	14.985
656.17	17.118
656.49	23.215
656.82	23.882
657.15	17.085
657.47	12.128
657.80	8.448
658.13	6.378
658.45	8.056
658.78	9.260
659.10	8.361
659.43	9.007
659.75	8.350
660.08	7.843
660.41	9.926
660.73	8.780
661.06	9.838
661.38	12.281
661.71	11.724
662.03	11.993
662.36	11.270
662.68	13.696
663.01	11.504
663.33	11.909
663.66	18.132
663.98	11.538
664.31	11.069
664.63	11.175
664.96	13.612
665.28	10.708
665.61	13.636
665.93	10.893
666.26	12.007
666.58	11.624
666.91	13.271
667.23	12.762
667.56	13.018
667.88	14.800
668.21	9.766
668.53	10.811
668.86	10.216
669.18	9.980
669.50	12.525
669.83	10.000
670.15	11.220
670.48	13.690
670.80	9.560
671.13	9.830
671.45	11.024
671.77	12.806
672.10	12.833
672.42	11.812
672.75	11.060
673.07	11.343
673.39	11.094
673.72	12.248
674.04	13.621
674.37	12.522
674.69	11.464
675.01	10.667
675.34	9.733
675.66	11.798
675.98	13.433
676.31	10.938
676.63	13.308
676.95	12.261
677.28	11.290
677.60	10.827
677.92	12.284
678.25	11.883
678.57	12.100
678.89	13.481
679.22	10.453
679.54	12.991
679.86	10.339
680.18	11.774
680.51	11.164
680.83	12.602
681.15	13.276
681.48	12.090
681.80	12.608
682.12	9.965
682.44	12.521
682.77	10.638
683.09	11.174
683.41	11.047
683.73	11.575
684.06	11.624
684.38	10.376
684.70	12.567
685.02	12.737
685.34	10.982
685.67	11.356
685.99	11.350
686.31	10.465
686.63	11.058
686.96	10.568
687.28	11.238
687.60	9.933
687.92	8.842
688.24	11.018
688.56	8.966
688.89	10.889
689.21	10.372
689.53	10.196
689.85	10.651
690.17	11.111
690.49	8.765
690.82	10.495
691.14	9.919
691.46	12.620
691.78	12.707
692.10	12.477
692.42	8.750
692.74	10.163
693.06	8.704
693.39	11.385
693.71	9.774
694.03	13.569
694.35	12.000
694.67	11.910
694.99	10.851
695.31	11.258
695.63	12.554
695.95	8.903
696.27	9.011
696.59	11.726
696.91	10.586
697.23	11.209
697.56	9.980
697.88	9.848
698.20	10.546
698.52	14.015
698.84	9.563
699.16	10.816
699.48	8.368
699.80	9.149
700.12	10.480
700.44	9.908
700.76	10.926
701.08	9.927
701.40	11.140
701.72	11.692
702.04	8.824
702.36	11.518
702.68	11.002
703.00	11.491
703.32	12.315
703.64	11.980
703.96	10.979
704.28	10.074
704.60	11.899
704.91	13.010
705.23	11.507
705.55	10.306
705.87	10.909
706.19	11.656
706.51	9.036
706.83	11.527
707.15	11.111
707.47	9.813
707.79	12.009
708.11	6.780
708.43	8.387
708.74	6.473
709.06	11.369
709.38	10.798
709.70	11.663
710.02	10.078
710.34	11.170
710.66	9.777
710.98	12.022
711.29	7.692
711.61	10.452
711.93	9.117
712.25	11.351
712.57	8.850
712.89	9.706
713.20	8.876
713.52	10.116
713.84	8.635
714.16	9.737
714.48	11.082
714.80	12.208
715.11	9.186
715.43	10.345
715.75	10.263
716.07	7.182
716.39	12.022
716.70	11.145
717.02	8.525
717.34	5.923
717.66	8.389
717.97	6.164
718.29	9.622
718.61	7.895
718.93	10.032
719.24	11.180
719.56	9.509
719.88	10.210
720.20	8.065
720.51	13.975
720.83	8.750
721.15	9.539
721.46	6.507
721.78	11.000
722.10	6.149
722.42	7.047
722.73	11.613
723.05	9.123
723.37	6.944
723.68	11.470
724.00	10.108
724.32	8.451
724.63	8.392
724.95	9.220
725.27	11.847
725.58	7.774
725.90	11.724
726.22	10.658
726.53	8.442
726.85	9.434
727.16	8.761
727.48	11.315
727.80	8.940
728.11	10.601
728.43	12.121
728.74	7.023
729.06	10.927
729.38	8.117
729.69	12.416
730.01	13.988
730.32	4.242
730.64	8.805
730.96	7.764
731.27	13.966
731.59	11.538
731.90	6.234
732.22	9.635
732.53	6.630
732.85	8.857
733.16	6.452
733.48	7.012
733.80	7.242
734.11	10.256
734.43	11.892
734.74	14.430
735.06	9.045
735.37	9.459
735.69	8.919
736.00	10.452
736.32	11.590
736.63	7.500
736.95	9.770
737.26	11.515
737.58	8.485
737.89	7.647
738.21	8.869
738.52	9.180
738.83	11.945
739.15	7.801
739.46	6.803
739.78	13.804
740.09	9.742
740.41	10.496
740.72	9.000
741.04	4.854
741.35	11.579
741.66	7.059
741.98	6.148
742.29	5.439
742.61	7.895
742.92	9.231
743.23	10.469
743.55	6.202
743.86	8.400
744.18	3.719
744.49	5.485
744.80	6.584
745.12	8.861
745.43	10.163
745.74	8.621
746.06	10.169
746.37	10.127
746.68	11.789
747.00	3.750
747.31	9.442
747.62	11.538
747.94	10.931
748.25	7.229
748.56	7.347
748.88	8.120
749.19	10.345
749.50	8.225
749.82	14.056
750.13	11.032
750.44	6.667
750.75	8.308
751.07	11.385
751.38	11.987
751.69	8.946
752.01	7.120
752.32	10.458
752.63	9.184
752.94	5.882
753.26	6.320
753.57	5.556
753.88	7.865
754.19	8.039
754.51	10.932
754.82	11.254
755.13	9.508
755.44	10.580
755.75	9.539
756.07	11.642
756.38	13.208
756.69	9.940
757.00	9.418
757.31	10.656
757.63	11.253
757.94	11.502
758.25	9.932
758.56	9.586
758.87	9.545
759.18	10.400
759.50	11.048
759.81	8.123
760.12	6.739
760.43	11.198
760.74	13.054
761.05	7.500
761.36	9.398
761.67	8.122
761.99	9.189
762.30	9.146
762.61	5.941
762.92	6.716
763.23	5.993
763.54	11.151
763.85	6.873
764.16	7.407
764.47	10.211
764.78	9.585
765.10	9.384
765.41	11.026
765.72	8.730
766.03	9.040
766.34	8.777
766.65	8.362
766.96	6.375
767.27	6.452
767.58	1.493
767.89	13.462
768.20	5.634
768.51	4.630
768.82	9.237
769.13	8.712
769.44	1.923
769.75	10.469
770.06	11.923
770.37	10.236
770.68	5.957
770.99	0.810
771.30	12.222
771.61	12.167
771.92	9.630
772.23	6.478
772.54	2.778
772.85	5.991
773.16	10.000
773.47	8.995
773.78	4.865
774.09	13.068
774.39	12.500
774.70	9.290
775.01	2.439
775.32	3.529
775.63	10.429
775.94	-3.185
776.25	3.226
776.56	9.615
776.87	6.803
777.18	1.379
777.48	3.497
777.79	1.351
778.10	-2.941
778.41	7.639
778.72	13.793
779.03	5.556
779.34	4.242
779.65	9.326
779.95	11.667
780.26	7.955
780.57	1.290
780.88	10.870
781.19	10.323
781.50	13.529
781.80	5.914
782.11	5.291
782.42	7.576
782.73	8.383
783.04	5.587
783.34	3.636
783.65	1.961
783.96	4.348
784.27	5.357
784.57	-3.311
784.88	6.429
785.19	3.150
785.50	7.874
785.81	2.256
786.11	1.538
786.42	0.719
786.73	2.158
787.04	9.023
787.34	1.639
787.65	0.000
787.96	5.970
788.26	3.497
788.57	2.098
788.88	1.316
789.19	7.190
789.49	-0.685
789.80	8.511
790.11	7.874
790.41	0.781
790.72	5.932
791.03	-5.825
791.33	0.870
791.64	10.526
791.95	5.357
792.25	7.619
792.56	4.464
792.87	-4.167
793.17	4.464
793.48	0.000
793.79	-16.867
794.09	-2.752
794.40	-7.339
794.70	9.524
795.01	1.948
795.32	4.795
795.62	10.563
795.93	-3.030
796.23	4.918
796.54	8.929
796.85	-1.064
797.15	-8.696
797.46	-15.068
797.76	0.000
798.07	-8.696
798.37	-6.186
798.68	-6.494
798.99	-3.448
799.29	-7.865
799.60	-1.064
799.90	0.000
800.21	-12.308
800.51	-4.478
800.82	-14.706
801.12	-20.548
801.43	-25.000
801.73	-11.864
802.04	-9.091
802.34	-25.000
802.65	-11.864
802.95	0.000
803.26	-22.034
803.56	1.370
803.87	-5.714
804.17	-2.740
804.48	-33.333
804.78	-15.278
805.09	-20.690
805.39	-4.054
805.70	-9.859
806.00	-3.659
806.30	-2.410
806.61	-9.589
806.91	4.808
807.22	-2.222
807.52	-25.287
807.83	-9.722
808.13	9.639
808.43	5.618
808.74	-2.500
809.04	-23.529
809.35	-12.000
809.65	-11.429
809.95	-10.959
810.26	-43.860
810.56	-24.138
810.86	-7.353
811.17	-8.772
811.47	-19.672
811.77	-46.667
812.08	-18.644
812.38	-13.333
812.69	-3.448
812.99	-20.755
813.29	-38.462
813.59	-12.000
813.90	21.053
814.20	-18.182
814.50	5.634
814.81	5.128
815.11	0.000
815.41	-14.925
815.72	3.448
816.02	-3.571
816.32	-37.778
816.62	-13.636
816.93	-37.778
817.23	-3.704
817.53	-23.404
817.84	-9.524
818.14	-8.824
818.44	-28.571
818.74	-8.889
819.04	-41.026
819.35	-57.143
819.65	-100.000
819.95	-11.321
820.25	-8.889
820.56	-30.952
820.86	-28.125
821.16	-35.897
821.46	-34.884
821.76	-24.000
822.07	-5.357
822.37	-26.087
822.67	-36.170
822.97	-37.838
823.27	-25.000
823.57	-12.245
823.88	-11.111
824.18	12.500
824.48	-20.000
824.78	-24.000
825.08	-27.273
825.38	-8.889
825.69	-12.766
825.99	2.778
826.29	-54.286
826.59	-46.154
826.89	-25.581
827.19	-8.000
827.49	-44.118
827.79	-6.250
828.09	-40.541
828.39	-33.333
828.70	-31.707
829.00	-32.558
829.30	-67.857
829.60	-5.882
829.90	-17.391
830.20	-17.143
830.50	-41.379
830.80	-83.333
831.10	-57.692
831.40	-35.294
831.70	-66.667
832.00	-19.355
832.30	-170.588
832.60	-50.000
832.90	-192.308
833.20	-47.368
833.50	-100.000
833.80	-126.316
834.10	-104.762
834.40	-11.111
834.70	-18.750
835.00	-85.714
835.30	-44.118
835.60	-30.000
835.90	-64.000
836.20	-77.273
836.50	-52.000
836.80	-48.485
837.10	-51.852
837.40	-37.037
837.70	-131.250
838.00	-7.143
838.30	-56.522
838.60	-10.345
838.90	-107.143
839.19	-121.739
839.49	-158.333
839.79	-56.522
840.09	-118.750
840.39	-135.000
840.69	-12.903
840.99	-35.714
841.29	-126.667
841.59	-68.421
841.88	-7.692
842.18	-57.692
842.48	-150.000
842.78	-70.000
843.08	-23.333
843.38	-16.129
843.68	-61.111
843.97	-26.471
844.27	-87.500
844.57	-52.632
844.87	-230.000
845.17	-133.333
845.47	-38.095
845.76	-47.619
846.06	-144.444
846.36	-147.059
846.66	-30.769
846.96	-106.667
847.25	-117.647
847.55	-13.043
847.85	-70.000
848.15	-64.706
848.44	-136.364
848.74	-14.286
849.04	-54.167
849.34	-137.500
849.63	-95.652
849.93	1500.000
850.23	-126.667
850.53	-34.615
850.82	-63.636
851.12	-36.364
851.42	-227.273
851.71	-15.385
852.01	-50.000
852.31	-76.923
852.61	-63.158
852.90	-175.000
853.20	-72.222
853.50	-266.667
853.79	-85.714
854.09	-81.818
854.39	-166.667
854.68	-35.484
854.98	-65.385
855.28	-44.444
855.57	-64.286
855.87	-56.000
856.17	-22.727
856.46	-33.333
856.76	-61.111
857.05	-65.217
857.35	-91.667
857.65	-146.154
857.94	-95.238
858.24	-48.148
858.53	-34.783
858.83	-88.235
859.13	-70.588
859.42	-70.588
859.72	-78.571
860.01	-45.000
860.31	-255.556
860.60	-150.000
860.90	-66.667
861.20	-105.556
861.49	-92.308
861.79	-63.333
862.08	-184.615
862.38	-15.625
862.67	-47.059
862.97	-68.750
863.26	-255.556
863.56	-120.000
863.85	-109.091
864.15	-66.667
864.44	-900.000
864.74	-78.571
865.03	-131.250
865.33	-200.000
865.62	-41.935
865.92	-36.364
866.21	-69.565
866.51	-100.000
866.80	-300.000
867.10	-258.333
867.39	-183.333
867.69	2100.000
867.98	-171.429
868.27	-52.941
868.57	-2500.000
868.86	-180.000
869.16	-76.190
869.45	-25.000
869.75	-118.182
870.04	-242.857
870.33	0.000
870.63	-271.429
870.92	-375.000
871.22	-287.500
871.51	-163.636
871.80	-766.667
872.10	-1000.000
>>>>>End Processed Spectral Data<<<<<
