SpectraSuite Data File
++++++++++++++++++++++++++++++++++++
Date: Thu May 14 16:02:11 PDT 2015
User: schluterlab
Dark Spectrum Present: Yes
Reference Spectrum Present: Yes
Number of Sampled Component Spectra: 1
Spectrometers: USB2E3373
Integration Time (usec): 3000 (USB2E3373)
Spectra Averaged: 3 (USB2E3373)
Boxcar Smoothing: 0 (USB2E3373)
Correct for Electrical Dark: No (USB2E3373)
Strobe/Lamp Enabled: No (USB2E3373)
Correct for Detector Non-linearity: No (USB2E3373)
Correct for Stray Light: No (USB2E3373)
Number of Pixels in Processed Spectrum: 2048
>>>>>Begin Processed Spectral Data<<<<<
178.53	0.000
178.91	100.000
179.29	-1500.000
179.67	-1600.000
180.04	214.286
180.42	200.000
180.80	260.000
181.18	-500.000
181.56	-800.000
181.94	450.000
182.31	-350.000
182.69	566.667
183.07	-650.000
183.45	575.000
183.83	-200.000
184.20	-600.000
184.58	1800.000
184.96	-525.000
185.34	-122.222
185.72	-120.000
186.09	277.778
186.47	800.000
186.85	360.000
187.23	-211.111
187.61	-2200.000
187.98	260.000
188.36	700.000
188.74	-275.000
189.12	-566.667
189.49	-87.500
189.87	-125.000
190.25	-188.889
190.63	-220.000
191.00	-222.222
191.38	0.000
191.76	-575.000
192.14	-350.000
192.51	500.000
192.89	-133.333
193.27	0.000
193.65	-328.571
194.02	-2500.000
194.40	-214.286
194.78	257.143
195.15	0.000
195.53	-100.000
195.91	0.000
196.29	-200.000
196.66	-84.615
197.04	-1900.000
197.42	-242.857
197.79	-950.000
198.17	-137.500
198.55	-157.143
198.92	-166.667
199.30	-250.000
199.68	-118.182
200.05	-7.143
200.43	-1100.000
200.81	314.286
201.18	0.000
201.56	300.000
201.94	0.000
202.31	833.333
202.69	-100.000
203.07	1000.000
203.44	-11.111
203.82	-350.000
204.19	-133.333
204.57	-300.000
204.95	-212.500
205.32	-1000.000
205.70	350.000
206.08	-283.333
206.45	-250.000
206.83	580.000
207.20	-133.333
207.58	-380.000
207.96	-233.333
208.33	-133.333
208.71	158.333
209.08	-150.000
209.46	0.000
209.84	433.333
210.21	550.000
210.59	700.000
210.96	666.667
211.34	-175.000
211.71	-262.500
212.09	-1200.000
212.46	0.000
212.84	850.000
213.22	-280.000
213.59	-325.000
213.97	-140.000
214.34	-800.000
214.72	300.000
215.09	-450.000
215.47	0.000
215.84	214.286
216.22	500.000
216.59	-100.000
216.97	-360.000
217.34	-200.000
217.72	-250.000
218.09	-375.000
218.47	-525.000
218.84	0.000
219.22	300.000
219.59	-47.059
219.97	-40.000
220.34	900.000
220.72	-200.000
221.09	-100.000
221.47	-466.667
221.84	-190.000
222.22	-200.000
222.59	0.000
222.97	-62.500
223.34	-400.000
223.72	-1700.000
224.09	-550.000
224.46	-425.000
224.84	-200.000
225.21	-185.714
225.59	-400.000
225.96	-275.000
226.34	-42.308
226.71	466.667
227.08	-650.000
227.46	-33.333
227.83	-550.000
228.21	-31.579
228.58	275.000
228.95	1000.000
229.33	-83.333
229.70	-140.000
230.08	-42.105
230.45	130.000
230.82	-533.333
231.20	-85.714
231.57	-66.667
231.95	-118.182
232.32	-63.636
232.69	-60.000
233.07	-575.000
233.44	-129.412
233.81	-190.000
234.19	-33.333
234.56	-31.818
234.93	3.448
235.31	-73.684
235.68	-88.889
236.05	-120.000
236.43	-15.385
236.80	0.000
237.17	-29.630
237.55	-3.030
237.92	-50.000
238.29	-29.032
238.67	-9.091
239.04	-16.667
239.41	-16.667
239.79	-26.087
240.16	-1.852
240.53	-17.391
240.91	-17.647
241.28	-6.557
241.65	2.985
242.02	5.405
242.40	-13.846
242.77	-4.000
243.14	-7.317
243.51	2.632
243.89	-10.256
244.26	7.921
244.63	8.824
245.00	6.542
245.38	6.140
245.75	-5.310
246.12	5.556
246.49	7.752
246.87	11.429
247.24	7.947
247.61	18.421
247.98	12.752
248.36	9.259
248.73	11.043
249.10	12.022
249.47	14.428
249.84	16.754
250.22	16.062
250.59	13.889
250.96	15.455
251.33	11.224
251.70	14.957
252.08	13.750
252.45	16.803
252.82	14.463
253.19	17.578
253.56	18.631
253.94	15.385
254.31	18.182
254.68	18.531
255.05	19.870
255.42	14.966
255.79	15.534
256.16	13.576
256.54	12.252
256.91	17.049
257.28	14.426
257.65	14.650
258.02	15.044
258.39	15.100
258.76	18.960
259.14	20.115
259.51	17.867
259.88	17.280
260.25	16.389
260.62	16.164
260.99	18.579
261.36	15.818
261.73	18.302
262.10	13.187
262.47	19.035
262.85	19.949
263.22	14.286
263.59	13.684
263.96	16.880
264.33	14.322
264.70	17.778
265.07	20.525
265.44	19.048
265.81	16.898
266.18	18.821
266.55	17.187
266.92	15.945
267.29	19.256
267.66	17.738
268.03	18.341
268.40	19.207
268.77	14.351
269.14	14.978
269.51	18.202
269.88	19.057
270.25	16.097
270.62	17.722
270.99	19.596
271.36	18.416
271.73	17.682
272.10	18.838
272.47	18.838
272.84	16.667
273.21	16.834
273.58	17.137
273.95	18.269
274.32	16.540
274.69	16.441
275.06	19.048
275.43	16.451
275.80	18.519
276.17	17.407
276.54	16.045
276.91	16.279
277.28	19.711
277.65	18.312
278.02	17.831
278.39	18.841
278.76	16.344
279.13	15.957
279.50	20.275
279.87	17.531
280.23	14.437
280.60	16.441
280.97	18.750
281.34	18.676
281.71	20.643
282.08	16.611
282.45	18.822
282.82	16.641
283.19	14.378
283.56	17.869
283.92	19.069
284.29	17.220
284.66	19.540
285.03	15.865
285.40	17.156
285.77	17.028
286.14	17.252
286.51	16.591
286.87	16.430
287.24	17.771
287.61	16.891
287.98	16.767
288.35	14.941
288.72	18.195
289.08	17.277
289.45	15.533
289.82	16.867
290.19	14.799
290.56	17.183
290.93	15.835
291.29	15.427
291.66	16.253
292.03	16.147
292.40	16.463
292.77	17.385
293.13	16.644
293.50	14.717
293.87	14.765
294.24	16.400
294.60	15.803
294.97	13.423
295.34	16.005
295.71	15.763
296.08	12.920
296.44	14.583
296.81	14.982
297.18	13.076
297.55	13.797
297.91	13.879
298.28	12.678
298.65	14.863
299.02	16.293
299.38	14.302
299.75	13.551
300.12	12.847
300.48	13.594
300.85	13.611
301.22	13.870
301.59	14.041
301.95	13.220
302.32	14.889
302.69	12.815
303.05	13.711
303.42	13.858
303.79	12.500
304.15	13.354
304.52	13.742
304.89	14.660
305.25	12.112
305.62	13.689
305.99	14.124
306.35	13.206
306.72	13.237
307.09	12.792
307.45	13.043
307.82	13.320
308.19	11.806
308.55	13.115
308.92	13.729
309.29	13.027
309.65	12.768
310.02	12.475
310.38	13.583
310.75	13.010
311.12	13.710
311.48	13.587
311.85	12.821
312.22	13.378
312.58	13.803
312.95	13.480
313.31	13.821
313.68	14.377
314.05	14.273
314.41	13.752
314.78	13.715
315.14	13.612
315.51	15.143
315.87	14.761
316.24	15.251
316.61	15.986
316.97	14.208
317.34	13.757
317.70	15.022
318.07	15.520
318.43	16.241
318.80	16.555
319.16	16.395
319.53	15.596
319.89	15.688
320.26	17.705
320.62	16.844
320.99	17.636
321.35	17.560
321.72	19.442
322.08	17.313
322.45	18.790
322.81	18.412
323.18	19.115
323.54	20.259
323.91	19.751
324.27	19.019
324.64	20.487
325.00	20.896
325.37	21.622
325.73	20.992
326.10	23.277
326.46	22.394
326.83	23.939
327.19	23.228
327.56	23.399
327.92	23.761
328.29	22.823
328.65	23.702
329.01	23.858
329.38	24.010
329.74	25.685
330.11	25.942
330.47	25.358
330.84	25.668
331.20	27.000
331.56	26.256
331.93	26.778
332.29	26.102
332.66	25.748
333.02	24.791
333.38	25.923
333.75	27.946
334.11	26.105
334.48	27.145
334.84	27.273
335.20	27.456
335.57	28.162
335.93	26.942
336.29	27.038
336.66	26.325
337.02	27.341
337.38	29.337
337.75	27.769
338.11	27.670
338.47	28.619
338.84	27.411
339.20	25.779
339.56	26.524
339.93	26.847
340.29	27.375
340.65	26.683
341.02	28.891
341.38	29.426
341.74	27.926
342.11	28.882
342.47	26.926
342.83	29.147
343.20	29.109
343.56	28.709
343.92	28.263
344.28	29.531
344.65	29.225
345.01	29.329
345.37	29.471
345.73	27.825
346.10	29.485
346.46	29.272
346.82	29.064
347.19	29.030
347.55	30.121
347.91	30.163
348.27	29.970
348.63	29.322
349.00	29.306
349.36	28.699
349.72	30.283
350.08	29.866
350.45	28.821
350.81	30.468
351.17	29.474
351.53	30.933
351.89	29.765
352.26	30.224
352.62	31.194
352.98	29.542
353.34	28.678
353.70	30.663
354.07	29.881
354.43	31.587
354.79	30.516
355.15	30.243
355.51	30.117
355.87	31.339
356.24	31.103
356.60	29.712
356.96	30.838
357.32	29.517
357.68	31.186
358.04	32.111
358.40	30.448
358.77	31.360
359.13	30.502
359.49	30.632
359.85	32.560
360.21	31.205
360.57	31.156
360.93	31.594
361.29	31.789
361.66	31.789
362.02	32.289
362.38	31.553
362.74	31.704
363.10	31.706
363.46	32.548
363.82	32.741
364.18	31.597
364.54	33.195
364.90	33.244
365.26	33.379
365.62	32.533
365.98	34.105
366.35	32.819
366.71	33.878
367.07	33.288
367.43	33.815
367.79	33.112
368.15	34.181
368.51	34.032
368.87	33.834
369.23	32.733
369.59	34.016
369.95	34.550
370.31	34.099
370.67	33.287
371.03	33.310
371.39	33.983
371.75	34.388
372.11	33.130
372.47	32.972
372.83	33.770
373.19	33.823
373.55	33.604
373.91	32.515
374.27	34.541
374.63	34.912
374.99	34.085
375.35	34.481
375.71	33.161
376.07	34.216
376.42	34.824
376.78	34.431
377.14	33.125
377.50	34.598
377.86	35.591
378.22	34.850
378.58	34.602
378.94	33.862
379.30	34.856
379.66	35.802
380.02	35.199
380.38	35.023
380.74	34.085
381.09	34.901
381.45	36.080
381.81	34.953
382.17	34.323
382.53	35.088
382.89	35.158
383.25	35.815
383.61	35.012
383.97	35.453
384.32	36.124
384.68	33.759
385.04	35.685
385.40	35.887
385.76	35.170
386.12	35.248
386.48	34.882
386.83	35.221
387.19	35.400
387.55	34.859
387.91	34.932
388.27	35.624
388.62	34.651
388.98	35.307
389.34	36.123
389.70	35.677
390.06	34.458
390.42	35.361
390.77	36.063
391.13	35.270
391.49	35.145
391.85	35.212
392.20	34.698
392.56	35.676
392.92	35.387
393.28	35.710
393.64	34.804
393.99	35.096
394.35	34.813
394.71	35.090
395.07	33.713
395.42	34.380
395.78	35.101
396.14	33.749
396.50	34.145
396.85	33.691
397.21	33.550
397.57	35.336
397.92	34.593
398.28	33.732
398.64	33.410
399.00	32.147
399.35	34.346
399.71	33.533
400.07	33.914
400.42	33.993
400.78	34.780
401.14	32.442
401.49	33.428
401.85	32.791
402.21	34.241
402.57	34.214
402.92	34.338
403.28	33.080
403.63	33.652
403.99	32.720
404.35	31.950
404.70	32.408
405.06	32.011
405.42	33.489
405.77	33.915
406.13	32.739
406.49	33.390
406.84	33.130
407.20	32.700
407.55	32.707
407.91	32.747
408.27	32.627
408.62	33.450
408.98	32.443
409.34	31.672
409.69	32.138
410.05	32.239
410.40	33.527
410.76	32.473
411.11	32.320
411.47	31.818
411.83	32.981
412.18	32.651
412.54	31.713
412.89	32.596
413.25	32.223
413.60	32.223
413.96	32.343
414.31	31.671
414.67	33.691
415.03	32.123
415.38	31.715
415.74	31.765
416.09	31.832
416.45	31.622
416.80	32.130
417.16	32.120
417.51	32.379
417.87	32.434
418.22	33.054
418.58	32.342
418.93	32.421
419.29	32.861
419.64	31.633
420.00	32.047
420.35	33.071
420.71	32.625
421.06	32.317
421.42	32.053
421.77	31.933
422.12	32.505
422.48	32.924
422.83	32.530
423.19	32.255
423.54	32.246
423.90	33.407
424.25	32.693
424.61	33.467
424.96	32.894
425.31	32.537
425.67	32.797
426.02	33.868
426.38	33.410
426.73	33.092
427.09	33.968
427.44	32.878
427.79	33.444
428.15	33.219
428.50	33.539
428.85	33.697
429.21	33.404
429.56	34.353
429.92	34.103
430.27	33.349
430.62	33.757
430.98	33.940
431.33	33.236
431.68	33.429
432.04	33.926
432.39	33.369
432.74	34.532
433.10	35.425
433.45	33.779
433.80	33.691
434.16	34.194
434.51	34.532
434.86	34.691
435.22	35.547
435.57	35.436
435.92	34.502
436.28	34.528
436.63	35.227
436.98	34.353
437.34	34.442
437.69	34.618
438.04	35.325
438.39	34.578
438.75	34.754
439.10	35.571
439.45	34.768
439.81	35.028
440.16	34.316
440.51	35.396
440.86	34.686
441.22	34.566
441.57	34.906
441.92	35.112
442.27	35.606
442.63	35.668
442.98	35.059
443.33	35.245
443.68	36.075
444.03	35.936
444.39	35.368
444.74	35.681
445.09	35.428
445.44	35.248
445.79	36.207
446.15	34.943
446.50	34.677
446.85	35.360
447.20	34.913
447.55	35.931
447.91	35.550
448.26	34.461
448.61	34.910
448.96	35.354
449.31	34.624
449.66	34.259
450.02	35.496
450.37	34.949
450.72	34.499
451.07	34.966
451.42	34.258
451.77	34.297
452.12	35.892
452.47	34.403
452.83	35.135
453.18	34.734
453.53	34.578
453.88	33.738
454.23	34.237
454.58	34.127
454.93	33.374
455.28	35.521
455.63	33.542
455.98	33.464
456.34	33.922
456.69	32.745
457.04	33.274
457.39	33.925
457.74	34.060
458.09	33.828
458.44	33.567
458.79	33.265
459.14	33.403
459.49	33.843
459.84	34.050
460.19	32.871
460.54	33.901
460.89	33.139
461.24	32.241
461.59	33.647
461.94	32.516
462.29	32.811
462.64	31.804
462.99	31.952
463.34	33.550
463.69	31.360
464.04	32.351
464.39	32.343
464.74	32.098
465.09	32.411
465.44	32.082
465.79	31.835
466.14	31.892
466.49	32.421
466.84	32.176
467.19	31.618
467.54	31.492
467.89	30.632
468.24	31.080
468.59	29.936
468.94	30.245
469.29	30.354
469.64	30.261
469.99	29.828
470.34	30.136
470.68	30.827
471.03	31.107
471.38	29.758
471.73	29.974
472.08	30.393
472.43	29.500
472.78	29.534
473.13	30.278
473.48	29.668
473.83	29.135
474.17	30.129
474.52	29.345
474.87	29.790
475.22	29.577
475.57	29.491
475.92	29.517
476.27	29.766
476.61	28.609
476.96	28.624
477.31	28.762
477.66	29.801
478.01	29.436
478.36	28.814
478.70	28.719
479.05	28.988
479.40	29.368
479.75	28.194
480.10	28.233
480.45	28.350
480.79	28.571
481.14	27.941
481.49	27.533
481.84	28.285
482.19	28.516
482.53	28.684
482.88	28.711
483.23	27.924
483.58	26.725
483.92	27.926
484.27	27.985
484.62	27.021
484.97	28.344
485.31	27.772
485.66	26.276
486.01	26.851
486.36	26.787
486.70	28.259
487.05	28.051
487.40	28.163
487.75	27.812
488.09	28.121
488.44	27.219
488.79	27.083
489.13	27.082
489.48	26.252
489.83	25.956
490.17	26.569
490.52	26.108
490.87	25.465
491.22	26.083
491.56	26.323
491.91	26.341
492.26	26.352
492.60	25.929
492.95	25.932
493.30	25.863
493.64	25.843
493.99	25.307
494.34	26.089
494.68	24.283
495.03	25.507
495.37	25.300
495.72	25.896
496.07	25.241
496.41	24.582
496.76	25.104
497.11	25.393
497.45	25.334
497.80	25.100
498.14	25.170
498.49	25.506
498.84	25.274
499.18	25.191
499.53	24.843
499.87	24.571
500.22	24.221
500.56	24.381
500.91	24.668
501.26	24.864
501.60	24.127
501.95	24.360
502.29	24.441
502.64	24.923
502.98	23.684
503.33	24.363
503.67	23.942
504.02	24.475
504.36	24.531
504.71	24.070
505.06	24.056
505.40	23.766
505.75	24.135
506.09	23.849
506.44	23.677
506.78	24.037
507.13	23.098
507.47	23.070
507.82	22.917
508.16	23.566
508.51	22.644
508.85	23.996
509.19	23.828
509.54	23.295
509.88	23.118
510.23	23.652
510.57	24.408
510.92	22.980
511.26	23.377
511.61	22.501
511.95	23.036
512.30	22.797
512.64	23.038
512.98	22.261
513.33	22.883
513.67	21.877
514.02	22.637
514.36	22.558
514.70	22.135
515.05	23.306
515.39	22.572
515.74	22.853
516.08	22.029
516.42	23.234
516.77	23.134
517.11	22.073
517.46	22.057
517.80	22.822
518.14	22.797
518.49	22.180
518.83	21.873
519.17	22.240
519.52	22.851
519.86	21.595
520.20	21.725
520.55	22.070
520.89	21.903
521.23	20.938
521.58	22.203
521.92	21.756
522.26	21.306
522.61	21.470
522.95	21.338
523.29	22.126
523.64	21.749
523.98	21.335
524.32	22.636
524.66	21.059
525.01	21.121
525.35	21.597
525.69	21.404
526.04	21.240
526.38	21.149
526.72	20.531
527.06	21.935
527.41	20.583
527.75	21.318
528.09	20.838
528.43	20.722
528.78	20.751
529.12	20.528
529.46	20.798
529.80	20.709
530.15	21.565
530.49	21.174
530.83	20.838
531.17	20.191
531.51	19.374
531.86	20.974
532.20	21.768
532.54	20.946
532.88	20.909
533.22	20.035
533.57	20.196
533.91	20.483
534.25	20.294
534.59	21.034
534.93	20.260
535.27	20.451
535.62	20.921
535.96	20.337
536.30	20.388
536.64	19.940
536.98	20.234
537.32	20.185
537.66	20.524
538.01	20.302
538.35	20.280
538.69	19.651
539.03	20.049
539.37	20.436
539.71	19.580
540.05	20.324
540.39	19.988
540.73	19.429
541.07	20.540
541.42	19.787
541.76	18.980
542.10	19.964
542.44	19.549
542.78	19.830
543.12	19.964
543.46	20.330
543.80	19.724
544.14	18.911
544.48	20.095
544.82	19.749
545.16	19.797
545.50	18.814
545.84	19.351
546.18	19.259
546.52	19.172
546.86	19.057
547.20	18.893
547.54	18.602
547.88	19.409
548.22	18.889
548.56	19.310
548.90	19.701
549.24	18.663
549.58	18.612
549.92	19.452
550.26	19.482
550.60	19.081
550.94	19.082
551.28	19.076
551.62	17.992
551.96	19.417
552.30	19.184
552.64	18.793
552.98	18.653
553.32	19.743
553.66	19.614
554.00	18.979
554.34	18.726
554.68	18.270
555.02	18.528
555.36	19.329
555.69	17.745
556.03	18.916
556.37	19.086
556.71	19.341
557.05	19.425
557.39	18.912
557.73	18.362
558.07	18.344
558.41	19.668
558.75	19.405
559.08	19.207
559.42	17.764
559.76	19.064
560.10	18.486
560.44	18.734
560.78	19.375
561.12	18.534
561.45	18.613
561.79	19.109
562.13	18.423
562.47	18.002
562.81	19.114
563.15	18.624
563.48	18.769
563.82	19.166
564.16	17.807
564.50	18.355
564.84	18.171
565.17	18.765
565.51	18.297
565.85	18.824
566.19	18.203
566.52	17.730
566.86	18.449
567.20	17.618
567.54	18.109
567.88	18.451
568.21	18.676
568.55	18.513
568.89	18.429
569.23	18.631
569.56	18.445
569.90	18.603
570.24	18.347
570.57	18.089
570.91	18.524
571.25	18.397
571.59	18.286
571.92	18.284
572.26	18.317
572.60	18.400
572.93	19.121
573.27	18.685
573.61	18.581
573.95	18.451
574.28	18.500
574.62	18.713
574.96	18.262
575.29	18.198
575.63	18.272
575.97	18.371
576.30	18.653
576.64	18.516
576.98	18.223
577.31	18.463
577.65	18.531
577.98	18.430
578.32	18.478
578.66	18.771
578.99	18.288
579.33	18.786
579.67	18.359
580.00	18.633
580.34	18.281
580.67	18.513
581.01	18.282
581.35	18.547
581.68	18.296
582.02	18.713
582.35	18.875
582.69	18.868
583.02	18.763
583.36	18.649
583.70	18.655
584.03	18.407
584.37	18.588
584.70	18.704
585.04	18.066
585.37	18.228
585.71	18.231
586.04	18.604
586.38	18.802
586.72	18.376
587.05	18.214
587.39	18.100
587.72	18.732
588.06	18.569
588.39	18.745
588.73	18.386
589.06	18.030
589.40	19.053
589.73	18.702
590.07	18.733
590.40	18.458
590.73	18.452
591.07	18.541
591.40	17.729
591.74	18.362
592.07	18.676
592.41	18.218
592.74	17.856
593.08	18.280
593.41	18.723
593.75	18.448
594.08	18.085
594.41	18.654
594.75	17.801
595.08	18.540
595.42	18.571
595.75	18.147
596.09	18.536
596.42	17.986
596.75	17.870
597.09	18.343
597.42	17.441
597.75	17.993
598.09	17.579
598.42	18.175
598.76	17.845
599.09	17.693
599.42	17.700
599.76	17.927
600.09	18.752
600.42	17.551
600.76	18.065
601.09	17.856
601.42	17.645
601.76	17.724
602.09	18.013
602.42	17.448
602.76	17.860
603.09	17.548
603.42	17.775
603.76	17.230
604.09	18.630
604.42	18.165
604.76	17.618
605.09	18.189
605.42	17.743
605.75	17.654
606.09	17.693
606.42	17.804
606.75	17.616
607.09	17.204
607.42	17.418
607.75	18.054
608.08	17.522
608.42	17.211
608.75	17.662
609.08	17.827
609.41	17.865
609.75	17.455
610.08	17.854
610.41	17.247
610.74	17.269
611.07	17.362
611.41	17.578
611.74	17.783
612.07	17.765
612.40	17.110
612.73	18.044
613.07	17.359
613.40	17.806
613.73	16.899
614.06	17.370
614.39	16.861
614.72	16.885
615.06	17.421
615.39	16.916
615.72	17.251
616.05	17.581
616.38	17.306
616.71	17.555
617.05	16.986
617.38	17.228
617.71	17.387
618.04	17.107
618.37	17.158
618.70	16.629
619.03	17.025
619.36	16.954
619.69	17.168
620.03	17.075
620.36	16.748
620.69	16.225
621.02	16.142
621.35	17.126
621.68	17.426
622.01	16.299
622.34	14.784
622.67	16.357
623.00	15.520
623.33	16.457
623.66	16.796
623.99	16.195
624.32	18.324
624.65	15.959
624.99	16.580
625.32	16.656
625.65	16.521
625.98	16.203
626.31	16.655
626.64	16.777
626.97	16.054
627.30	15.414
627.63	16.054
627.96	16.366
628.29	16.498
628.62	16.205
628.95	15.425
629.28	15.038
629.61	16.330
629.94	15.732
630.26	15.508
630.59	14.680
630.92	15.238
631.25	16.100
631.58	16.667
631.91	15.839
632.24	16.234
632.57	15.560
632.90	16.048
633.23	16.224
633.56	16.122
633.89	14.256
634.22	16.424
634.55	15.449
634.88	15.476
635.20	17.869
635.53	15.706
635.86	14.626
636.19	16.225
636.52	16.139
636.85	14.607
637.18	16.424
637.51	15.054
637.83	15.282
638.16	16.820
638.49	14.437
638.82	15.445
639.15	15.578
639.48	16.397
639.81	15.127
640.13	15.665
640.46	14.061
640.79	14.828
641.12	15.528
641.45	15.558
641.77	16.560
642.10	13.911
642.43	16.223
642.76	14.770
643.09	14.658
643.41	14.146
643.74	14.897
644.07	15.310
644.40	14.144
644.73	14.659
645.05	15.272
645.38	15.252
645.71	13.783
646.04	14.921
646.36	14.891
646.69	14.571
647.02	14.679
647.35	15.267
647.67	14.493
648.00	13.057
648.33	16.517
648.66	13.695
648.98	14.966
649.31	15.156
649.64	14.077
649.96	15.385
650.29	12.517
650.62	14.710
650.94	13.814
651.27	13.174
651.60	14.474
651.92	12.158
652.25	14.761
652.58	13.343
652.90	13.372
653.23	14.507
653.56	14.265
653.88	16.152
654.21	13.944
654.54	12.861
654.86	15.439
655.19	14.931
655.52	16.121
655.84	17.006
656.17	20.239
656.49	28.223
656.82	31.747
657.15	25.115
657.47	19.345
657.80	14.648
658.13	11.466
658.45	15.035
658.78	18.324
659.10	17.611
659.43	17.235
659.75	16.092
660.08	15.238
660.41	13.896
660.73	13.455
661.06	13.216
661.38	12.759
661.71	14.138
662.03	12.698
662.36	13.417
662.68	15.009
663.01	11.504
663.33	13.422
663.66	15.018
663.98	13.077
664.31	12.946
664.63	12.717
664.96	14.338
665.28	12.704
665.61	13.112
665.93	12.321
666.26	14.695
666.58	12.731
666.91	14.393
667.23	13.524
667.56	12.426
667.88	12.200
668.21	11.914
668.53	11.583
668.86	12.574
669.18	11.609
669.50	13.519
669.83	12.800
670.15	12.795
670.48	14.087
670.80	10.899
671.13	14.367
671.45	12.205
671.77	15.254
672.10	12.500
672.42	14.078
672.75	11.982
673.07	13.134
673.39	12.481
673.72	14.094
674.04	13.276
674.37	13.775
674.69	15.697
675.01	12.762
675.34	14.122
675.66	10.487
675.98	13.619
676.31	13.477
676.63	14.449
676.95	13.793
677.28	14.718
677.60	11.024
677.92	15.547
678.25	14.077
678.57	15.658
678.89	16.382
679.22	12.892
679.54	12.821
679.86	9.831
680.18	13.433
680.51	14.465
680.83	13.912
681.15	11.724
681.48	14.680
681.80	13.126
682.12	14.510
682.44	10.851
682.77	11.525
683.09	13.068
683.41	12.597
683.73	11.765
684.06	11.624
684.38	13.596
684.70	14.183
685.02	15.146
685.34	11.647
685.67	12.461
685.99	13.497
686.31	13.808
686.63	12.954
686.96	14.196
687.28	12.704
687.60	12.458
687.92	14.791
688.24	13.856
688.56	11.207
688.89	13.975
689.21	13.307
689.53	11.765
689.85	10.848
690.17	12.222
690.49	12.948
690.82	12.871
691.14	11.943
691.46	12.620
691.78	12.707
692.10	10.826
692.42	12.679
692.74	13.067
693.06	10.185
693.39	14.611
693.71	13.158
694.03	11.152
694.35	12.381
694.67	11.294
694.99	13.191
695.31	13.024
695.63	11.255
695.95	13.458
696.27	8.352
696.59	13.717
696.91	13.514
697.23	15.824
697.56	10.794
697.88	10.227
698.20	13.559
698.52	14.394
698.84	13.514
699.16	15.510
699.48	12.134
699.80	9.362
700.12	12.882
700.44	9.677
700.76	13.777
701.08	11.380
701.40	12.435
701.72	8.955
702.04	12.567
702.36	10.471
702.68	11.002
703.00	9.535
703.32	10.345
703.64	12.958
703.96	11.456
704.28	10.319
704.60	13.165
704.91	11.480
705.23	13.699
705.55	10.306
705.87	10.606
706.19	14.110
706.51	7.831
706.83	12.680
707.15	7.407
707.47	10.514
707.79	10.699
708.11	11.229
708.43	8.172
708.74	11.384
709.06	11.137
709.38	14.554
709.70	13.896
710.02	11.628
710.34	12.234
710.66	10.894
710.98	10.109
711.29	12.088
711.61	10.734
711.93	12.821
712.25	11.081
712.57	10.619
712.89	9.412
713.20	7.988
713.52	12.139
713.84	9.471
714.16	13.947
714.48	10.825
714.80	13.506
715.11	10.236
715.43	10.080
715.75	11.579
716.07	11.602
716.39	13.934
716.70	9.639
717.02	10.820
717.34	4.530
717.66	8.389
717.97	8.219
718.29	9.278
718.61	9.539
718.93	10.680
719.24	11.801
719.56	8.589
719.88	11.111
720.20	9.032
720.51	9.938
720.83	12.188
721.15	9.539
721.46	12.329
721.78	7.333
722.10	9.061
722.42	11.074
722.73	8.065
723.05	9.123
723.37	8.333
723.68	11.470
724.00	9.025
724.32	8.099
724.63	15.035
724.95	9.574
725.27	12.892
725.58	6.714
725.90	12.414
726.22	10.345
726.53	12.013
726.85	11.321
727.16	9.366
727.48	15.596
727.80	12.583
728.11	8.481
728.43	9.091
728.74	6.355
729.06	9.603
729.38	10.390
729.69	9.060
730.01	13.095
730.32	5.455
730.64	12.579
730.96	7.764
731.27	12.011
731.59	10.165
731.90	9.091
732.22	9.635
732.53	8.840
732.85	10.571
733.16	10.850
733.48	8.841
733.80	11.142
734.11	9.402
734.43	10.811
734.74	12.911
735.06	11.307
735.37	12.432
735.69	12.162
736.00	9.605
736.32	12.399
736.63	13.333
736.95	8.621
737.26	7.576
737.58	11.515
737.89	11.176
738.21	7.951
738.52	8.525
738.83	9.215
739.15	9.929
739.46	9.184
739.78	11.350
740.09	10.029
740.41	10.787
740.72	9.667
741.04	9.061
741.35	11.228
741.66	8.235
741.98	7.377
742.29	8.787
742.61	7.895
742.92	9.231
743.23	10.830
743.55	12.403
743.86	10.800
744.18	-0.826
744.49	8.861
744.80	13.580
745.12	7.173
745.43	13.415
745.74	12.069
746.06	8.898
746.37	10.127
746.68	9.756
747.00	2.500
747.31	8.155
747.62	10.000
747.94	11.741
748.25	7.229
748.56	6.939
748.88	6.838
749.19	12.500
749.50	9.091
749.82	8.434
750.13	10.320
750.44	8.667
750.75	9.538
751.07	11.077
751.38	8.202
751.69	10.224
752.01	4.854
752.32	5.229
752.63	11.224
752.94	6.920
753.26	4.833
753.57	6.667
753.88	7.865
754.19	12.219
754.51	9.003
754.82	12.862
755.13	11.475
755.44	11.945
755.75	12.171
756.07	14.030
756.38	9.748
756.69	10.843
757.00	10.526
757.31	11.749
757.63	8.440
757.94	10.563
758.25	12.867
758.56	9.586
758.87	12.727
759.18	10.667
759.50	11.331
759.81	11.765
760.12	13.208
760.43	10.937
760.74	12.562
761.05	8.000
761.36	12.771
761.67	9.898
761.99	11.622
762.30	11.280
762.61	8.911
762.92	6.716
763.23	13.109
763.54	8.273
763.85	8.591
764.16	8.418
764.47	8.803
764.78	13.419
765.10	7.918
765.41	14.103
765.72	11.905
766.03	13.559
766.34	10.658
766.65	5.923
766.96	9.163
767.27	4.608
767.58	3.483
767.89	9.615
768.20	7.512
768.51	6.019
768.82	13.655
769.13	8.712
769.44	4.231
769.75	11.913
770.06	8.462
770.37	11.024
770.68	1.702
770.99	1.619
771.30	11.111
771.61	11.407
771.92	11.852
772.23	8.097
772.54	4.630
772.85	16.129
773.16	11.905
773.47	-0.529
773.78	1.622
774.09	13.068
774.39	15.500
774.70	10.929
775.01	1.829
775.32	2.941
775.63	7.362
775.94	-5.732
776.25	5.161
776.56	7.692
776.87	4.762
777.18	2.759
777.48	-0.699
777.79	0.676
778.10	-5.882
778.41	8.333
778.72	7.586
779.03	2.469
779.34	4.242
779.65	8.808
779.95	13.889
780.26	6.250
780.57	2.581
780.88	10.145
781.19	7.742
781.50	5.294
781.80	10.753
782.11	7.937
782.42	1.010
782.73	4.192
783.04	7.263
783.34	0.606
783.65	3.922
783.96	-1.242
784.27	4.167
784.57	11.921
784.88	2.143
785.19	3.150
785.50	0.000
785.81	2.256
786.11	3.077
786.42	2.878
786.73	0.719
787.04	7.519
787.34	1.639
787.65	-4.800
787.96	7.463
788.26	9.091
788.57	9.790
788.88	3.289
789.19	5.229
789.49	2.055
789.80	2.128
790.11	6.299
790.41	0.000
790.72	4.237
791.03	-7.767
791.33	-4.348
791.64	0.877
791.95	-2.679
792.25	2.857
792.56	4.464
792.87	-12.500
793.17	0.000
793.48	-3.125
793.79	-14.458
794.09	-3.670
794.40	-10.092
794.70	6.122
795.01	0.649
795.32	2.740
795.62	4.225
795.93	-1.515
796.23	11.475
796.54	-0.893
796.85	-9.574
797.15	1.087
797.46	-17.808
797.76	-15.000
798.07	-3.261
798.37	-9.278
798.68	-18.182
798.99	1.149
799.29	0.000
799.60	-7.447
799.90	-4.819
800.21	-6.154
800.51	-20.896
800.82	-20.588
801.12	-23.288
801.43	-25.000
801.73	-25.424
802.04	-9.091
802.34	-21.667
802.65	-25.424
802.95	-7.463
803.26	-8.475
803.56	-17.808
803.87	1.429
804.17	1.370
804.48	-38.596
804.78	-13.889
805.09	-29.310
805.39	0.000
805.70	-22.535
806.00	2.439
806.30	-4.819
806.61	-4.110
806.91	2.885
807.22	0.000
807.52	-10.345
807.83	-13.889
808.13	1.205
808.43	2.247
808.74	-8.750
809.04	-23.529
809.35	-12.000
809.65	-18.571
809.95	1.370
810.26	-28.070
810.56	-20.690
810.86	-10.294
811.17	-14.035
811.47	-21.311
811.77	-28.889
812.08	-16.949
812.38	-28.333
812.69	-3.448
812.99	-3.774
813.29	-35.897
813.59	-6.000
813.90	-7.018
814.20	-27.273
814.50	12.676
814.81	-11.538
815.11	-4.918
815.41	0.000
815.72	3.448
816.02	-19.643
816.32	2.222
816.62	-4.545
816.93	-37.778
817.23	0.000
817.53	2.128
817.84	-16.667
818.14	-47.059
818.44	-28.571
818.74	-20.000
819.04	-41.026
819.35	-48.571
819.65	-88.462
819.95	-11.321
820.25	-2.222
820.56	-35.714
820.86	-37.500
821.16	-20.513
821.46	-34.884
821.76	-16.000
822.07	-28.571
822.37	-28.261
822.67	-27.660
822.97	-40.541
823.27	-30.000
823.57	-8.163
823.88	-8.889
824.18	-5.000
824.48	-23.333
824.78	-24.000
825.08	-33.333
825.38	-13.333
825.69	-23.404
825.99	-22.222
826.29	-62.857
826.59	-20.513
826.89	-11.628
827.19	-18.000
827.49	-38.235
827.79	-8.333
828.09	-45.946
828.39	-30.000
828.70	-21.951
829.00	-13.953
829.30	-57.143
829.60	-20.588
829.90	0.000
830.20	-31.429
830.50	-58.621
830.80	-116.667
831.10	-30.769
831.40	-38.235
831.70	-42.857
832.00	-9.677
832.30	-123.529
832.60	-91.667
832.90	-169.231
833.20	-100.000
833.50	-95.000
833.80	-52.632
834.10	-123.810
834.40	-33.333
834.70	-28.125
835.00	-42.857
835.30	-20.588
835.60	-36.667
835.90	-64.000
836.20	-109.091
836.50	-36.000
836.80	-63.636
837.10	-74.074
837.40	-18.519
837.70	-118.750
838.00	-39.286
838.30	-52.174
838.60	-17.241
838.90	-107.143
839.19	-69.565
839.49	-83.333
839.79	-56.522
840.09	-100.000
840.39	-75.000
840.69	-41.935
840.99	-64.286
841.29	-60.000
841.59	-57.895
841.88	0.000
842.18	-50.000
842.48	-210.000
842.78	-80.000
843.08	-10.000
843.38	-3.226
843.68	-83.333
843.97	-35.294
844.27	-62.500
844.57	-94.737
844.87	-220.000
845.17	-100.000
845.47	0.000
845.76	-80.952
846.06	-166.667
846.36	-123.529
846.66	-38.462
846.96	-146.667
847.25	-111.765
847.55	-65.217
847.85	-95.000
848.15	-117.647
848.44	-154.545
848.74	-52.381
849.04	-75.000
849.34	-112.500
849.63	-8.696
849.93	950.000
850.23	-20.000
850.53	0.000
850.82	-172.727
851.12	-13.636
851.42	-190.909
851.71	-46.154
852.01	-105.000
852.31	-100.000
852.61	-84.211
852.90	-25.000
853.20	-61.111
853.50	-255.556
853.79	-71.429
854.09	-63.636
854.39	-200.000
854.68	-12.903
854.98	-38.462
855.28	22.222
855.57	-46.429
855.87	-36.000
856.17	-77.273
856.46	-40.741
856.76	-83.333
857.05	-65.217
857.35	-116.667
857.65	-100.000
857.94	19.048
858.24	-22.222
858.53	-21.739
858.83	-64.706
859.13	-100.000
859.42	-35.294
859.72	-71.429
860.01	-55.000
860.31	-266.667
860.60	-110.000
860.90	-86.667
861.20	-66.667
861.49	-146.154
861.79	-43.333
862.08	-184.615
862.38	-21.875
862.67	-47.059
862.97	-56.250
863.26	-144.444
863.56	-80.000
863.85	-154.545
864.15	-72.222
864.44	-600.000
864.74	-142.857
865.03	-112.500
865.33	-210.000
865.62	-70.968
865.92	-18.182
866.21	-8.696
866.51	-71.429
866.80	-360.000
867.10	-108.333
867.39	-258.333
867.69	2600.000
867.98	-328.571
868.27	-111.765
868.57	-2600.000
868.86	-80.000
869.16	-90.476
869.45	-8.333
869.75	-136.364
870.04	-185.714
870.33	-108.333
870.63	-242.857
870.92	-275.000
871.22	-250.000
871.51	-181.818
871.80	-1000.000
872.10	-1100.000
>>>>>End Processed Spectral Data<<<<<
