SpectraSuite Data File
++++++++++++++++++++++++++++++++++++
Date: Thu May 14 16:01:50 PDT 2015
User: schluterlab
Dark Spectrum Present: Yes
Reference Spectrum Present: Yes
Number of Sampled Component Spectra: 1
Spectrometers: USB2E3373
Integration Time (usec): 3000 (USB2E3373)
Spectra Averaged: 3 (USB2E3373)
Boxcar Smoothing: 0 (USB2E3373)
Correct for Electrical Dark: No (USB2E3373)
Strobe/Lamp Enabled: No (USB2E3373)
Correct for Detector Non-linearity: No (USB2E3373)
Correct for Stray Light: No (USB2E3373)
Number of Pixels in Processed Spectrum: 2048
>>>>>Begin Processed Spectral Data<<<<<
178.53	0.000
178.91	214.286
179.29	-2100.000
179.67	-2200.000
180.04	214.286
180.42	140.000
180.80	300.000
181.18	-900.000
181.56	-800.000
181.94	500.000
182.31	-325.000
182.69	333.333
183.07	-700.000
183.45	300.000
183.83	-200.000
184.20	-233.333
184.58	1100.000
184.96	-500.000
185.34	-88.889
185.72	-300.000
186.09	222.222
186.47	600.000
186.85	380.000
187.23	-255.556
187.61	-2000.000
187.98	400.000
188.36	475.000
188.74	-475.000
189.12	-400.000
189.49	-68.750
189.87	-200.000
190.25	-77.778
190.63	0.000
191.00	-188.889
191.38	0.000
191.76	-350.000
192.14	-200.000
192.51	850.000
192.89	-116.667
193.27	0.000
193.65	-85.714
194.02	-2000.000
194.40	-142.857
194.78	157.143
195.15	0.000
195.53	-127.273
195.91	0.000
196.29	-500.000
196.66	-138.462
197.04	-2000.000
197.42	-228.571
197.79	-800.000
198.17	-237.500
198.55	-228.571
198.92	-55.556
199.30	-225.000
199.68	-45.455
200.05	-42.857
200.43	-1050.000
200.81	442.857
201.18	0.000
201.56	200.000
201.94	0.000
202.31	566.667
202.69	-188.889
203.07	1000.000
203.44	-66.667
203.82	-175.000
204.19	-150.000
204.57	-416.667
204.95	-225.000
205.32	-1400.000
205.70	200.000
206.08	-216.667
206.45	-200.000
206.83	580.000
207.20	-133.333
207.58	-480.000
207.96	-333.333
208.33	-266.667
208.71	200.000
209.08	66.667
209.46	0.000
209.84	266.667
210.21	1000.000
210.59	850.000
210.96	200.000
211.34	-225.000
211.71	-137.500
212.09	-1500.000
212.46	0.000
212.84	1150.000
213.22	-460.000
213.59	-425.000
213.97	-40.000
214.34	-400.000
214.72	466.667
215.09	-350.000
215.47	0.000
215.84	257.143
216.22	1050.000
216.59	-200.000
216.97	-180.000
217.34	-275.000
217.72	-125.000
218.09	-450.000
218.47	-600.000
218.84	0.000
219.22	380.000
219.59	-35.294
219.97	-15.000
220.34	550.000
220.72	-266.667
221.09	-123.077
221.47	-366.667
221.84	-210.000
222.22	-171.429
222.59	0.000
222.97	-50.000
223.34	-400.000
223.72	-1100.000
224.09	-500.000
224.46	-500.000
224.84	-240.000
225.21	-328.571
225.59	-650.000
225.96	-375.000
226.34	-26.923
226.71	300.000
227.08	-550.000
227.46	-93.333
227.83	-700.000
228.21	-26.316
228.58	212.500
228.95	800.000
229.33	-66.667
229.70	-90.000
230.08	31.579
230.45	160.000
230.82	-433.333
231.20	-50.000
231.57	-91.667
231.95	-54.545
232.32	-118.182
232.69	-70.000
233.07	-350.000
233.44	-94.118
233.81	-170.000
234.19	-50.000
234.56	-36.364
234.93	-24.138
235.31	-68.421
235.68	-66.667
236.05	-70.000
236.43	0.000
236.80	-24.000
237.17	-18.519
237.55	-21.212
237.92	-80.000
238.29	-9.677
238.67	4.545
239.04	-2.778
239.41	-23.810
239.79	-6.522
240.16	-12.963
240.53	-17.391
240.91	-27.451
241.28	-8.197
241.65	10.448
242.02	8.108
242.40	-3.077
242.77	6.667
243.14	1.220
243.51	2.632
243.89	1.282
244.26	11.881
244.63	15.686
245.00	11.215
245.38	9.649
245.75	-1.770
246.12	18.254
246.49	11.628
246.87	19.286
247.24	15.232
247.61	16.447
247.98	16.779
248.36	19.136
248.73	9.202
249.10	9.836
249.47	22.388
249.84	18.325
250.22	18.653
250.59	12.222
250.96	21.364
251.33	16.837
251.70	20.085
252.08	17.500
252.45	15.984
252.82	16.529
253.19	16.406
253.56	21.293
253.94	16.154
254.31	19.318
254.68	19.231
255.05	22.801
255.42	18.367
255.79	19.417
256.16	19.868
256.54	22.185
256.91	18.689
257.28	18.361
257.65	20.064
258.02	20.944
258.39	21.652
258.76	22.324
259.14	23.851
259.51	24.496
259.88	20.397
260.25	22.222
260.62	20.000
260.99	22.404
261.36	23.056
261.73	17.507
262.10	19.231
262.47	18.767
262.85	24.242
263.22	20.000
263.59	19.737
263.96	18.670
264.33	20.972
264.70	20.741
265.07	21.718
265.44	23.583
265.81	18.519
266.18	21.995
266.55	21.652
266.92	20.501
267.29	24.289
267.66	22.173
268.03	23.144
268.40	22.338
268.77	22.779
269.14	20.485
269.51	21.053
269.88	23.566
270.25	18.913
270.62	24.895
270.99	22.020
271.36	23.168
271.73	21.807
272.10	21.643
272.47	23.647
272.84	20.683
273.21	21.643
273.58	20.766
273.95	20.000
274.32	21.293
274.69	21.277
275.06	23.077
275.43	19.409
275.80	20.988
276.17	22.963
276.54	20.336
276.91	19.499
277.28	19.892
277.65	22.621
278.02	21.691
278.39	21.196
278.76	21.968
279.13	21.454
279.50	22.509
279.87	21.646
280.23	19.190
280.60	21.695
280.97	21.382
281.34	20.713
281.71	21.489
282.08	17.774
282.45	19.313
282.82	20.408
283.19	22.294
283.56	19.836
283.92	21.471
284.29	24.171
284.66	20.361
285.03	19.071
285.40	20.093
285.77	20.124
286.14	20.916
286.51	20.548
286.87	19.589
287.24	21.837
287.61	20.030
287.98	19.486
288.35	20.414
288.72	19.970
289.08	19.619
289.45	19.822
289.82	19.880
290.19	18.678
290.56	18.451
290.93	19.544
291.29	19.146
291.66	17.080
292.03	18.589
292.40	20.000
292.77	17.655
293.13	18.539
293.50	16.820
293.87	16.913
294.24	18.667
294.60	16.561
294.97	16.779
295.34	19.078
295.71	17.654
296.08	16.925
296.44	16.912
296.81	17.418
297.18	17.435
297.55	16.274
297.91	16.251
298.28	16.351
298.65	17.360
299.02	16.647
299.38	16.018
299.75	15.537
300.12	14.815
300.48	15.438
300.85	15.411
301.22	16.555
301.59	14.612
301.95	14.237
302.32	14.889
302.69	16.539
303.05	16.322
303.42	15.299
303.79	15.208
304.15	15.983
304.52	16.279
304.89	15.707
305.25	14.803
305.62	14.525
305.99	15.567
306.35	14.113
306.72	13.650
307.09	15.736
307.45	15.942
307.82	14.934
308.19	14.531
308.55	14.561
308.92	17.137
309.29	14.272
309.65	15.595
310.02	15.149
310.38	14.764
310.75	14.854
311.12	15.053
311.48	14.467
311.85	14.625
312.22	14.801
312.58	14.178
312.95	14.245
313.31	15.447
313.68	16.026
314.05	14.815
314.41	15.209
314.78	15.259
315.14	17.241
315.51	14.866
315.87	14.761
316.24	15.616
316.61	16.341
316.97	15.475
317.34	14.109
317.70	15.109
318.07	15.873
318.43	15.731
318.80	15.635
319.16	16.052
319.53	15.424
319.89	14.724
320.26	16.370
320.62	15.248
320.99	15.235
321.35	14.972
321.72	15.907
322.08	15.149
322.45	16.441
322.81	16.516
323.18	16.460
323.54	17.500
323.91	16.548
324.27	16.781
324.64	16.625
325.00	15.672
325.37	16.462
325.73	16.860
326.10	16.788
326.46	16.694
326.83	17.214
327.19	17.087
327.56	16.680
327.92	16.444
328.29	16.532
328.65	15.997
329.01	16.836
329.38	16.849
329.74	17.380
330.11	17.466
330.47	16.765
330.84	17.140
331.20	17.583
331.56	15.425
331.93	17.071
332.29	18.051
332.66	18.272
333.02	17.337
333.38	16.527
333.75	17.593
334.11	17.431
334.48	17.822
334.84	17.417
335.20	16.037
335.57	16.863
335.93	16.694
336.29	15.890
336.66	16.653
337.02	17.977
337.38	17.602
337.75	15.950
338.11	17.073
338.47	17.039
338.84	16.413
339.20	14.912
339.56	17.051
339.93	16.913
340.29	16.828
340.65	16.707
341.02	17.318
341.38	17.219
341.74	17.191
342.11	16.331
342.47	16.918
342.83	17.713
343.20	17.253
343.56	16.520
343.92	16.974
344.28	17.969
344.65	17.132
345.01	16.459
345.37	18.351
345.73	15.822
346.10	16.771
346.46	16.060
346.82	16.629
347.19	15.966
347.55	16.692
347.91	16.196
348.27	17.147
348.63	15.994
349.00	16.406
349.36	17.472
349.72	16.890
350.08	16.939
350.45	16.502
350.81	17.119
351.17	15.714
351.53	16.679
351.89	18.527
352.26	16.567
352.62	15.672
352.98	15.573
353.34	15.758
353.70	17.643
354.07	16.915
354.43	15.566
354.79	16.081
355.15	16.188
355.51	16.374
355.87	15.707
356.24	15.817
356.60	15.447
356.96	16.901
357.32	16.580
357.68	15.227
358.04	15.569
358.40	15.000
358.77	17.032
359.13	16.174
359.49	16.134
359.85	16.099
360.21	15.782
360.57	15.004
360.93	15.726
361.29	16.842
361.66	16.220
362.02	17.884
362.38	15.882
362.74	16.690
363.10	16.300
363.46	16.413
363.82	16.051
364.18	16.256
364.54	16.390
364.90	16.388
365.26	15.931
365.62	17.600
365.98	16.678
366.35	14.832
366.71	16.395
367.07	15.968
367.43	16.481
367.79	16.390
368.15	16.522
368.51	16.644
368.87	16.395
369.23	15.733
369.59	16.052
369.95	16.227
370.31	17.623
370.67	16.575
371.03	15.720
371.39	15.782
371.75	16.781
372.11	17.073
372.47	16.317
372.83	16.885
373.19	16.011
373.55	16.328
373.91	16.087
374.27	16.365
374.63	17.185
374.99	16.645
375.35	17.532
375.71	17.161
376.07	16.914
376.42	17.317
376.78	17.091
377.14	16.469
377.50	16.762
377.86	17.057
378.22	17.605
378.58	17.241
378.94	17.019
379.30	17.575
379.66	16.461
380.02	16.619
380.38	17.339
380.74	18.423
381.09	17.015
381.45	17.841
381.81	18.501
382.17	17.577
382.53	17.193
382.89	17.269
383.25	18.288
383.61	17.187
383.97	16.490
384.32	17.823
384.68	16.821
385.04	17.409
385.40	17.914
385.76	18.113
386.12	18.253
386.48	18.235
386.83	18.176
387.19	17.903
387.55	17.782
387.91	17.694
388.27	17.956
388.62	17.755
388.98	17.259
389.34	19.034
389.70	17.664
390.06	17.762
390.42	18.012
390.77	18.904
391.13	18.192
391.49	18.901
391.85	18.061
392.20	18.031
392.56	18.724
392.92	18.539
393.28	19.016
393.64	19.330
393.99	19.175
394.35	19.276
394.71	19.042
395.07	17.485
395.42	19.075
395.78	19.622
396.14	19.370
396.50	19.002
396.85	18.306
397.21	19.408
397.57	19.376
397.92	20.046
398.28	18.740
398.64	18.822
399.00	18.325
399.35	19.476
399.71	19.728
400.07	19.933
400.42	19.558
400.78	19.907
401.14	19.693
401.49	19.784
401.85	20.058
402.21	20.162
402.57	21.009
402.92	20.449
403.28	19.145
403.63	19.093
403.99	20.428
404.35	20.352
404.70	20.283
405.06	20.000
405.42	20.785
405.77	20.611
406.13	20.367
406.49	20.158
406.84	21.939
407.20	21.073
407.55	21.078
407.91	20.616
408.27	20.671
408.62	20.942
408.98	21.358
409.34	20.821
409.69	21.632
410.05	21.454
410.40	21.404
410.76	21.200
411.11	22.092
411.47	22.174
411.83	21.634
412.18	21.988
412.54	22.288
412.89	22.002
413.25	22.291
413.60	21.252
413.96	22.319
414.31	20.907
414.67	22.838
415.03	21.662
415.38	22.005
415.74	23.030
416.09	22.702
416.45	22.229
416.80	21.971
417.16	22.031
417.51	22.727
417.87	21.888
418.22	22.814
418.58	22.553
418.93	22.759
419.29	23.674
419.64	22.329
420.00	22.671
420.35	22.515
420.71	22.573
421.06	22.714
421.42	23.509
421.77	22.886
422.12	23.044
422.48	23.144
422.83	22.892
423.19	23.183
423.54	24.226
423.90	23.633
424.25	23.520
424.61	23.249
424.96	24.492
425.31	24.522
425.67	23.188
426.02	23.464
426.38	23.881
426.73	23.549
427.09	25.317
427.44	23.484
427.79	24.323
428.15	23.288
428.50	23.989
428.85	23.307
429.21	24.468
429.56	23.593
429.92	24.079
430.27	23.904
430.62	24.817
430.98	24.250
431.33	23.803
431.68	23.803
432.04	24.937
432.39	24.906
432.74	24.943
433.10	25.365
433.45	24.359
433.80	24.678
434.16	24.793
434.51	25.128
434.86	25.081
435.22	26.196
435.57	26.179
435.92	25.153
436.28	24.744
436.63	25.068
436.98	24.101
437.34	24.634
437.69	24.546
438.04	24.379
438.39	24.124
438.75	25.235
439.10	25.951
439.45	24.427
439.81	25.085
440.16	25.469
440.51	25.585
440.86	24.792
441.22	24.920
441.57	25.472
441.92	25.703
442.27	26.212
442.63	26.031
442.98	25.133
443.33	25.723
443.68	25.471
444.03	26.529
444.39	25.982
444.74	25.523
445.09	25.545
445.44	25.764
445.79	25.192
446.15	25.385
446.50	25.891
446.85	25.924
447.20	26.402
447.55	25.628
447.91	25.707
448.26	25.106
448.61	25.133
448.96	27.200
449.31	25.080
449.66	25.599
450.02	25.053
450.37	25.519
450.72	26.265
451.07	26.082
451.42	25.477
451.77	24.625
452.12	26.072
452.47	25.253
452.83	26.014
453.18	25.452
453.53	25.675
453.88	25.069
454.23	25.650
454.58	26.175
454.93	24.454
455.28	26.490
455.63	25.526
455.98	26.034
456.34	25.677
456.69	25.338
457.04	25.709
457.39	25.000
457.74	26.119
458.09	24.602
458.44	26.455
458.79	25.374
459.14	25.170
459.49	26.203
459.84	26.495
460.19	24.597
460.54	26.349
460.89	26.257
461.24	25.517
461.59	26.397
461.94	24.872
462.29	24.860
462.64	25.890
462.99	24.859
463.34	25.957
463.69	25.557
464.04	25.514
464.39	24.608
464.74	25.599
465.09	24.625
465.44	25.858
465.79	25.331
466.14	25.586
466.49	25.263
466.84	25.344
467.19	25.491
467.54	24.736
467.89	24.828
468.24	25.429
468.59	24.320
468.94	24.650
469.29	24.835
469.64	24.539
469.99	26.068
470.34	24.567
470.68	25.496
471.03	24.820
471.38	25.311
471.73	24.447
472.08	25.698
472.43	24.744
472.78	25.756
473.13	25.158
473.48	23.988
473.83	25.769
474.17	24.736
474.52	26.158
474.87	24.751
475.22	25.577
475.57	25.026
475.92	25.485
476.27	25.666
476.61	24.403
476.96	25.078
477.31	25.495
477.66	25.761
478.01	24.504
478.36	25.025
478.70	24.877
479.05	25.358
479.40	25.173
479.75	25.648
480.10	24.728
480.45	24.749
480.79	24.580
481.14	24.173
481.49	24.580
481.84	25.457
482.19	24.989
482.53	24.792
482.88	25.210
483.23	24.944
483.58	24.323
483.92	24.424
484.27	24.936
484.62	24.917
484.97	24.728
485.31	24.639
485.66	23.602
486.01	22.973
486.36	23.664
486.70	24.791
487.05	25.178
487.40	25.563
487.75	25.573
488.09	25.754
488.44	25.524
488.79	25.531
489.13	24.837
489.48	24.971
489.83	24.346
490.17	24.463
490.52	24.672
490.87	25.000
491.22	24.783
491.56	24.659
491.91	24.684
492.26	24.621
492.60	24.399
492.95	24.704
493.30	24.249
493.64	24.266
493.99	24.079
494.34	23.214
494.68	23.683
495.03	24.758
495.37	24.900
495.72	24.580
496.07	24.628
496.41	24.110
496.76	23.937
497.11	23.694
497.45	24.730
497.80	24.256
498.14	23.810
498.49	24.908
498.84	24.680
499.18	24.381
499.53	24.798
499.87	24.879
500.22	23.063
500.56	24.381
500.91	24.394
501.26	24.864
501.60	24.304
501.95	24.360
502.29	24.090
502.64	24.136
502.98	23.210
503.33	23.542
503.67	24.466
504.02	23.862
504.36	23.995
504.71	24.116
505.06	23.374
505.40	24.269
505.75	23.770
506.09	24.355
506.44	24.188
506.78	24.725
507.13	24.066
507.47	23.780
507.82	23.816
508.16	23.566
508.51	23.347
508.85	23.477
509.19	23.875
509.54	24.352
509.88	23.749
510.23	23.555
510.57	24.505
510.92	23.803
511.26	23.761
511.61	23.225
511.95	24.207
512.30	23.929
512.64	23.088
512.98	24.662
513.33	24.244
513.67	23.967
514.02	24.272
514.36	24.297
514.70	23.958
515.05	24.140
515.39	24.829
515.74	24.337
516.08	23.560
516.42	23.757
516.77	24.238
517.11	23.724
517.46	24.072
517.80	24.639
518.14	24.755
518.49	24.132
518.83	23.417
519.17	24.179
519.52	23.952
519.86	23.601
520.20	23.269
520.55	23.932
520.89	23.818
521.23	23.786
521.58	24.181
521.92	23.569
522.26	23.654
522.61	24.826
522.95	23.875
523.29	24.253
523.64	23.711
523.98	24.187
524.32	24.470
524.66	24.189
525.01	22.877
525.35	23.722
525.69	23.318
526.04	23.249
526.38	24.023
526.72	24.106
527.06	24.047
527.41	23.907
527.75	23.515
528.09	23.613
528.43	24.156
528.78	22.717
529.12	23.796
529.46	23.609
529.80	23.856
530.15	23.826
530.49	23.784
530.83	23.613
531.17	24.134
531.51	24.609
531.86	23.798
532.20	23.902
532.54	22.501
532.88	24.667
533.22	22.982
533.57	23.947
533.91	23.345
534.25	24.308
534.59	24.195
534.93	23.147
535.27	24.620
535.62	24.957
535.96	23.823
536.30	23.502
536.64	24.204
536.98	24.785
537.32	24.444
537.66	24.329
538.01	22.659
538.35	23.264
538.69	24.099
539.03	23.728
539.37	23.086
539.71	23.784
540.05	24.700
540.39	22.983
540.73	23.254
541.07	24.157
541.42	23.804
541.76	23.962
542.10	23.583
542.44	23.812
542.78	23.662
543.12	23.480
543.46	23.077
543.80	23.861
544.14	23.279
544.48	23.345
544.82	23.220
545.16	24.091
545.50	23.367
545.84	23.576
546.18	24.753
546.52	23.758
546.86	23.208
547.20	23.791
547.54	23.408
547.88	23.568
548.22	22.456
548.56	22.937
548.90	23.642
549.24	23.951
549.58	24.164
549.92	22.959
550.26	23.754
550.60	23.548
550.94	24.127
551.28	23.564
551.62	24.461
551.96	23.819
552.30	23.518
552.64	23.149
552.98	23.394
553.32	23.537
553.66	23.280
554.00	23.960
554.34	23.166
554.68	23.564
555.02	23.325
555.36	23.932
555.69	21.653
556.03	22.509
556.37	24.093
556.71	23.462
557.05	23.898
557.39	22.628
557.73	22.589
558.07	21.987
558.41	23.588
558.75	23.935
559.08	24.008
559.42	22.977
559.76	22.659
560.10	23.242
560.44	22.427
560.78	24.812
561.12	22.968
561.45	22.445
561.79	21.917
562.13	23.845
562.47	23.490
562.81	22.532
563.15	22.980
563.48	23.555
563.82	22.310
564.16	22.047
564.50	22.825
564.84	23.481
565.17	23.235
565.51	21.864
565.85	23.100
566.19	23.329
566.52	22.294
566.86	23.033
567.20	22.077
567.54	22.995
567.88	23.089
568.21	23.024
568.55	22.062
568.89	23.059
569.23	22.771
569.56	22.352
569.90	22.381
570.24	22.799
570.57	22.514
570.91	21.831
571.25	22.505
571.59	22.822
571.92	22.415
572.26	21.969
572.60	22.741
572.93	22.655
573.27	22.787
573.61	22.366
573.95	22.020
574.28	22.121
574.62	22.283
574.96	21.725
575.29	21.591
575.63	22.338
575.97	22.395
576.30	22.082
576.64	21.737
576.98	22.369
577.31	22.076
577.65	21.791
577.98	21.913
578.32	21.291
578.66	21.711
578.99	22.220
579.33	22.410
579.67	22.416
580.00	22.140
580.34	22.295
580.67	21.536
581.01	21.765
581.35	21.625
581.68	21.420
582.02	21.450
582.35	21.851
582.69	22.049
583.02	22.071
583.36	22.202
583.70	22.836
584.03	22.198
584.37	22.686
584.70	22.323
585.04	21.623
585.37	21.476
585.71	21.359
586.04	21.775
586.38	21.472
586.72	21.284
587.05	22.001
587.39	21.890
587.72	22.153
588.06	21.688
588.39	21.782
588.73	22.143
589.06	21.755
589.40	22.311
589.73	21.883
590.07	21.817
590.40	21.941
590.73	21.739
591.07	22.599
591.40	21.540
591.74	21.900
592.07	22.249
592.41	21.175
592.74	21.406
593.08	21.338
593.41	22.047
593.75	21.149
594.08	22.357
594.41	22.436
594.75	20.923
595.08	21.400
595.42	22.403
595.75	21.408
596.09	21.925
596.42	22.107
596.75	22.424
597.09	22.505
597.42	21.971
597.75	21.599
598.09	21.270
598.42	21.632
598.76	21.131
599.09	21.111
599.42	21.053
599.76	20.535
600.09	21.121
600.42	21.321
600.76	21.301
601.09	21.241
601.42	21.181
601.76	21.862
602.09	21.873
602.42	21.374
602.76	20.738
603.09	21.292
603.42	21.640
603.76	21.600
604.09	21.434
604.42	21.284
604.76	21.575
605.09	21.141
605.42	21.970
605.75	21.115
606.09	21.650
606.42	20.467
606.75	21.177
607.09	20.469
607.42	20.732
607.75	21.336
608.08	21.152
608.42	20.637
608.75	21.393
609.08	20.840
609.41	21.262
609.75	21.071
610.08	21.416
610.41	20.773
610.74	20.798
611.07	21.492
611.41	21.166
611.74	21.109
612.07	20.524
612.40	21.150
612.73	20.978
613.07	20.831
613.40	20.982
613.73	20.558
614.06	21.246
614.39	20.943
614.72	21.058
615.06	20.741
615.39	19.961
615.72	20.900
616.05	20.690
616.38	20.585
616.71	21.212
617.05	19.968
617.38	20.974
617.71	20.950
618.04	21.209
618.37	21.530
618.70	21.776
619.03	21.446
619.36	20.838
619.69	20.500
620.03	21.092
620.36	20.491
620.69	20.111
621.02	21.260
621.35	21.335
621.68	20.969
622.01	20.996
622.34	20.432
622.67	19.931
623.00	19.028
623.33	19.509
623.66	20.428
623.99	20.079
624.32	22.352
624.65	19.112
624.99	20.286
625.32	21.359
625.65	20.701
625.98	20.542
626.31	21.332
626.64	20.879
626.97	20.405
627.30	20.501
627.63	19.355
627.96	20.420
628.29	19.377
628.62	20.907
628.95	20.245
629.28	19.201
629.61	20.202
629.94	20.251
630.26	20.169
630.59	19.948
630.92	19.913
631.25	19.499
631.58	20.716
631.91	20.806
632.24	19.116
632.57	20.019
632.90	20.662
633.23	20.918
633.56	19.490
633.89	19.421
634.22	19.751
634.55	20.251
634.88	19.156
635.20	21.529
635.53	20.678
635.86	20.585
636.19	21.739
636.52	20.464
636.85	20.429
637.18	20.582
637.51	19.785
637.83	21.373
638.16	19.816
638.49	19.014
638.82	20.293
639.15	18.671
639.48	20.785
639.81	18.707
640.13	20.966
640.46	18.424
640.79	18.750
641.12	20.745
641.45	20.452
641.77	20.154
642.10	20.604
642.43	21.941
642.76	19.648
643.09	18.767
643.41	19.188
643.74	20.138
644.07	21.103
644.40	17.539
644.73	19.303
645.05	19.236
645.38	20.432
645.71	19.208
646.04	20.803
646.36	18.832
646.69	20.245
647.02	19.725
647.35	20.153
647.67	20.290
648.00	19.904
648.33	20.120
648.66	19.971
648.98	19.184
649.31	20.568
649.64	20.053
649.96	20.557
650.29	19.054
650.62	20.509
650.94	18.018
651.27	19.012
651.60	18.421
651.92	19.301
652.25	18.958
652.58	19.120
652.90	17.878
653.23	19.577
653.56	18.545
653.88	20.787
654.21	19.014
654.54	17.486
654.86	19.830
655.19	19.950
655.52	21.229
655.84	18.271
656.17	21.138
656.49	30.685
656.82	34.742
657.15	28.467
657.47	22.237
657.80	16.785
658.13	13.663
658.45	18.239
658.78	22.583
659.10	21.967
659.43	22.023
659.75	21.078
660.08	20.056
660.41	19.272
660.73	18.130
661.06	18.943
661.38	19.139
661.71	19.138
662.03	20.459
662.36	20.036
662.68	18.762
663.01	19.823
663.33	19.660
663.66	21.429
663.98	20.962
664.31	17.261
664.63	17.726
664.96	17.967
665.28	18.149
665.61	20.629
665.93	16.964
666.26	19.892
666.58	19.373
666.91	19.626
667.23	18.286
667.56	18.146
667.88	19.400
668.21	18.164
668.53	16.602
668.86	19.646
669.18	17.515
669.50	18.688
669.83	19.200
670.15	18.898
670.48	17.460
670.80	18.356
671.13	18.336
671.45	18.307
671.77	18.456
672.10	18.000
672.42	16.990
672.75	16.436
673.07	17.313
673.39	17.257
673.72	19.295
674.04	17.241
674.37	18.426
674.69	19.048
675.01	17.333
675.34	17.939
675.66	17.978
675.98	19.216
676.31	19.141
676.63	17.300
676.95	17.816
677.28	17.339
677.60	16.535
677.92	19.002
678.25	17.550
678.57	19.573
678.89	15.529
679.22	16.899
679.54	17.607
679.86	16.949
680.18	17.413
680.51	19.654
680.83	18.003
681.15	17.931
681.48	18.826
681.80	18.307
682.12	19.231
682.44	17.529
682.77	17.908
683.09	18.371
683.41	19.574
683.73	18.027
684.06	19.004
684.38	16.458
684.70	17.056
685.02	18.933
685.34	15.308
685.67	17.508
685.99	15.951
686.31	15.843
686.63	18.799
686.96	17.350
687.28	16.124
687.60	16.162
687.92	16.399
688.24	16.694
688.56	16.207
688.89	18.875
689.21	17.613
689.53	15.882
689.85	18.935
690.17	16.852
690.49	16.733
690.82	16.040
691.14	15.992
691.46	18.164
691.78	17.127
692.10	18.716
692.42	15.536
692.74	14.519
693.06	15.000
693.39	18.596
693.71	17.105
694.03	16.357
694.35	15.810
694.67	18.686
694.99	14.468
695.31	16.115
695.63	17.749
695.95	16.770
696.27	17.802
696.59	18.584
696.91	15.090
697.23	17.582
697.56	15.275
697.88	17.045
698.20	15.066
698.52	20.076
698.84	17.048
699.16	18.163
699.48	17.155
699.80	15.532
700.12	16.594
700.44	18.664
700.76	19.715
701.08	18.402
701.40	16.062
701.72	18.159
702.04	15.508
702.36	15.183
702.68	16.381
703.00	16.137
703.32	15.517
703.64	18.337
703.96	17.900
704.28	16.953
704.60	16.709
704.91	15.561
705.23	18.082
705.55	16.713
705.87	14.545
706.19	16.871
706.51	15.964
706.83	16.715
707.15	14.815
707.47	15.888
707.79	13.319
708.11	13.347
708.43	14.409
708.74	17.411
709.06	16.473
709.38	16.667
709.70	17.122
710.02	15.245
710.34	16.489
710.66	16.201
710.98	17.213
711.29	13.736
711.61	14.689
711.93	15.670
712.25	11.622
712.57	17.404
712.89	18.529
713.20	16.864
713.52	17.052
713.84	16.435
714.16	15.789
714.48	15.464
714.80	16.623
715.11	14.961
715.43	12.997
715.75	15.526
716.07	15.193
716.39	16.120
716.70	10.241
717.02	15.410
717.34	11.498
717.66	14.430
717.97	13.014
718.29	12.371
718.61	17.434
718.93	15.534
719.24	13.975
719.56	11.350
719.88	12.913
720.20	17.097
720.51	13.975
720.83	12.813
721.15	10.855
721.46	11.301
721.78	13.000
722.10	10.032
722.42	13.087
722.73	13.226
723.05	14.035
723.37	11.458
723.68	15.771
724.00	16.968
724.32	10.211
724.63	16.084
724.95	17.376
725.27	10.105
725.58	14.841
725.90	13.448
726.22	10.031
726.53	15.584
726.85	18.868
727.16	14.199
727.48	13.456
727.80	12.914
728.11	12.721
728.43	19.192
728.74	13.378
729.06	13.907
729.38	12.013
729.69	11.409
730.01	13.690
730.32	12.727
730.64	13.522
730.96	12.733
731.27	16.760
731.59	16.209
731.90	11.688
732.22	14.583
732.53	13.536
732.85	16.286
733.16	11.730
733.48	13.415
733.80	12.535
734.11	14.530
734.43	18.108
734.74	17.722
735.06	11.055
735.37	15.676
735.69	13.243
736.00	12.994
736.32	12.938
736.63	12.778
736.95	10.920
737.26	20.303
737.58	15.455
737.89	17.647
738.21	11.927
738.52	12.459
738.83	15.358
739.15	10.284
739.46	12.245
739.78	12.577
740.09	14.613
740.41	18.076
740.72	11.333
741.04	14.887
741.35	14.386
741.66	12.941
741.98	13.115
742.29	12.552
742.61	14.035
742.92	11.154
743.23	14.440
743.55	12.791
743.86	15.200
744.18	10.744
744.49	15.190
744.80	16.461
745.12	12.236
745.43	15.447
745.74	5.603
746.06	7.203
746.37	13.924
746.68	17.073
747.00	11.667
747.31	10.300
747.62	12.692
747.94	6.883
748.25	8.032
748.56	8.980
748.88	10.684
749.19	12.931
749.50	9.524
749.82	18.072
750.13	15.658
750.44	11.000
750.75	12.923
751.07	11.385
751.38	13.249
751.69	13.099
752.01	13.592
752.32	12.745
752.63	13.946
752.94	10.727
753.26	8.922
753.57	11.481
753.88	7.116
754.19	14.148
754.51	14.148
754.82	10.289
755.13	13.115
755.44	14.676
755.75	15.789
756.07	14.627
756.38	12.893
756.69	13.855
757.00	13.019
757.31	13.661
757.63	12.532
757.94	13.146
758.25	13.995
758.56	11.765
758.87	15.455
759.18	12.267
759.50	16.431
759.81	12.325
760.12	15.094
760.43	11.458
760.74	14.778
761.05	13.750
761.36	13.976
761.67	10.152
761.99	11.892
762.30	10.366
762.61	9.241
762.92	9.701
763.23	9.363
763.54	10.432
763.85	12.371
764.16	12.121
764.47	15.141
764.78	12.460
765.10	9.971
765.41	15.385
765.72	10.847
766.03	13.842
766.34	8.150
766.65	10.105
766.96	7.968
767.27	15.207
767.58	8.955
767.89	15.385
768.20	11.737
768.51	12.500
768.82	14.458
769.13	9.091
769.44	10.000
769.75	11.913
770.06	11.154
770.37	14.567
770.68	9.362
770.99	8.097
771.30	17.037
771.61	11.407
771.92	8.889
772.23	14.980
772.54	4.630
772.85	16.590
773.16	11.905
773.47	8.995
773.78	3.243
774.09	9.659
774.39	11.000
774.70	7.650
775.01	5.488
775.32	3.529
775.63	12.270
775.94	6.369
776.25	4.516
776.56	15.385
776.87	17.007
777.18	10.345
777.48	0.000
777.79	3.378
778.10	2.206
778.41	8.333
778.72	2.759
779.03	9.877
779.34	8.485
779.65	11.917
779.95	15.000
780.26	11.364
780.57	12.903
780.88	8.696
781.19	8.387
781.50	13.529
781.80	13.441
782.11	10.053
782.42	0.505
782.73	4.192
783.04	7.821
783.34	1.818
783.65	6.536
783.96	9.317
784.27	11.310
784.57	3.311
784.88	16.429
785.19	1.575
785.50	1.575
785.81	9.023
786.11	9.231
786.42	4.317
786.73	5.755
787.04	6.015
787.34	5.738
787.65	0.000
787.96	5.970
788.26	7.692
788.57	15.385
788.88	11.842
789.19	11.111
789.49	6.849
789.80	4.965
790.11	6.299
790.41	0.781
790.72	0.847
791.03	-7.767
791.33	3.478
791.64	2.632
791.95	-2.679
792.25	-2.857
792.56	10.714
792.87	-8.333
793.17	6.250
793.48	-7.292
793.79	-13.253
794.09	-8.257
794.40	2.752
794.70	10.204
795.01	8.442
795.32	1.370
795.62	10.563
795.93	8.333
796.23	2.459
796.54	0.000
796.85	3.191
797.15	-13.043
797.46	-9.589
797.76	-7.500
798.07	-4.348
798.37	-8.247
798.68	-5.195
798.99	-2.299
799.29	14.607
799.60	0.000
799.90	-13.253
800.21	-29.231
800.51	-2.985
800.82	-4.412
801.12	-9.589
801.43	-13.235
801.73	-27.119
802.04	-9.091
802.34	-5.000
802.65	-16.949
802.95	-8.955
803.26	-6.780
803.56	-6.849
803.87	-4.286
804.17	6.849
804.48	-26.316
804.78	-4.167
805.09	-17.241
805.39	-9.459
805.70	-21.127
806.00	-1.220
806.30	-8.434
806.61	-12.329
806.91	6.731
807.22	2.222
807.52	1.149
807.83	1.389
808.13	-6.024
808.43	-2.247
808.74	5.000
809.04	-13.235
809.35	-6.667
809.65	2.857
809.95	-8.219
810.26	-26.316
810.56	-20.690
810.86	5.882
811.17	-21.053
811.47	-26.230
811.77	-26.667
812.08	-13.559
812.38	-3.333
812.69	6.897
812.99	-18.868
813.29	-58.974
813.59	-6.000
813.90	-3.509
814.20	-10.909
814.50	-4.225
814.81	-2.564
815.11	-13.115
815.41	-5.970
815.72	6.897
816.02	-5.357
816.32	-20.000
816.62	-2.273
816.93	-26.667
817.23	7.407
817.53	-21.277
817.84	7.143
818.14	-35.294
818.44	-38.776
818.74	-13.333
819.04	-30.769
819.35	-54.286
819.65	-26.923
819.95	-20.755
820.25	-26.667
820.56	-23.810
820.86	-31.250
821.16	-38.462
821.46	-20.930
821.76	-50.000
822.07	-8.929
822.37	-28.261
822.67	-14.894
822.97	-16.216
823.27	-7.500
823.57	6.122
823.88	-13.333
824.18	-2.500
824.48	-60.000
824.78	-76.000
825.08	-45.455
825.38	-15.556
825.69	-12.766
825.99	-16.667
826.29	-48.571
826.59	-25.641
826.89	-46.512
827.19	-8.000
827.49	-20.588
827.79	-20.833
828.09	-32.432
828.39	-36.667
828.70	-29.268
829.00	-32.558
829.30	-42.857
829.60	-26.471
829.90	-13.043
830.20	-54.286
830.50	-79.310
830.80	-77.778
831.10	-57.692
831.40	-29.412
831.70	-42.857
832.00	-3.226
832.30	-111.765
832.60	-104.167
832.90	-176.923
833.20	-47.368
833.50	-120.000
833.80	-89.474
834.10	-85.714
834.40	-25.000
834.70	-34.375
835.00	-57.143
835.30	-11.765
835.60	-63.333
835.90	-32.000
836.20	-86.364
836.50	-56.000
836.80	-36.364
837.10	-62.963
837.40	-62.963
837.70	-118.750
838.00	-14.286
838.30	-39.130
838.60	-24.138
838.90	-142.857
839.19	-69.565
839.49	-208.333
839.79	-34.783
840.09	-137.500
840.39	-85.000
840.69	-35.484
840.99	-28.571
841.29	-93.333
841.59	-78.947
841.88	-15.385
842.18	-23.077
842.48	-170.000
842.78	-130.000
843.08	-26.667
843.38	-6.452
843.68	-138.889
843.97	-26.471
844.27	-106.250
844.57	-121.053
844.87	-220.000
845.17	-73.333
845.47	-28.571
845.76	-61.905
846.06	-177.778
846.36	-123.529
846.66	-53.846
846.96	-153.333
847.25	-64.706
847.55	-56.522
847.85	-35.000
848.15	-52.941
848.44	-109.091
848.74	-52.381
849.04	-62.500
849.34	-150.000
849.63	-56.522
849.93	800.000
850.23	-66.667
850.53	-19.231
850.82	-190.909
851.12	-50.000
851.42	-154.545
851.71	-100.000
852.01	-110.000
852.31	-84.615
852.61	-63.158
852.90	-125.000
853.20	-33.333
853.50	-233.333
853.79	-90.476
854.09	-104.545
854.39	-141.667
854.68	-48.387
854.98	-53.846
855.28	-66.667
855.57	-53.571
855.87	-64.000
856.17	-59.091
856.46	-25.926
856.76	-38.889
857.05	-95.652
857.35	-66.667
857.65	-123.077
857.94	-47.619
858.24	-14.815
858.53	-52.174
858.83	-76.471
859.13	-111.765
859.42	-35.294
859.72	-78.571
860.01	-70.000
860.31	-266.667
860.60	-130.000
860.90	-93.333
861.20	-61.111
861.49	-76.923
861.79	-13.333
862.08	-84.615
862.38	-12.500
862.67	-52.941
862.97	-43.750
863.26	-144.444
863.56	-50.000
863.85	-136.364
864.15	-72.222
864.44	-666.667
864.74	-78.571
865.03	-81.250
865.33	-210.000
865.62	-19.355
865.92	-27.273
866.21	-30.435
866.51	-100.000
866.80	-320.000
867.10	-225.000
867.39	-100.000
867.69	1800.000
867.98	-142.857
868.27	17.647
868.57	-2600.000
868.86	-240.000
869.16	-71.429
869.45	-41.667
869.75	-145.455
870.04	-285.714
870.33	-100.000
870.63	-228.571
870.92	-200.000
871.22	-237.500
871.51	-136.364
871.80	-533.333
872.10	-400.000
>>>>>End Processed Spectral Data<<<<<
