SpectraSuite Data File
++++++++++++++++++++++++++++++++++++
Date: Thu May 14 16:14:44 PDT 2015
User: schluterlab
Dark Spectrum Present: Yes
Reference Spectrum Present: Yes
Number of Sampled Component Spectra: 1
Spectrometers: USB2E3373
Integration Time (usec): 3000 (USB2E3373)
Spectra Averaged: 3 (USB2E3373)
Boxcar Smoothing: 0 (USB2E3373)
Correct for Electrical Dark: No (USB2E3373)
Strobe/Lamp Enabled: No (USB2E3373)
Correct for Detector Non-linearity: No (USB2E3373)
Correct for Stray Light: No (USB2E3373)
Number of Pixels in Processed Spectrum: 2048
>>>>>Begin Processed Spectral Data<<<<<
178.53	0.000
178.91	-14.286
179.29	-1000.000
179.67	-200.000
180.04	92.857
180.42	30.000
180.80	120.000
181.18	-900.000
181.56	-100.000
181.94	50.000
182.31	-150.000
182.69	266.667
183.07	-200.000
183.45	75.000
183.83	-33.333
184.20	-233.333
184.58	700.000
184.96	-175.000
185.34	0.000
185.72	-120.000
186.09	155.556
186.47	400.000
186.85	200.000
187.23	-155.556
187.61	-1500.000
187.98	-0.000
188.36	350.000
188.74	-100.000
189.12	-66.667
189.49	-6.250
189.87	-75.000
190.25	55.556
190.63	140.000
191.00	0.000
191.38	0.000
191.76	-225.000
192.14	-66.667
192.51	600.000
192.89	-16.667
193.27	0.000
193.65	-171.429
194.02	-1300.000
194.40	28.571
194.78	142.857
195.15	0.000
195.53	72.727
195.91	0.000
196.29	75.000
196.66	-23.077
197.04	-1500.000
197.42	-200.000
197.79	-350.000
198.17	12.500
198.55	-14.286
198.92	0.000
199.30	-112.500
199.68	81.818
200.05	-50.000
200.43	-550.000
200.81	257.143
201.18	0.000
201.56	200.000
201.94	0.000
202.31	366.667
202.69	-22.222
203.07	-400.000
203.44	-22.222
203.82	-275.000
204.19	-41.667
204.57	-116.667
204.95	-125.000
205.32	-700.000
205.70	200.000
206.08	-83.333
206.45	-83.333
206.83	260.000
207.20	-100.000
207.58	-240.000
207.96	0.000
208.33	0.000
208.71	33.333
209.08	-16.667
209.46	0.000
209.84	83.333
210.21	100.000
210.59	150.000
210.96	300.000
211.34	-25.000
211.71	-25.000
212.09	-500.000
212.46	0.000
212.84	450.000
213.22	60.000
213.59	200.000
213.97	-20.000
214.34	-233.333
214.72	83.333
215.09	-200.000
215.47	0.000
215.84	14.286
216.22	50.000
216.59	-40.000
216.97	40.000
217.34	125.000
217.72	75.000
218.09	-325.000
218.47	-150.000
218.84	0.000
219.22	20.000
219.59	-29.412
219.97	15.000
220.34	250.000
220.72	-33.333
221.09	46.154
221.47	100.000
221.84	-50.000
222.22	-71.429
222.59	0.000
222.97	25.000
223.34	-180.000
223.72	-700.000
224.09	-50.000
224.46	-125.000
224.84	20.000
225.21	-128.571
225.59	-250.000
225.96	-225.000
226.34	23.077
226.71	216.667
227.08	-350.000
227.46	-26.667
227.83	-100.000
228.21	21.053
228.58	50.000
228.95	500.000
229.33	0.000
229.70	-20.000
230.08	52.632
230.45	20.000
230.82	-33.333
231.20	-7.143
231.57	33.333
231.95	-18.182
232.32	9.091
232.69	60.000
233.07	-100.000
233.44	5.882
233.81	-110.000
234.19	27.778
234.56	9.091
234.93	44.828
235.31	-5.263
235.68	-5.556
236.05	-30.000
236.43	34.615
236.80	56.000
237.17	29.630
237.55	15.152
237.92	-60.000
238.29	29.032
238.67	-6.818
239.04	-11.111
239.41	-11.905
239.79	15.217
240.16	12.963
240.53	2.174
240.91	-1.961
241.28	13.115
241.65	28.358
242.02	20.270
242.40	13.846
242.77	14.667
243.14	12.195
243.51	21.053
243.89	15.385
244.26	21.782
244.63	28.431
245.00	22.430
245.38	23.684
245.75	19.469
246.12	21.429
246.49	22.481
246.87	25.714
247.24	29.139
247.61	22.368
247.98	22.819
248.36	26.543
248.73	22.086
249.10	15.301
249.47	29.851
249.84	26.702
250.22	21.762
250.59	27.778
250.96	25.909
251.33	14.796
251.70	19.231
252.08	22.500
252.45	25.820
252.82	23.967
253.19	23.828
253.56	22.814
253.94	18.462
254.31	26.136
254.68	24.126
255.05	24.756
255.42	20.748
255.79	22.330
256.16	23.510
256.54	19.536
256.91	22.951
257.28	20.984
257.65	19.427
258.02	19.174
258.39	22.507
258.76	25.688
259.14	23.851
259.51	22.190
259.88	22.946
260.25	25.278
260.62	25.205
260.99	25.683
261.36	23.324
261.73	24.668
262.10	23.626
262.47	24.129
262.85	25.000
263.22	21.299
263.59	20.263
263.96	22.762
264.33	24.808
264.70	22.963
265.07	23.866
265.44	26.077
265.81	24.074
266.18	22.222
266.55	24.107
266.92	23.918
267.29	26.477
267.66	25.055
268.03	23.144
268.40	25.678
268.77	22.779
269.14	22.026
269.51	26.535
269.88	22.131
270.25	20.926
270.62	25.527
270.99	23.030
271.36	25.941
271.73	21.415
272.10	25.050
272.47	22.445
272.84	23.896
273.21	22.445
273.58	25.202
273.95	22.308
274.32	19.582
274.69	21.663
275.06	23.993
275.43	21.811
275.80	24.515
276.17	21.481
276.54	23.881
276.91	22.004
277.28	23.508
277.65	23.698
278.02	24.265
278.39	21.739
278.76	21.090
279.13	24.113
279.50	23.540
279.87	22.004
280.23	23.063
280.60	22.203
280.97	22.368
281.34	22.750
281.71	23.181
282.08	22.591
282.45	20.786
282.82	22.449
283.19	21.002
283.56	21.967
283.92	23.724
284.29	22.749
284.66	22.003
285.03	21.955
285.40	22.720
285.77	20.588
286.14	21.985
286.51	22.374
286.87	20.221
287.24	22.741
287.61	21.674
287.98	21.903
288.35	23.521
288.72	20.118
289.08	21.523
289.45	21.302
289.82	21.084
290.19	19.971
290.56	21.690
290.93	20.542
291.29	21.901
291.66	19.835
292.03	17.232
292.40	21.224
292.77	20.081
293.13	18.809
293.50	19.842
293.87	19.329
294.24	19.600
294.60	19.975
294.97	19.195
295.34	20.230
295.71	18.916
296.08	19.897
296.44	17.647
296.81	19.245
297.18	18.306
297.55	17.453
297.91	17.912
298.28	17.180
298.65	18.074
299.02	17.828
299.38	17.849
299.75	17.757
300.12	19.329
300.48	18.894
300.85	18.448
301.22	19.239
301.59	18.151
301.95	19.096
302.32	19.111
302.69	19.168
303.05	18.390
303.42	18.625
303.79	18.438
304.15	19.453
304.52	16.702
304.89	19.581
305.25	18.634
305.62	18.391
305.99	18.557
306.35	17.641
306.72	19.648
307.09	17.665
307.45	19.358
307.82	18.567
308.19	18.264
308.55	19.383
308.92	18.500
309.29	20.019
309.65	18.908
310.02	18.614
310.38	19.291
310.75	19.223
311.12	20.614
311.48	19.648
311.85	21.273
312.22	20.398
312.58	20.188
312.95	20.554
313.31	21.861
313.68	22.253
314.05	22.222
314.41	22.495
314.78	22.888
315.14	23.140
315.51	22.161
315.87	21.692
316.24	23.744
316.61	22.824
316.97	24.072
317.34	23.457
317.70	24.891
318.07	25.309
318.43	23.639
318.80	25.167
319.16	24.979
319.53	24.593
319.89	25.066
320.26	26.601
320.62	25.443
320.99	26.777
321.35	27.264
321.72	26.419
322.08	25.699
322.45	27.371
322.81	28.430
323.18	27.257
323.54	27.414
323.91	28.737
324.27	27.883
324.64	30.059
325.00	28.939
325.37	31.286
325.73	30.165
326.10	30.414
326.46	30.537
326.83	31.705
327.19	32.126
327.56	31.858
327.92	31.471
328.29	31.210
328.65	30.821
329.01	33.164
329.38	32.940
329.74	34.503
330.11	34.075
330.47	33.361
330.84	33.678
331.20	33.750
331.56	33.189
331.93	34.310
332.29	34.237
332.66	33.887
333.02	33.333
333.38	33.473
333.75	33.249
334.11	33.695
334.48	34.323
334.84	35.939
335.20	34.509
335.57	34.823
335.93	34.793
336.29	33.527
336.66	35.240
337.02	33.278
337.38	34.354
337.75	33.884
338.11	34.903
338.47	33.002
338.84	34.433
339.20	33.277
339.56	32.867
339.93	32.923
340.29	33.575
340.65	33.171
341.02	34.078
341.38	34.357
341.74	32.688
342.11	34.111
342.47	33.201
342.83	34.541
343.20	34.751
343.56	35.044
343.92	34.588
344.28	33.750
344.65	33.953
345.01	34.321
345.37	34.759
345.73	32.970
346.10	33.619
346.46	34.335
346.82	34.082
347.19	33.155
347.55	34.370
347.91	33.804
348.27	33.612
348.63	34.425
349.00	33.781
349.36	33.383
349.72	33.259
350.08	33.581
350.45	34.373
350.81	32.579
351.17	34.211
351.53	34.041
351.89	35.004
352.26	32.612
352.62	34.328
352.98	33.740
353.34	33.757
353.70	34.438
354.07	33.681
354.43	33.106
354.79	32.835
355.15	32.965
355.51	32.310
355.87	33.732
356.24	35.894
356.60	34.220
356.96	33.432
357.32	33.606
357.68	33.602
358.04	33.009
358.40	33.209
358.77	33.187
359.13	32.792
359.49	34.126
359.85	34.590
360.21	34.075
360.57	33.453
360.93	32.793
361.29	33.684
361.66	33.164
362.02	34.725
362.38	33.942
362.74	32.961
363.10	33.838
363.46	34.072
363.82	34.091
364.18	35.116
364.54	34.094
364.90	34.849
365.26	34.897
365.62	33.400
365.98	34.854
366.35	34.161
366.71	35.374
367.07	34.641
367.43	33.946
367.79	34.705
368.15	34.047
368.51	34.438
368.87	35.010
369.23	34.133
369.59	35.656
369.95	35.024
370.31	34.909
370.67	34.388
371.03	35.388
371.39	34.184
371.75	35.076
372.11	35.230
372.47	35.206
372.83	35.013
373.19	35.490
373.55	34.892
373.91	34.015
374.27	34.799
374.63	34.303
374.99	34.019
375.35	35.714
375.71	34.645
376.07	34.603
376.42	35.768
376.78	34.866
377.14	34.560
377.50	36.116
377.86	35.530
378.22	35.389
378.58	36.088
378.94	35.329
379.30	35.149
379.66	35.685
380.02	34.449
380.38	35.945
380.74	35.606
381.09	36.295
381.45	35.114
381.81	35.539
382.17	36.817
382.53	35.380
382.89	36.061
383.25	36.460
383.61	35.706
383.97	35.866
384.32	36.304
384.68	35.383
385.04	36.784
385.40	37.006
385.76	37.104
386.12	36.685
386.48	37.412
386.83	37.068
387.19	36.211
387.55	37.089
387.91	36.929
388.27	36.952
388.62	36.598
388.98	36.548
389.34	36.830
389.70	36.607
390.06	35.938
390.42	36.687
390.77	37.688
391.13	37.852
391.49	37.077
391.85	36.788
392.20	37.189
392.56	37.094
392.92	36.750
393.28	37.148
393.64	37.542
393.99	38.698
394.35	36.799
394.71	37.305
395.07	37.066
395.42	36.208
395.78	37.904
396.14	38.027
396.50	37.470
396.85	36.971
397.21	36.923
397.57	37.633
397.92	37.743
398.28	37.154
398.64	37.700
399.00	36.754
399.35	37.173
399.71	36.957
400.07	37.451
400.42	37.253
400.78	37.326
401.14	37.336
401.49	37.521
401.85	38.721
402.21	38.065
402.57	38.674
402.92	37.707
403.28	37.881
403.63	38.544
403.99	38.124
404.35	38.317
404.70	37.564
405.06	37.391
405.42	38.934
405.77	38.113
406.13	37.925
406.49	38.457
406.84	37.341
407.20	38.290
407.55	37.674
407.91	38.278
408.27	38.221
408.62	39.209
408.98	37.493
409.34	36.833
409.69	38.504
410.05	37.691
410.40	37.993
410.76	37.970
411.11	38.574
411.47	38.084
411.83	39.330
412.18	39.578
412.54	38.471
412.89	37.893
413.25	38.431
413.60	38.311
413.96	37.704
414.31	38.130
414.67	38.283
415.03	37.846
415.38	38.083
415.74	39.035
416.09	37.323
416.45	38.009
416.80	38.556
417.16	37.484
417.51	37.858
417.87	38.443
418.22	37.665
418.58	38.166
418.93	39.057
419.29	38.718
419.64	37.815
420.00	37.567
420.35	37.395
420.71	37.565
421.06	37.435
421.42	38.532
421.77	36.995
422.12	37.738
422.48	38.044
422.83	38.828
423.19	38.037
423.54	38.219
423.90	38.211
424.25	39.093
424.61	37.600
424.96	37.781
425.31	38.588
425.67	37.950
426.02	39.402
426.38	39.265
426.73	37.277
427.09	38.581
427.44	38.886
427.79	39.082
428.15	37.614
428.50	37.247
428.85	37.715
429.21	38.670
429.56	37.759
429.92	37.199
430.27	37.639
430.62	37.763
430.98	37.383
431.33	37.634
431.68	37.931
432.04	38.090
432.39	36.690
432.74	37.957
433.10	38.021
433.45	37.347
433.80	37.983
434.16	37.810
434.51	38.798
434.86	37.894
435.22	38.257
435.57	38.620
435.92	38.564
436.28	38.908
436.63	38.504
436.98	37.896
437.34	38.219
437.69	37.259
438.04	37.969
438.39	37.163
438.75	38.129
439.10	38.425
439.45	37.731
439.81	37.910
440.16	37.641
440.51	37.514
440.86	37.410
441.22	38.692
441.57	38.889
441.92	36.906
442.27	38.636
442.63	38.053
442.98	37.086
443.33	37.770
443.68	38.305
444.03	38.805
444.39	38.835
444.74	38.693
445.09	37.912
445.44	37.408
445.79	37.452
446.15	38.438
446.50	37.468
446.85	38.716
447.20	38.540
447.55	38.180
447.91	36.754
448.26	37.526
448.61	37.832
448.96	39.431
449.31	37.275
449.66	38.725
450.02	38.027
450.37	38.146
450.72	38.052
451.07	38.440
451.42	37.897
451.77	38.132
452.12	38.431
452.47	37.433
452.83	38.401
453.18	37.712
453.53	37.679
453.88	37.604
454.23	37.910
454.58	38.944
454.93	37.500
455.28	38.712
455.63	37.521
455.98	37.374
456.34	37.927
456.69	37.978
457.04	38.475
457.39	37.694
457.74	37.975
458.09	37.617
458.44	37.500
458.79	36.978
459.14	37.389
459.49	38.031
459.84	37.828
460.19	36.868
460.54	38.898
460.89	37.957
461.24	37.471
461.59	37.742
461.94	36.680
462.29	38.018
462.64	37.658
462.99	37.037
463.34	38.871
463.69	36.753
464.04	37.632
464.39	37.164
464.74	36.944
465.09	36.563
465.44	37.446
465.79	37.176
466.14	35.800
466.49	36.684
466.84	36.860
467.19	36.763
467.54	36.957
467.89	36.494
468.24	37.673
468.59	36.595
468.94	35.664
469.29	36.713
469.64	35.728
469.99	36.648
470.34	36.819
470.68	37.389
471.03	37.656
471.38	37.606
471.73	36.996
472.08	37.500
472.43	37.267
472.78	37.469
473.13	37.737
473.48	37.523
473.83	36.738
474.17	35.698
474.52	36.621
474.87	36.822
475.22	36.676
475.57	36.241
475.92	35.739
476.27	36.262
476.61	35.566
476.96	35.297
477.31	36.832
477.66	36.516
478.01	36.502
478.36	35.045
478.70	35.222
479.05	36.452
479.40	37.364
479.75	35.639
480.10	35.576
480.45	35.643
480.79	36.100
481.14	35.754
481.49	35.711
481.84	35.248
482.19	35.398
482.53	36.161
482.88	36.774
483.23	35.749
483.58	35.328
483.92	35.372
484.27	35.859
484.62	34.571
484.97	35.459
485.31	34.530
485.66	32.838
486.01	31.413
486.36	32.604
486.70	33.285
487.05	33.459
487.40	33.388
487.75	34.275
488.09	34.517
488.44	33.909
488.79	33.929
489.13	34.323
489.48	34.796
489.83	34.487
490.17	33.819
490.52	34.031
490.87	35.068
491.22	35.659
491.56	35.367
491.91	34.932
492.26	34.704
492.60	34.237
492.95	34.752
493.30	34.827
493.64	34.954
493.99	34.868
494.34	33.493
494.68	34.133
495.03	35.551
495.37	34.310
495.72	34.467
496.07	34.926
496.41	34.148
496.76	33.653
497.11	34.310
497.45	33.923
497.80	34.074
498.14	34.286
498.49	35.202
498.84	33.638
499.18	33.828
499.53	33.901
499.87	33.407
500.22	33.660
500.56	34.098
500.91	33.959
501.26	34.182
501.60	33.716
501.95	34.433
502.29	34.489
502.64	34.324
502.98	33.218
503.33	33.175
503.67	33.014
504.02	32.268
504.36	34.316
504.71	33.854
505.06	34.425
505.40	34.186
505.75	34.426
506.09	34.208
506.44	34.494
506.78	33.991
507.13	33.149
507.47	33.775
507.82	34.091
508.16	32.935
508.51	32.396
508.85	33.207
509.19	33.491
509.54	33.477
509.88	34.046
510.23	34.337
510.57	33.833
510.92	32.850
511.26	32.371
511.61	33.317
511.95	33.138
512.30	33.383
512.64	34.233
512.98	33.667
513.33	33.619
513.67	33.350
514.02	34.338
514.36	34.015
514.70	33.333
515.05	33.107
515.39	33.648
515.74	33.192
516.08	33.175
516.42	34.118
516.77	32.860
517.11	33.110
517.46	33.828
517.80	34.687
518.14	34.276
518.49	33.297
518.83	32.624
519.17	33.333
519.52	32.442
519.86	33.633
520.20	34.132
520.55	33.516
520.89	33.164
521.23	33.054
521.58	33.446
521.92	33.031
522.26	32.589
522.61	33.738
522.95	32.987
523.29	33.678
523.64	32.679
523.98	34.398
524.32	33.639
524.66	33.238
525.01	31.484
525.35	32.280
525.69	32.831
526.04	32.147
526.38	33.103
526.72	33.103
527.06	33.255
527.41	32.128
527.75	33.492
528.09	32.940
528.43	32.860
528.78	32.486
529.12	33.142
529.46	32.265
529.80	33.410
530.15	33.333
530.49	31.317
530.83	32.468
531.17	33.094
531.51	32.070
531.86	32.212
532.20	32.866
532.54	32.735
532.88	33.030
533.22	31.821
533.57	31.737
533.91	31.762
534.25	31.656
534.59	31.552
534.93	31.636
535.27	31.775
535.62	31.154
535.96	31.958
536.30	30.200
536.64	31.471
536.98	31.611
537.32	32.963
537.66	32.065
538.01	30.755
538.35	31.912
538.69	30.709
539.03	32.250
539.37	30.860
539.71	30.631
540.05	30.815
540.39	29.584
540.73	30.540
541.07	30.901
541.42	30.715
541.76	30.130
542.10	31.062
542.44	30.512
542.78	30.596
543.12	31.526
543.46	30.281
543.80	30.456
544.14	29.324
544.48	29.965
544.82	30.640
545.16	29.934
545.50	30.138
545.84	30.006
546.18	30.617
546.52	30.573
546.86	30.692
547.20	30.344
547.54	30.087
547.88	29.355
548.22	29.532
548.56	29.198
548.90	29.791
549.24	29.605
549.58	30.347
549.92	29.145
550.26	30.939
550.60	30.121
550.94	30.401
551.28	29.901
551.62	30.863
551.96	29.903
552.30	30.147
552.64	29.683
552.98	29.757
553.32	29.646
553.66	30.225
554.00	30.517
554.34	29.858
554.68	28.535
555.02	29.961
555.36	30.703
555.69	29.020
556.03	29.445
556.37	29.161
556.71	30.691
557.05	28.435
557.39	28.467
557.73	30.383
558.07	29.007
558.41	29.767
558.75	30.561
559.08	30.898
559.42	29.424
559.76	29.986
560.10	29.471
560.44	29.024
560.78	29.125
561.12	28.879
561.45	29.562
561.79	28.327
562.13	28.527
562.47	28.483
562.81	28.481
563.15	29.104
563.48	29.273
563.82	28.839
564.16	27.680
564.50	27.533
564.84	28.024
565.17	28.118
565.51	27.618
565.85	28.029
566.19	28.168
566.52	27.911
566.86	27.900
567.20	26.754
567.54	27.509
567.88	27.523
568.21	27.866
568.55	27.578
568.89	26.328
569.23	26.362
569.56	25.713
569.90	25.624
570.24	25.126
570.57	25.016
570.91	24.587
571.25	24.675
571.59	24.269
571.92	24.387
572.26	24.484
572.60	24.215
572.93	24.269
573.27	24.080
573.61	24.113
573.95	23.598
574.28	23.593
574.62	23.624
574.96	23.026
575.29	23.265
575.63	23.377
575.97	23.617
576.30	23.661
576.64	23.360
576.98	23.485
577.31	23.412
577.65	22.885
577.98	22.609
578.32	22.835
578.66	22.729
578.99	22.978
579.33	22.944
579.67	23.164
580.00	22.747
580.34	23.386
580.67	22.683
581.01	22.674
581.35	22.618
581.68	22.396
582.02	22.524
582.35	23.002
582.69	22.648
583.02	22.500
583.36	22.879
583.70	23.017
584.03	23.206
584.37	23.031
584.70	22.592
585.04	22.762
585.37	22.559
585.71	22.546
586.04	22.611
586.38	22.818
586.72	22.938
587.05	22.589
587.39	22.688
587.72	22.775
588.06	22.631
588.39	23.052
588.73	23.333
589.06	23.307
589.40	23.448
589.73	23.554
590.07	23.541
590.40	24.341
590.73	23.719
591.07	23.939
591.40	23.600
591.74	23.529
592.07	24.198
592.41	24.251
592.74	23.997
593.08	23.885
593.41	23.914
593.75	22.902
594.08	23.084
594.41	23.878
594.75	22.916
595.08	23.284
595.42	24.026
595.75	23.507
596.09	23.789
596.42	24.149
596.75	24.199
597.09	24.687
597.42	23.401
597.75	23.755
598.09	23.532
598.42	24.367
598.76	23.271
599.09	23.496
599.42	22.963
599.76	22.549
600.09	23.557
600.42	23.156
600.76	23.382
601.09	22.735
601.42	22.382
601.76	23.103
602.09	22.945
602.42	22.901
602.76	23.321
603.09	23.128
603.42	23.627
603.76	22.939
604.09	23.350
604.42	23.303
604.76	22.831
605.09	24.053
605.42	23.206
605.75	23.885
606.09	23.106
606.42	22.547
606.75	22.901
607.09	22.581
607.42	23.044
607.75	24.033
608.08	22.770
608.42	23.579
608.75	24.088
609.08	23.260
609.41	23.996
609.75	23.839
610.08	24.582
610.41	24.129
610.74	24.076
611.07	23.890
611.41	24.395
611.74	24.758
612.07	24.264
612.40	24.287
612.73	24.352
613.07	23.961
613.40	24.543
613.73	24.218
614.06	23.749
614.39	23.955
614.72	24.551
615.06	23.484
615.39	23.973
615.72	24.313
616.05	23.409
616.38	24.723
616.71	24.399
617.05	24.547
617.38	24.773
617.71	25.432
618.04	24.447
618.37	24.481
618.70	24.434
619.03	25.209
619.36	25.462
619.69	24.600
620.03	25.361
620.36	25.399
620.69	24.923
621.02	25.525
621.35	27.504
621.68	26.320
622.01	25.907
622.34	24.826
622.67	25.292
623.00	24.696
623.33	25.481
623.66	25.616
623.99	24.556
624.32	26.836
624.65	25.290
624.99	25.618
625.32	25.800
625.65	24.949
625.98	24.203
626.31	26.010
626.64	25.934
626.97	27.532
627.30	26.196
627.63	25.656
627.96	26.952
628.29	25.525
628.62	27.036
628.95	27.257
629.28	26.423
629.61	27.020
629.94	25.188
630.26	27.288
630.59	25.734
630.92	26.840
631.25	27.460
631.58	28.249
631.91	27.366
632.24	29.203
632.57	27.704
632.90	28.987
633.23	28.367
633.56	29.490
633.89	27.583
634.22	29.314
634.55	28.497
634.88	28.788
635.20	30.248
635.53	27.797
635.86	30.228
636.19	30.435
636.52	28.270
636.85	27.068
637.18	27.235
637.51	28.925
637.83	27.907
638.16	28.111
638.49	27.582
638.82	29.087
639.15	27.377
639.48	31.409
639.81	28.176
640.13	28.740
640.46	28.364
640.79	27.819
641.12	30.932
641.45	28.356
641.77	31.964
642.10	29.134
642.43	30.585
642.76	29.539
643.09	29.315
643.41	30.532
643.74	31.172
644.07	32.276
644.40	29.703
644.73	30.189
645.05	30.690
645.38	31.655
645.71	30.059
646.04	31.133
646.36	30.365
646.69	30.675
647.02	31.498
647.35	29.771
647.67	32.206
648.00	30.732
648.33	30.781
648.66	29.101
648.98	28.844
649.31	28.958
649.64	29.482
649.96	29.576
650.29	29.485
650.62	28.006
650.94	28.679
651.27	29.641
651.60	28.509
651.92	30.243
652.25	30.391
652.58	28.886
652.90	27.616
653.23	29.577
653.56	28.673
653.88	30.478
654.21	29.437
654.54	28.757
654.86	27.620
655.19	25.972
655.52	24.022
655.84	19.832
656.17	23.878
656.49	32.535
656.82	35.548
657.15	27.389
657.47	20.753
657.80	15.165
658.13	11.975
658.45	15.772
658.78	19.320
659.10	19.391
659.43	19.330
659.75	19.660
660.08	19.944
660.41	23.573
660.73	24.743
661.06	27.166
661.38	28.708
661.71	30.690
662.03	30.688
662.36	32.379
662.68	33.208
663.01	26.549
663.33	33.837
663.66	33.150
663.98	31.923
664.31	32.270
664.63	31.599
664.96	30.853
665.28	29.220
665.61	29.895
665.93	30.357
666.26	33.154
666.58	29.705
666.91	33.084
667.23	31.429
667.56	31.361
667.88	32.400
668.21	28.906
668.53	28.958
668.86	32.809
669.18	31.976
669.50	30.815
669.83	30.200
670.15	27.362
670.48	30.357
670.80	27.151
671.13	30.057
671.45	30.906
671.77	30.508
672.10	27.000
672.42	26.861
672.75	29.647
673.07	27.910
673.39	28.659
673.72	27.852
674.04	28.966
674.37	28.801
674.69	31.393
675.01	32.190
675.34	30.534
675.66	28.277
675.98	32.090
676.31	28.906
676.63	31.369
676.95	29.885
677.28	29.839
677.60	30.315
677.92	29.175
678.25	29.433
678.57	28.292
678.89	31.229
679.22	27.526
679.54	28.034
679.86	26.441
680.18	25.539
680.51	27.830
680.83	27.823
681.15	25.517
681.48	29.016
681.80	29.879
682.12	27.098
682.44	29.215
682.77	28.369
683.09	29.735
683.41	29.651
683.73	28.843
684.06	28.229
684.38	27.191
684.70	27.469
685.02	29.432
685.34	26.955
685.67	26.341
685.99	26.380
686.31	25.872
686.63	26.540
686.96	25.868
687.28	24.756
687.60	25.758
687.92	26.045
688.24	27.045
688.56	27.414
688.89	27.949
689.21	30.137
689.53	26.471
689.85	27.613
690.17	26.667
690.49	28.685
690.82	28.713
691.14	26.923
691.46	27.342
691.78	27.993
692.10	26.239
692.42	24.464
692.74	25.045
693.06	25.741
693.39	29.791
693.71	27.632
694.03	28.625
694.35	26.476
694.67	30.185
694.99	29.149
695.31	29.360
695.63	31.818
695.95	30.021
696.27	27.692
696.59	28.319
696.91	27.477
697.23	31.648
697.56	27.088
697.88	25.947
698.20	28.625
698.52	28.030
698.84	27.859
699.16	30.408
699.48	28.452
699.80	25.957
700.12	25.109
700.44	29.493
700.76	30.166
701.08	28.571
701.40	29.534
701.72	30.597
702.04	29.412
702.36	25.654
702.68	26.406
703.00	29.829
703.32	29.064
703.64	29.095
703.96	28.878
704.28	28.256
704.60	29.367
704.91	27.041
705.23	33.699
705.55	28.134
705.87	32.727
706.19	34.049
706.51	29.518
706.83	24.496
707.15	27.249
707.47	26.869
707.79	26.419
708.11	25.000
708.43	25.161
708.74	23.661
709.06	27.146
709.38	29.108
709.70	29.280
710.02	28.682
710.34	27.660
710.66	27.095
710.98	29.235
711.29	28.022
711.61	31.073
711.93	29.345
712.25	27.027
712.57	31.858
712.89	32.353
713.20	26.923
713.52	31.503
713.84	25.905
714.16	30.526
714.48	24.227
714.80	27.532
715.11	26.772
715.43	24.668
715.75	29.737
716.07	24.862
716.39	25.956
716.70	27.108
717.02	31.148
717.34	29.268
717.66	28.188
717.97	26.370
718.29	27.491
718.61	25.987
718.93	31.068
719.24	28.571
719.56	29.755
719.88	24.324
720.20	26.129
720.51	28.571
720.83	27.813
721.15	27.303
721.46	24.315
721.78	27.667
722.10	26.537
722.42	26.174
722.73	24.839
723.05	29.123
723.37	27.083
723.68	28.674
724.00	31.047
724.32	23.944
724.63	29.021
724.95	28.369
725.27	27.526
725.58	21.908
725.90	27.931
726.22	26.959
726.53	29.221
726.85	27.358
727.16	25.076
727.48	27.829
727.80	27.815
728.11	28.269
728.43	24.579
728.74	27.090
729.06	23.841
729.38	26.948
729.69	26.510
730.01	27.381
730.32	26.061
730.64	25.786
730.96	23.292
731.27	25.140
731.59	25.000
731.90	22.857
732.22	24.219
732.53	21.271
732.85	20.571
733.16	23.167
733.48	24.695
733.80	25.905
734.11	22.222
734.43	24.865
734.74	28.861
735.06	24.623
735.37	27.027
735.69	20.811
736.00	25.706
736.32	23.450
736.63	25.556
736.95	22.989
737.26	26.061
737.58	23.030
737.89	24.412
738.21	22.018
738.52	21.639
738.83	28.328
739.15	24.823
739.46	27.891
739.78	28.528
740.09	20.344
740.41	26.822
740.72	27.000
741.04	30.097
741.35	32.632
741.66	26.275
741.98	27.459
742.29	23.431
742.61	28.070
742.92	28.077
743.23	28.520
743.55	27.907
743.86	27.200
744.18	22.727
744.49	21.941
744.80	30.453
745.12	26.160
745.43	28.455
745.74	27.155
746.06	31.780
746.37	28.270
746.68	29.675
747.00	27.500
747.31	29.185
747.62	27.692
747.94	25.911
748.25	25.703
748.56	21.224
748.88	33.333
749.19	27.155
749.50	24.675
749.82	32.932
750.13	27.758
750.44	23.333
750.75	18.769
751.07	25.231
751.38	25.552
751.69	25.240
752.01	25.566
752.32	26.471
752.63	26.871
752.94	22.491
753.26	25.279
753.57	24.815
753.88	25.094
754.19	25.723
754.51	27.331
754.82	25.723
755.13	29.836
755.44	22.867
755.75	23.026
756.07	25.970
756.38	22.642
756.69	24.096
757.00	21.884
757.31	24.590
757.63	21.995
757.94	22.535
758.25	21.670
758.56	21.133
758.87	22.273
759.18	23.200
759.50	25.496
759.81	26.050
760.12	23.989
760.43	23.958
760.74	23.645
761.05	24.000
761.36	20.482
761.67	21.066
761.99	24.595
762.30	24.695
762.61	21.122
762.92	26.493
763.23	23.596
763.54	26.619
763.85	24.399
764.16	24.579
764.47	26.408
764.78	25.559
765.10	19.355
765.41	20.769
765.72	21.693
766.03	20.621
766.34	22.257
766.65	19.512
766.96	17.928
767.27	27.650
767.58	22.886
767.89	33.654
768.20	31.455
768.51	25.926
768.82	24.498
769.13	25.758
769.44	20.385
769.75	25.993
770.06	24.231
770.37	31.102
770.68	19.574
770.99	21.457
771.30	28.519
771.61	21.293
771.92	20.741
772.23	20.648
772.54	22.685
772.85	28.111
773.16	24.762
773.47	23.810
773.78	20.541
774.09	28.977
774.39	26.000
774.70	31.694
775.01	23.171
775.32	26.471
775.63	25.767
775.94	19.108
776.25	25.161
776.56	30.128
776.87	30.612
777.18	23.448
777.48	27.273
777.79	20.270
778.10	22.059
778.41	21.528
778.72	28.276
779.03	25.926
779.34	29.697
779.65	25.389
779.95	22.778
780.26	24.432
780.57	24.516
780.88	27.536
781.19	29.032
781.50	28.824
781.80	30.645
782.11	25.397
782.42	17.677
782.73	20.958
783.04	22.905
783.34	17.576
783.65	14.379
783.96	16.149
784.27	18.452
784.57	24.503
784.88	19.286
785.19	27.559
785.50	23.622
785.81	27.820
786.11	19.231
786.42	15.108
786.73	27.338
787.04	27.068
787.34	27.869
787.65	18.400
787.96	19.403
788.26	26.573
788.57	30.769
788.88	17.763
789.19	23.529
789.49	21.233
789.80	20.567
790.11	22.835
790.41	25.781
790.72	22.881
791.03	26.214
791.33	20.870
791.64	25.439
791.95	20.536
792.25	31.429
792.56	32.143
792.87	22.917
793.17	29.464
793.48	28.125
793.79	12.048
794.09	18.349
794.40	23.853
794.70	22.449
795.01	23.377
795.32	23.973
795.62	18.310
795.93	18.182
796.23	15.574
796.54	23.214
796.85	26.596
797.15	23.913
797.46	20.548
797.76	27.500
798.07	25.000
798.37	17.526
798.68	27.273
798.99	19.540
799.29	23.596
799.60	20.213
799.90	24.096
800.21	20.000
800.51	7.463
800.82	5.882
801.12	0.000
801.43	26.471
801.73	28.814
802.04	24.242
802.34	21.667
802.65	15.254
802.95	28.358
803.26	1.695
803.56	19.178
803.87	30.000
804.17	32.877
804.48	5.263
804.78	19.444
805.09	22.414
805.39	24.324
805.70	-1.408
806.00	28.049
806.30	19.277
806.61	12.329
806.91	18.269
807.22	13.333
807.52	18.391
807.83	33.333
808.13	27.711
808.43	8.989
808.74	26.250
809.04	8.824
809.35	28.000
809.65	11.429
809.95	21.918
810.26	7.018
810.56	29.310
810.86	33.824
811.17	7.018
811.47	18.033
811.77	11.111
812.08	23.729
812.38	13.333
812.69	32.759
812.99	13.208
813.29	7.692
813.59	34.000
813.90	29.825
814.20	20.000
814.50	33.803
814.81	33.333
815.11	36.066
815.41	26.866
815.72	34.483
816.02	28.571
816.32	33.333
816.62	9.091
816.93	20.000
817.23	20.370
817.53	17.021
817.84	35.714
818.14	17.647
818.44	36.735
818.74	24.444
819.04	-10.256
819.35	14.286
819.65	-11.538
819.95	7.547
820.25	8.889
820.56	21.429
820.86	3.125
821.16	15.385
821.46	20.930
821.76	6.000
822.07	17.857
822.37	10.870
822.67	4.255
822.97	-32.432
823.27	5.000
823.57	16.327
823.88	11.111
824.18	32.500
824.48	13.333
824.78	12.000
825.08	3.030
825.38	26.667
825.69	23.404
825.99	41.667
826.29	-22.857
826.59	10.256
826.89	9.302
827.19	22.000
827.49	2.941
827.79	22.917
828.09	10.811
828.39	56.667
828.70	17.073
829.00	11.628
829.30	-10.714
829.60	47.059
829.90	13.043
830.20	42.857
830.50	-13.793
830.80	0.000
831.10	50.000
831.40	20.588
831.70	23.810
832.00	16.129
832.30	-100.000
832.60	-12.500
832.90	-61.538
833.20	47.368
833.50	5.000
833.80	-52.632
834.10	-61.905
834.40	55.556
834.70	68.750
835.00	-22.857
835.30	8.824
835.60	23.333
835.90	28.000
836.20	-40.909
836.50	-4.000
836.80	6.061
837.10	3.704
837.40	11.111
837.70	-25.000
838.00	25.000
838.30	-13.043
838.60	10.345
838.90	14.286
839.19	-56.522
839.49	0.000
839.79	-4.348
840.09	-18.750
840.39	-15.000
840.69	41.935
840.99	3.571
841.29	-20.000
841.59	42.105
841.88	35.897
842.18	15.385
842.48	-40.000
842.78	-15.000
843.08	-13.333
843.38	16.129
843.68	-44.444
843.97	29.412
844.27	81.250
844.57	-47.368
844.87	-10.000
845.17	-46.667
845.47	33.333
845.76	-33.333
846.06	-66.667
846.36	17.647
846.66	0.000
846.96	-33.333
847.25	-41.176
847.55	0.000
847.85	25.000
848.15	29.412
848.44	9.091
848.74	52.381
849.04	-50.000
849.34	-112.500
849.63	17.391
849.93	250.000
850.23	-20.000
850.53	50.000
850.82	-18.182
851.12	45.455
851.42	-63.636
851.71	7.692
852.01	5.000
852.31	-30.769
852.61	-31.579
852.90	50.000
853.20	27.778
853.50	-144.444
853.79	-28.571
854.09	-36.364
854.39	-83.333
854.68	19.355
854.98	-34.615
855.28	-16.667
855.57	14.286
855.87	24.000
856.17	9.091
856.46	-22.222
856.76	-22.222
857.05	-47.826
857.35	8.333
857.65	0.000
857.94	4.762
858.24	-14.815
858.53	-4.348
858.83	-17.647
859.13	-23.529
859.42	0.000
859.72	35.714
860.01	10.000
860.31	-122.222
860.60	0.000
860.90	13.333
861.20	16.667
861.49	-7.692
861.79	30.000
862.08	15.385
862.38	0.000
862.67	17.647
862.97	-6.250
863.26	-33.333
863.56	-10.000
863.85	-27.273
864.15	-27.778
864.44	-133.333
864.74	28.571
865.03	12.500
865.33	-30.000
865.62	-16.129
865.92	31.818
866.21	56.522
866.51	28.571
866.80	-40.000
867.10	-16.667
867.39	-83.333
867.69	800.000
867.98	57.143
868.27	41.176
868.57	-1300.000
868.86	-50.000
869.16	14.286
869.45	0.000
869.75	118.182
870.04	-57.143
870.33	41.667
870.63	-142.857
870.92	0.000
871.22	-87.500
871.51	-72.727
871.80	-700.000
872.10	-300.000
>>>>>End Processed Spectral Data<<<<<
