SpectraSuite Data File
++++++++++++++++++++++++++++++++++++
Date: Thu May 14 16:10:33 PDT 2015
User: schluterlab
Dark Spectrum Present: Yes
Reference Spectrum Present: Yes
Number of Sampled Component Spectra: 1
Spectrometers: USB2E3373
Integration Time (usec): 3000 (USB2E3373)
Spectra Averaged: 3 (USB2E3373)
Boxcar Smoothing: 0 (USB2E3373)
Correct for Electrical Dark: No (USB2E3373)
Strobe/Lamp Enabled: No (USB2E3373)
Correct for Detector Non-linearity: No (USB2E3373)
Correct for Stray Light: No (USB2E3373)
Number of Pixels in Processed Spectrum: 2048
>>>>>Begin Processed Spectral Data<<<<<
178.53	0.000
178.91	285.714
179.29	-1600.000
179.67	-1200.000
180.04	121.429
180.42	80.000
180.80	320.000
181.18	-800.000
181.56	-1000.000
181.94	325.000
182.31	-75.000
182.69	466.667
183.07	-450.000
183.45	200.000
183.83	-100.000
184.20	-566.667
184.58	1100.000
184.96	-350.000
185.34	-155.556
185.72	-360.000
186.09	288.889
186.47	650.000
186.85	480.000
187.23	-244.444
187.61	-1100.000
187.98	260.000
188.36	325.000
188.74	-275.000
189.12	-333.333
189.49	50.000
189.87	-100.000
190.25	-88.889
190.63	-220.000
191.00	-211.111
191.38	0.000
191.76	-175.000
192.14	-116.667
192.51	750.000
192.89	-33.333
193.27	0.000
193.65	-114.286
194.02	-1700.000
194.40	-171.429
194.78	128.571
195.15	0.000
195.53	-36.364
195.91	0.000
196.29	125.000
196.66	-23.077
197.04	-1700.000
197.42	-257.143
197.79	-50.000
198.17	-87.500
198.55	-71.429
198.92	-55.556
199.30	-262.500
199.68	45.455
200.05	-21.429
200.43	-500.000
200.81	285.714
201.18	0.000
201.56	188.889
201.94	0.000
202.31	533.333
202.69	-200.000
203.07	1000.000
203.44	-111.111
203.82	-275.000
204.19	8.333
204.57	-200.000
204.95	-100.000
205.32	-500.000
205.70	-200.000
206.08	-183.333
206.45	-50.000
206.83	260.000
207.20	83.333
207.58	-440.000
207.96	-233.333
208.33	-233.333
208.71	108.333
209.08	0.000
209.46	0.000
209.84	150.000
210.21	650.000
210.59	400.000
210.96	666.667
211.34	-300.000
211.71	-212.500
212.09	-1300.000
212.46	0.000
212.84	1150.000
213.22	-360.000
213.59	-250.000
213.97	-20.000
214.34	-466.667
214.72	233.333
215.09	-175.000
215.47	0.000
215.84	57.143
216.22	1150.000
216.59	-280.000
216.97	-120.000
217.34	-75.000
217.72	37.500
218.09	-450.000
218.47	-550.000
218.84	0.000
219.22	120.000
219.59	-105.882
219.97	-50.000
220.34	650.000
220.72	-33.333
221.09	23.077
221.47	-133.333
221.84	-70.000
222.22	-228.571
222.59	0.000
222.97	-25.000
223.34	-240.000
223.72	-900.000
224.09	-150.000
224.46	-150.000
224.84	0.000
225.21	-142.857
225.59	-350.000
225.96	-250.000
226.34	-11.538
226.71	266.667
227.08	-550.000
227.46	-60.000
227.83	-150.000
228.21	-36.842
228.58	100.000
228.95	450.000
229.33	0.000
229.70	-90.000
230.08	-5.263
230.45	130.000
230.82	-133.333
231.20	-21.429
231.57	-83.333
231.95	-72.727
232.32	-54.545
232.69	0.000
233.07	-225.000
233.44	5.882
233.81	-120.000
234.19	-33.333
234.56	-22.727
234.93	3.448
235.31	-63.158
235.68	0.000
236.05	-65.000
236.43	26.923
236.80	32.000
237.17	3.704
237.55	-12.121
237.92	-130.000
238.29	-35.484
238.67	-18.182
239.04	-36.111
239.41	-7.143
239.79	10.870
240.16	-12.963
240.53	-10.870
240.91	-29.412
241.28	-6.557
241.65	5.970
242.02	-1.351
242.40	-15.385
242.77	-4.000
243.14	-6.098
243.51	-14.474
243.89	-2.564
244.26	2.970
244.63	13.725
245.00	7.477
245.38	0.877
245.75	-15.044
246.12	11.905
246.49	1.550
246.87	1.429
247.24	0.662
247.61	6.579
247.98	6.040
248.36	3.704
248.73	-3.067
249.10	6.011
249.47	8.458
249.84	14.136
250.22	8.290
250.59	3.889
250.96	7.727
251.33	1.020
251.70	10.684
252.08	5.000
252.45	5.328
252.82	3.719
253.19	7.812
253.56	6.844
253.94	1.923
254.31	8.712
254.68	8.042
255.05	10.098
255.42	6.122
255.79	5.825
256.16	8.609
256.54	1.656
256.91	6.885
257.28	8.525
257.65	7.006
258.02	4.130
258.39	9.402
258.76	10.398
259.14	9.195
259.51	6.340
259.88	6.232
260.25	7.500
260.62	7.945
260.99	9.016
261.36	8.579
261.73	5.040
262.10	5.495
262.47	6.166
262.85	10.606
263.22	7.532
263.59	6.053
263.96	6.905
264.33	6.905
264.70	10.123
265.07	10.263
265.44	8.390
265.81	5.093
266.18	10.431
266.55	8.482
266.92	5.695
267.29	9.847
267.66	8.426
268.03	9.825
268.40	7.516
268.77	5.695
269.14	3.965
269.51	8.553
269.88	7.172
270.25	9.054
270.62	8.650
270.99	8.081
271.36	8.911
271.73	7.662
272.10	10.220
272.47	6.413
272.84	8.835
273.21	8.216
273.58	6.452
273.95	5.769
274.32	7.795
274.69	4.836
275.06	8.242
275.43	5.545
275.80	9.171
276.17	6.852
276.54	6.903
276.91	8.229
277.28	6.329
277.65	8.079
278.02	9.559
278.39	8.333
278.76	8.084
279.13	9.220
279.50	7.216
279.87	8.945
280.23	4.930
280.60	8.475
280.97	7.566
281.34	6.621
281.71	8.122
282.08	7.807
282.45	7.692
282.82	6.907
283.19	4.362
283.56	7.705
283.92	9.459
284.29	11.058
284.66	9.852
285.03	4.647
285.40	6.491
285.77	6.811
286.14	9.008
286.51	8.219
286.87	8.689
287.24	8.434
287.61	6.428
287.98	6.949
288.35	8.580
288.72	8.284
289.08	8.199
289.45	5.621
289.82	7.229
290.19	6.178
290.56	9.296
290.93	6.705
291.29	7.851
291.66	7.851
292.03	7.056
292.40	8.707
292.77	6.739
293.13	7.848
293.50	5.388
293.87	6.443
294.24	7.333
294.60	6.321
294.97	5.638
295.34	8.323
295.71	5.801
296.08	6.202
296.44	5.392
296.81	6.821
297.18	5.479
297.55	5.660
297.91	6.050
298.28	5.095
298.65	5.232
299.02	5.077
299.38	8.124
299.75	5.958
300.12	6.597
300.48	6.336
300.85	5.624
301.22	6.152
301.59	5.365
301.95	5.650
302.32	6.222
302.69	5.367
303.05	6.964
303.42	5.654
303.79	6.979
304.15	5.152
304.52	6.554
304.89	5.759
305.25	5.694
305.62	6.792
305.99	4.948
306.35	6.149
306.72	6.205
307.09	5.482
307.45	5.383
307.82	5.752
308.19	6.559
308.55	6.847
308.92	6.232
309.29	6.705
309.65	5.263
310.02	5.743
310.38	5.807
310.75	5.728
311.12	6.136
311.48	4.203
311.85	5.793
312.22	6.452
312.58	6.948
312.95	5.832
313.31	5.872
313.68	7.234
314.05	7.859
314.41	7.468
314.78	6.994
315.14	7.260
315.51	8.126
315.87	8.011
316.24	7.580
316.61	8.348
316.97	7.149
317.34	7.407
317.70	8.122
318.07	9.347
318.43	9.779
318.80	9.783
319.16	10.129
319.53	9.083
319.89	9.465
320.26	10.676
320.62	9.752
320.99	10.342
321.35	11.275
321.72	12.837
322.08	11.001
322.45	11.563
322.81	11.643
323.18	12.743
323.54	12.586
323.91	13.523
324.27	12.995
324.64	13.770
325.00	12.521
325.37	14.824
325.73	15.289
326.10	15.247
326.46	15.065
326.83	16.894
327.19	16.220
327.56	17.312
327.92	16.837
328.29	16.532
328.65	17.002
329.01	16.667
329.38	16.765
329.74	17.380
330.11	18.493
330.47	17.270
330.84	18.691
331.20	19.333
331.56	18.024
331.93	18.494
332.29	18.390
332.66	18.439
333.02	19.598
333.38	18.792
333.75	18.182
334.11	18.682
334.48	19.554
334.84	20.221
335.20	19.060
335.57	18.971
335.93	18.099
336.29	18.968
336.66	19.092
337.02	20.652
337.38	18.963
337.75	20.083
338.11	19.260
338.47	19.189
338.84	19.459
339.20	19.208
339.56	20.264
339.93	19.787
340.29	19.163
340.65	19.789
341.02	18.915
341.38	21.504
341.74	19.451
342.11	18.986
342.47	19.698
342.83	21.256
343.20	20.687
343.56	19.567
343.92	19.856
344.28	21.250
344.65	21.550
345.01	19.501
345.37	20.218
345.73	19.953
346.10	19.813
346.46	18.908
346.82	19.925
347.19	20.015
347.55	19.423
347.91	19.688
348.27	19.044
348.63	20.183
349.00	20.507
349.36	21.636
349.72	19.866
350.08	20.728
350.45	19.924
350.81	19.306
351.17	20.226
351.53	19.939
351.89	21.488
352.26	20.672
352.62	20.522
352.98	20.916
353.34	19.791
353.70	21.109
354.07	20.194
354.43	20.121
354.79	19.970
355.15	20.898
355.51	21.272
355.87	19.895
356.24	21.065
356.60	20.251
356.96	21.794
357.32	20.892
357.68	21.376
358.04	20.434
358.40	21.493
358.77	21.857
359.13	21.123
359.49	20.892
359.85	22.480
360.21	22.238
360.57	21.752
360.93	21.298
361.29	21.684
361.66	22.375
362.02	22.756
362.38	21.785
362.74	21.788
363.10	23.384
363.46	22.715
363.82	21.449
364.18	22.730
364.54	22.683
364.90	22.943
365.26	22.552
365.62	22.000
365.98	22.532
366.35	22.819
366.71	24.422
367.07	24.087
367.43	23.309
367.79	24.154
368.15	23.144
368.51	24.493
368.87	23.318
369.23	23.600
369.59	24.590
369.95	23.327
370.31	23.903
370.67	24.072
371.03	23.892
371.39	23.237
371.75	24.897
372.11	23.509
372.47	24.983
372.83	24.935
373.19	24.216
373.55	25.474
373.91	24.813
374.27	25.809
374.63	25.034
374.99	25.862
375.35	25.909
375.71	25.677
376.07	25.629
376.42	26.637
376.78	26.352
377.14	26.076
377.50	27.767
377.86	26.970
378.22	26.347
378.58	26.694
378.94	27.817
379.30	27.065
379.66	26.925
380.02	27.986
380.38	28.917
380.74	28.056
381.09	28.630
381.45	28.466
381.81	28.630
382.17	28.266
382.53	28.655
382.89	28.499
383.25	29.719
383.61	29.340
383.97	29.211
384.32	30.801
384.68	29.408
385.04	30.596
385.40	31.055
385.76	31.125
386.12	30.281
386.48	30.824
386.83	30.632
387.19	30.881
387.55	30.986
387.91	31.849
388.27	31.178
388.62	31.271
388.98	30.964
389.34	32.705
389.70	32.423
390.06	31.676
390.42	30.843
390.77	32.270
391.13	32.394
391.49	33.031
391.85	32.667
392.20	33.155
392.56	32.900
392.92	32.988
393.28	33.554
393.64	33.184
393.99	33.236
394.35	34.755
394.71	34.671
395.07	33.293
395.42	33.866
395.78	35.405
396.14	35.116
396.50	34.501
396.85	34.287
397.21	33.669
397.57	34.865
397.92	34.994
398.28	35.144
398.64	35.183
399.00	35.445
399.35	35.026
399.71	35.326
400.07	36.552
400.42	35.215
400.78	35.764
401.14	36.824
401.49	35.816
401.85	36.628
402.21	36.964
402.57	36.854
402.92	36.939
403.28	36.768
403.63	36.038
403.99	36.580
404.35	36.441
404.70	36.374
405.06	37.120
405.42	36.183
405.77	37.459
406.13	37.385
406.49	38.626
406.84	37.396
407.20	38.010
407.55	37.795
407.91	37.712
408.27	37.809
408.62	38.453
408.98	38.073
409.34	37.595
409.69	38.937
410.05	39.449
410.40	39.385
410.76	39.372
411.11	38.925
411.47	39.066
411.83	39.212
412.18	39.819
412.54	39.004
412.89	39.173
413.25	38.939
413.60	38.541
413.96	39.336
414.31	38.924
414.67	39.356
415.03	38.954
415.38	41.047
415.74	40.623
416.09	39.605
416.45	40.764
416.80	39.412
417.16	40.421
417.51	40.286
417.87	40.159
418.22	40.419
418.58	40.582
418.93	40.570
419.29	40.321
419.64	40.336
420.00	40.712
420.35	39.304
420.71	40.896
421.06	38.930
421.42	41.456
421.77	39.580
422.12	40.645
422.48	40.502
422.83	41.731
423.19	41.061
423.54	42.367
423.90	40.917
424.25	40.693
424.61	41.504
424.96	41.790
425.31	42.038
425.67	41.331
426.02	41.173
426.38	42.021
426.73	40.904
427.09	42.099
427.44	42.163
427.79	42.289
428.15	41.210
428.50	40.843
428.85	40.758
429.21	41.436
429.56	40.819
429.92	41.425
430.27	41.976
430.62	41.622
430.98	41.515
431.33	41.398
431.68	41.954
432.04	41.392
432.39	41.778
432.74	41.381
433.10	42.347
433.45	41.583
433.80	41.363
434.16	41.632
434.51	42.446
434.86	42.671
435.22	42.667
435.57	42.925
435.92	42.404
436.28	43.515
436.63	42.381
436.98	40.955
437.34	42.052
437.69	42.433
438.04	42.729
438.39	42.275
438.75	41.063
439.10	42.812
439.45	41.196
439.81	41.751
440.16	41.072
440.51	42.085
440.86	40.634
441.22	41.908
441.57	41.719
441.92	42.726
442.27	41.717
442.63	42.077
442.98	42.956
443.33	41.820
443.68	42.170
444.03	43.180
444.39	42.950
444.74	42.573
445.09	42.321
445.44	42.308
445.79	42.816
446.15	42.446
446.50	42.532
446.85	41.732
447.20	42.408
447.55	43.201
447.91	41.309
448.26	42.389
448.61	41.870
448.96	42.758
449.31	41.410
449.66	42.102
450.02	41.878
450.37	42.461
450.72	42.250
451.07	42.141
451.42	42.172
451.77	41.801
452.12	41.591
452.47	40.761
452.83	42.736
453.18	40.806
453.53	41.356
453.88	41.745
454.23	41.921
454.58	41.555
454.93	41.748
455.28	42.143
455.63	40.762
455.98	42.291
456.34	42.344
456.69	40.976
457.04	41.489
457.39	40.521
457.74	42.394
458.09	41.021
458.44	40.894
458.79	41.052
459.14	40.640
459.49	41.653
459.84	41.553
460.19	40.255
460.54	40.772
460.89	40.603
461.24	40.805
461.59	41.339
461.94	39.760
462.29	40.873
462.64	40.374
462.99	40.490
463.34	39.390
463.69	40.328
464.04	39.744
464.39	40.191
464.74	39.624
465.09	40.254
465.44	40.021
465.79	39.873
466.14	39.291
466.49	40.421
466.84	40.165
467.19	40.000
467.54	39.130
467.89	38.448
468.24	39.003
468.59	38.159
468.94	39.044
469.29	38.572
469.64	38.589
469.99	38.623
470.34	38.861
470.68	39.850
471.03	39.358
471.38	37.999
471.73	38.817
472.08	39.150
472.43	38.651
472.78	38.728
473.13	39.381
473.48	37.704
473.83	39.814
474.17	38.159
474.52	39.808
474.87	38.151
475.22	38.366
475.57	37.020
475.92	38.477
476.27	38.179
476.61	38.318
476.96	37.643
477.31	38.218
477.66	38.877
478.01	37.316
478.36	37.537
478.70	38.768
479.05	38.139
479.40	38.203
479.75	37.512
480.10	37.044
480.45	36.964
480.79	37.415
481.14	36.765
481.49	36.756
481.84	36.728
482.19	37.591
482.53	37.473
482.88	36.730
483.23	36.372
483.58	35.328
483.92	36.348
484.27	35.182
484.62	35.767
484.97	35.809
485.31	35.304
485.66	33.837
486.01	33.500
486.36	34.456
486.70	35.292
487.05	35.539
487.40	35.152
487.75	34.835
488.09	34.883
488.44	34.032
488.79	34.233
489.13	34.830
489.48	34.252
489.83	34.125
490.17	34.062
490.52	33.908
490.87	34.433
491.22	34.575
491.56	34.428
491.91	34.017
492.26	34.531
492.60	33.319
492.95	34.401
493.30	34.693
493.64	33.596
493.99	33.465
494.34	33.449
494.68	32.934
495.03	33.084
495.37	32.712
495.72	33.016
496.07	33.085
496.41	33.162
496.76	33.695
497.11	32.824
497.45	33.319
497.80	33.807
498.14	32.200
498.49	32.077
498.84	32.770
499.18	32.659
499.53	31.749
499.87	32.308
500.22	32.458
500.56	31.984
500.91	32.265
501.26	32.136
501.60	31.728
501.95	32.349
502.29	31.724
502.64	31.920
502.98	30.889
503.33	31.058
503.67	30.702
504.02	31.261
504.36	31.367
504.71	31.741
505.06	30.969
505.40	30.896
505.75	31.375
506.09	30.617
506.44	30.919
506.78	30.229
507.13	30.429
507.47	31.123
507.82	30.492
508.16	30.067
508.51	29.677
508.85	29.948
509.19	29.986
509.54	30.019
509.88	30.986
510.23	30.549
510.57	30.739
510.92	30.576
511.26	28.908
511.61	28.537
511.95	29.527
512.30	29.739
512.64	28.486
512.98	29.715
513.33	28.831
513.67	29.424
514.02	29.484
514.36	28.696
514.70	29.740
515.05	29.927
515.39	28.766
515.74	30.064
516.08	28.790
516.42	29.304
516.77	29.075
517.11	28.417
517.46	28.155
517.80	29.610
518.14	29.053
518.49	29.230
518.83	28.366
519.17	27.841
519.52	28.721
519.86	28.458
520.20	28.381
520.55	28.478
520.89	28.885
521.23	28.029
521.58	27.797
521.92	28.442
522.26	26.919
522.61	28.125
522.95	28.028
523.29	28.046
523.64	27.522
523.98	28.465
524.32	28.481
524.66	27.718
525.01	26.387
525.35	27.341
525.69	26.856
526.04	26.579
526.38	27.759
526.72	27.451
527.06	26.979
527.41	27.055
527.75	27.850
528.09	27.037
528.43	25.696
528.78	26.185
529.12	26.606
529.46	26.532
529.80	26.602
530.15	26.841
530.49	26.335
530.83	26.151
531.17	26.045
531.51	25.812
531.86	26.382
532.20	25.793
532.54	25.793
532.88	26.545
533.22	25.280
533.57	25.967
533.91	25.477
534.25	25.551
534.59	25.632
534.93	25.467
535.27	25.746
535.62	25.469
535.96	25.741
536.30	24.559
536.64	25.946
536.98	26.015
537.32	25.494
537.66	25.577
538.01	24.773
538.35	25.091
538.69	25.060
539.03	25.015
539.37	24.971
539.71	24.865
540.05	25.060
540.39	24.572
540.73	24.044
541.07	24.218
541.42	23.213
541.76	23.725
542.10	24.065
542.44	23.508
542.78	23.723
543.12	23.838
543.46	23.504
543.80	23.441
544.14	24.057
544.48	24.232
544.82	23.878
545.16	24.448
545.50	23.547
545.84	22.964
546.18	23.333
546.52	22.739
546.86	23.899
547.20	23.346
547.54	23.283
547.88	22.845
548.22	22.047
548.56	22.703
548.90	22.627
549.24	22.918
549.58	22.082
549.92	22.321
550.26	24.142
550.60	22.846
550.94	22.833
551.28	22.706
551.62	22.978
551.96	21.489
552.30	23.327
552.64	22.651
552.98	23.144
553.32	21.994
553.66	22.251
554.00	22.005
554.34	22.008
554.68	22.014
555.02	22.339
555.36	21.499
555.69	21.845
556.03	22.383
556.37	21.965
556.71	21.560
557.05	21.342
557.39	20.372
557.73	21.664
558.07	20.927
558.41	21.063
558.75	21.907
559.08	21.851
559.42	21.056
559.76	21.506
560.10	21.299
560.44	20.976
560.78	21.312
561.12	21.244
561.45	20.742
561.79	21.306
562.13	21.134
562.47	19.729
562.81	20.443
563.15	20.833
563.48	20.883
563.82	20.254
564.16	20.715
564.50	20.024
564.84	20.354
565.17	20.471
565.51	20.253
565.85	20.309
566.19	19.988
566.52	20.772
566.86	20.487
567.20	19.848
567.54	19.649
567.88	19.623
568.21	19.862
568.55	20.096
568.89	19.473
569.23	19.392
569.56	19.187
569.90	19.244
570.24	19.123
570.57	19.147
570.91	18.677
571.25	19.236
571.59	18.981
571.92	18.550
572.26	18.290
572.60	18.810
572.93	19.065
573.27	18.657
573.61	18.740
573.95	18.354
574.28	18.103
574.62	18.236
574.96	17.887
575.29	17.955
575.63	18.596
575.97	18.132
576.30	18.159
576.64	18.086
576.98	18.041
577.31	18.090
577.65	18.386
577.98	18.110
578.32	17.669
578.66	17.980
578.99	17.940
579.33	17.719
579.67	17.928
580.00	17.375
580.34	17.627
580.67	17.564
581.01	17.114
581.35	17.553
581.68	17.143
582.02	17.378
582.35	17.412
582.69	17.568
583.02	17.399
583.36	17.909
583.70	17.246
584.03	17.159
584.37	17.477
584.70	17.531
585.04	17.019
585.37	17.212
585.71	17.152
586.04	16.931
586.38	17.177
586.72	16.922
587.05	16.859
587.39	17.302
587.72	17.105
588.06	16.707
588.39	16.878
588.73	16.693
589.06	17.212
589.40	16.533
589.73	17.577
590.07	16.976
590.40	17.343
590.73	17.144
591.07	17.051
591.40	16.446
591.74	16.971
592.07	17.621
592.41	16.562
592.74	16.862
593.08	17.166
593.41	16.710
593.75	16.437
594.08	16.722
594.41	16.859
594.75	16.440
595.08	16.454
595.42	16.591
595.75	16.532
596.09	16.571
596.42	16.661
596.75	17.098
597.09	17.293
597.42	16.408
597.75	16.503
598.09	16.349
598.42	16.848
598.76	16.125
599.09	15.913
599.42	16.259
599.76	15.814
600.09	16.149
600.42	16.116
600.76	16.182
601.09	15.798
601.42	15.997
601.76	16.241
602.09	16.476
602.42	16.176
602.76	16.162
603.09	15.932
603.42	15.824
603.76	15.610
604.09	16.678
604.42	15.817
604.76	15.791
605.09	16.354
605.42	16.029
605.75	15.538
606.09	16.349
606.42	15.615
606.75	15.255
607.09	15.361
607.42	15.877
607.75	15.240
608.08	15.588
608.42	14.833
608.75	15.796
609.08	15.195
609.41	15.792
609.75	15.223
610.08	15.831
610.41	16.228
610.74	15.756
611.07	15.542
611.41	16.233
611.74	15.889
612.07	15.708
612.40	15.352
612.73	15.941
613.07	15.599
613.40	15.784
613.73	15.792
614.06	15.996
614.39	16.035
614.72	15.235
615.06	15.496
615.39	14.596
615.72	15.498
616.05	14.910
616.38	15.388
616.71	15.047
617.05	15.069
617.38	16.319
617.71	15.767
618.04	15.111
618.37	15.738
618.70	15.781
619.03	15.173
619.36	16.461
619.69	15.887
620.03	14.564
620.36	15.215
620.69	15.052
621.02	16.207
621.35	15.893
621.68	16.341
622.01	16.940
622.34	15.132
622.67	14.433
623.00	15.182
623.33	16.324
623.66	16.342
623.99	14.352
624.32	16.504
624.65	14.414
624.99	15.865
625.32	16.786
625.65	15.846
625.98	14.169
626.31	15.450
626.64	15.531
626.97	15.679
627.30	14.655
627.63	14.854
627.96	15.390
628.29	15.642
628.62	15.533
628.95	16.126
629.28	15.463
629.61	15.488
629.94	14.644
630.26	15.593
630.59	13.472
630.92	15.152
631.25	16.011
631.58	16.102
631.91	14.808
632.24	14.601
632.57	14.326
632.90	15.145
633.23	15.102
633.56	14.490
633.89	15.496
634.22	16.008
634.55	15.031
634.88	14.827
635.20	16.792
635.53	15.480
635.86	14.626
636.19	15.376
636.52	14.768
636.85	15.220
637.18	14.657
637.51	15.269
637.83	15.615
638.16	14.286
638.49	15.258
638.82	14.543
639.15	15.464
639.48	15.935
639.81	13.972
640.13	15.312
640.46	14.545
640.79	13.725
641.12	14.907
641.45	15.684
641.77	16.431
642.10	14.698
642.43	15.160
642.76	13.550
643.09	14.658
643.41	15.826
643.74	15.586
644.07	15.034
644.40	14.569
644.73	14.078
645.05	15.125
645.38	15.252
645.71	15.396
646.04	17.217
646.36	13.139
646.69	15.031
647.02	14.526
647.35	15.878
647.67	14.171
648.00	16.242
648.33	15.766
648.66	15.264
648.98	14.966
649.31	15.562
649.64	14.210
649.96	14.058
650.29	13.074
650.62	14.427
650.94	14.565
651.27	14.371
651.60	14.766
651.92	14.894
652.25	15.485
652.58	15.406
652.90	14.244
653.23	15.493
653.56	13.837
653.88	16.292
654.21	15.352
654.54	14.162
654.86	16.714
655.19	12.923
655.52	12.690
655.84	12.225
656.17	14.378
656.49	20.856
656.82	23.339
657.15	18.409
657.47	14.011
657.80	10.322
658.13	8.184
658.45	10.564
658.78	12.737
659.10	12.623
659.43	12.388
659.75	12.120
660.08	12.717
660.41	12.076
660.73	12.885
661.06	12.041
661.38	13.078
661.71	15.862
662.03	16.049
662.36	15.206
662.68	14.259
663.01	15.221
663.33	15.123
663.66	16.117
663.98	14.423
664.31	15.385
664.63	13.487
664.96	13.612
665.28	12.704
665.61	16.434
665.93	14.464
666.26	14.516
666.58	14.207
666.91	15.140
667.23	14.857
667.56	13.018
667.88	14.000
668.21	12.109
668.53	12.162
668.86	14.735
669.18	14.053
669.50	13.917
669.83	10.800
670.15	12.598
670.48	13.294
670.80	13.958
671.13	14.178
671.45	12.795
671.77	16.196
672.10	13.500
672.42	12.945
672.75	11.060
673.07	13.582
673.39	12.943
673.72	13.423
674.04	13.448
674.37	15.027
674.69	15.697
675.01	13.333
675.34	13.931
675.66	11.610
675.98	15.112
676.31	13.281
676.63	15.399
676.95	13.985
677.28	13.306
677.60	11.024
677.92	12.860
678.25	14.077
678.57	15.125
678.89	14.164
679.22	12.544
679.54	13.333
679.86	12.542
680.18	12.106
680.51	12.736
680.83	14.566
681.15	11.724
681.48	14.335
681.80	13.644
682.12	14.685
682.44	11.853
682.77	10.461
683.09	13.447
683.41	14.922
683.73	12.903
684.06	12.177
684.38	12.701
684.70	13.465
685.02	13.081
685.34	12.646
685.67	12.776
685.99	12.730
686.31	10.465
686.63	12.796
686.96	12.303
687.28	11.726
687.60	11.616
687.92	10.611
688.24	12.688
688.56	11.724
688.89	13.430
689.21	14.481
689.53	8.627
689.85	11.045
690.17	11.296
690.49	12.749
690.82	11.683
691.14	10.729
691.46	13.002
691.78	14.549
692.10	12.844
692.42	9.464
692.74	11.797
693.06	9.815
693.39	13.283
693.71	12.782
694.03	11.338
694.35	11.619
694.67	12.115
694.99	12.979
695.31	13.024
695.63	12.121
695.95	12.215
696.27	12.308
696.59	11.283
696.91	12.838
697.23	13.187
697.56	13.035
697.88	9.091
698.20	12.994
698.52	14.205
698.84	13.306
699.16	11.429
699.48	12.762
699.80	11.702
700.12	13.974
700.44	12.212
700.76	11.401
701.08	13.559
701.40	10.363
701.72	13.184
702.04	12.032
702.36	11.780
702.68	13.203
703.00	11.736
703.32	10.837
703.64	12.225
703.96	14.081
704.28	10.811
704.60	14.177
704.91	10.969
705.23	12.877
705.55	12.813
705.87	10.606
706.19	11.350
706.51	7.530
706.83	9.798
707.15	8.466
707.47	10.280
707.79	13.319
708.11	9.534
708.43	10.323
708.74	8.705
709.06	8.121
709.38	11.737
709.70	14.640
710.02	12.145
710.34	12.234
710.66	8.101
710.98	10.383
711.29	10.165
711.61	10.169
711.93	11.966
712.25	10.811
712.57	12.094
712.89	11.471
713.20	10.651
713.52	12.139
713.84	11.142
714.16	14.211
714.48	12.371
714.80	11.169
715.11	11.811
715.43	9.549
715.75	10.526
716.07	10.221
716.39	12.295
716.70	8.434
717.02	8.852
717.34	10.801
717.66	10.738
717.97	8.562
718.29	8.591
718.61	8.224
718.93	12.298
719.24	8.075
719.56	9.816
719.88	10.210
720.20	2.581
720.51	13.975
720.83	11.875
721.15	9.211
721.46	6.164
721.78	10.333
722.10	8.414
722.42	7.383
722.73	9.032
723.05	9.123
723.37	9.722
723.68	13.620
724.00	7.942
724.32	7.394
724.63	9.790
724.95	12.766
725.27	10.105
725.58	12.721
725.90	10.690
726.22	7.837
726.53	8.766
726.85	12.579
727.16	12.689
727.48	12.538
727.80	10.596
728.11	11.307
728.43	10.774
728.74	11.706
729.06	8.278
729.38	10.390
729.69	8.725
730.01	11.607
730.32	8.485
730.64	10.692
730.96	4.348
731.27	11.173
731.59	9.615
731.90	7.792
732.22	10.417
732.53	7.735
732.85	9.714
733.16	8.211
733.48	9.451
733.80	9.749
734.11	11.396
734.43	8.649
734.74	12.152
735.06	9.045
735.37	12.703
735.69	9.459
736.00	9.887
736.32	8.895
736.63	9.167
736.95	8.908
737.26	8.788
737.58	9.697
737.89	10.000
738.21	7.034
738.52	6.557
738.83	10.922
739.15	8.511
739.46	8.844
739.78	11.963
740.09	10.029
740.41	10.496
740.72	7.333
741.04	11.327
741.35	10.877
741.66	6.667
741.98	8.607
742.29	3.347
742.61	11.842
742.92	8.462
743.23	10.830
743.55	8.915
743.86	10.000
744.18	5.372
744.49	3.376
744.80	9.877
745.12	8.017
745.43	13.008
745.74	8.621
746.06	10.593
746.37	10.970
746.68	13.008
747.00	7.917
747.31	12.876
747.62	15.769
747.94	5.263
748.25	5.221
748.56	8.163
748.88	5.556
749.19	13.362
749.50	3.896
749.82	9.237
750.13	10.320
750.44	7.000
750.75	13.846
751.07	9.846
751.38	11.672
751.69	8.946
752.01	11.327
752.32	10.784
752.63	10.884
752.94	10.035
753.26	8.178
753.57	8.148
753.88	5.618
754.19	9.003
754.51	8.682
754.82	5.145
755.13	10.164
755.44	8.874
755.75	6.579
756.07	13.134
756.38	6.289
756.69	10.241
757.00	8.864
757.31	8.470
757.63	8.696
757.94	9.390
758.25	10.384
758.56	10.675
758.87	10.227
759.18	9.600
759.50	13.031
759.81	10.364
760.12	8.625
760.43	9.896
760.74	10.345
761.05	10.250
761.36	8.916
761.67	9.137
761.99	8.378
762.30	7.012
762.61	7.591
762.92	10.075
763.23	8.614
763.54	10.432
763.85	10.997
764.16	9.428
764.47	8.451
764.78	10.863
765.10	9.091
765.41	12.051
765.72	7.937
766.03	10.169
766.34	8.150
766.65	7.317
766.96	5.976
767.27	5.991
767.58	7.960
767.89	13.942
768.20	10.329
768.51	8.333
768.82	7.631
769.13	9.091
769.44	4.231
769.75	10.108
770.06	6.538
770.37	11.811
770.68	1.277
770.99	5.263
771.30	11.852
771.61	7.985
771.92	4.815
772.23	13.360
772.54	2.315
772.85	14.286
773.16	11.429
773.47	4.233
773.78	2.703
774.09	3.409
774.39	18.000
774.70	11.475
775.01	3.049
775.32	4.118
775.63	6.748
775.94	7.006
776.25	12.258
776.56	12.179
776.87	7.483
777.18	12.414
777.48	0.699
777.79	0.676
778.10	2.941
778.41	9.028
778.72	6.897
779.03	3.086
779.34	7.273
779.65	8.808
779.95	7.222
780.26	4.545
780.57	4.516
780.88	11.594
781.19	3.871
781.50	4.118
781.80	12.903
782.11	8.466
782.42	4.545
782.73	2.395
783.04	7.821
783.34	11.515
783.65	2.614
783.96	0.621
784.27	4.762
784.57	4.636
784.88	10.000
785.19	1.575
785.50	7.087
785.81	0.000
786.11	10.000
786.42	9.353
786.73	2.878
787.04	2.256
787.34	-1.639
787.65	2.400
787.96	4.478
788.26	10.490
788.57	11.189
788.88	6.579
789.19	8.497
789.49	2.740
789.80	6.383
790.11	11.024
790.41	2.344
790.72	-2.542
791.03	-4.854
791.33	15.652
791.64	17.544
791.95	-4.464
792.25	12.381
792.56	2.679
792.87	-8.333
793.17	9.821
793.48	-1.042
793.79	-22.892
794.09	-0.917
794.40	1.835
794.70	5.442
795.01	1.299
795.32	3.425
795.62	8.451
795.93	10.606
796.23	6.557
796.54	4.464
796.85	-8.511
797.15	3.261
797.46	-4.110
797.76	-2.500
798.07	-2.174
798.37	-13.402
798.68	-10.390
798.99	-3.448
799.29	10.112
799.60	9.574
799.90	4.819
800.21	-6.154
800.51	-8.955
800.82	-17.647
801.12	-23.288
801.43	-4.412
801.73	-27.119
802.04	-4.545
802.34	-11.667
802.65	-8.475
802.95	7.463
803.26	-15.254
803.56	0.000
803.87	1.429
804.17	4.110
804.48	-15.789
804.78	-6.944
805.09	-13.793
805.39	5.405
805.70	-5.634
806.00	9.756
806.30	12.048
806.61	-5.479
806.91	10.577
807.22	-10.000
807.52	3.448
807.83	6.944
808.13	-7.229
808.43	11.236
808.74	3.750
809.04	-7.353
809.35	-6.667
809.65	1.429
809.95	-4.110
810.26	-10.526
810.56	10.345
810.86	-5.882
811.17	-15.789
811.47	-13.115
811.77	-6.667
812.08	-6.780
812.38	-13.333
812.69	-8.621
812.99	-15.094
813.29	-12.821
813.59	6.000
813.90	1.754
814.20	-27.273
814.50	12.676
814.81	-3.846
815.11	-3.279
815.41	-2.985
815.72	0.000
816.02	16.071
816.32	13.333
816.62	-11.364
816.93	-33.333
817.23	12.963
817.53	2.128
817.84	-2.381
818.14	-23.529
818.44	-16.327
818.74	6.667
819.04	2.564
819.35	-51.429
819.65	-88.462
819.95	1.887
820.25	2.222
820.56	-30.952
820.86	-37.500
821.16	-33.333
821.46	-30.233
821.76	-14.000
822.07	1.786
822.37	-17.391
822.67	0.000
822.97	-27.027
823.27	-7.500
823.57	24.490
823.88	6.667
824.18	-5.000
824.48	-43.333
824.78	-48.000
825.08	-15.152
825.38	4.444
825.69	19.149
825.99	-22.222
826.29	-48.571
826.59	-38.462
826.89	-13.953
827.19	6.000
827.49	-20.588
827.79	-4.167
828.09	-13.514
828.39	-23.333
828.70	-41.463
829.00	-13.953
829.30	-17.857
829.60	-8.824
829.90	-13.043
830.20	-22.857
830.50	-44.828
830.80	-72.222
831.10	-65.385
831.40	-26.471
831.70	-42.857
832.00	-19.355
832.30	-123.529
832.60	-66.667
832.90	-69.231
833.20	-26.316
833.50	-95.000
833.80	-89.474
834.10	-104.762
834.40	-5.556
834.70	15.625
835.00	-51.429
835.30	-20.588
835.60	6.667
835.90	-16.000
836.20	-72.727
836.50	4.000
836.80	-12.121
837.10	-11.111
837.40	-18.519
837.70	-100.000
838.00	-14.286
838.30	-56.522
838.60	0.000
838.90	-64.286
839.19	-52.174
839.49	-158.333
839.79	-4.348
840.09	-93.750
840.39	-35.000
840.69	9.677
840.99	-46.429
841.29	-46.667
841.59	-68.421
841.88	5.128
842.18	-34.615
842.48	-90.000
842.78	-20.000
843.08	26.667
843.38	16.129
843.68	-116.667
843.97	-2.941
844.27	0.000
844.57	-100.000
844.87	-160.000
845.17	-66.667
845.47	-23.810
845.76	-42.857
846.06	-233.333
846.36	-100.000
846.66	-38.462
846.96	-80.000
847.25	-47.059
847.55	-26.087
847.85	-35.000
848.15	-58.824
848.44	-181.818
848.74	-28.571
849.04	-62.500
849.34	-43.750
849.63	-39.130
849.93	800.000
850.23	-26.667
850.53	-19.231
850.82	-63.636
851.12	0.000
851.42	-18.182
851.71	-23.077
852.01	-110.000
852.31	-146.154
852.61	-47.368
852.90	-41.667
853.20	-11.111
853.50	-322.222
853.79	-42.857
854.09	-27.273
854.39	-133.333
854.68	-22.581
854.98	-61.538
855.28	-50.000
855.57	-17.857
855.87	0.000
856.17	-50.000
856.46	-29.630
856.76	-38.889
857.05	-82.609
857.35	-41.667
857.65	-123.077
857.94	-23.810
858.24	0.000
858.53	-26.087
858.83	-29.412
859.13	-11.765
859.42	-17.647
859.72	-78.571
860.01	-45.000
860.31	-77.778
860.60	-60.000
860.90	-113.333
861.20	-27.778
861.49	-30.769
861.79	3.333
862.08	-23.077
862.38	-3.125
862.67	17.647
862.97	-37.500
863.26	-144.444
863.56	-120.000
863.85	-45.455
864.15	-33.333
864.44	-133.333
864.74	-21.429
865.03	-93.750
865.33	-190.000
865.62	-32.258
865.92	-4.545
866.21	21.739
866.51	14.286
866.80	-460.000
867.10	-58.333
867.39	-66.667
867.69	2000.000
867.98	-157.143
868.27	-41.176
868.57	-2300.000
868.86	-170.000
869.16	-28.571
869.45	-12.500
869.75	-63.636
870.04	-185.714
870.33	-141.667
870.63	-257.143
870.92	-75.000
871.22	-250.000
871.51	-36.364
871.80	-566.667
872.10	-800.000
>>>>>End Processed Spectral Data<<<<<
