SpectraSuite Data File
++++++++++++++++++++++++++++++++++++
Date: Thu May 14 16:06:31 PDT 2015
User: schluterlab
Dark Spectrum Present: Yes
Reference Spectrum Present: Yes
Number of Sampled Component Spectra: 1
Spectrometers: USB2E3373
Integration Time (usec): 3000 (USB2E3373)
Spectra Averaged: 3 (USB2E3373)
Boxcar Smoothing: 0 (USB2E3373)
Correct for Electrical Dark: No (USB2E3373)
Strobe/Lamp Enabled: No (USB2E3373)
Correct for Detector Non-linearity: No (USB2E3373)
Correct for Stray Light: No (USB2E3373)
Number of Pixels in Processed Spectrum: 2048
>>>>>Begin Processed Spectral Data<<<<<
178.53	0.000
178.91	200.000
179.29	-1400.000
179.67	-1500.000
180.04	200.000
180.42	190.000
180.80	520.000
181.18	-1600.000
181.56	-900.000
181.94	400.000
182.31	-75.000
182.69	533.333
183.07	-500.000
183.45	275.000
183.83	-16.667
184.20	-466.667
184.58	1500.000
184.96	-250.000
185.34	-155.556
185.72	-240.000
186.09	211.111
186.47	950.000
186.85	600.000
187.23	-222.222
187.61	-1600.000
187.98	360.000
188.36	450.000
188.74	-500.000
189.12	-100.000
189.49	-12.500
189.87	-187.500
190.25	-55.556
190.63	-220.000
191.00	-144.444
191.38	0.000
191.76	-325.000
192.14	-116.667
192.51	300.000
192.89	-216.667
193.27	0.000
193.65	-214.286
194.02	-2800.000
194.40	-200.000
194.78	271.429
195.15	0.000
195.53	-72.727
195.91	0.000
196.29	-50.000
196.66	-38.462
197.04	-2000.000
197.42	-185.714
197.79	-650.000
198.17	-112.500
198.55	-285.714
198.92	-133.333
199.30	-137.500
199.68	-72.727
200.05	-14.286
200.43	-1400.000
200.81	271.429
201.18	0.000
201.56	200.000
201.94	0.000
202.31	666.667
202.69	-188.889
203.07	1000.000
203.44	-100.000
203.82	-550.000
204.19	-25.000
204.57	-216.667
204.95	-125.000
205.32	-1300.000
205.70	450.000
206.08	-200.000
206.45	-250.000
206.83	420.000
207.20	-366.667
207.58	-420.000
207.96	-300.000
208.33	-233.333
208.71	150.000
209.08	-116.667
209.46	0.000
209.84	400.000
210.21	650.000
210.59	700.000
210.96	633.333
211.34	-175.000
211.71	-212.500
212.09	-2300.000
212.46	0.000
212.84	1150.000
213.22	-320.000
213.59	-125.000
213.97	-70.000
214.34	-333.333
214.72	350.000
215.09	-350.000
215.47	0.000
215.84	285.714
216.22	950.000
216.59	-120.000
216.97	-240.000
217.34	-375.000
217.72	-187.500
218.09	-525.000
218.47	-350.000
218.84	0.000
219.22	220.000
219.59	-64.706
219.97	-60.000
220.34	1000.000
220.72	-144.444
221.09	-53.846
221.47	-500.000
221.84	-60.000
222.22	-285.714
222.59	0.000
222.97	-150.000
223.34	-380.000
223.72	-1300.000
224.09	-350.000
224.46	-425.000
224.84	-220.000
225.21	-242.857
225.59	-550.000
225.96	-425.000
226.34	-26.923
226.71	333.333
227.08	-650.000
227.46	-73.333
227.83	-400.000
228.21	-105.263
228.58	175.000
228.95	450.000
229.33	-125.000
229.70	-200.000
230.08	-5.263
230.45	200.000
230.82	-366.667
231.20	-35.714
231.57	-50.000
231.95	-190.909
232.32	-136.364
232.69	-50.000
233.07	-300.000
233.44	-64.706
233.81	-160.000
234.19	-11.111
234.56	-36.364
234.93	0.000
235.31	-52.632
235.68	-50.000
236.05	-115.000
236.43	0.000
236.80	-28.000
237.17	-59.259
237.55	-27.273
237.92	-230.000
238.29	-35.484
238.67	-31.818
239.04	-16.667
239.41	-19.048
239.79	-13.043
240.16	-20.370
240.53	-28.261
240.91	-43.137
241.28	-16.393
241.65	-1.493
242.02	6.757
242.40	-10.769
242.77	-6.667
243.14	-21.951
243.51	-9.211
243.89	-11.538
244.26	-0.990
244.63	-1.961
245.00	6.542
245.38	-5.263
245.75	-8.850
246.12	-3.968
246.49	-4.651
246.87	-0.714
247.24	-3.311
247.61	4.605
247.98	0.000
248.36	-0.617
248.73	-6.135
249.10	1.093
249.47	4.975
249.84	7.853
250.22	-1.554
250.59	-1.667
250.96	2.727
251.33	-1.531
251.70	2.564
252.08	4.167
252.45	5.738
252.82	-2.479
253.19	3.125
253.56	3.042
253.94	3.846
254.31	-0.379
254.68	8.042
255.05	7.492
255.42	4.082
255.79	1.618
256.16	2.980
256.54	1.987
256.91	4.590
257.28	6.230
257.65	4.140
258.02	-0.590
258.39	3.989
258.76	5.199
259.14	7.471
259.51	5.187
259.88	1.983
260.25	3.611
260.62	6.575
260.99	6.557
261.36	6.702
261.73	2.653
262.10	4.945
262.47	2.413
262.85	8.586
263.22	3.117
263.59	0.789
263.96	3.581
264.33	3.325
264.70	4.691
265.07	9.547
265.44	5.442
265.81	4.167
266.18	6.803
266.55	5.357
266.92	2.050
267.29	7.877
267.66	3.769
268.03	5.022
268.40	5.637
268.77	4.100
269.14	3.965
269.51	5.702
269.88	8.402
270.25	4.628
270.62	7.595
270.99	6.667
271.36	5.545
271.73	7.073
272.10	7.816
272.47	3.808
272.84	4.819
273.21	6.413
273.58	6.855
273.95	5.385
274.32	4.373
274.69	2.901
275.06	5.678
275.43	2.218
275.80	6.173
276.17	3.148
276.54	4.104
276.91	3.936
277.28	6.148
277.65	5.386
278.02	5.515
278.39	5.072
278.76	4.042
279.13	4.787
279.50	6.701
279.87	6.261
280.23	3.169
280.60	5.254
280.97	5.263
281.34	3.905
281.71	6.768
282.08	5.648
282.45	4.583
282.82	6.279
283.19	4.523
283.56	3.279
283.92	6.006
284.29	6.793
284.66	5.583
285.03	3.846
285.40	6.646
285.77	4.799
286.14	7.023
286.51	4.871
286.87	3.949
287.24	5.422
287.61	5.381
287.98	5.589
288.35	3.994
288.72	3.994
289.08	5.710
289.45	3.994
289.82	4.518
290.19	4.598
290.56	4.789
290.93	5.421
291.29	5.096
291.66	4.132
292.03	4.206
292.40	6.531
292.77	3.504
293.13	5.413
293.50	3.285
293.87	4.832
294.24	6.667
294.60	5.310
294.97	5.369
295.34	5.890
295.71	4.414
296.08	4.005
296.44	4.779
296.81	4.872
297.18	3.611
297.55	4.717
297.91	3.915
298.28	1.777
298.65	4.637
299.02	3.424
299.38	4.462
299.75	4.089
300.12	4.051
300.48	4.493
300.85	4.949
301.22	4.810
301.59	3.995
301.95	4.746
302.32	5.444
302.69	3.834
303.05	4.244
303.42	3.880
303.79	5.208
304.15	4.732
304.52	3.805
304.89	4.188
305.25	4.348
305.62	5.434
305.99	5.052
306.35	3.528
306.72	4.240
307.09	4.467
307.45	4.969
307.82	4.339
308.19	3.431
308.55	5.207
308.92	4.576
309.29	4.885
309.65	4.386
310.02	5.149
310.38	4.823
310.75	3.883
311.12	5.273
311.48	4.888
311.85	5.983
312.22	5.123
312.58	5.915
312.95	6.405
313.31	6.052
313.68	6.593
314.05	6.865
314.41	7.104
314.78	6.449
315.14	7.260
315.51	7.295
315.87	7.831
316.24	8.037
316.61	8.881
316.97	7.964
317.34	7.937
317.70	9.432
318.07	8.466
318.43	10.799
318.80	9.783
319.16	10.644
319.53	9.254
319.89	10.605
320.26	11.299
320.62	11.525
320.99	10.711
321.35	11.922
321.72	13.116
322.08	12.083
322.45	12.647
322.81	11.913
323.18	13.274
323.54	13.793
323.91	14.324
324.27	13.339
324.64	14.777
325.00	15.920
325.37	15.479
325.73	16.033
326.10	15.734
326.46	17.101
326.83	17.694
327.19	17.008
327.56	17.233
327.92	16.994
328.29	16.855
328.65	16.415
329.01	18.020
329.38	17.944
329.74	19.435
330.11	18.236
330.47	18.871
330.84	18.002
331.20	19.583
331.56	18.198
331.93	19.749
332.29	19.068
332.66	20.349
333.02	19.765
333.38	18.456
333.75	18.939
334.11	19.850
334.48	18.894
334.84	19.626
335.20	18.556
335.57	20.573
335.93	19.174
336.29	19.468
336.66	19.008
337.02	19.565
337.38	21.088
337.75	20.248
338.11	20.101
338.47	19.768
338.84	18.951
339.20	18.281
339.56	18.781
339.93	19.376
340.29	19.002
340.65	19.546
341.02	18.755
341.38	19.968
341.74	17.837
342.11	18.504
342.47	18.586
342.83	19.646
343.20	20.523
343.56	19.006
343.92	19.456
344.28	18.359
344.65	19.845
345.01	19.501
345.37	18.818
345.73	18.005
346.10	19.033
346.46	18.592
346.82	19.700
347.19	19.557
347.55	19.347
347.91	18.945
348.27	18.741
348.63	19.878
349.00	18.643
349.36	19.331
349.72	19.792
350.08	19.539
350.45	18.403
350.81	18.703
351.17	19.398
351.53	19.560
351.89	19.666
352.26	18.881
352.62	18.881
352.98	18.855
353.34	17.625
353.70	19.106
354.07	19.374
354.43	19.590
354.79	18.250
355.15	19.058
355.51	18.421
355.87	18.923
356.24	19.696
356.60	19.143
356.96	18.903
357.32	18.513
357.68	18.887
358.04	18.563
358.40	17.612
358.77	19.737
359.13	18.095
359.49	17.844
359.85	20.377
360.21	18.723
360.57	19.742
360.93	19.887
361.29	19.789
361.66	19.117
362.02	20.598
362.38	19.466
362.74	18.925
363.10	20.495
363.46	19.391
363.82	19.531
364.18	19.916
364.54	20.124
364.90	20.468
365.26	19.310
365.62	20.600
365.98	20.082
366.35	19.664
366.71	20.952
367.07	20.162
367.43	20.814
367.79	20.040
368.15	21.070
368.51	20.907
368.87	19.791
369.23	20.667
369.59	20.628
369.95	19.473
370.31	20.662
370.67	21.389
371.03	20.845
371.39	20.349
371.75	20.358
372.11	20.528
372.47	20.650
372.83	21.204
373.19	20.881
373.55	20.528
373.91	20.109
374.27	20.699
374.63	20.974
374.99	21.552
375.35	20.779
375.71	21.419
376.07	21.175
376.42	21.033
376.78	21.815
377.14	21.522
377.50	22.075
377.86	21.552
378.22	20.898
378.58	21.403
378.94	21.127
379.30	20.855
379.66	21.576
380.02	21.293
380.38	22.177
380.74	21.127
381.09	21.080
381.45	21.875
381.81	21.956
382.17	21.318
382.53	21.170
382.89	21.501
383.25	22.098
383.61	21.123
383.97	21.025
384.32	22.069
384.68	21.056
385.04	21.631
385.40	22.275
385.76	21.864
386.12	21.963
386.48	21.706
386.83	22.646
387.19	21.784
387.55	22.124
387.91	21.689
388.27	21.940
388.62	21.249
388.98	21.376
389.34	22.687
389.70	22.661
390.06	21.788
390.42	21.506
390.77	21.854
391.13	21.831
391.49	21.920
391.85	21.212
392.20	21.767
392.56	21.796
392.92	23.228
393.28	21.669
393.64	22.458
393.99	22.429
394.35	21.904
394.71	22.575
395.07	20.898
395.42	22.216
395.78	22.060
396.14	21.628
396.50	22.090
396.85	21.586
397.21	21.893
397.57	21.967
397.92	22.050
398.28	22.379
398.64	20.423
399.00	20.785
399.35	21.466
399.71	21.522
400.07	21.786
400.42	22.293
400.78	21.296
401.14	20.945
401.49	21.262
401.85	21.570
402.21	22.480
402.57	21.538
402.92	21.513
403.28	20.667
403.63	20.585
403.99	20.962
404.35	20.978
404.70	21.246
405.06	21.087
405.42	22.248
405.77	22.192
406.13	21.394
406.49	21.959
406.84	20.554
407.20	20.906
407.55	20.654
407.91	20.490
408.27	21.967
408.62	21.640
408.98	21.126
409.34	20.762
409.69	21.261
410.05	21.688
410.40	22.332
410.76	21.256
411.11	21.157
411.47	21.560
411.83	21.576
412.18	21.205
412.54	21.280
412.89	21.013
413.25	21.388
413.60	21.137
413.96	21.620
414.31	21.416
414.67	21.646
415.03	20.738
415.38	22.257
415.74	21.319
416.09	20.666
416.45	20.977
416.80	20.624
417.16	20.754
417.51	21.171
417.87	21.704
418.22	21.257
418.58	21.190
418.93	22.119
419.29	21.640
419.64	20.708
420.00	21.068
420.35	20.831
420.71	20.046
421.06	20.644
421.42	21.560
421.77	20.302
422.12	21.089
422.48	20.276
422.83	22.180
423.19	21.273
423.54	22.179
423.90	20.707
424.25	21.333
424.61	21.010
424.96	20.923
425.31	22.240
425.67	20.075
426.02	21.195
426.38	20.436
426.73	20.257
427.09	20.934
427.44	20.644
427.79	21.338
428.15	20.548
428.50	21.067
428.85	20.896
429.21	21.915
429.56	20.731
429.92	20.885
430.27	20.627
430.62	21.299
430.98	20.708
431.33	20.626
431.68	20.594
432.04	21.331
432.39	20.514
432.74	21.176
433.10	21.092
433.45	20.234
433.80	21.567
434.16	20.919
434.51	22.251
434.86	21.878
435.22	21.573
435.57	20.637
435.92	20.646
436.28	21.104
436.63	21.628
436.98	21.202
437.34	21.646
437.69	20.969
438.04	20.994
438.39	20.735
438.75	21.251
439.10	21.829
439.45	21.688
439.81	21.808
440.16	20.375
440.51	21.739
440.86	21.067
441.22	21.061
441.57	21.541
441.92	21.242
442.27	21.717
442.63	21.808
442.98	22.038
443.33	20.358
443.68	21.754
444.03	21.872
444.39	21.683
444.74	21.286
445.09	21.693
445.44	21.338
445.79	21.456
446.15	22.045
446.50	21.395
446.85	21.936
447.20	21.567
447.55	21.653
447.91	21.571
448.26	20.930
448.61	21.360
448.96	22.103
449.31	21.686
449.66	21.078
450.02	22.046
450.37	22.003
450.72	21.206
451.07	21.640
451.42	21.202
451.77	20.956
452.12	22.009
452.47	20.974
452.83	22.354
453.18	21.600
453.53	21.941
453.88	21.314
454.23	21.695
454.58	21.706
454.93	22.148
455.28	21.674
455.63	21.660
455.98	21.173
456.34	21.437
456.69	20.752
457.04	21.631
457.39	22.173
457.74	22.036
458.09	20.758
458.44	21.336
458.79	21.093
459.14	21.080
459.49	21.732
459.84	21.301
460.19	20.600
460.54	22.203
460.89	21.758
461.24	20.747
461.59	22.247
461.94	19.966
462.29	22.004
462.64	21.183
462.99	21.218
463.34	20.766
463.69	20.692
464.04	22.346
464.39	21.469
464.74	20.468
465.09	20.473
465.44	20.976
465.79	21.417
466.14	21.157
466.49	21.158
466.84	20.551
467.19	21.329
467.54	20.799
467.89	21.437
468.24	21.219
468.59	19.861
468.94	21.212
469.29	20.816
469.64	20.407
469.99	20.778
470.34	20.792
470.68	21.394
471.03	20.563
471.38	20.275
471.73	20.546
472.08	20.749
472.43	21.493
472.78	21.033
473.13	20.670
473.48	20.906
473.83	20.952
474.17	21.395
474.52	21.046
474.87	21.705
475.22	20.732
475.57	20.561
475.92	21.005
476.27	20.927
476.61	21.236
476.96	20.594
477.31	20.594
477.66	22.088
478.01	21.301
478.36	20.638
478.70	20.591
479.05	21.933
479.40	20.484
479.75	21.326
480.10	20.417
480.45	20.921
480.79	21.043
481.14	21.002
481.49	21.127
481.84	21.192
482.19	21.161
482.53	20.376
482.88	20.868
483.23	20.587
483.58	20.218
483.92	19.902
484.27	21.211
484.62	20.256
484.97	20.840
485.31	20.134
485.66	19.903
486.01	19.391
486.36	20.664
486.70	20.857
487.05	21.533
487.40	20.780
487.75	20.738
488.09	20.485
488.44	20.099
488.79	20.304
489.13	20.348
489.48	19.650
489.83	20.040
490.17	20.332
490.52	20.731
490.87	20.093
491.22	20.321
491.56	19.838
491.91	19.799
492.26	19.732
492.60	19.808
492.95	20.448
493.30	19.901
493.64	20.061
493.99	20.000
494.34	19.948
494.68	19.914
495.03	20.396
495.37	20.240
495.72	19.955
496.07	20.684
496.41	20.420
496.76	19.892
497.11	19.490
497.45	19.379
497.80	19.858
498.14	19.637
498.49	19.899
498.84	20.064
499.18	20.108
499.53	19.955
499.87	20.659
500.22	19.190
500.56	19.793
500.91	20.000
501.26	20.636
501.60	19.222
501.95	19.800
502.29	20.097
502.64	19.676
502.98	19.586
503.33	18.834
503.67	19.320
504.02	19.571
504.36	20.331
504.71	19.063
505.06	19.645
505.40	19.470
505.75	19.991
506.09	19.890
506.44	19.870
506.78	19.725
507.13	19.686
507.47	19.659
507.82	19.792
508.16	19.790
508.51	20.206
508.85	19.320
509.19	20.369
509.54	20.749
509.88	19.718
510.23	20.301
510.57	20.396
510.92	20.319
511.26	19.913
511.61	19.797
511.95	19.522
512.30	20.483
512.64	19.540
512.98	20.160
513.33	20.766
513.67	20.092
514.02	19.826
514.36	20.102
514.70	20.365
515.05	19.969
515.39	20.630
515.74	20.467
516.08	20.602
516.42	20.670
516.77	20.347
517.11	19.649
517.46	20.679
517.80	21.219
518.14	20.511
518.49	20.879
518.83	20.436
519.17	20.140
519.52	20.597
519.86	20.697
520.20	21.033
520.55	21.139
520.89	21.115
521.23	21.776
521.58	21.130
521.92	20.340
522.26	21.134
522.61	20.312
522.95	21.396
523.29	21.264
523.64	21.020
523.98	21.905
524.32	21.891
524.66	21.628
525.01	20.838
525.35	20.620
525.69	21.694
526.04	20.321
526.38	20.517
526.72	21.857
527.06	21.290
527.41	21.224
527.75	21.615
528.09	21.783
528.43	21.078
528.78	20.867
529.12	20.986
529.46	20.798
529.80	21.053
530.15	21.565
530.49	20.641
530.83	21.783
531.17	21.087
531.51	21.540
531.86	21.575
532.20	21.037
532.54	20.646
532.88	21.576
533.22	20.566
533.57	21.812
533.91	21.156
534.25	21.198
534.59	21.552
534.93	20.600
535.27	21.465
535.62	22.001
535.96	21.325
536.30	21.798
536.64	22.823
536.98	21.587
537.32	21.296
537.66	22.021
538.01	20.785
538.35	21.133
538.69	20.493
539.03	21.091
539.37	21.260
539.71	21.261
540.05	21.103
540.39	20.844
540.73	20.583
541.07	20.969
541.42	20.024
541.76	20.937
542.10	21.110
542.44	20.463
542.78	20.620
543.12	20.322
543.46	19.963
543.80	19.664
544.14	21.005
544.48	20.804
544.82	21.364
545.16	20.632
545.50	21.150
545.84	20.821
546.18	21.975
546.52	20.191
546.86	20.314
547.20	20.802
547.54	20.662
547.88	19.831
548.22	21.170
548.56	20.889
548.90	19.224
549.24	20.304
549.58	20.946
549.92	20.344
550.26	20.388
550.60	20.485
550.94	21.151
551.28	20.132
551.62	20.957
551.96	19.806
552.30	20.395
552.64	20.971
552.98	20.399
553.32	20.386
553.66	20.514
554.00	20.492
554.34	19.820
554.68	20.529
555.02	19.711
555.36	21.105
555.69	19.475
556.03	19.168
556.37	20.588
556.71	20.609
557.05	19.808
557.39	20.106
557.73	20.608
558.07	20.000
558.41	19.801
558.75	19.067
559.08	20.390
559.42	19.959
559.76	20.353
560.10	19.759
560.44	20.778
560.78	20.063
561.12	19.951
561.45	20.255
561.79	19.658
562.13	19.963
562.47	18.866
562.81	20.000
563.15	19.318
563.48	20.510
563.82	19.649
564.16	19.806
564.50	20.024
564.84	18.997
565.17	20.294
565.51	18.700
565.85	19.240
566.19	19.240
566.52	19.310
566.86	19.242
567.20	19.630
567.54	18.694
567.88	19.623
568.21	18.775
568.55	19.233
568.89	18.838
569.23	19.645
569.56	19.500
569.90	19.423
570.24	19.089
570.57	18.922
570.91	18.555
571.25	18.600
571.59	19.260
571.92	18.177
572.26	18.131
572.60	18.619
572.93	18.592
573.27	18.348
573.61	18.740
573.95	18.281
574.28	18.197
574.62	18.167
574.96	17.931
575.29	17.889
575.63	18.110
575.97	18.036
576.30	18.579
576.64	17.943
576.98	17.790
577.31	18.660
577.65	18.655
577.98	18.016
578.32	18.055
578.66	17.904
578.99	17.612
579.33	17.652
579.67	17.974
580.00	17.667
580.34	17.823
580.67	17.829
581.01	17.525
581.35	17.748
581.68	17.799
582.02	17.899
582.35	17.790
582.69	17.739
583.02	17.436
583.36	17.786
583.70	17.655
584.03	17.855
584.37	17.181
584.70	17.237
585.04	17.391
585.37	17.875
585.71	17.282
586.04	17.459
586.38	17.874
586.72	16.997
587.05	17.447
587.39	17.477
587.72	17.536
588.06	17.360
588.39	17.600
588.73	17.407
589.06	17.015
589.40	17.394
589.73	16.710
590.07	17.573
590.40	18.154
590.73	17.391
591.07	17.684
591.40	17.146
591.74	17.130
592.07	17.255
592.41	17.035
592.74	16.791
593.08	17.134
593.41	17.469
593.75	17.126
594.08	17.510
594.41	16.859
594.75	17.071
595.08	16.756
595.42	17.045
595.75	17.275
596.09	17.486
596.42	17.234
596.75	16.943
597.09	17.172
597.42	17.044
597.75	16.739
598.09	16.944
598.42	17.250
598.76	16.202
599.09	16.910
599.42	16.158
599.76	17.266
600.09	17.050
600.42	17.084
600.76	16.876
601.09	16.495
601.42	16.375
601.76	16.828
602.09	16.583
602.42	16.212
602.76	16.384
603.09	16.373
603.42	16.835
603.76	15.962
604.09	16.714
604.42	16.661
604.76	15.715
605.09	16.713
605.42	16.866
605.75	16.615
606.09	16.013
606.42	16.235
606.75	16.004
607.09	15.975
607.42	15.915
607.75	16.491
608.08	16.259
608.42	16.445
608.75	16.045
609.08	15.832
609.41	15.968
609.75	16.652
610.08	16.227
610.41	16.185
610.74	16.050
611.07	16.030
611.41	16.816
611.74	16.305
612.07	16.737
612.40	15.399
612.73	15.795
613.07	16.137
613.40	16.410
613.73	16.081
614.06	15.947
614.39	15.695
614.72	15.769
615.06	16.169
615.39	15.466
615.72	15.782
616.05	16.221
616.38	16.347
616.71	16.823
617.05	15.815
617.38	15.784
617.71	15.767
618.04	15.812
618.37	16.831
618.70	16.290
619.03	16.069
619.36	15.475
619.69	15.951
620.03	15.568
620.36	16.319
620.69	16.286
621.02	16.535
621.35	16.691
621.68	15.907
622.01	16.441
622.34	15.481
622.67	15.945
623.00	15.115
623.33	15.395
623.66	16.602
623.99	14.812
624.32	16.569
624.65	15.508
624.99	17.165
625.32	16.525
625.65	15.577
625.98	14.644
626.31	15.734
626.64	14.725
626.97	15.454
627.30	14.503
627.63	15.829
627.96	16.066
628.29	16.265
628.62	15.617
628.95	15.951
629.28	15.888
629.61	14.899
629.94	14.226
630.26	15.339
630.59	15.112
630.92	14.632
631.25	16.816
631.58	15.537
631.91	16.120
632.24	15.082
632.57	15.939
632.90	14.343
633.23	16.122
633.56	16.122
633.89	13.740
634.22	14.553
634.55	15.344
634.88	15.152
635.20	15.823
635.53	16.384
635.86	16.685
636.19	15.695
636.52	14.979
636.85	14.300
637.18	14.033
637.51	14.946
637.83	15.615
638.16	15.668
638.49	15.258
638.82	15.445
639.15	15.464
639.48	16.051
639.81	15.242
640.13	16.843
640.46	13.939
640.79	15.074
641.12	15.776
641.45	15.056
641.77	16.688
642.10	15.092
642.43	16.622
642.76	14.499
643.09	14.521
643.41	15.546
643.74	14.483
644.07	16.828
644.40	14.710
644.73	15.820
645.05	15.712
645.38	14.101
645.71	15.396
646.04	14.634
646.36	13.869
646.69	13.190
647.02	15.443
647.35	14.656
647.67	15.620
648.00	14.013
648.33	13.213
648.66	13.837
648.98	14.694
649.31	14.614
649.64	15.803
649.96	14.589
650.29	12.239
650.62	14.286
650.94	13.363
651.27	13.473
651.60	14.035
651.92	13.526
652.25	14.182
652.58	14.030
652.90	13.227
653.23	15.634
653.56	14.123
653.88	15.449
654.21	15.211
654.54	12.428
654.86	14.589
655.19	12.547
655.52	15.004
655.84	14.476
656.17	16.651
656.49	23.538
656.82	25.257
657.15	19.394
657.47	14.274
657.80	10.450
658.13	8.074
658.45	10.483
658.78	12.698
659.10	12.037
659.43	11.849
659.75	11.877
660.08	10.756
660.41	11.828
660.73	10.718
661.06	11.601
661.38	13.397
661.71	13.276
662.03	12.875
662.36	14.669
662.68	13.321
663.01	13.628
663.33	12.098
663.66	16.117
663.98	13.077
664.31	11.820
664.63	10.983
664.96	13.793
665.28	10.345
665.61	14.161
665.93	13.036
666.26	13.262
666.58	12.362
666.91	15.514
667.23	13.143
667.56	15.976
667.88	12.400
668.21	9.570
668.53	10.232
668.86	13.752
669.18	13.035
669.50	11.730
669.83	13.200
670.15	11.614
670.48	12.500
670.80	12.046
671.13	10.586
671.45	14.961
671.77	14.501
672.10	11.667
672.42	12.945
672.75	11.674
673.07	12.537
673.39	11.556
673.72	14.262
674.04	12.586
674.37	15.027
674.69	14.286
675.01	12.571
675.34	12.023
675.66	10.487
675.98	13.993
676.31	12.695
676.63	14.068
676.95	13.410
677.28	11.895
677.60	10.827
677.92	12.284
678.25	14.077
678.57	12.456
678.89	13.823
679.22	10.976
679.54	11.453
679.86	9.831
680.18	12.106
680.51	11.635
680.83	12.111
681.15	12.586
681.48	12.090
681.80	15.199
682.12	11.538
682.44	13.856
682.77	12.589
683.09	12.311
683.41	11.434
683.73	13.283
684.06	12.362
684.38	10.912
684.70	14.542
685.02	15.146
685.34	10.483
685.67	11.041
685.99	12.117
686.31	9.157
686.63	12.164
686.96	12.461
687.28	11.238
687.60	11.616
687.92	11.415
688.24	12.688
688.56	10.517
688.89	12.704
689.21	12.133
689.53	9.412
689.85	12.426
690.17	12.037
690.49	11.952
690.82	10.099
691.14	8.704
691.46	11.663
691.78	11.786
692.10	12.477
692.42	10.893
692.74	10.889
693.06	9.630
693.39	13.093
693.71	11.278
694.03	12.454
694.35	13.333
694.67	11.910
694.99	12.979
695.31	11.258
695.63	12.121
695.95	12.422
696.27	12.747
696.59	13.053
696.91	10.586
697.23	13.187
697.56	12.220
697.88	8.902
698.20	11.676
698.52	13.447
698.84	11.227
699.16	12.041
699.48	12.134
699.80	11.064
700.12	11.572
700.44	12.212
700.76	12.352
701.08	13.317
701.40	14.508
701.72	12.935
702.04	12.567
702.36	8.377
702.68	8.557
703.00	11.247
703.32	12.069
703.64	8.557
703.96	11.933
704.28	11.057
704.60	10.633
704.91	10.204
705.23	10.685
705.55	10.864
705.87	10.909
706.19	14.417
706.51	9.337
706.83	9.798
707.15	7.407
707.47	7.944
707.79	9.825
708.11	6.144
708.43	8.387
708.74	6.250
709.06	11.601
709.38	12.207
709.70	12.407
710.02	10.336
710.34	11.702
710.66	9.777
710.98	7.923
711.29	10.165
711.61	7.627
711.93	11.396
712.25	10.000
712.57	10.029
712.89	11.765
713.20	8.876
713.52	11.850
713.84	9.471
714.16	13.947
714.48	10.825
714.80	11.948
715.11	6.824
715.43	7.958
715.75	11.579
716.07	8.840
716.39	12.568
716.70	9.639
717.02	9.508
717.34	7.317
717.66	7.383
717.97	5.137
718.29	6.186
718.61	12.171
718.93	6.149
719.24	8.385
719.56	8.589
719.88	10.811
720.20	10.968
720.51	9.938
720.83	7.188
721.15	6.908
721.46	8.904
721.78	8.000
722.10	7.767
722.42	9.732
722.73	8.710
723.05	9.825
723.37	13.542
723.68	9.677
724.00	9.025
724.32	9.859
724.63	8.042
724.95	10.993
725.27	10.801
725.58	5.654
725.90	10.345
726.22	5.016
726.53	6.494
726.85	9.119
727.16	8.459
727.48	9.480
727.80	10.596
728.11	5.300
728.43	13.131
728.74	7.692
729.06	7.616
729.38	10.065
729.69	9.396
730.01	8.929
730.32	3.939
730.64	9.748
730.96	6.522
731.27	6.704
731.59	9.615
731.90	7.013
732.22	7.292
732.53	7.459
732.85	10.000
733.16	9.971
733.48	7.012
733.80	9.471
734.11	7.407
734.43	11.622
734.74	10.886
735.06	8.794
735.37	9.459
735.69	8.919
736.00	8.192
736.32	7.547
736.63	8.056
736.95	7.184
737.26	12.121
737.58	8.182
737.89	8.235
738.21	5.810
738.52	6.230
738.83	8.191
739.15	4.255
739.46	11.905
739.78	9.816
740.09	6.017
740.41	9.329
740.72	6.667
741.04	5.825
741.35	8.772
741.66	7.451
741.98	6.557
742.29	7.531
742.61	10.526
742.92	6.538
743.23	7.942
743.55	9.302
743.86	7.600
744.18	0.826
744.49	6.329
744.80	6.584
745.12	9.283
745.43	8.130
745.74	4.741
746.06	9.322
746.37	8.861
746.68	11.382
747.00	7.917
747.31	8.155
747.62	10.385
747.94	4.858
748.25	1.606
748.56	2.449
748.88	7.265
749.19	10.776
749.50	7.792
749.82	12.048
750.13	9.253
750.44	9.333
750.75	12.000
751.07	8.923
751.38	7.886
751.69	7.987
752.01	6.796
752.32	8.170
752.63	2.721
752.94	7.958
753.26	2.974
753.57	9.259
753.88	3.371
754.19	9.968
754.51	8.039
754.82	6.431
755.13	9.180
755.44	8.191
755.75	5.921
756.07	6.866
756.38	5.346
756.69	9.337
757.00	7.756
757.31	5.738
757.63	3.325
757.94	8.451
758.25	8.578
758.56	9.368
758.87	8.864
759.18	8.000
759.50	8.215
759.81	8.403
760.12	6.199
760.43	9.115
760.74	7.389
761.05	7.250
761.36	7.229
761.67	7.107
761.99	8.108
762.30	9.146
762.61	3.960
762.92	3.731
763.23	8.989
763.54	3.237
763.85	8.935
764.16	9.428
764.47	4.577
764.78	7.348
765.10	7.331
765.41	10.513
765.72	7.143
766.03	10.169
766.34	3.135
766.65	5.226
766.96	9.163
767.27	3.226
767.58	-0.498
767.89	6.250
768.20	5.164
768.51	6.019
768.82	8.032
769.13	5.303
769.44	0.385
769.75	5.776
770.06	5.385
770.37	9.055
770.68	2.979
770.99	-3.239
771.30	8.889
771.61	4.943
771.92	5.185
772.23	7.692
772.54	1.852
772.85	9.677
773.16	8.571
773.47	-5.820
773.78	1.081
774.09	6.818
774.39	10.500
774.70	7.104
775.01	-3.049
775.32	6.471
775.63	6.748
775.94	3.822
776.25	2.581
776.56	8.333
776.87	10.204
777.18	2.069
777.48	-1.399
777.79	2.027
778.10	2.206
778.41	2.778
778.72	4.828
779.03	11.111
779.34	2.424
779.65	2.073
779.95	10.556
780.26	3.409
780.57	7.097
780.88	8.696
781.19	3.226
781.50	10.000
781.80	10.753
782.11	6.349
782.42	-0.505
782.73	-1.796
783.04	2.793
783.34	-3.030
783.65	-7.843
783.96	1.863
784.27	1.786
784.57	5.960
784.88	-3.571
785.19	-2.362
785.50	2.362
785.81	-0.752
786.11	6.154
786.42	-3.597
786.73	0.719
787.04	2.256
787.34	6.557
787.65	-0.800
787.96	9.701
788.26	6.993
788.57	2.098
788.88	2.632
789.19	5.882
789.49	0.000
789.80	7.801
790.11	3.150
790.41	-0.781
790.72	0.847
791.03	-6.796
791.33	-4.348
791.64	9.649
791.95	-1.786
792.25	-3.810
792.56	4.464
792.87	-17.708
793.17	0.000
793.48	-8.333
793.79	-14.458
794.09	-6.422
794.40	-4.587
794.70	4.762
795.01	3.247
795.32	2.055
795.62	-4.930
795.93	-8.333
796.23	2.459
796.54	-0.893
796.85	-8.511
797.15	-3.261
797.46	-13.699
797.76	-12.500
798.07	-3.261
798.37	-8.247
798.68	-7.792
798.99	-5.747
799.29	-5.618
799.60	5.319
799.90	-10.843
800.21	-7.692
800.51	-23.881
800.82	-14.706
801.12	-20.548
801.43	-27.941
801.73	-25.424
802.04	-9.091
802.34	-20.000
802.65	-23.729
802.95	-1.493
803.26	-18.644
803.56	-4.110
803.87	-11.429
804.17	-16.438
804.48	-45.614
804.78	-22.222
805.09	-20.690
805.39	2.703
805.70	-9.859
806.00	1.220
806.30	-9.639
806.61	-23.288
806.91	6.731
807.22	-13.333
807.52	-13.793
807.83	-5.556
808.13	-1.205
808.43	-7.865
808.74	-10.000
809.04	-27.941
809.35	-10.667
809.65	-2.857
809.95	-9.589
810.26	-8.772
810.56	-15.517
810.86	-10.294
811.17	-14.035
811.47	-14.754
811.77	-51.111
812.08	-18.644
812.38	-18.333
812.69	5.172
812.99	-16.981
813.29	-51.282
813.59	-2.000
813.90	3.509
814.20	-12.727
814.50	4.225
814.81	-12.821
815.11	-16.393
815.41	-10.448
815.72	-5.172
816.02	0.000
816.32	-22.222
816.62	-4.545
816.93	-31.111
817.23	-7.407
817.53	-40.426
817.84	4.762
818.14	-29.412
818.44	-24.490
818.74	-26.667
819.04	-23.077
819.35	-40.000
819.65	-53.846
819.95	-11.321
820.25	-6.667
820.56	-35.714
820.86	-50.000
821.16	-30.769
821.46	-37.209
821.76	-36.000
822.07	-19.643
822.37	-36.957
822.67	-27.660
822.97	-59.459
823.27	-37.500
823.57	-8.163
823.88	-2.222
824.18	5.000
824.48	-60.000
824.78	-48.000
825.08	-33.333
825.38	2.222
825.69	0.000
825.99	-5.556
826.29	-62.857
826.59	-41.026
826.89	-27.907
827.19	-32.000
827.49	-17.647
827.79	-6.250
828.09	-29.730
828.39	-43.333
828.70	-14.634
829.00	-16.279
829.30	-53.571
829.60	-11.765
829.90	-19.565
830.20	-11.429
830.50	-37.931
830.80	-88.889
831.10	-53.846
831.40	-29.412
831.70	-28.571
832.00	-22.581
832.30	-129.412
832.60	-83.333
832.90	-169.231
833.20	-89.474
833.50	-120.000
833.80	-100.000
834.10	-123.810
834.40	19.444
834.70	-6.250
835.00	-57.143
835.30	-8.824
835.60	-46.667
835.90	-44.000
836.20	-136.364
836.50	-12.000
836.80	-30.303
837.10	-25.926
837.40	-44.444
837.70	-93.750
838.00	-42.857
838.30	-91.304
838.60	-37.931
838.90	-64.286
839.19	-100.000
839.49	-183.333
839.79	-17.391
840.09	-106.250
840.39	-50.000
840.69	-3.226
840.99	-50.000
841.29	-120.000
841.59	-115.789
841.88	-17.949
842.18	-11.538
842.48	-230.000
842.78	-130.000
843.08	-13.333
843.38	25.806
843.68	-100.000
843.97	-35.294
844.27	-93.750
844.57	-63.158
844.87	-220.000
845.17	-173.333
845.47	-33.333
845.76	-90.476
846.06	-122.222
846.36	-135.294
846.66	-46.154
846.96	-93.333
847.25	-52.941
847.55	-47.826
847.85	-90.000
848.15	-35.294
848.44	-181.818
848.74	-4.762
849.04	-62.500
849.34	-106.250
849.63	-21.739
849.93	1200.000
850.23	-60.000
850.53	-19.231
850.82	-154.545
851.12	-40.909
851.42	-90.909
851.71	15.385
852.01	-115.000
852.31	-61.538
852.61	-68.421
852.90	-116.667
853.20	-100.000
853.50	-133.333
853.79	-90.476
854.09	-50.000
854.39	-233.333
854.68	-35.484
854.98	-53.846
855.28	-33.333
855.57	-50.000
855.87	-60.000
856.17	-54.545
856.46	-14.815
856.76	-100.000
857.05	-65.217
857.35	-75.000
857.65	-100.000
857.94	-71.429
858.24	-25.926
858.53	-21.739
858.83	-141.176
859.13	-82.353
859.42	-29.412
859.72	-64.286
860.01	-90.000
860.31	-100.000
860.60	-130.000
860.90	-160.000
861.20	-77.778
861.49	46.154
861.79	-23.333
862.08	-84.615
862.38	-12.500
862.67	-64.706
862.97	-75.000
863.26	-244.444
863.56	-130.000
863.85	-127.273
864.15	-72.222
864.44	-500.000
864.74	-71.429
865.03	-125.000
865.33	-250.000
865.62	-41.935
865.92	-36.364
866.21	-30.435
866.51	-92.857
866.80	-520.000
867.10	-208.333
867.39	-208.333
867.69	1400.000
867.98	-100.000
868.27	-70.588
868.57	-2600.000
868.86	-240.000
869.16	-80.952
869.45	-20.833
869.75	9.091
870.04	-100.000
870.33	-58.333
870.63	-257.143
870.92	-250.000
871.22	-187.500
871.51	-145.455
871.80	-833.333
872.10	-750.000
>>>>>End Processed Spectral Data<<<<<
