SpectraSuite Data File
++++++++++++++++++++++++++++++++++++
Date: Thu May 14 16:21:23 PDT 2015
User: schluterlab
Dark Spectrum Present: Yes
Reference Spectrum Present: Yes
Number of Sampled Component Spectra: 1
Spectrometers: USB2E3373
Integration Time (usec): 3000 (USB2E3373)
Spectra Averaged: 3 (USB2E3373)
Boxcar Smoothing: 0 (USB2E3373)
Correct for Electrical Dark: No (USB2E3373)
Strobe/Lamp Enabled: No (USB2E3373)
Correct for Detector Non-linearity: No (USB2E3373)
Correct for Stray Light: No (USB2E3373)
Number of Pixels in Processed Spectrum: 2048
>>>>>Begin Processed Spectral Data<<<<<
178.53	0.000
178.91	28.571
179.29	-1700.000
179.67	500.000
180.04	164.286
180.42	50.000
180.80	340.000
181.18	-600.000
181.56	800.000
181.94	150.000
182.31	-75.000
182.69	366.667
183.07	0.000
183.45	150.000
183.83	-50.000
184.20	-233.333
184.58	400.000
184.96	-275.000
185.34	-77.778
185.72	120.000
186.09	333.333
186.47	800.000
186.85	200.000
187.23	-144.444
187.61	-500.000
187.98	260.000
188.36	225.000
188.74	-100.000
189.12	-133.333
189.49	-12.500
189.87	-187.500
190.25	0.000
190.63	0.000
191.00	-100.000
191.38	0.000
191.76	-250.000
192.14	0.000
192.51	400.000
192.89	-16.667
193.27	0.000
193.65	-114.286
194.02	-1500.000
194.40	-42.857
194.78	71.429
195.15	0.000
195.53	-72.727
195.91	0.000
196.29	-75.000
196.66	-38.462
197.04	-1600.000
197.42	-114.286
197.79	-600.000
198.17	-112.500
198.55	28.571
198.92	-55.556
199.30	-75.000
199.68	27.273
200.05	-7.143
200.43	100.000
200.81	171.429
201.18	0.000
201.56	77.778
201.94	0.000
202.31	433.333
202.69	-166.667
203.07	1200.000
203.44	-55.556
203.82	-225.000
204.19	-33.333
204.57	-233.333
204.95	-87.500
205.32	-1300.000
205.70	325.000
206.08	-83.333
206.45	16.667
206.83	180.000
207.20	-66.667
207.58	-400.000
207.96	-150.000
208.33	-16.667
208.71	83.333
209.08	83.333
209.46	0.000
209.84	266.667
210.21	200.000
210.59	350.000
210.96	500.000
211.34	-50.000
211.71	-75.000
212.09	-700.000
212.46	0.000
212.84	700.000
213.22	-240.000
213.59	-75.000
213.97	-10.000
214.34	-66.667
214.72	150.000
215.09	-250.000
215.47	0.000
215.84	57.143
216.22	650.000
216.59	-100.000
216.97	-180.000
217.34	-175.000
217.72	50.000
218.09	-175.000
218.47	-75.000
218.84	0.000
219.22	280.000
219.59	11.765
219.97	0.000
220.34	400.000
220.72	-22.222
221.09	0.000
221.47	-300.000
221.84	-60.000
222.22	-128.571
222.59	0.000
222.97	-75.000
223.34	-200.000
223.72	-800.000
224.09	-250.000
224.46	-350.000
224.84	0.000
225.21	-128.571
225.59	-325.000
225.96	-250.000
226.34	-15.385
226.71	150.000
227.08	-450.000
227.46	-66.667
227.83	-225.000
228.21	26.316
228.58	12.500
228.95	350.000
229.33	-108.333
229.70	-80.000
230.08	68.421
230.45	140.000
230.82	33.333
231.20	21.429
231.57	83.333
231.95	-63.636
232.32	9.091
232.69	55.000
233.07	100.000
233.44	-17.647
233.81	-100.000
234.19	27.778
234.56	40.909
234.93	13.793
235.31	-36.842
235.68	22.222
236.05	-35.000
236.43	30.769
236.80	16.000
237.17	-3.704
237.55	12.121
237.92	-150.000
238.29	-19.355
238.67	15.909
239.04	2.778
239.41	-9.524
239.79	0.000
240.16	14.815
240.53	-4.348
240.91	-9.804
241.28	6.557
241.65	23.881
242.02	9.459
242.40	4.615
242.77	0.000
243.14	3.659
243.51	2.632
243.89	11.538
244.26	9.901
244.63	11.765
245.00	12.150
245.38	16.667
245.75	1.770
246.12	17.460
246.49	15.504
246.87	17.143
247.24	17.219
247.61	9.211
247.98	9.396
248.36	10.494
248.73	5.521
249.10	9.836
249.47	15.423
249.84	13.089
250.22	10.363
250.59	8.333
250.96	16.818
251.33	11.735
251.70	10.256
252.08	13.333
252.45	11.475
252.82	9.917
253.19	15.234
253.56	16.730
253.94	12.692
254.31	14.015
254.68	17.133
255.05	14.658
255.42	12.925
255.79	13.916
256.16	13.245
256.54	11.258
256.91	14.426
257.28	16.066
257.65	12.420
258.02	10.324
258.39	14.815
258.76	18.654
259.14	14.943
259.51	18.156
259.88	12.748
260.25	13.889
260.62	13.973
260.99	16.940
261.36	17.962
261.73	14.058
262.10	19.231
262.47	15.013
262.85	16.414
263.22	12.987
263.59	12.632
263.96	13.811
264.33	14.322
264.70	17.037
265.07	14.797
265.44	18.821
265.81	18.981
266.18	17.687
266.55	13.393
266.92	12.756
267.29	15.755
267.66	11.530
268.03	14.410
268.40	18.163
268.77	14.579
269.14	12.996
269.51	15.351
269.88	17.828
270.25	16.298
270.62	16.878
270.99	16.566
271.36	15.842
271.73	15.717
272.10	14.830
272.47	13.026
272.84	15.060
273.21	14.629
273.58	18.145
273.95	12.692
274.32	12.167
274.69	13.733
275.06	16.117
275.43	13.309
275.80	17.284
276.17	13.519
276.54	15.485
276.91	15.385
277.28	15.732
277.65	17.235
278.02	14.338
278.39	13.768
278.76	14.411
279.13	13.652
279.50	15.636
279.87	14.490
280.23	12.148
280.60	13.898
280.97	14.638
281.34	13.582
281.71	16.074
282.08	15.449
282.45	14.239
282.82	15.542
283.19	13.893
283.56	14.590
283.92	16.667
284.29	16.272
284.66	16.585
285.03	13.622
285.40	13.910
285.77	13.777
286.14	14.504
286.51	15.221
286.87	14.692
287.24	14.307
287.61	14.798
287.98	14.199
288.35	14.645
288.72	14.201
289.08	15.373
289.45	12.870
289.82	13.404
290.19	13.075
290.56	14.366
290.93	12.268
291.29	14.876
291.66	12.259
292.03	12.890
292.40	14.966
292.77	12.534
293.13	13.802
293.50	12.352
293.87	11.946
294.24	14.267
294.60	14.033
294.97	12.215
295.34	14.469
295.71	12.106
296.08	11.628
296.44	13.235
296.81	11.206
297.18	11.083
297.55	11.085
297.91	11.625
298.28	10.664
298.65	11.415
299.02	12.397
299.38	13.043
299.75	11.916
300.12	11.458
300.48	11.866
300.85	10.799
301.22	13.982
301.59	10.959
301.95	11.525
302.32	13.444
302.69	12.048
303.05	12.078
303.42	10.754
303.79	11.979
304.15	11.987
304.52	12.156
304.89	10.995
305.25	11.905
305.62	13.375
305.99	11.237
306.35	11.895
306.72	12.099
307.09	11.574
307.45	12.422
307.82	11.907
308.19	11.705
308.55	12.343
308.92	12.171
309.29	12.356
309.65	11.793
310.02	11.188
310.38	12.106
310.75	11.748
311.12	12.848
311.48	13.001
311.85	11.776
312.22	11.670
312.58	12.488
312.95	12.237
313.31	11.743
313.68	13.462
314.05	14.273
314.41	13.479
314.78	12.716
315.14	12.976
315.51	12.835
315.87	13.591
316.24	13.333
316.61	14.121
316.97	12.851
317.34	12.522
317.70	14.236
318.07	13.668
318.43	14.456
318.80	14.298
319.16	14.421
319.53	12.596
319.89	14.198
320.26	14.769
320.62	14.273
320.99	13.204
321.35	15.157
321.72	15.721
322.08	14.788
322.45	14.363
322.81	15.523
323.18	15.929
323.54	14.741
323.91	15.925
324.27	15.663
324.64	16.121
325.00	15.672
325.37	16.708
325.73	17.438
326.10	18.491
326.46	16.938
326.83	17.854
327.19	17.717
327.56	18.340
327.92	17.703
328.29	18.629
328.65	18.258
329.01	17.851
329.38	17.776
329.74	19.264
330.11	18.664
330.47	19.966
330.84	19.035
331.20	18.833
331.56	18.371
331.93	19.247
332.29	18.220
332.66	19.601
333.02	18.593
333.38	18.372
333.75	19.360
334.11	19.016
334.48	19.142
334.84	19.966
335.20	18.640
335.57	19.562
335.93	20.579
336.29	17.970
336.66	19.260
337.02	19.816
337.38	18.878
337.75	19.008
338.11	19.176
338.47	19.520
338.84	19.628
339.20	18.029
339.56	18.616
339.93	18.883
340.29	18.760
340.65	18.816
341.02	18.915
341.38	20.614
341.74	18.402
342.11	19.147
342.47	17.871
342.83	20.129
343.20	19.787
343.56	19.487
343.92	19.776
344.28	19.609
344.65	19.612
345.01	19.579
345.37	18.507
345.73	18.472
346.10	18.877
346.46	18.513
346.82	19.700
347.19	19.710
347.55	19.196
347.91	19.614
348.27	19.196
348.63	19.421
349.00	18.568
349.36	20.372
349.72	19.643
350.08	19.614
350.45	18.175
350.81	19.231
351.17	18.872
351.53	19.788
351.89	19.514
352.26	19.254
352.62	19.627
352.98	19.237
353.34	19.044
353.70	19.106
354.07	19.001
354.43	19.210
354.79	18.549
355.15	18.764
355.51	18.933
355.87	19.521
356.24	19.087
356.60	18.477
356.96	19.274
357.32	18.662
357.68	18.960
358.04	19.910
358.40	18.284
358.77	19.737
359.13	17.799
359.49	17.695
359.85	18.999
360.21	18.508
360.57	18.162
360.93	18.336
361.29	19.579
361.66	18.972
362.02	19.485
362.38	20.098
362.74	18.785
363.10	19.601
363.46	19.321
363.82	19.389
364.18	19.353
364.54	19.018
364.90	19.130
365.26	18.414
365.62	19.533
365.98	19.061
366.35	19.329
366.71	19.592
367.07	19.689
367.43	19.304
367.79	18.912
368.15	19.666
368.51	19.756
368.87	19.268
369.23	18.000
369.59	19.057
369.95	19.135
370.31	20.122
370.67	19.807
371.03	19.737
371.39	18.670
371.75	18.501
372.11	19.173
372.47	18.754
372.83	19.634
373.19	18.679
373.55	19.512
373.91	18.200
374.27	19.922
374.63	19.553
374.99	19.496
375.35	19.286
375.71	19.419
376.07	18.915
376.42	19.458
376.78	20.696
377.14	19.276
377.50	19.734
377.86	20.135
378.22	18.982
378.58	19.738
378.94	18.603
379.30	19.918
379.66	19.165
380.02	19.908
380.38	20.334
380.74	19.887
381.09	19.919
381.45	18.693
381.81	19.906
382.17	19.893
382.53	19.649
382.89	20.316
383.25	19.988
383.61	19.387
383.97	19.435
384.32	20.514
384.68	18.735
385.04	20.301
385.40	20.507
385.76	20.750
386.12	20.287
386.48	19.882
386.83	20.977
387.19	20.104
387.55	19.425
387.91	20.205
388.27	20.439
388.62	20.447
388.98	19.966
389.34	19.505
389.70	20.686
390.06	19.479
390.42	19.699
390.77	20.650
391.13	20.716
391.49	20.229
391.85	20.121
392.20	20.166
392.56	20.142
392.92	20.556
393.28	20.011
393.64	19.721
393.99	20.511
394.35	20.911
394.71	20.719
395.07	18.982
395.42	20.046
395.78	19.988
396.14	21.093
396.50	19.299
396.85	19.618
397.21	20.414
397.57	20.730
397.92	20.447
398.28	19.337
398.64	18.822
399.00	19.058
399.35	19.791
399.71	20.163
400.07	20.606
400.42	19.616
400.78	19.734
401.14	19.977
401.49	20.296
401.85	21.047
402.21	20.800
402.57	21.068
402.92	19.917
403.28	19.965
403.63	19.272
403.99	20.309
404.35	19.784
404.70	19.773
405.06	19.402
405.42	20.141
405.77	20.338
406.13	20.043
406.49	20.045
406.84	20.000
407.20	19.788
407.55	20.472
407.91	19.925
408.27	19.906
408.62	20.128
408.98	20.894
409.34	19.765
409.69	21.323
410.05	20.692
410.40	20.940
410.76	20.920
411.11	20.573
411.47	20.823
411.83	20.517
412.18	21.265
412.54	19.502
412.89	20.664
413.25	20.260
413.60	19.586
413.96	21.037
414.31	20.907
414.67	20.871
415.03	20.862
415.38	21.248
415.74	19.487
416.09	21.036
416.45	21.227
416.80	20.502
417.16	21.711
417.51	20.984
417.87	20.356
418.22	20.479
418.58	20.446
418.93	22.410
419.29	20.160
419.64	21.068
420.00	20.534
420.35	20.719
420.71	21.252
421.06	21.564
421.42	20.929
421.77	20.840
422.12	21.036
422.48	21.249
422.83	21.906
423.19	21.326
423.54	21.903
423.90	21.259
424.25	21.440
424.61	21.125
424.96	20.648
425.31	21.125
425.67	21.256
426.02	20.697
426.38	20.838
426.73	20.982
427.09	21.684
427.44	20.972
427.79	21.172
428.15	21.005
428.50	21.854
428.85	21.470
429.21	22.234
429.56	21.471
429.92	21.671
430.27	21.398
430.62	22.228
430.98	21.545
431.33	20.919
431.68	21.121
432.04	22.143
432.39	21.907
432.74	21.632
433.10	22.174
433.45	21.851
433.80	21.942
434.16	22.262
434.51	22.405
434.86	22.313
435.22	22.104
435.57	22.406
435.92	22.315
436.28	22.810
436.63	22.556
436.98	22.276
437.34	22.886
437.69	22.400
438.04	21.100
438.39	22.803
438.75	22.911
439.10	22.304
439.45	22.471
439.81	22.712
440.16	22.735
440.51	22.408
440.86	22.123
441.22	22.776
441.57	22.065
441.92	22.745
442.27	23.131
442.63	23.646
442.98	23.159
443.33	22.304
443.68	23.092
444.03	22.719
444.39	22.561
444.74	23.532
445.09	22.909
445.44	23.130
445.79	24.138
446.15	23.535
446.50	23.101
446.85	23.298
447.20	22.727
447.55	23.117
447.91	23.298
448.26	22.939
448.61	23.220
448.96	24.142
449.31	23.489
449.66	21.841
450.02	24.314
450.37	23.974
450.72	23.143
451.07	23.747
451.42	23.570
451.77	24.458
452.12	24.266
452.47	23.173
452.83	23.761
453.18	23.993
453.53	23.435
453.88	23.302
454.23	23.277
454.58	23.389
454.93	23.786
455.28	23.299
455.63	24.218
455.98	24.190
456.34	22.850
456.69	24.339
457.04	23.818
457.39	23.337
457.74	24.161
458.09	22.900
458.44	23.976
458.79	23.363
459.14	24.174
459.49	23.656
459.84	23.610
460.19	23.431
460.54	23.453
460.89	24.563
461.24	23.333
461.59	24.571
461.94	23.617
462.29	24.132
462.64	23.295
462.99	24.357
463.34	24.659
463.69	23.329
464.04	24.736
464.39	24.215
464.74	24.002
465.09	23.933
465.44	23.927
465.79	24.114
466.14	23.606
466.49	24.421
466.84	24.242
467.19	24.740
467.54	23.737
467.89	23.333
468.24	24.377
468.59	23.683
468.94	23.543
469.29	23.995
469.64	24.857
469.99	24.347
470.34	24.134
470.68	24.744
471.03	24.492
471.38	24.395
471.73	23.797
472.08	24.365
472.43	24.383
472.78	25.126
473.13	24.842
473.48	25.378
473.83	25.479
474.17	24.619
474.52	24.714
474.87	25.028
475.22	24.789
475.57	24.507
475.92	24.938
476.27	24.281
476.61	25.753
476.96	24.192
477.31	24.950
477.66	25.761
478.01	25.318
478.36	25.623
478.70	25.517
479.05	25.358
479.40	24.877
479.75	25.552
480.10	24.917
480.45	24.932
480.79	25.079
481.14	24.632
481.49	25.488
481.84	25.587
482.19	25.505
482.53	26.104
482.88	25.919
483.23	25.345
483.58	25.502
483.92	24.734
484.27	24.936
484.62	24.876
484.97	25.467
485.31	24.780
485.66	24.143
486.01	23.952
486.36	24.430
486.70	25.321
487.05	25.872
487.40	25.609
487.75	25.165
488.09	25.275
488.44	25.185
488.79	25.059
489.13	25.561
489.48	25.165
489.83	25.070
490.17	24.585
490.52	25.369
490.87	25.761
491.22	25.650
491.56	25.512
491.91	25.512
492.26	25.746
492.60	25.404
492.95	25.669
493.30	25.504
493.64	25.843
493.99	25.351
494.34	25.174
494.68	25.953
495.03	25.595
495.37	25.699
495.72	25.578
496.07	25.548
496.41	24.410
496.76	26.022
497.11	25.690
497.45	26.327
497.80	25.677
498.14	25.669
498.49	26.057
498.84	26.280
499.18	25.596
499.53	25.695
499.87	26.110
500.22	25.868
500.56	25.956
500.91	26.041
501.26	26.227
501.60	26.027
501.95	26.661
502.29	26.942
502.64	26.017
502.98	25.626
503.33	26.350
503.67	26.254
504.02	25.744
504.36	27.301
504.71	26.734
505.06	26.967
505.40	26.234
505.75	27.322
506.09	26.243
506.44	27.019
506.78	27.385
507.13	27.524
507.47	27.428
507.82	26.941
508.16	27.438
508.51	26.442
508.85	26.830
509.19	27.901
509.54	27.329
509.88	26.955
510.23	27.878
510.57	28.323
510.92	27.334
511.26	26.936
511.61	27.716
511.95	27.916
512.30	27.573
512.64	28.286
512.98	28.314
513.33	28.175
513.67	28.149
514.02	28.922
514.36	28.645
514.70	29.062
515.05	29.041
515.39	28.871
515.74	29.215
516.08	29.160
516.42	29.409
516.77	28.601
517.11	28.675
517.46	29.162
517.80	29.556
518.14	29.380
518.49	28.905
518.83	28.685
519.17	29.133
519.52	29.769
519.86	29.778
520.20	29.819
520.55	29.573
520.89	28.998
521.23	30.095
521.58	30.847
521.92	30.482
522.26	30.011
522.61	30.382
522.95	30.334
523.29	30.517
523.64	30.045
523.98	30.975
524.32	30.659
524.66	30.791
525.01	30.068
525.35	30.442
525.69	30.162
526.04	29.908
526.38	30.345
526.72	30.911
527.06	31.672
527.41	31.429
527.75	31.176
528.09	30.579
528.43	30.491
528.78	30.578
529.12	30.677
529.46	31.254
529.80	31.121
530.15	31.014
530.49	31.851
530.83	31.995
531.17	31.183
531.51	31.588
531.86	30.950
532.20	31.585
532.54	31.598
532.88	32.424
533.22	31.349
533.57	31.737
533.91	31.706
534.25	31.317
534.59	31.782
534.93	31.749
535.27	31.944
535.62	31.552
535.96	32.132
536.30	31.140
536.64	32.132
536.98	32.411
537.32	32.593
537.66	32.252
538.01	30.332
538.35	32.156
538.69	30.228
539.03	33.292
539.37	31.037
539.71	31.532
540.05	32.314
540.39	30.807
540.73	31.390
541.07	32.618
541.42	31.128
541.76	30.664
542.10	31.725
542.44	31.303
542.78	31.448
543.12	32.479
543.46	32.418
543.80	31.355
544.14	30.999
544.48	31.856
544.82	32.376
545.16	32.260
545.50	32.175
545.84	32.884
546.18	33.519
546.52	32.229
546.86	32.390
547.20	32.888
547.54	31.648
547.88	31.826
548.22	31.228
548.56	31.305
548.90	32.299
549.24	32.462
549.58	31.924
549.92	31.888
550.26	32.557
550.60	32.227
550.94	31.824
551.28	31.617
551.62	32.547
551.96	32.298
552.30	32.569
552.64	32.794
552.98	31.753
553.32	33.248
553.66	32.926
554.00	31.400
554.34	33.140
554.68	31.762
555.02	32.392
555.36	33.202
555.69	32.031
556.03	32.282
556.37	33.354
556.71	33.291
557.05	31.438
557.39	32.449
557.73	32.100
558.07	31.854
558.41	32.159
558.75	32.522
559.08	33.125
559.42	33.196
559.76	33.379
560.10	32.619
560.44	32.718
560.78	32.125
561.12	32.020
561.45	32.482
561.79	32.051
562.13	32.656
562.47	32.367
562.81	33.291
563.15	32.576
563.48	32.753
563.82	31.620
564.16	32.405
564.50	33.075
564.84	32.212
565.17	32.706
565.51	31.128
565.85	32.245
566.19	32.546
566.52	32.651
566.86	32.258
567.20	31.702
567.54	31.280
567.88	31.906
568.21	31.176
568.55	31.607
568.89	32.274
569.23	31.643
569.56	31.379
569.90	31.112
570.24	31.265
570.57	30.757
570.91	30.251
571.25	30.749
571.59	30.337
571.92	30.277
572.26	30.069
572.60	30.521
572.93	30.392
573.27	30.261
573.61	30.122
573.95	30.032
574.28	29.970
574.62	29.923
574.96	29.202
575.29	29.478
575.63	29.175
575.97	30.299
576.30	29.558
576.64	29.611
576.98	29.772
577.31	29.676
577.65	29.757
577.98	29.537
578.32	28.976
578.66	29.344
578.99	29.490
579.33	30.080
579.67	30.100
580.00	29.692
580.34	29.865
580.67	29.678
581.01	29.554
581.35	29.359
581.68	29.122
582.02	29.479
582.35	29.711
582.69	29.627
583.02	29.452
583.36	30.068
583.70	29.834
584.03	29.710
584.37	30.215
584.70	29.658
585.04	29.668
585.37	29.695
585.71	29.946
586.04	28.864
586.38	30.501
586.72	29.306
587.05	29.905
587.39	29.718
587.72	30.239
588.06	29.570
588.39	29.823
588.73	29.921
589.06	30.559
589.40	30.178
589.73	30.623
590.07	30.537
590.40	30.561
590.73	30.152
591.07	31.348
591.40	30.249
591.74	30.723
592.07	30.166
592.41	30.718
592.74	29.783
593.08	30.064
593.41	30.330
593.75	30.057
594.08	30.354
594.41	30.288
594.75	29.691
595.08	30.081
595.42	30.097
595.75	30.158
596.09	30.091
596.42	31.028
596.75	30.799
597.09	30.909
597.42	30.513
597.75	30.459
598.09	31.111
598.42	31.564
598.76	30.264
599.09	29.477
599.42	30.003
599.76	29.812
600.09	30.597
600.42	29.363
600.76	30.581
601.09	29.572
601.42	29.797
601.76	29.759
602.09	30.021
602.42	29.589
602.76	30.148
603.09	29.919
603.42	30.383
603.76	29.951
604.09	30.163
604.42	30.165
604.76	29.795
605.09	30.874
605.42	30.981
605.75	29.885
606.09	29.563
606.42	29.551
606.75	29.385
607.09	29.378
607.42	29.557
607.75	30.481
608.08	29.519
608.42	30.189
608.75	30.017
609.08	29.542
609.41	30.525
609.75	31.250
610.08	29.683
610.41	30.544
610.74	29.538
611.07	29.574
611.41	30.762
611.74	30.670
612.07	30.528
612.40	30.228
612.73	30.220
613.07	30.660
613.40	30.125
613.73	30.958
614.06	30.716
614.39	29.835
614.72	29.791
615.06	30.029
615.39	29.821
615.72	30.616
616.05	30.792
616.38	30.272
616.71	29.937
617.05	30.564
617.38	31.033
617.71	30.130
618.04	30.113
618.37	31.366
618.70	31.618
619.03	31.302
619.36	30.949
619.69	30.878
620.03	31.011
620.36	30.982
620.69	30.290
621.02	32.283
621.35	32.729
621.68	32.393
622.01	31.174
622.34	29.986
622.67	30.653
623.00	29.757
623.33	30.723
623.66	31.582
623.99	30.481
624.32	31.839
624.65	29.344
624.99	31.144
625.32	30.699
625.65	31.220
625.98	30.237
626.31	30.475
626.64	31.502
626.97	30.308
627.30	31.207
627.63	31.658
627.96	31.757
628.29	30.973
628.62	30.898
628.95	31.814
629.28	31.946
629.61	31.650
629.94	31.046
630.26	30.424
630.59	31.261
630.92	30.736
631.25	31.216
631.58	32.298
631.91	32.052
632.24	31.700
632.57	29.981
632.90	30.692
633.23	30.714
633.56	31.837
633.89	32.128
634.22	33.056
634.55	32.672
634.88	31.926
635.20	33.692
635.53	32.090
635.86	33.044
636.19	32.238
636.52	33.122
636.85	30.031
637.18	32.225
637.51	33.333
637.83	32.890
638.16	32.258
638.49	31.455
638.82	31.116
639.15	30.813
639.48	33.372
639.81	33.025
640.13	32.155
640.46	29.697
640.79	29.044
641.12	33.168
641.45	31.368
641.77	33.633
642.10	31.759
642.43	34.973
642.76	32.114
643.09	31.233
643.41	31.092
643.74	32.276
644.07	33.793
644.40	31.117
644.73	32.075
645.05	32.746
645.38	34.388
645.71	33.284
646.04	34.003
646.36	32.555
646.69	33.129
647.02	32.569
647.35	33.130
647.67	34.300
648.00	32.643
648.33	33.784
648.66	32.668
648.98	29.796
649.31	31.394
649.64	31.607
649.96	31.034
650.29	28.373
650.62	30.976
650.94	30.330
651.27	32.485
651.60	29.971
651.92	31.915
652.25	31.404
652.58	31.637
652.90	31.977
653.23	32.958
653.56	31.384
653.88	31.601
654.21	31.690
654.54	30.058
654.86	31.870
655.19	30.866
655.52	29.529
655.84	27.736
656.17	32.055
656.49	44.377
656.82	48.774
657.15	37.625
657.47	28.530
657.80	21.137
658.13	16.487
658.45	21.878
658.78	27.427
659.10	26.651
659.43	26.421
659.75	25.780
660.08	26.387
660.41	27.295
660.73	27.708
661.06	30.250
661.38	27.592
661.71	31.379
662.03	31.393
662.36	32.737
662.68	32.270
663.01	32.035
663.33	34.026
663.66	33.883
663.98	32.692
664.31	34.522
664.63	30.058
664.96	35.935
665.28	29.764
665.61	30.594
665.93	30.714
666.26	29.928
666.58	28.413
666.91	34.766
667.23	30.857
667.56	30.375
667.88	34.400
668.21	29.492
668.53	29.730
668.86	35.363
669.18	30.550
669.50	31.809
669.83	31.400
670.15	30.709
670.48	32.738
670.80	29.446
671.13	29.301
671.45	31.693
671.77	31.073
672.10	29.667
672.42	30.906
672.75	29.647
673.07	28.806
673.39	30.354
673.72	31.879
674.04	32.414
674.37	30.054
674.69	31.746
675.01	28.762
675.34	30.916
675.66	30.524
675.98	31.157
676.31	28.516
676.63	31.939
676.95	31.418
677.28	29.839
677.60	29.724
677.92	29.942
678.25	29.616
678.57	30.427
678.89	31.058
679.22	29.791
679.54	28.205
679.86	29.831
680.18	29.187
680.51	30.975
680.83	30.606
681.15	30.172
681.48	30.397
681.80	28.670
682.12	28.497
682.44	30.050
682.77	30.851
683.09	30.303
683.41	32.946
683.73	30.740
684.06	29.336
684.38	27.370
684.70	31.598
685.02	28.916
685.34	28.785
685.67	26.814
685.99	25.920
686.31	27.471
686.63	25.908
686.96	29.811
687.28	29.316
687.60	26.263
687.92	27.653
688.24	29.716
688.56	25.000
688.89	27.768
689.21	30.528
689.53	25.490
689.85	28.402
690.17	28.704
690.49	30.080
690.82	28.515
691.14	25.911
691.46	29.254
691.78	28.177
692.10	26.972
692.42	25.536
692.74	25.771
693.06	26.111
693.39	29.412
693.71	27.068
694.03	28.996
694.35	28.762
694.67	29.979
694.99	26.170
695.31	30.022
695.63	30.303
695.95	26.087
696.27	28.571
696.59	27.876
696.91	28.153
697.23	30.110
697.56	25.051
697.88	29.167
698.20	27.684
698.52	30.114
698.84	27.027
699.16	26.939
699.48	28.870
699.80	29.149
700.12	29.258
700.44	29.263
700.76	28.029
701.08	27.845
701.40	28.756
701.72	29.104
702.04	30.481
702.36	26.178
702.68	27.873
703.00	26.895
703.32	26.847
703.64	25.183
703.96	28.878
704.28	24.816
704.60	30.127
704.91	26.531
705.23	29.863
705.55	31.476
705.87	28.788
706.19	29.141
706.51	29.217
706.83	31.700
707.15	26.720
707.47	27.804
707.79	26.856
708.11	22.246
708.43	24.301
708.74	26.116
709.06	25.058
709.38	30.751
709.70	27.543
710.02	25.323
710.34	28.457
710.66	24.581
710.98	25.410
711.29	29.121
711.61	28.531
711.93	31.909
712.25	25.135
712.57	30.973
712.89	25.882
713.20	23.669
713.52	28.902
713.84	28.134
714.16	24.737
714.48	26.546
714.80	27.273
715.11	24.934
715.43	25.995
715.75	27.632
716.07	24.586
716.39	28.142
716.70	28.614
717.02	25.574
717.34	26.829
717.66	28.188
717.97	23.973
718.29	25.430
718.61	25.987
718.93	28.155
719.24	24.845
719.56	20.859
719.88	27.628
720.20	23.871
720.51	24.534
720.83	27.500
721.15	25.329
721.46	22.945
721.78	29.667
722.10	22.006
722.42	21.141
722.73	25.806
723.05	23.509
723.37	24.653
723.68	28.674
724.00	28.881
724.32	22.887
724.63	26.224
724.95	27.660
725.27	22.648
725.58	25.442
725.90	26.897
726.22	26.646
726.53	26.948
726.85	29.245
727.16	28.097
727.48	28.135
727.80	24.503
728.11	25.795
728.43	24.916
728.74	25.084
729.06	21.192
729.38	24.351
729.69	24.497
730.01	27.976
730.32	22.727
730.64	25.786
730.96	24.224
731.27	22.346
731.59	26.374
731.90	22.078
732.22	22.917
732.53	24.033
732.85	23.429
733.16	21.701
733.48	23.171
733.80	24.791
734.11	21.083
734.43	22.973
734.74	27.089
735.06	23.869
735.37	27.297
735.69	22.162
736.00	25.141
736.32	21.833
736.63	24.167
736.95	24.713
737.26	23.636
737.58	24.545
737.89	25.000
738.21	22.630
738.52	24.262
738.83	24.573
739.15	22.340
739.46	26.531
739.78	26.994
740.09	20.344
740.41	27.114
740.72	24.000
741.04	21.359
741.35	25.263
741.66	25.098
741.98	26.230
742.29	25.105
742.61	25.000
742.92	25.385
743.23	25.632
743.55	24.419
743.86	20.000
744.18	17.355
744.49	25.738
744.80	20.988
745.12	24.473
745.43	21.138
745.74	21.121
746.06	23.305
746.37	27.004
746.68	27.642
747.00	20.417
747.31	27.039
747.62	25.000
747.94	24.291
748.25	23.293
748.56	22.857
748.88	24.786
749.19	29.310
749.50	25.974
749.82	25.703
750.13	27.402
750.44	23.000
750.75	24.000
751.07	22.154
751.38	26.183
751.69	26.518
752.01	21.036
752.32	24.183
752.63	23.129
752.94	21.799
753.26	20.074
753.57	18.148
753.88	19.850
754.19	23.794
754.51	23.473
754.82	26.045
755.13	22.951
755.44	22.526
755.75	21.382
756.07	24.776
756.38	21.698
756.69	28.012
757.00	19.668
757.31	23.224
757.63	19.437
757.94	20.423
758.25	22.799
758.56	21.786
758.87	22.045
759.18	22.133
759.50	22.663
759.81	21.569
760.12	19.137
760.43	22.917
760.74	21.921
761.05	22.750
761.36	23.614
761.67	17.766
761.99	24.054
762.30	19.512
762.61	18.152
762.92	22.388
763.23	20.974
763.54	19.065
763.85	21.306
764.16	23.569
764.47	22.887
764.78	26.518
765.10	20.821
765.41	23.077
765.72	20.635
766.03	20.904
766.34	23.511
766.65	17.073
766.96	24.701
767.27	21.198
767.58	20.398
767.89	23.077
768.20	24.413
768.51	27.778
768.82	21.687
769.13	25.379
769.44	15.385
769.75	22.744
770.06	19.231
770.37	25.591
770.68	19.574
770.99	16.194
771.30	24.074
771.61	21.293
771.92	20.000
772.23	25.911
772.54	19.907
772.85	25.346
773.16	27.619
773.47	24.339
773.78	16.216
774.09	24.432
774.39	28.000
774.70	23.497
775.01	23.171
775.32	12.353
775.63	23.313
775.94	9.554
776.25	23.226
776.56	25.000
776.87	24.490
777.18	21.379
777.48	18.881
777.79	19.595
778.10	22.794
778.41	20.833
778.72	20.690
779.03	20.988
779.34	21.212
779.65	15.544
779.95	22.222
780.26	17.614
780.57	20.000
780.88	17.391
781.19	21.290
781.50	25.294
781.80	23.118
782.11	25.397
782.42	10.606
782.73	25.749
783.04	18.436
783.34	20.000
783.65	14.379
783.96	17.391
784.27	19.048
784.57	25.166
784.88	24.286
785.19	17.323
785.50	18.898
785.81	21.805
786.11	26.154
786.42	14.388
786.73	18.705
787.04	25.564
787.34	16.393
787.65	20.800
787.96	20.149
788.26	27.273
788.57	28.671
788.88	17.105
789.19	22.222
789.49	12.329
789.80	18.440
790.11	14.961
790.41	21.875
790.72	22.034
791.03	13.592
791.33	20.870
791.64	18.421
791.95	16.071
792.25	15.238
792.56	20.536
792.87	13.542
793.17	21.429
793.48	20.833
793.79	6.024
794.09	11.927
794.40	13.761
794.70	21.088
795.01	12.338
795.32	11.644
795.62	21.127
795.93	17.424
796.23	19.672
796.54	11.607
796.85	14.894
797.15	13.043
797.46	6.849
797.76	15.000
798.07	11.957
798.37	6.186
798.68	9.091
798.99	20.690
799.29	13.483
799.60	24.468
799.90	16.867
800.21	10.769
800.51	1.493
800.82	17.647
801.12	0.000
801.43	-1.471
801.73	1.695
802.04	18.182
802.34	8.333
802.65	16.949
802.95	8.955
803.26	15.254
803.56	2.740
803.87	18.571
804.17	16.438
804.48	1.754
804.78	8.333
805.09	3.448
805.39	22.973
805.70	8.451
806.00	15.854
806.30	14.458
806.61	15.068
806.91	24.038
807.22	23.333
807.52	1.149
807.83	26.389
808.13	16.867
808.43	16.854
808.74	7.500
809.04	4.412
809.35	5.333
809.65	12.857
809.95	16.438
810.26	7.018
810.56	12.069
810.86	22.059
811.17	8.772
811.47	-6.557
811.77	13.333
812.08	3.390
812.38	15.000
812.69	15.517
812.99	1.887
813.29	5.128
813.59	22.000
813.90	-7.018
814.20	7.273
814.50	21.127
814.81	30.769
815.11	11.475
815.41	16.418
815.72	20.690
816.02	7.143
816.32	20.000
816.62	18.182
816.93	-8.889
817.23	18.519
817.53	14.894
817.84	28.571
818.14	17.647
818.44	6.122
818.74	-4.444
819.04	-10.256
819.35	11.429
819.65	11.538
819.95	5.660
820.25	33.333
820.56	2.381
820.86	-15.625
821.16	-5.128
821.46	-13.953
821.76	18.000
822.07	-7.143
822.37	0.000
822.67	12.766
822.97	-2.703
823.27	2.500
823.57	6.122
823.88	46.667
824.18	27.500
824.48	-36.667
824.78	32.000
825.08	15.152
825.38	26.667
825.69	31.915
825.99	2.778
826.29	-40.000
826.59	-2.564
826.89	2.326
827.19	16.000
827.49	5.882
827.79	20.833
828.09	-10.811
828.39	0.000
828.70	-17.073
829.00	11.628
829.30	-17.857
829.60	14.706
829.90	0.000
830.20	25.714
830.50	-6.897
830.80	0.000
831.10	7.692
831.40	20.588
831.70	-4.762
832.00	35.484
832.30	-105.882
832.60	12.500
832.90	-30.769
833.20	-10.526
833.50	-20.000
833.80	-47.368
834.10	-90.476
834.40	38.889
834.70	34.375
835.00	-20.000
835.30	-2.941
835.60	0.000
835.90	12.000
836.20	-50.000
836.50	8.000
836.80	6.061
837.10	0.000
837.40	44.444
837.70	-75.000
838.00	25.000
838.30	-39.130
838.60	3.448
838.90	78.571
839.19	-21.739
839.49	-75.000
839.79	-17.391
840.09	-37.500
840.39	40.000
840.69	32.258
840.99	-28.571
841.29	-6.667
841.59	10.526
841.88	17.949
842.18	0.000
842.48	10.000
842.78	-5.000
843.08	16.667
843.38	32.258
843.68	-11.111
843.97	20.588
844.27	-18.750
844.57	-21.053
844.87	-90.000
845.17	-40.000
845.47	57.143
845.76	-4.762
846.06	-44.444
846.36	-100.000
846.66	-26.923
846.96	-60.000
847.25	0.000
847.55	8.696
847.85	10.000
848.15	23.529
848.44	-72.727
848.74	76.190
849.04	-16.667
849.34	0.000
849.63	8.696
849.93	550.000
850.23	-26.667
850.53	26.923
850.82	-36.364
851.12	-27.273
851.42	27.273
851.71	38.462
852.01	-50.000
852.31	-61.538
852.61	15.789
852.90	-8.333
853.20	-33.333
853.50	-88.889
853.79	-38.095
854.09	-45.455
854.39	-125.000
854.68	0.000
854.98	-3.846
855.28	-44.444
855.57	14.286
855.87	-8.000
856.17	-22.727
856.46	11.111
856.76	-27.778
857.05	-8.696
857.35	-58.333
857.65	-23.077
857.94	-9.524
858.24	0.000
858.53	0.000
858.83	35.294
859.13	-11.765
859.42	0.000
859.72	92.857
860.01	0.000
860.31	-100.000
860.60	-100.000
860.90	-13.333
861.20	11.111
861.49	-69.231
861.79	-23.333
862.08	-92.308
862.38	31.250
862.67	23.529
862.97	50.000
863.26	-166.667
863.56	-40.000
863.85	63.636
864.15	33.333
864.44	-133.333
864.74	21.429
865.03	-31.250
865.33	-100.000
865.62	-25.806
865.92	9.091
866.21	21.739
866.51	28.571
866.80	-100.000
867.10	-50.000
867.39	-50.000
867.69	1400.000
867.98	-14.286
868.27	47.059
868.57	-1200.000
868.86	-40.000
869.16	-52.381
869.45	12.500
869.75	27.273
870.04	14.286
870.33	-8.333
870.63	-142.857
870.92	0.000
871.22	-75.000
871.51	-72.727
871.80	-666.667
872.10	-250.000
>>>>>End Processed Spectral Data<<<<<
