SpectraSuite Data File
++++++++++++++++++++++++++++++++++++
Date: Thu May 14 16:05:52 PDT 2015
User: schluterlab
Dark Spectrum Present: Yes
Reference Spectrum Present: Yes
Number of Sampled Component Spectra: 1
Spectrometers: USB2E3373
Integration Time (usec): 3000 (USB2E3373)
Spectra Averaged: 3 (USB2E3373)
Boxcar Smoothing: 0 (USB2E3373)
Correct for Electrical Dark: No (USB2E3373)
Strobe/Lamp Enabled: No (USB2E3373)
Correct for Detector Non-linearity: No (USB2E3373)
Correct for Stray Light: No (USB2E3373)
Number of Pixels in Processed Spectrum: 2048
>>>>>Begin Processed Spectral Data<<<<<
178.53	0.000
178.91	242.857
179.29	-2400.000
179.67	-1800.000
180.04	192.857
180.42	110.000
180.80	440.000
181.18	-1200.000
181.56	500.000
181.94	300.000
182.31	-325.000
182.69	300.000
183.07	-750.000
183.45	325.000
183.83	-216.667
184.20	-600.000
184.58	1200.000
184.96	-200.000
185.34	-200.000
185.72	-160.000
186.09	244.444
186.47	1050.000
186.85	440.000
187.23	-144.444
187.61	-2200.000
187.98	240.000
188.36	275.000
188.74	-300.000
189.12	-566.667
189.49	-56.250
189.87	-150.000
190.25	-11.111
190.63	-280.000
191.00	-122.222
191.38	0.000
191.76	-200.000
192.14	-183.333
192.51	800.000
192.89	-150.000
193.27	0.000
193.65	-185.714
194.02	-2500.000
194.40	-100.000
194.78	114.286
195.15	0.000
195.53	-81.818
195.91	0.000
196.29	-250.000
196.66	-107.692
197.04	-2400.000
197.42	-100.000
197.79	-300.000
198.17	-62.500
198.55	-257.143
198.92	-44.444
199.30	-187.500
199.68	-127.273
200.05	-28.571
200.43	-800.000
200.81	342.857
201.18	0.000
201.56	222.222
201.94	0.000
202.31	700.000
202.69	-222.222
203.07	1200.000
203.44	-133.333
203.82	-425.000
204.19	-58.333
204.57	-216.667
204.95	-162.500
205.32	-200.000
205.70	450.000
206.08	-150.000
206.45	-216.667
206.83	420.000
207.20	-33.333
207.58	-280.000
207.96	-216.667
208.33	-133.333
208.71	116.667
209.08	-133.333
209.46	0.000
209.84	200.000
210.21	500.000
210.59	800.000
210.96	600.000
211.34	-325.000
211.71	-162.500
212.09	-1900.000
212.46	0.000
212.84	1050.000
213.22	-160.000
213.59	-350.000
213.97	-80.000
214.34	-300.000
214.72	266.667
215.09	-350.000
215.47	0.000
215.84	228.571
216.22	650.000
216.59	-240.000
216.97	-300.000
217.34	-300.000
217.72	-250.000
218.09	-350.000
218.47	-425.000
218.84	0.000
219.22	220.000
219.59	-76.471
219.97	-5.000
220.34	950.000
220.72	-133.333
221.09	-46.154
221.47	-500.000
221.84	-10.000
222.22	-200.000
222.59	0.000
222.97	-25.000
223.34	-380.000
223.72	-1900.000
224.09	-525.000
224.46	-375.000
224.84	-100.000
225.21	-328.571
225.59	-500.000
225.96	-325.000
226.34	-30.769
226.71	316.667
227.08	-900.000
227.46	-33.333
227.83	-125.000
228.21	21.053
228.58	175.000
228.95	1300.000
229.33	-91.667
229.70	-80.000
230.08	10.526
230.45	110.000
230.82	-233.333
231.20	-64.286
231.57	8.333
231.95	-136.364
232.32	-18.182
232.69	-10.000
233.07	-150.000
233.44	-35.294
233.81	-150.000
234.19	-16.667
234.56	-36.364
234.93	27.586
235.31	-5.263
235.68	11.111
236.05	-45.000
236.43	3.846
236.80	52.000
237.17	14.815
237.55	-6.061
237.92	-110.000
238.29	-22.581
238.67	4.545
239.04	5.556
239.41	-4.762
239.79	-19.565
240.16	-7.407
240.53	8.696
240.91	1.961
241.28	1.639
241.65	25.373
242.02	24.324
242.40	0.000
242.77	9.333
243.14	8.537
243.51	7.895
243.89	20.513
244.26	28.713
244.63	16.667
245.00	22.430
245.38	15.789
245.75	14.159
246.12	29.365
246.49	19.380
246.87	23.571
247.24	27.815
247.61	25.000
247.98	29.530
248.36	24.074
248.73	23.926
249.10	25.137
249.47	29.851
249.84	27.225
250.22	24.352
250.59	28.333
250.96	31.818
251.33	20.408
251.70	25.214
252.08	27.917
252.45	28.279
252.82	29.339
253.19	27.344
253.56	30.418
253.94	26.154
254.31	31.818
254.68	29.371
255.05	31.596
255.42	31.293
255.79	31.068
256.16	31.457
256.54	25.166
256.91	31.475
257.28	29.508
257.65	26.433
258.02	26.549
258.39	31.909
258.76	33.639
259.14	33.046
259.51	28.530
259.88	30.595
260.25	31.944
260.62	35.342
260.99	32.514
261.36	33.244
261.73	32.361
262.10	34.615
262.47	32.172
262.85	33.838
263.22	32.987
263.59	28.158
263.96	33.248
264.33	31.458
264.70	33.580
265.07	33.890
265.44	34.467
265.81	33.333
266.18	32.200
266.55	33.036
266.92	32.118
267.29	36.980
267.66	31.264
268.03	32.969
268.40	34.447
268.77	32.574
269.14	32.379
269.51	32.237
269.88	33.197
270.25	33.400
270.62	34.599
270.99	34.343
271.36	34.257
271.73	29.273
272.10	31.663
272.47	34.269
272.84	34.337
273.21	33.868
273.58	32.863
273.95	31.731
274.32	32.890
274.69	29.981
275.06	35.531
275.43	29.205
275.80	35.097
276.17	31.667
276.54	33.955
276.91	31.843
277.28	33.454
277.65	32.316
278.02	33.272
278.39	32.065
278.76	31.986
279.13	32.801
279.50	34.708
279.87	32.558
280.23	29.754
280.60	33.220
280.97	31.579
281.34	34.465
281.71	33.841
282.08	33.389
282.45	33.388
282.82	32.967
283.19	31.664
283.56	31.639
283.92	32.432
284.29	31.438
284.66	33.662
285.03	30.609
285.40	31.839
285.77	32.508
286.14	31.756
286.51	30.898
286.87	32.227
287.24	33.133
287.61	31.540
287.98	32.628
288.35	31.361
288.72	31.805
289.08	30.893
289.45	29.290
289.82	30.723
290.19	29.741
290.56	29.296
290.93	29.101
291.29	28.926
291.66	30.028
292.03	28.223
292.40	30.340
292.77	27.628
293.13	28.687
293.50	29.304
293.87	28.725
294.24	29.067
294.60	27.054
294.97	26.040
295.34	26.376
295.71	27.617
296.08	24.548
296.44	26.593
296.81	26.066
297.18	27.522
297.55	24.646
297.91	24.911
298.28	24.171
298.65	26.873
299.02	24.321
299.38	25.744
299.75	25.117
300.12	24.190
300.48	24.770
300.85	24.409
301.22	24.497
301.59	26.142
301.95	24.068
302.32	25.889
302.69	25.301
303.05	24.483
303.42	24.834
303.79	24.375
304.15	25.342
304.52	23.784
304.89	23.455
305.25	22.050
305.62	23.720
305.99	24.124
306.35	21.875
306.72	24.095
307.09	22.538
307.45	22.671
307.82	23.713
308.19	20.989
308.55	23.337
308.92	22.687
309.29	24.521
309.65	23.684
310.02	22.970
310.38	23.622
310.75	23.398
311.12	23.778
311.48	23.754
311.85	25.071
312.22	22.486
312.58	22.629
312.95	21.797
313.31	24.210
313.68	22.894
314.05	23.848
314.41	22.951
314.78	23.252
315.14	23.684
315.51	23.269
315.87	23.672
316.24	23.379
316.61	23.712
316.97	21.810
317.34	22.222
317.70	22.096
318.07	22.928
318.43	23.384
318.80	22.910
319.16	22.403
319.53	21.422
319.89	22.174
320.26	23.399
320.62	21.631
320.99	22.530
321.35	23.290
321.72	24.372
322.08	22.002
322.45	22.764
322.81	23.285
323.18	22.035
323.54	21.983
323.91	21.975
324.27	23.064
324.64	23.006
325.00	21.227
325.37	22.441
325.73	23.306
326.10	23.033
326.46	23.127
326.83	24.740
327.19	22.441
327.56	22.451
327.92	22.030
328.29	22.097
328.65	22.194
329.01	22.166
329.38	22.157
329.74	23.801
330.11	23.031
330.47	22.494
330.84	23.428
331.20	23.333
331.56	22.964
331.93	23.180
332.29	22.034
332.66	23.090
333.02	21.608
333.38	22.567
333.75	21.044
334.11	23.186
334.48	22.277
334.84	23.110
335.20	21.579
335.57	23.019
335.93	22.727
336.29	21.215
336.66	21.194
337.02	20.819
337.38	22.279
337.75	22.066
338.11	22.204
338.47	21.671
338.84	21.912
339.20	20.893
339.56	22.323
339.93	22.003
340.29	20.612
340.65	22.060
341.02	21.947
341.38	22.555
341.74	21.388
342.11	21.722
342.47	21.128
342.83	21.981
343.20	21.995
343.56	20.770
343.92	21.057
344.28	22.500
344.65	21.163
345.01	22.075
345.37	20.140
345.73	20.577
346.10	21.451
346.46	20.570
346.82	22.247
347.19	21.467
347.55	21.624
347.91	21.545
348.27	20.789
348.63	21.554
349.00	21.178
349.36	21.710
349.72	20.908
350.08	21.397
350.45	20.989
350.81	20.513
351.17	21.353
351.53	21.152
351.89	21.109
352.26	19.776
352.62	21.343
352.98	20.458
353.34	20.687
353.70	20.031
354.07	21.237
354.43	20.349
354.79	20.419
355.15	20.383
355.51	21.930
355.87	20.793
356.24	21.293
356.60	19.438
356.96	20.163
357.32	20.223
357.68	20.717
358.04	19.461
358.40	21.716
358.77	20.175
359.13	20.901
359.49	19.703
359.85	20.522
360.21	20.732
360.57	20.531
360.93	20.522
361.29	20.211
361.66	20.058
362.02	20.390
362.38	21.715
362.74	19.204
363.10	20.151
363.46	20.983
363.82	20.313
364.18	19.634
364.54	20.055
364.90	20.134
365.26	19.517
365.62	19.867
365.98	20.286
366.35	19.463
366.71	20.748
367.07	19.689
367.43	20.158
367.79	19.310
368.15	20.669
368.51	20.568
368.87	19.856
369.23	19.533
369.59	19.331
369.95	20.622
370.31	20.527
370.67	19.601
371.03	20.291
371.39	19.006
371.75	20.977
372.11	19.919
372.47	19.973
372.83	20.026
373.19	19.013
373.55	19.512
373.91	18.405
374.27	19.599
374.63	20.501
374.99	19.032
375.35	20.130
375.71	18.968
376.07	20.013
376.42	20.025
376.78	20.323
377.14	20.150
377.50	20.367
377.86	19.335
378.22	20.299
378.58	19.501
378.94	20.012
379.30	19.215
379.66	20.282
380.02	20.369
380.38	19.873
380.74	20.394
381.09	20.616
381.45	19.773
381.81	20.433
382.17	20.131
382.53	19.825
382.89	19.695
383.25	19.930
383.61	19.213
383.97	19.847
384.32	19.737
384.68	18.155
385.04	19.780
385.40	19.682
385.76	19.871
386.12	18.851
386.48	18.706
386.83	20.262
387.19	18.076
387.55	18.897
387.91	19.064
388.27	19.400
388.62	19.416
388.98	19.233
389.34	19.564
389.70	19.814
390.06	19.301
390.42	18.855
390.77	19.506
391.13	19.131
391.49	19.082
391.85	18.788
392.20	18.327
392.56	19.315
392.92	19.629
393.28	19.348
393.64	18.492
393.99	19.175
394.35	18.808
394.71	19.581
395.07	18.024
395.42	19.589
395.78	19.988
396.14	18.954
396.50	19.002
396.85	18.605
397.21	18.402
397.57	19.258
397.92	19.129
398.28	18.523
398.64	19.050
399.00	18.482
399.35	19.058
399.71	18.750
400.07	19.259
400.42	19.267
400.78	18.634
401.14	18.441
401.49	18.761
401.85	18.198
402.21	20.046
402.57	18.838
402.92	20.331
403.28	18.326
403.63	18.258
403.99	18.824
404.35	19.386
404.70	18.810
405.06	18.533
405.42	18.267
405.77	18.593
406.13	18.963
406.49	18.694
406.84	17.839
407.20	18.614
407.55	18.958
407.91	18.919
408.27	18.257
408.62	19.081
408.98	18.688
409.34	18.358
409.69	18.480
410.05	19.519
410.40	19.548
410.76	18.116
411.11	19.404
411.47	18.735
411.83	19.106
412.18	19.398
412.54	18.554
412.89	19.267
413.25	19.357
413.60	19.012
413.96	18.590
414.31	19.037
414.67	19.738
415.03	18.031
415.38	18.348
415.74	18.571
416.09	19.124
416.45	18.597
416.80	18.849
417.16	17.625
417.51	19.552
417.87	18.148
418.22	18.922
418.58	18.773
418.93	19.267
419.29	18.989
419.64	18.367
420.00	18.635
420.35	19.989
420.71	18.725
421.06	18.286
421.42	18.750
421.77	18.417
422.12	18.763
422.48	19.713
422.83	18.894
423.19	19.098
423.54	18.861
423.90	18.277
424.25	19.253
424.61	18.829
424.96	18.232
425.31	19.161
425.67	18.465
426.02	18.816
426.38	17.796
426.73	17.969
427.09	19.262
427.44	17.968
427.79	18.629
428.15	18.379
428.50	17.921
428.85	18.599
429.21	19.468
429.56	19.052
429.92	18.575
430.27	18.699
430.62	19.443
430.98	18.544
431.33	18.035
431.68	18.534
432.04	18.690
432.39	18.532
432.74	17.922
433.10	18.929
433.45	17.781
433.80	19.206
434.16	18.802
434.51	18.654
434.86	18.893
435.22	18.704
435.57	19.340
435.92	18.753
436.28	18.487
436.63	18.842
436.98	18.357
437.34	18.884
437.69	17.887
438.04	19.038
438.39	18.438
438.75	18.650
439.10	19.133
439.45	18.614
439.81	18.249
440.16	19.142
440.51	18.841
440.86	18.066
441.22	18.167
441.57	19.235
441.92	18.962
442.27	19.394
442.63	18.629
442.98	18.570
443.33	18.622
443.68	19.078
444.03	19.520
444.39	18.308
444.74	19.500
445.09	18.550
445.44	19.231
445.79	19.157
446.15	19.322
446.50	19.276
446.85	19.066
447.20	19.004
447.55	18.724
447.91	18.429
448.26	18.763
448.61	18.225
448.96	19.796
449.31	18.346
449.66	17.865
450.02	18.513
450.37	18.594
450.72	18.622
451.07	18.565
451.42	18.775
451.77	18.232
452.12	18.284
452.47	18.479
452.83	17.962
453.18	18.681
453.53	17.863
453.88	19.326
454.23	18.475
454.58	18.514
454.93	17.718
455.28	18.784
455.63	19.159
455.98	18.939
456.34	18.787
456.69	18.754
457.04	18.381
457.39	18.071
457.74	18.680
458.09	18.671
458.44	19.073
458.79	18.618
459.14	18.563
459.49	19.185
459.84	19.203
460.19	18.989
460.54	19.080
460.89	19.111
461.24	17.759
461.59	18.428
461.94	17.969
462.29	19.037
462.64	18.105
462.99	18.393
463.34	18.754
463.69	18.347
464.04	18.844
464.39	18.946
464.74	18.814
465.09	19.319
465.44	18.670
465.79	19.249
466.14	18.708
466.49	18.579
466.84	18.402
467.19	18.902
467.54	18.155
467.89	18.103
468.24	18.670
468.59	17.719
468.94	18.007
469.29	18.176
469.64	17.546
469.99	17.655
470.34	18.502
470.68	17.977
471.03	18.402
471.38	18.640
471.73	17.685
472.08	18.147
472.43	18.904
472.78	18.577
473.13	17.826
473.48	18.671
473.83	18.688
474.17	18.523
474.52	18.160
474.87	18.660
475.22	19.099
475.57	18.744
475.92	18.118
476.27	18.371
476.61	18.951
476.96	17.831
477.31	18.713
477.66	18.888
478.01	18.353
478.36	17.946
478.70	18.818
479.05	19.172
479.40	18.411
479.75	19.116
480.10	18.475
480.45	18.687
480.79	19.320
481.14	18.796
481.49	18.083
481.84	19.408
482.19	18.581
482.53	18.671
482.88	18.963
483.23	18.675
483.58	18.079
483.92	18.573
484.27	18.882
484.62	18.317
484.97	18.935
485.31	18.585
485.66	18.526
486.01	19.021
486.36	19.547
486.70	20.135
487.05	19.790
487.40	19.225
487.75	18.651
488.09	18.400
488.44	17.818
488.79	18.415
489.13	18.718
489.48	18.058
489.83	18.109
490.17	17.375
490.52	18.186
490.87	18.486
491.22	18.154
491.56	18.942
491.91	18.491
492.26	18.650
492.60	18.015
492.95	18.385
493.30	18.019
493.64	18.484
493.99	18.553
494.34	18.162
494.68	18.373
495.03	18.590
495.37	18.597
495.72	18.231
496.07	19.325
496.41	18.490
496.76	18.891
497.11	19.406
497.45	18.256
497.80	18.658
498.14	18.277
498.49	18.015
498.84	18.556
499.18	18.264
499.53	18.341
499.87	18.637
500.22	17.364
500.56	18.084
500.91	18.764
501.26	18.864
501.60	18.118
501.95	17.933
502.29	18.956
502.64	18.714
502.98	18.939
503.33	18.186
503.67	17.837
504.02	18.039
504.36	18.767
504.71	18.787
505.06	18.417
505.40	18.464
505.75	18.761
506.09	18.278
506.44	18.802
506.78	18.486
507.13	17.981
507.47	18.333
507.82	18.466
508.16	17.734
508.51	18.237
508.85	18.375
509.19	18.475
509.54	19.068
509.88	17.970
510.23	18.407
510.57	18.995
510.92	18.626
511.26	18.470
511.61	18.204
511.95	18.790
512.30	18.316
512.64	17.941
512.98	18.609
513.33	18.800
513.67	18.256
514.02	18.855
514.36	18.875
514.70	18.125
515.05	17.987
515.39	18.215
515.74	18.717
516.08	18.648
516.42	18.995
516.77	18.191
517.11	17.690
517.46	19.353
517.80	18.600
518.14	18.444
518.49	18.330
518.83	18.627
519.17	18.417
519.52	18.029
519.86	17.793
520.20	18.158
520.55	18.182
520.89	17.568
521.23	18.760
521.58	18.814
521.92	18.414
522.26	17.984
522.61	18.692
522.95	18.685
523.29	18.448
523.64	18.666
523.98	18.597
524.32	19.427
524.66	18.725
525.01	18.007
525.35	18.093
525.69	17.749
526.04	17.910
526.38	18.678
526.72	18.166
527.06	17.830
527.41	18.659
527.75	18.884
528.09	18.890
528.43	18.058
528.78	17.803
529.12	18.119
529.46	18.269
529.80	18.707
530.15	18.899
530.49	18.268
530.83	18.949
531.17	18.817
531.51	17.990
531.86	18.450
532.20	18.110
532.54	18.432
532.88	19.030
533.22	18.798
533.57	18.696
533.91	18.126
534.25	19.163
534.59	19.080
534.93	18.563
535.27	18.592
535.62	18.988
535.96	19.117
536.30	18.038
536.64	19.399
536.98	18.450
537.32	18.519
537.66	19.027
538.01	19.275
538.35	18.758
538.69	18.750
539.03	19.252
539.37	18.610
539.71	19.099
540.05	18.525
540.39	19.193
540.73	18.215
541.07	19.068
541.42	18.901
541.76	18.624
542.10	19.180
542.44	18.575
542.78	18.127
543.12	18.772
543.46	18.254
543.80	18.405
544.14	19.270
544.48	18.676
544.82	18.552
545.16	18.962
545.50	18.933
545.84	19.473
546.18	19.259
546.52	18.089
546.86	18.553
547.20	19.148
547.54	19.164
547.88	18.807
548.22	18.012
548.56	18.666
548.90	18.806
549.24	18.237
549.58	18.675
549.92	18.622
550.26	19.288
550.60	18.634
550.94	18.241
551.28	18.680
551.62	19.070
551.96	17.864
552.30	18.866
552.64	19.415
552.98	18.590
553.32	18.392
553.66	19.421
554.00	19.798
554.34	18.919
554.68	18.786
555.02	18.857
555.36	19.264
555.69	18.706
556.03	19.357
556.37	19.462
556.71	19.023
557.05	18.466
557.39	18.912
557.73	17.503
558.07	18.609
558.41	17.940
558.75	17.647
559.08	18.650
559.42	18.930
559.76	18.928
560.10	19.491
560.44	19.525
560.78	19.500
561.12	19.150
561.45	19.161
561.79	19.414
562.13	19.347
562.47	17.571
562.81	19.114
563.15	18.371
563.48	18.645
563.82	18.924
564.16	18.353
564.50	18.772
564.84	19.233
565.17	19.118
565.51	19.160
565.85	18.705
566.19	18.491
566.52	18.198
566.86	19.581
567.20	18.380
567.54	18.640
567.88	19.776
568.21	19.170
568.55	19.616
568.89	19.746
569.23	19.603
569.56	19.852
569.90	20.456
570.24	20.034
570.57	20.334
570.91	20.024
571.25	20.046
571.59	20.206
571.92	20.043
572.26	20.090
572.60	19.874
572.93	19.788
573.27	20.034
573.61	20.566
573.95	19.932
574.28	20.649
574.62	19.964
574.96	19.762
575.29	20.423
575.63	19.820
575.97	19.713
576.30	19.590
576.64	19.995
576.98	19.749
577.31	20.346
577.65	20.491
577.98	20.576
578.32	20.132
578.66	20.034
578.99	20.070
579.33	20.031
579.67	19.334
580.00	19.937
580.34	20.179
580.67	19.704
581.01	19.818
581.35	19.988
581.68	20.231
582.02	20.961
582.35	20.996
582.69	20.476
583.02	20.856
583.36	20.251
583.70	19.473
584.03	19.846
584.37	19.526
584.70	19.267
585.04	19.321
585.37	20.482
585.71	19.957
586.04	20.277
586.38	20.032
586.72	19.378
587.05	19.468
587.39	20.095
587.72	20.789
588.06	19.947
588.39	19.791
588.73	19.815
589.06	19.582
589.40	19.607
589.73	19.826
590.07	19.264
590.40	19.709
590.73	19.300
591.07	19.806
591.40	19.635
591.74	19.674
592.07	20.300
592.41	19.361
592.74	20.057
593.08	20.987
593.41	20.881
593.75	19.856
594.08	20.145
594.41	20.192
594.75	19.429
595.08	19.448
595.42	19.870
595.75	19.600
596.09	20.400
596.42	19.706
596.75	20.108
597.09	20.202
597.42	18.951
597.75	19.404
598.09	19.524
598.42	20.909
598.76	19.297
599.09	19.865
599.42	19.745
599.76	19.742
600.09	19.786
600.42	19.386
600.76	19.617
601.09	19.648
601.42	20.151
601.76	20.828
602.09	19.514
602.42	19.702
602.76	19.594
603.09	19.530
603.42	19.653
603.76	19.309
604.09	20.405
604.42	20.037
604.76	19.635
605.09	20.064
605.42	19.418
605.75	20.346
606.09	19.448
606.42	19.737
606.75	19.603
607.09	19.124
607.42	20.578
607.75	19.383
608.08	19.653
608.42	18.863
608.75	19.569
609.08	19.610
609.41	19.188
609.75	18.795
610.08	19.569
610.41	19.244
610.74	19.412
611.07	19.316
611.41	19.731
611.74	19.908
612.07	19.729
612.40	19.297
612.73	19.658
613.07	19.609
613.40	19.297
613.73	19.884
614.06	18.940
614.39	18.659
614.72	18.195
615.06	19.634
615.39	18.511
615.72	18.863
616.05	19.136
616.38	19.475
616.71	19.383
617.05	18.797
617.38	19.850
617.71	18.790
618.04	19.320
618.37	20.219
618.70	19.740
619.03	18.578
619.36	18.927
619.69	19.475
620.03	18.958
620.36	17.914
620.69	19.062
621.02	18.570
621.35	18.795
621.68	18.727
622.01	19.075
622.34	17.922
622.67	18.076
623.00	17.544
623.33	20.106
623.66	19.455
623.99	19.816
624.32	18.908
624.65	19.176
624.99	19.246
625.32	19.334
625.65	19.353
625.98	18.983
626.31	18.781
626.64	18.535
626.97	18.305
627.30	17.236
627.63	18.830
627.96	19.444
628.29	18.132
628.62	17.296
628.95	18.843
629.28	17.417
629.61	18.771
629.94	18.159
630.26	17.373
630.59	17.358
630.92	17.143
631.25	19.410
631.58	20.151
631.91	17.526
632.24	19.020
632.57	17.173
632.90	18.355
633.23	17.755
633.56	18.061
633.89	18.182
634.22	19.439
634.55	19.833
634.88	16.234
635.20	19.483
635.53	17.175
635.86	18.743
636.19	18.770
636.52	18.671
636.85	16.752
637.18	19.958
637.51	18.172
637.83	18.605
638.16	18.433
638.49	16.784
638.82	17.362
639.15	17.526
639.48	18.245
639.81	18.014
640.13	17.550
640.46	16.000
640.79	16.667
641.12	16.398
641.45	18.444
641.77	18.742
642.10	16.010
642.43	18.750
642.76	17.751
643.09	16.164
643.41	16.106
643.74	17.517
644.07	20.000
644.40	16.690
644.73	16.110
645.05	17.327
645.38	17.554
645.71	16.129
646.04	17.791
646.36	17.226
646.69	17.025
647.02	17.737
647.35	17.405
647.67	17.069
648.00	17.516
648.33	16.366
648.66	16.976
648.98	17.279
649.31	18.133
649.64	19.256
649.96	17.639
650.29	16.829
650.62	16.690
650.94	15.315
651.27	15.269
651.60	16.374
651.92	15.502
652.25	16.208
652.58	17.331
652.90	14.535
653.23	16.901
653.56	16.976
653.88	17.978
654.21	17.324
654.54	16.908
654.86	18.555
655.19	16.688
655.52	20.351
655.84	22.921
656.17	27.339
656.49	37.577
656.82	39.968
657.15	29.859
657.47	21.482
657.80	15.267
658.13	11.721
658.45	14.749
658.78	17.308
659.10	16.862
659.43	16.517
659.75	15.282
660.08	14.846
660.41	14.806
660.73	16.420
661.06	15.125
661.38	15.949
661.71	16.379
662.03	17.108
662.36	15.742
662.68	18.199
663.01	16.283
663.33	16.068
663.66	20.330
663.98	14.615
664.31	16.510
664.63	15.029
664.96	15.971
665.28	13.612
665.61	16.783
665.93	15.714
666.26	16.487
666.58	15.867
666.91	16.262
667.23	14.286
667.56	15.976
667.88	15.600
668.21	14.453
668.53	14.672
668.86	18.664
669.18	15.682
669.50	15.308
669.83	14.600
670.15	14.567
670.48	18.254
670.80	14.340
671.13	16.068
671.45	14.370
671.77	19.586
672.10	15.667
672.42	16.505
672.75	14.132
673.07	17.910
673.39	14.330
673.72	17.617
674.04	15.000
674.37	16.100
674.69	14.638
675.01	15.429
675.34	15.840
675.66	15.918
675.98	13.619
676.31	14.844
676.63	16.920
676.95	16.284
677.28	15.524
677.60	13.189
677.92	17.466
678.25	16.088
678.57	16.548
678.89	16.724
679.22	16.202
679.54	15.043
679.86	15.932
680.18	15.091
680.51	18.239
680.83	16.367
681.15	16.034
681.48	18.135
681.80	16.753
682.12	16.259
682.44	17.696
682.77	14.539
683.09	14.962
683.41	19.380
683.73	15.180
684.06	16.236
684.38	17.710
684.70	17.235
685.02	18.072
685.34	16.140
685.67	16.088
685.99	17.945
686.31	15.407
686.63	17.536
686.96	17.192
687.28	16.450
687.60	15.320
687.92	15.756
688.24	15.693
688.56	15.517
688.89	16.878
689.21	16.243
689.53	15.882
689.85	16.371
690.17	15.926
690.49	15.936
690.82	15.050
691.14	14.372
691.46	16.826
691.78	18.048
692.10	15.046
692.42	15.357
692.74	16.515
693.06	13.704
693.39	15.939
693.71	16.541
694.03	18.401
694.35	14.667
694.67	15.195
694.99	15.957
695.31	13.466
695.63	18.615
695.95	14.079
696.27	16.044
696.59	14.602
696.91	13.514
697.23	16.703
697.56	14.257
697.88	15.909
698.20	15.443
698.52	16.856
698.84	18.295
699.16	14.898
699.48	14.435
699.80	12.766
700.12	16.376
700.44	14.977
700.76	17.815
701.08	17.433
701.40	12.953
701.72	15.920
702.04	12.299
702.36	11.257
702.68	14.181
703.00	16.870
703.32	16.256
703.64	16.137
703.96	16.945
704.28	12.285
704.60	16.456
704.91	15.051
705.23	15.342
705.55	11.142
705.87	16.364
706.19	12.883
706.51	10.542
706.83	12.392
707.15	13.492
707.47	14.486
707.79	14.629
708.11	12.712
708.43	14.624
708.74	15.625
709.06	12.993
709.38	16.667
709.70	15.881
710.02	13.953
710.34	12.766
710.66	15.642
710.98	12.842
711.29	10.989
711.61	14.689
711.93	14.245
712.25	12.973
712.57	17.994
712.89	16.471
713.20	15.089
713.52	15.318
713.84	14.763
714.16	16.053
714.48	15.206
714.80	16.623
715.11	17.323
715.43	14.324
715.75	15.789
716.07	14.088
716.39	14.481
716.70	16.566
717.02	12.787
717.34	12.892
717.66	15.101
717.97	11.986
718.29	11.340
718.61	13.158
718.93	13.269
719.24	13.975
719.56	16.871
719.88	13.814
720.20	13.548
720.51	14.596
720.83	16.875
721.15	14.803
721.46	11.986
721.78	14.667
722.10	13.592
722.42	13.758
722.73	12.581
723.05	16.140
723.37	14.931
723.68	16.129
724.00	15.884
724.32	15.493
724.63	13.636
724.95	12.057
725.27	10.801
725.58	14.488
725.90	14.828
726.22	13.166
726.53	12.013
726.85	19.497
727.16	14.502
727.48	19.266
727.80	15.894
728.11	14.488
728.43	13.468
728.74	13.043
729.06	13.245
729.38	13.636
729.69	15.772
730.01	16.071
730.32	13.939
730.64	16.352
730.96	12.112
731.27	18.715
731.59	17.033
731.90	14.545
732.22	13.021
732.53	14.917
732.85	15.429
733.16	13.490
733.48	15.549
733.80	14.763
734.11	13.390
734.43	15.676
734.74	17.215
735.06	14.824
735.37	15.676
735.69	15.946
736.00	13.559
736.32	15.633
736.63	13.611
736.95	16.092
737.26	11.515
737.58	12.121
737.89	18.235
738.21	13.456
738.52	13.770
738.83	12.287
739.15	15.248
739.46	14.626
739.78	13.497
740.09	12.321
740.41	16.618
740.72	12.667
741.04	14.239
741.35	15.439
741.66	16.863
741.98	15.984
742.29	12.971
742.61	16.667
742.92	17.692
743.23	13.718
743.55	13.953
743.86	14.000
744.18	14.050
744.49	11.814
744.80	15.226
745.12	13.502
745.43	19.106
745.74	12.931
746.06	11.864
746.37	10.970
746.68	18.699
747.00	13.750
747.31	15.880
747.62	18.462
747.94	10.526
748.25	12.450
748.56	7.347
748.88	9.829
749.19	17.241
749.50	11.688
749.82	13.655
750.13	18.861
750.44	13.333
750.75	14.462
751.07	15.077
751.38	14.511
751.69	14.696
752.01	15.210
752.32	15.033
752.63	14.966
752.94	16.263
753.26	7.807
753.57	8.519
753.88	11.236
754.19	17.042
754.51	14.791
754.82	14.148
755.13	18.689
755.44	16.382
755.75	14.803
756.07	15.522
756.38	12.893
756.69	18.072
757.00	12.465
757.31	15.847
757.63	12.532
757.94	14.319
758.25	18.736
758.56	15.686
758.87	14.773
759.18	14.400
759.50	17.564
759.81	16.246
760.12	16.442
760.43	17.708
760.74	18.719
761.05	15.750
761.36	13.976
761.67	16.244
761.99	14.324
762.30	15.244
762.61	16.172
762.92	13.433
763.23	14.232
763.54	13.669
763.85	12.027
764.16	13.805
764.47	11.620
764.78	15.655
765.10	16.129
765.41	19.231
765.72	14.815
766.03	14.689
766.34	10.345
766.65	11.847
766.96	12.749
767.27	15.207
767.58	9.453
767.89	15.865
768.20	11.737
768.51	10.648
768.82	13.655
769.13	13.636
769.44	9.231
769.75	15.162
770.06	14.615
770.37	16.929
770.68	11.489
770.99	12.955
771.30	21.481
771.61	19.772
771.92	9.259
772.23	12.955
772.54	7.870
772.85	13.825
773.16	17.619
773.47	5.820
773.78	7.568
774.09	9.659
774.39	16.500
774.70	13.661
775.01	6.707
775.32	7.059
775.63	8.589
775.94	7.643
776.25	10.323
776.56	14.103
776.87	14.286
777.18	7.586
777.48	11.189
777.79	2.027
778.10	9.559
778.41	4.167
778.72	6.897
779.03	9.877
779.34	9.697
779.65	11.399
779.95	12.778
780.26	7.955
780.57	15.484
780.88	6.522
781.19	4.516
781.50	15.294
781.80	18.817
782.11	14.815
782.42	5.051
782.73	8.982
783.04	7.263
783.34	12.727
783.65	7.190
783.96	11.801
784.27	11.310
784.57	9.272
784.88	5.000
785.19	7.087
785.50	4.724
785.81	6.015
786.11	14.615
786.42	11.511
786.73	7.194
787.04	12.782
787.34	7.377
787.65	7.200
787.96	5.970
788.26	16.783
788.57	20.280
788.88	9.868
789.19	13.725
789.49	4.110
789.80	7.092
790.11	8.661
790.41	10.938
790.72	11.864
791.03	-1.942
791.33	6.957
791.64	6.140
791.95	3.571
792.25	4.762
792.56	17.857
792.87	-1.042
793.17	10.714
793.48	6.250
793.79	-3.614
794.09	7.339
794.40	3.670
794.70	12.245
795.01	7.143
795.32	4.110
795.62	13.380
795.93	5.303
796.23	13.934
796.54	9.821
796.85	0.000
797.15	-6.522
797.46	-1.370
797.76	-1.250
798.07	3.261
798.37	-14.433
798.68	-1.299
798.99	18.391
799.29	7.865
799.60	9.574
799.90	-4.819
800.21	3.077
800.51	-1.493
800.82	-10.294
801.12	-8.219
801.43	-5.882
801.73	-6.780
802.04	-7.576
802.34	8.333
802.65	1.695
802.95	5.970
803.26	3.390
803.56	1.370
803.87	5.714
804.17	16.438
804.48	-26.316
804.78	5.556
805.09	-15.517
805.39	4.054
805.70	-4.225
806.00	13.415
806.30	2.410
806.61	-12.329
806.91	9.615
807.22	3.333
807.52	6.897
807.83	-2.778
808.13	4.819
808.43	3.371
808.74	-6.250
809.04	-20.588
809.35	-6.667
809.65	-4.286
809.95	-9.589
810.26	-21.053
810.56	-8.621
810.86	13.235
811.17	10.526
811.47	-11.475
811.77	-17.778
812.08	0.000
812.38	-5.000
812.69	-8.621
812.99	-28.302
813.29	-41.026
813.59	2.000
813.90	7.018
814.20	-3.636
814.50	11.268
814.81	8.974
815.11	-4.918
815.41	1.493
815.72	-1.724
816.02	3.571
816.32	17.778
816.62	-4.545
816.93	-13.333
817.23	0.000
817.53	-14.894
817.84	11.905
818.14	-5.882
818.44	6.122
818.74	-11.111
819.04	-30.769
819.35	-37.143
819.65	-34.615
819.95	-26.415
820.25	-26.667
820.56	-23.810
820.86	-6.250
821.16	-23.077
821.46	-23.256
821.76	-30.000
822.07	1.786
822.37	-28.261
822.67	-10.638
822.97	-16.216
823.27	-25.000
823.57	8.163
823.88	-20.000
824.18	2.500
824.48	-53.333
824.78	-52.000
825.08	-36.364
825.38	-2.222
825.69	-17.021
825.99	-8.333
826.29	-77.143
826.59	-41.026
826.89	-20.930
827.19	-22.000
827.49	-8.824
827.79	-2.083
828.09	-21.622
828.39	-30.000
828.70	4.878
829.00	-18.605
829.30	-35.714
829.60	-11.765
829.90	-2.174
830.20	-22.857
830.50	-17.241
830.80	-55.556
831.10	-65.385
831.40	-35.294
831.70	-47.619
832.00	-6.452
832.30	-147.059
832.60	-20.833
832.90	-138.462
833.20	-57.895
833.50	-65.000
833.80	-36.842
834.10	-95.238
834.40	-22.222
834.70	-6.250
835.00	-40.000
835.30	-8.824
835.60	-13.333
835.90	-32.000
836.20	-77.273
836.50	-4.000
836.80	-48.485
837.10	-70.370
837.40	-48.148
837.70	-187.500
838.00	-21.429
838.30	-73.913
838.60	-48.276
838.90	-71.429
839.19	-82.609
839.49	-100.000
839.79	-26.087
840.09	-156.250
840.39	-115.000
840.69	-6.452
840.99	-25.000
841.29	-26.667
841.59	-57.895
841.88	-5.128
842.18	-38.462
842.48	-130.000
842.78	-50.000
843.08	-20.000
843.38	-6.452
843.68	-88.889
843.97	-14.706
844.27	-62.500
844.57	-78.947
844.87	-130.000
845.17	-106.667
845.47	-47.619
845.76	-42.857
846.06	-122.222
846.36	-117.647
846.66	-30.769
846.96	-100.000
847.25	-29.412
847.55	-73.913
847.85	-75.000
848.15	-52.941
848.44	-90.909
848.74	-28.571
849.04	-58.333
849.34	-93.750
849.63	-60.870
849.93	1150.000
850.23	-26.667
850.53	-30.769
850.82	-72.727
851.12	-22.727
851.42	-127.273
851.71	-46.154
852.01	-95.000
852.31	-61.538
852.61	-57.895
852.90	-58.333
853.20	-38.889
853.50	-200.000
853.79	-52.381
854.09	-31.818
854.39	-175.000
854.68	-12.903
854.98	-42.308
855.28	0.000
855.57	-3.571
855.87	-40.000
856.17	-31.818
856.46	-18.519
856.76	-77.778
857.05	-78.261
857.35	-20.833
857.65	-153.846
857.94	-19.048
858.24	-37.037
858.53	-43.478
858.83	-41.176
859.13	-23.529
859.42	-64.706
859.72	-57.143
860.01	-55.000
860.31	-77.778
860.60	-140.000
860.90	-40.000
861.20	-66.667
861.49	-100.000
861.79	-16.667
862.08	-107.692
862.38	-6.250
862.67	41.176
862.97	-56.250
863.26	-66.667
863.56	-60.000
863.85	-145.455
864.15	-66.667
864.44	-366.667
864.74	-85.714
865.03	-100.000
865.33	-200.000
865.62	-35.484
865.92	9.091
866.21	-17.391
866.51	-57.143
866.80	-380.000
867.10	-91.667
867.39	-175.000
867.69	2600.000
867.98	-171.429
868.27	-64.706
868.57	-1800.000
868.86	-210.000
869.16	-33.333
869.45	-4.167
869.75	-118.182
870.04	-128.571
870.33	-158.333
870.63	-242.857
870.92	-175.000
871.22	-287.500
871.51	-127.273
871.80	-766.667
872.10	-650.000
>>>>>End Processed Spectral Data<<<<<
