SpectraSuite Data File
++++++++++++++++++++++++++++++++++++
Date: Thu May 14 16:21:18 PDT 2015
User: schluterlab
Dark Spectrum Present: Yes
Reference Spectrum Present: Yes
Number of Sampled Component Spectra: 1
Spectrometers: USB2E3373
Integration Time (usec): 3000 (USB2E3373)
Spectra Averaged: 3 (USB2E3373)
Boxcar Smoothing: 0 (USB2E3373)
Correct for Electrical Dark: No (USB2E3373)
Strobe/Lamp Enabled: No (USB2E3373)
Correct for Detector Non-linearity: No (USB2E3373)
Correct for Stray Light: No (USB2E3373)
Number of Pixels in Processed Spectrum: 2048
>>>>>Begin Processed Spectral Data<<<<<
178.53	0.000
178.91	128.571
179.29	-1900.000
179.67	-700.000
180.04	142.857
180.42	30.000
180.80	420.000
181.18	-1400.000
181.56	-100.000
181.94	50.000
182.31	-50.000
182.69	-266.667
183.07	-350.000
183.45	175.000
183.83	16.667
184.20	-100.000
184.58	300.000
184.96	-175.000
185.34	77.778
185.72	80.000
186.09	122.222
186.47	400.000
186.85	220.000
187.23	-122.222
187.61	-900.000
187.98	180.000
188.36	300.000
188.74	-50.000
189.12	-33.333
189.49	31.250
189.87	-112.500
190.25	-44.444
190.63	-20.000
191.00	-144.444
191.38	0.000
191.76	-350.000
192.14	-50.000
192.51	550.000
192.89	-66.667
193.27	0.000
193.65	-57.143
194.02	-1800.000
194.40	-114.286
194.78	114.286
195.15	0.000
195.53	-36.364
195.91	0.000
196.29	-125.000
196.66	-30.769
197.04	-1400.000
197.42	-14.286
197.79	-450.000
198.17	-237.500
198.55	-85.714
198.92	-11.111
199.30	-137.500
199.68	-36.364
200.05	14.286
200.43	-50.000
200.81	114.286
201.18	0.000
201.56	233.333
201.94	0.000
202.31	300.000
202.69	-55.556
203.07	-300.000
203.44	33.333
203.82	-75.000
204.19	8.333
204.57	-66.667
204.95	-137.500
205.32	-1200.000
205.70	250.000
206.08	-216.667
206.45	-150.000
206.83	340.000
207.20	16.667
207.58	-300.000
207.96	-150.000
208.33	-16.667
208.71	100.000
209.08	-50.000
209.46	0.000
209.84	83.333
210.21	500.000
210.59	650.000
210.96	600.000
211.34	-125.000
211.71	-100.000
212.09	-1200.000
212.46	0.000
212.84	850.000
213.22	-240.000
213.59	-300.000
213.97	-40.000
214.34	33.333
214.72	166.667
215.09	-375.000
215.47	0.000
215.84	128.571
216.22	600.000
216.59	0.000
216.97	-80.000
217.34	75.000
217.72	-87.500
218.09	-425.000
218.47	-425.000
218.84	0.000
219.22	240.000
219.59	-5.882
219.97	-5.000
220.34	450.000
220.72	-66.667
221.09	38.462
221.47	-166.667
221.84	0.000
222.22	-157.143
222.59	0.000
222.97	-100.000
223.34	-220.000
223.72	-1000.000
224.09	-150.000
224.46	-100.000
224.84	-140.000
225.21	-42.857
225.59	-100.000
225.96	-150.000
226.34	15.385
226.71	316.667
227.08	-450.000
227.46	13.333
227.83	-100.000
228.21	5.263
228.58	-75.000
228.95	650.000
229.33	-16.667
229.70	0.000
230.08	63.158
230.45	190.000
230.82	33.333
231.20	-7.143
231.57	-58.333
231.95	-127.273
232.32	18.182
232.69	-40.000
233.07	-375.000
233.44	-11.765
233.81	-100.000
234.19	33.333
234.56	-45.455
234.93	13.793
235.31	-5.263
235.68	-27.778
236.05	-65.000
236.43	30.769
236.80	24.000
237.17	-33.333
237.55	-21.212
237.92	-100.000
238.29	3.226
238.67	11.364
239.04	13.889
239.41	-16.667
239.79	8.696
240.16	7.407
240.53	-2.174
240.91	-19.608
241.28	0.000
241.65	1.493
242.02	20.270
242.40	-6.154
242.77	8.000
243.14	0.000
243.51	-1.316
243.89	-6.410
244.26	-0.990
244.63	6.863
245.00	6.542
245.38	3.509
245.75	-7.080
246.12	8.730
246.49	0.000
246.87	7.143
247.24	4.636
247.61	11.842
247.98	4.698
248.36	3.704
248.73	0.000
249.10	6.557
249.47	13.930
249.84	14.660
250.22	3.627
250.59	7.778
250.96	14.091
251.33	2.041
251.70	12.821
252.08	10.000
252.45	10.656
252.82	9.091
253.19	6.250
253.56	8.365
253.94	2.692
254.31	9.470
254.68	10.490
255.05	13.029
255.42	6.803
255.79	8.414
256.16	7.616
256.54	7.285
256.91	9.836
257.28	6.230
257.65	5.414
258.02	7.375
258.39	7.123
258.76	12.844
259.14	12.356
259.51	8.069
259.88	8.499
260.25	8.611
260.62	9.589
260.99	10.383
261.36	10.456
261.73	6.366
262.10	8.242
262.47	8.043
262.85	11.869
263.22	10.130
263.59	5.000
263.96	9.207
264.33	7.417
264.70	8.889
265.07	12.888
265.44	10.431
265.81	10.417
266.18	8.390
266.55	11.384
266.92	6.606
267.29	9.409
267.66	10.200
268.03	8.952
268.40	10.856
268.77	7.973
269.14	5.727
269.51	8.553
269.88	11.885
270.25	9.457
270.62	9.494
270.99	10.505
271.36	10.297
271.73	10.806
272.10	8.818
272.47	11.623
272.84	9.639
273.21	11.623
273.58	9.274
273.95	10.000
274.32	9.506
274.69	9.478
275.06	10.623
275.43	7.394
275.80	9.524
276.17	6.667
276.54	9.515
276.91	7.871
277.28	9.403
277.65	10.592
278.02	8.456
278.39	7.246
278.76	7.733
279.13	9.220
279.50	9.966
279.87	9.123
280.23	7.394
280.60	10.678
280.97	9.539
281.34	8.659
281.71	10.998
282.08	7.807
282.45	9.165
282.82	8.320
283.19	8.078
283.56	9.508
283.92	11.712
284.29	9.953
284.66	10.837
285.03	7.212
285.40	7.728
285.77	10.062
286.14	10.840
286.51	10.198
286.87	8.373
287.24	9.488
287.61	8.072
287.98	7.855
288.35	8.728
288.72	10.059
289.08	9.078
289.45	7.101
289.82	8.133
290.19	9.195
290.56	10.282
290.93	7.275
291.29	9.229
291.66	7.989
292.03	7.056
292.40	10.204
292.77	8.356
293.13	8.796
293.50	5.650
293.87	6.443
294.24	9.600
294.60	7.838
294.97	6.711
295.34	9.859
295.71	6.557
296.08	8.140
296.44	7.230
296.81	8.404
297.18	7.970
297.55	7.665
297.91	7.592
298.28	6.991
298.65	7.610
299.02	6.612
299.38	6.979
299.75	7.827
300.12	7.060
300.48	6.221
300.85	8.099
301.22	8.389
301.59	6.963
301.95	6.441
302.32	9.000
302.69	6.681
303.05	6.529
303.42	6.541
303.79	7.292
304.15	6.414
304.52	7.188
304.89	7.435
305.25	7.971
305.62	6.583
305.99	7.526
306.35	6.956
306.72	6.308
307.09	6.701
307.45	5.694
307.82	6.458
308.19	7.265
308.55	7.136
308.92	6.719
309.29	6.897
309.65	6.725
310.02	6.139
310.38	6.890
310.75	7.184
311.12	7.958
311.48	6.061
311.85	6.933
312.22	5.882
312.58	6.573
312.95	6.119
313.31	6.143
313.68	6.777
314.05	7.678
314.41	6.831
314.78	6.812
315.14	6.352
315.51	7.664
315.87	7.651
316.24	7.854
316.61	7.638
316.97	6.335
317.34	7.055
317.70	7.074
318.07	7.055
318.43	7.823
318.80	8.194
319.16	7.983
319.53	6.512
319.89	6.924
320.26	7.829
320.62	7.092
320.99	6.925
321.35	6.470
321.72	8.558
322.08	6.763
322.45	7.317
322.81	8.935
323.18	7.876
323.54	9.138
323.91	8.363
324.27	8.778
324.64	9.572
325.00	9.038
325.37	7.862
325.73	9.835
326.10	9.408
326.46	9.283
326.83	9.448
327.19	10.236
327.56	10.830
327.92	10.543
328.29	9.919
328.65	11.055
329.01	10.068
329.38	11.373
329.74	11.387
330.11	12.243
330.47	10.952
330.84	11.628
331.20	11.833
331.56	11.265
331.93	11.799
332.29	11.186
332.66	12.043
333.02	11.055
333.38	11.913
333.75	12.374
334.11	11.259
334.48	11.551
334.84	13.084
335.20	11.503
335.57	12.226
335.93	13.306
336.29	11.398
336.66	11.775
337.02	12.375
337.38	13.435
337.75	11.488
338.11	12.279
338.47	12.738
338.84	12.521
339.20	12.300
339.56	12.026
339.93	12.726
340.29	12.721
340.65	12.571
341.02	13.567
341.38	11.964
341.74	12.914
342.11	12.711
342.47	12.867
342.83	12.480
343.20	12.837
343.56	13.392
343.92	12.250
344.28	13.672
344.65	13.953
345.01	12.480
345.37	13.453
345.73	11.925
346.10	13.963
346.46	12.975
346.82	13.184
347.19	12.299
347.55	13.354
347.91	11.664
348.27	13.278
348.63	13.481
349.00	12.304
349.36	12.714
349.72	13.244
350.08	13.447
350.45	13.080
350.81	12.443
351.17	13.008
351.53	13.268
351.89	12.149
352.26	12.687
352.62	12.612
352.98	13.206
353.34	11.800
353.70	12.481
354.07	13.562
354.43	12.528
354.79	12.416
355.15	12.804
355.51	13.962
355.87	12.117
356.24	12.471
356.60	13.599
356.96	13.640
357.32	12.937
357.68	12.811
358.04	13.548
358.40	13.209
358.77	13.743
359.13	13.442
359.49	13.160
359.85	12.763
360.21	13.056
360.57	12.563
360.93	12.130
361.29	13.193
361.66	13.251
362.02	13.083
362.38	14.406
362.74	13.687
363.10	13.755
363.46	12.742
363.82	13.352
364.18	13.652
364.54	13.624
364.90	13.445
365.26	13.310
365.62	14.267
365.98	13.002
366.35	13.154
366.71	13.878
367.07	13.329
367.43	13.526
367.79	13.603
368.15	14.247
368.51	14.141
368.87	13.586
369.23	13.733
369.59	13.661
369.95	13.320
370.31	13.910
370.67	14.030
371.03	14.404
371.39	13.029
371.75	14.099
372.11	13.076
372.47	14.218
372.83	13.613
373.19	14.743
373.55	12.602
373.91	13.838
374.27	13.454
374.63	13.396
374.99	13.462
375.35	13.117
375.71	14.516
376.07	14.396
376.42	13.980
376.78	14.357
377.14	13.724
377.50	13.978
377.86	14.409
378.22	13.653
378.58	14.150
378.94	13.322
379.30	14.587
379.66	13.933
380.02	14.137
380.38	13.998
380.74	14.085
381.09	13.937
381.45	15.568
381.81	14.988
382.17	14.371
382.53	14.854
382.89	14.391
383.25	14.302
383.61	13.426
383.97	14.429
384.32	15.012
384.68	13.341
385.04	15.442
385.40	15.321
385.76	14.537
386.12	14.542
386.48	14.765
386.83	15.495
387.19	14.195
387.55	14.847
387.91	14.384
388.27	14.088
388.62	14.548
388.98	14.721
389.34	14.732
389.70	14.526
390.06	14.506
390.42	14.096
390.77	15.172
391.13	14.026
391.49	14.130
391.85	14.121
392.20	14.353
392.56	15.535
392.92	14.885
393.28	14.981
393.64	14.637
393.99	15.805
394.35	15.012
394.71	14.671
395.07	13.653
395.42	15.420
395.78	14.991
396.14	15.508
396.50	14.549
396.85	14.609
397.21	14.734
397.57	14.723
397.92	14.891
398.28	14.394
398.64	14.416
399.00	14.555
399.35	14.346
399.71	14.674
400.07	14.767
400.42	13.970
400.78	15.162
401.14	14.286
401.49	14.667
401.85	15.465
402.21	14.832
402.57	15.376
402.92	14.716
403.28	14.696
403.63	14.678
403.99	14.489
404.35	15.179
404.70	14.788
405.06	14.674
405.42	15.164
405.77	15.049
406.13	15.451
406.49	15.146
406.84	14.460
407.20	14.589
407.55	14.718
407.91	14.959
408.27	14.311
408.62	15.358
408.98	14.393
409.34	14.721
409.69	14.710
410.05	14.889
410.40	16.299
410.76	14.526
411.11	15.780
411.47	15.233
411.83	16.108
412.18	15.422
412.54	15.649
412.89	16.298
413.25	15.350
413.60	14.819
413.96	15.501
414.31	15.127
414.67	15.862
415.03	15.323
415.38	14.691
415.74	16.127
416.09	15.854
416.45	15.842
416.80	14.688
417.16	15.581
417.51	15.068
417.87	14.960
418.22	16.287
418.58	15.551
418.93	15.541
419.29	15.598
419.64	15.246
420.00	15.668
420.35	16.171
420.71	15.451
421.06	15.756
421.42	15.826
421.77	15.455
422.12	15.486
422.48	16.078
422.83	16.375
423.19	16.127
423.54	16.482
423.90	16.179
424.25	15.680
424.61	15.442
424.96	16.639
425.31	17.197
425.67	15.727
426.02	16.104
426.38	16.475
426.73	15.458
427.09	17.647
427.44	16.275
427.79	16.971
428.15	17.466
428.50	16.798
428.85	16.762
429.21	17.500
429.56	16.041
429.92	16.708
430.27	16.096
430.62	16.756
430.98	16.576
431.33	16.325
431.68	16.379
432.04	17.572
432.39	17.408
432.74	16.324
433.10	16.766
433.45	17.168
433.80	16.953
434.16	16.839
434.51	17.626
434.86	17.698
435.22	17.694
435.57	17.866
435.92	17.474
436.28	17.861
436.63	18.078
436.98	17.338
437.34	17.418
437.69	17.887
438.04	18.191
438.39	17.117
438.75	17.820
439.10	19.239
439.45	18.502
439.81	18.588
440.16	18.123
440.51	18.785
440.86	17.454
441.22	18.650
441.57	17.977
441.92	18.186
442.27	18.889
442.63	18.082
442.98	18.356
443.33	19.306
443.68	18.979
444.03	18.956
444.39	18.955
444.74	18.938
445.09	19.007
445.44	19.494
445.79	19.636
446.15	18.962
446.50	18.450
446.85	19.796
447.20	18.907
447.55	19.613
447.91	18.168
448.26	18.869
448.61	19.501
448.96	18.938
449.31	18.929
449.66	19.336
450.02	19.093
450.37	19.766
450.72	19.752
451.07	19.875
451.42	19.353
451.77	20.122
452.12	19.752
452.47	19.192
452.83	19.707
453.18	18.856
453.53	19.701
453.88	19.768
454.23	20.339
454.58	19.443
454.93	19.175
455.28	19.747
455.63	19.613
455.98	19.777
456.34	19.670
456.69	19.929
457.04	19.976
457.39	20.455
457.74	20.022
458.09	20.319
458.44	19.504
458.79	19.804
459.14	20.084
459.49	19.921
459.84	20.619
460.19	19.323
460.54	19.818
460.89	20.011
461.24	20.460
461.59	20.199
461.94	20.080
462.29	21.221
462.64	20.278
462.99	20.778
463.34	20.247
463.69	19.461
464.04	21.456
464.39	20.852
464.74	20.639
465.09	20.704
465.44	20.923
465.79	20.360
466.14	19.333
466.49	19.684
466.84	20.716
467.19	20.925
467.54	20.270
467.89	21.207
468.24	21.274
468.59	20.845
468.94	20.688
469.29	20.636
469.64	20.598
469.99	21.096
470.34	21.844
470.68	22.215
471.03	21.611
471.38	22.106
471.73	21.456
472.08	21.701
472.43	21.794
472.78	21.285
473.13	20.986
473.48	21.994
473.83	21.184
474.17	21.454
474.52	22.069
474.87	21.816
475.22	22.254
475.57	21.963
475.92	21.055
476.27	21.459
476.61	22.170
476.96	21.794
477.31	21.634
477.66	23.033
478.01	22.369
478.36	21.585
478.70	21.872
479.05	22.699
479.40	22.211
479.75	22.334
480.10	22.264
480.45	22.060
480.79	22.268
481.14	21.921
481.49	22.672
481.84	22.367
482.19	22.151
482.53	21.775
482.88	22.995
483.23	22.410
483.58	21.659
483.92	21.853
484.27	22.185
484.62	22.195
484.97	21.695
485.31	21.295
485.66	20.713
486.01	19.501
486.36	20.098
486.70	20.970
487.05	22.108
487.40	21.964
487.75	22.595
488.09	22.570
488.44	21.763
488.79	22.867
489.13	22.556
489.48	21.981
489.83	22.575
490.17	22.600
490.52	22.578
490.87	22.716
491.22	22.184
491.56	23.422
491.91	22.503
492.26	22.847
492.60	22.781
492.95	22.642
493.30	23.308
493.64	22.514
493.99	21.974
494.34	22.735
494.68	22.827
495.03	23.436
495.37	23.302
495.72	22.222
496.07	23.050
496.41	22.480
496.76	23.144
497.11	22.548
497.45	22.572
497.80	23.590
498.14	23.311
498.49	23.759
498.84	23.629
499.18	23.257
499.53	23.857
499.87	23.297
500.22	23.553
500.56	23.212
500.91	23.021
501.26	24.182
501.60	22.890
501.95	23.535
502.29	23.738
502.64	24.530
502.98	23.943
503.33	23.931
503.67	23.201
504.02	23.774
504.36	24.084
504.71	24.208
505.06	23.829
505.40	23.949
505.75	24.454
506.09	23.849
506.44	24.513
506.78	25.138
507.13	24.574
507.47	24.775
507.82	24.148
508.16	24.044
508.51	24.051
508.85	24.374
509.19	25.012
509.54	25.648
509.88	24.429
510.23	26.372
510.57	25.423
510.92	25.738
511.26	24.531
511.61	25.350
511.95	25.573
512.30	25.948
512.64	25.387
512.98	26.363
513.33	26.210
513.67	26.568
514.02	26.725
514.36	27.059
514.70	26.927
515.05	26.590
515.39	27.087
515.74	26.988
516.08	26.889
516.42	27.786
516.77	27.129
517.11	26.921
517.46	28.314
517.80	28.274
518.14	28.672
518.49	27.711
518.83	28.206
519.17	27.679
519.52	27.254
519.86	28.722
520.20	28.435
520.55	28.313
520.89	29.110
521.23	28.476
521.58	29.661
521.92	29.065
522.26	28.923
522.61	29.456
522.95	28.720
523.29	29.828
523.64	29.540
523.98	29.720
524.32	29.398
524.66	29.596
525.01	29.332
525.35	29.351
525.69	29.872
526.04	29.621
526.38	30.977
526.72	29.988
527.06	29.208
527.41	29.971
527.75	30.879
528.09	29.398
528.43	29.603
528.78	29.191
529.12	30.505
529.46	29.342
529.80	29.519
530.15	30.493
530.49	30.190
530.83	30.756
531.17	30.765
531.51	30.144
531.86	31.010
532.20	31.159
532.54	30.281
532.88	31.515
533.22	29.110
533.57	29.544
533.91	31.313
534.25	30.017
534.59	30.057
534.93	28.862
535.27	29.746
535.62	31.609
535.96	30.506
536.30	31.492
536.64	31.051
536.98	31.919
537.32	31.852
537.66	32.065
538.01	30.091
538.35	30.207
538.69	30.529
539.03	30.901
539.37	30.153
539.71	31.051
540.05	30.815
540.39	30.868
540.73	29.933
541.07	31.024
541.42	29.652
541.76	30.842
542.10	30.157
542.44	30.268
542.78	30.596
543.12	30.334
543.46	30.464
543.80	30.216
544.14	30.401
544.48	31.087
544.82	30.999
545.16	30.888
545.50	30.497
545.84	31.047
546.18	32.531
546.52	31.465
546.86	30.252
547.20	31.234
547.54	31.273
547.88	30.922
548.22	30.175
548.56	30.837
548.90	31.164
549.24	31.185
549.58	31.546
549.92	31.696
550.26	31.521
550.60	31.015
550.94	32.018
551.28	32.211
551.62	32.682
551.96	31.715
552.30	31.995
552.64	30.803
552.98	31.503
553.32	32.476
553.66	31.704
554.00	32.598
554.34	31.789
554.68	30.600
555.02	32.260
555.36	32.939
555.69	30.621
556.03	31.148
556.37	31.665
556.71	30.881
557.05	32.141
557.39	32.780
557.73	32.166
558.07	31.788
558.41	32.957
558.75	31.981
559.08	32.289
559.42	31.413
559.76	32.293
560.10	31.949
560.44	31.992
560.78	31.437
561.12	30.850
561.45	31.630
561.79	32.173
562.13	31.362
562.47	31.381
562.81	32.152
563.15	32.386
563.48	30.827
563.82	32.346
564.16	30.890
564.50	31.228
564.84	31.681
565.17	31.471
565.51	30.610
565.85	32.363
566.19	30.760
566.52	31.656
566.86	30.673
567.20	30.506
567.54	30.430
567.88	30.887
568.21	31.472
568.55	30.600
568.89	29.641
569.23	29.700
569.56	28.839
569.90	28.190
570.24	29.005
570.57	28.287
570.91	27.250
571.25	27.596
571.59	27.748
571.92	27.425
572.26	27.051
572.60	27.518
572.93	27.832
573.27	28.042
573.61	27.316
573.95	26.778
574.28	27.120
574.62	26.626
574.96	25.915
575.29	26.438
575.63	26.750
575.97	26.778
576.30	26.548
576.64	27.058
576.98	26.515
577.31	26.281
577.65	26.661
577.98	26.374
578.32	25.814
578.66	26.008
578.99	26.541
579.33	27.145
579.67	27.176
580.00	26.613
580.34	26.571
580.67	26.324
581.01	26.720
581.35	26.145
581.68	25.963
582.02	26.189
582.35	25.995
582.69	26.394
583.02	27.135
583.36	26.905
583.70	27.676
584.03	27.238
584.37	27.549
584.70	26.430
585.04	26.715
585.37	27.110
585.71	26.429
586.04	27.081
586.38	27.484
586.72	27.626
587.05	27.040
587.39	27.001
587.72	27.105
588.06	27.345
588.39	27.035
588.73	26.825
589.06	28.019
589.40	27.720
589.73	27.860
590.07	28.084
590.40	28.972
590.73	28.314
591.07	28.518
591.40	28.266
591.74	29.094
592.07	28.786
592.41	28.785
592.74	27.796
593.08	28.217
593.41	28.055
593.75	27.385
594.08	27.931
594.41	28.077
594.75	28.296
595.08	28.096
595.42	27.792
595.75	27.510
596.09	28.634
596.42	28.807
596.75	29.409
597.09	29.212
597.42	28.367
597.75	28.146
598.09	28.492
598.42	29.916
598.76	27.780
599.09	27.803
599.42	27.858
599.76	26.940
600.09	28.262
600.42	28.295
600.76	28.369
601.09	28.311
601.42	28.184
601.76	28.448
602.09	28.914
602.42	28.172
602.76	28.376
603.09	27.680
603.42	28.577
603.76	27.872
604.09	28.176
604.42	28.257
604.76	27.740
605.09	28.640
605.42	28.349
605.75	27.423
606.09	27.734
606.42	27.326
606.75	27.361
607.09	27.688
607.42	28.478
607.75	27.902
608.08	27.901
608.42	28.134
608.75	28.566
609.08	28.565
609.41	28.496
609.75	28.438
610.08	28.496
610.41	28.887
610.74	28.319
611.07	28.108
611.41	28.924
611.74	28.684
612.07	28.331
612.40	29.325
612.73	29.389
613.07	29.340
613.40	28.922
613.73	28.743
614.06	28.263
614.39	28.377
614.72	28.675
615.06	29.018
615.39	28.420
615.72	28.199
616.05	28.072
616.38	29.617
616.71	29.676
617.05	29.393
617.38	29.535
617.71	30.238
618.04	29.574
618.37	29.945
618.70	29.186
619.03	30.287
619.36	30.086
619.69	30.429
620.03	30.006
620.36	29.632
620.69	29.488
621.02	31.365
621.35	32.075
621.68	31.453
622.01	30.463
622.34	29.149
622.67	30.790
623.00	29.487
623.33	30.392
623.66	30.350
623.99	29.954
624.32	30.604
624.65	29.601
624.99	30.884
625.32	30.503
625.65	31.153
625.98	29.898
626.31	31.184
626.64	31.795
626.97	30.533
627.30	29.916
627.63	30.083
627.96	31.832
628.29	32.918
628.62	31.486
628.95	32.954
629.28	32.201
629.61	31.902
629.94	31.297
630.26	31.949
630.59	31.347
630.92	31.688
631.25	33.631
631.58	33.992
631.91	33.271
632.24	33.622
632.57	32.922
632.90	32.497
633.23	33.163
633.56	33.469
633.89	31.921
634.22	34.200
634.55	33.820
634.88	31.926
635.20	35.091
635.53	34.124
635.86	32.394
636.19	33.086
636.52	32.278
636.85	32.584
637.18	32.328
637.51	33.656
637.83	34.330
638.16	34.101
638.49	32.864
638.82	32.807
639.15	31.844
639.48	34.988
639.81	34.065
640.13	35.925
640.46	32.000
640.79	31.985
641.12	34.286
641.45	34.755
641.77	36.200
642.10	35.696
642.43	34.973
642.76	34.146
643.09	35.479
643.41	34.034
643.74	32.690
644.07	34.759
644.40	32.532
644.73	34.107
645.05	34.802
645.38	34.964
645.71	33.871
646.04	36.442
646.36	33.577
646.69	32.669
647.02	37.768
647.35	38.321
647.67	35.749
648.00	36.783
648.33	36.336
648.66	32.525
648.98	32.653
649.31	32.612
649.64	33.997
649.96	33.952
650.29	31.850
650.62	32.249
650.94	34.234
651.27	31.737
651.60	32.310
651.92	32.827
652.25	32.272
652.58	32.462
652.90	32.413
653.23	32.394
653.56	32.525
653.88	33.427
654.21	34.789
654.54	33.092
654.86	35.552
655.19	30.113
655.52	28.970
655.84	22.823
656.17	26.109
656.49	36.644
656.82	41.045
657.15	32.482
657.47	25.672
657.80	19.474
658.13	15.520
658.45	20.679
658.78	25.903
659.10	25.316
659.43	25.643
659.75	26.753
660.08	26.050
660.41	27.709
660.73	30.217
661.06	30.984
661.38	34.290
661.71	33.966
662.03	34.744
662.36	34.526
662.68	34.709
663.01	34.867
663.33	34.972
663.66	36.630
663.98	34.615
664.31	33.771
664.63	31.407
664.96	35.209
665.28	29.583
665.61	34.790
665.93	31.607
666.26	34.229
666.58	33.579
666.91	37.009
667.23	34.667
667.56	33.728
667.88	36.800
668.21	33.203
668.53	32.432
668.86	35.363
669.18	34.623
669.50	32.406
669.83	34.600
670.15	34.055
670.48	34.127
670.80	30.593
671.13	35.539
671.45	32.874
671.77	36.347
672.10	29.500
672.42	31.877
672.75	29.800
673.07	30.000
673.39	30.200
673.72	34.396
674.04	32.414
674.37	32.558
674.69	32.275
675.01	31.810
675.34	33.206
675.66	31.461
675.98	32.090
676.31	31.641
676.63	31.749
676.95	32.184
677.28	33.266
677.60	29.921
677.92	30.710
678.25	31.810
678.57	30.783
678.89	33.959
679.22	30.139
679.54	31.111
679.86	32.881
680.18	29.685
680.51	28.931
680.83	30.606
681.15	28.103
681.48	34.024
681.80	30.915
682.12	32.343
682.44	30.384
682.77	29.965
683.09	29.924
683.41	31.589
683.73	31.689
684.06	29.889
684.38	30.411
684.70	31.059
685.02	28.227
685.34	27.288
685.67	27.129
685.99	31.442
686.31	27.180
686.63	29.542
686.96	28.391
687.28	28.339
687.60	27.609
687.92	29.100
688.24	29.716
688.56	29.828
688.89	30.490
689.21	31.703
689.53	28.039
689.85	28.600
690.17	28.519
690.49	29.283
690.82	31.089
691.14	27.328
691.46	29.637
691.78	30.939
692.10	27.706
692.42	27.679
692.74	26.860
693.06	25.556
693.39	29.032
693.71	26.504
694.03	28.810
694.35	29.143
694.67	31.622
694.99	31.489
695.31	30.022
695.63	31.385
695.95	30.021
696.27	30.110
696.59	31.195
696.91	27.477
697.23	31.209
697.56	26.477
697.88	25.758
698.20	27.119
698.52	31.629
698.84	29.522
699.16	30.816
699.48	28.033
699.80	27.447
700.12	27.729
700.44	27.419
700.76	30.166
701.08	31.961
701.40	30.829
701.72	28.358
702.04	31.283
702.36	24.869
702.68	31.540
703.00	28.362
703.32	30.296
703.64	30.073
703.96	30.788
704.28	27.273
704.60	32.405
704.91	28.827
705.23	30.137
705.55	31.755
705.87	30.909
706.19	33.742
706.51	31.325
706.83	29.971
707.15	27.249
707.47	27.103
707.79	29.913
708.11	23.093
708.43	24.086
708.74	26.562
709.06	28.770
709.38	31.221
709.70	29.280
710.02	29.457
710.34	29.521
710.66	24.302
710.98	28.962
711.29	27.747
711.61	29.661
711.93	28.490
712.25	28.108
712.57	33.923
712.89	29.118
713.20	32.544
713.52	30.347
713.84	29.805
714.16	29.211
714.48	24.485
714.80	32.468
715.11	24.409
715.43	28.117
715.75	26.842
716.07	27.348
716.39	30.055
716.70	26.506
717.02	34.098
717.34	24.042
717.66	30.201
717.97	22.945
718.29	28.866
718.61	27.303
718.93	29.773
719.24	29.193
719.56	26.994
719.88	27.928
720.20	26.774
720.51	29.814
720.83	24.063
721.15	26.316
721.46	24.658
721.78	22.667
722.10	27.508
722.42	23.826
722.73	22.581
723.05	33.333
723.37	27.431
723.68	27.240
724.00	27.437
724.32	26.056
724.63	27.622
724.95	28.723
725.27	26.132
725.58	26.502
725.90	25.172
726.22	23.511
726.53	22.403
726.85	25.786
727.16	24.773
727.48	24.771
727.80	27.483
728.11	25.088
728.43	25.253
728.74	23.746
729.06	23.841
729.38	26.299
729.69	26.846
730.01	24.405
730.32	20.909
730.64	24.843
730.96	23.602
731.27	25.419
731.59	22.527
731.90	20.260
732.22	21.875
732.53	19.613
732.85	24.286
733.16	26.100
733.48	19.207
733.80	25.627
734.11	23.932
734.43	24.054
734.74	23.038
735.06	21.608
735.37	23.243
735.69	18.919
736.00	22.881
736.32	23.720
736.63	23.611
736.95	24.713
737.26	25.455
737.58	20.909
737.89	24.412
738.21	18.654
738.52	29.508
738.83	25.256
739.15	23.759
739.46	23.469
739.78	26.994
740.09	25.215
740.41	28.280
740.72	27.667
741.04	20.712
741.35	28.421
741.66	23.922
741.98	25.000
742.29	25.523
742.61	29.386
742.92	20.000
743.23	22.744
743.55	24.031
743.86	25.200
744.18	24.380
744.49	24.051
744.80	24.280
745.12	27.848
745.43	30.488
745.74	27.586
746.06	30.085
746.37	26.160
746.68	30.081
747.00	22.083
747.31	24.464
747.62	26.538
747.94	24.291
748.25	24.096
748.56	21.224
748.88	21.368
749.19	26.724
749.50	22.078
749.82	24.498
750.13	29.537
750.44	21.333
750.75	24.615
751.07	18.769
751.38	23.975
751.69	21.725
752.01	18.447
752.32	25.490
752.63	21.769
752.94	22.837
753.26	20.818
753.57	22.593
753.88	22.472
754.19	23.473
754.51	22.186
754.82	24.116
755.13	24.590
755.44	21.502
755.75	21.053
756.07	24.776
756.38	21.384
756.69	22.892
757.00	19.668
757.31	22.678
757.63	18.159
757.94	22.066
758.25	23.251
758.56	19.608
758.87	19.091
759.18	20.000
759.50	22.096
759.81	19.048
760.12	21.833
760.43	22.917
760.74	21.429
761.05	18.250
761.36	17.590
761.67	16.751
761.99	18.919
762.30	17.988
762.61	20.462
762.92	24.254
763.23	21.348
763.54	23.741
763.85	23.368
764.16	23.906
764.47	20.775
764.78	17.891
765.10	21.994
765.41	22.308
765.72	19.841
766.03	23.446
766.34	18.809
766.65	18.467
766.96	23.108
767.27	26.728
767.58	20.398
767.89	25.481
768.20	21.127
768.51	20.370
768.82	20.884
769.13	18.182
769.44	14.615
769.75	22.022
770.06	21.154
770.37	22.047
770.68	15.745
770.99	15.385
771.30	27.778
771.61	22.814
771.92	17.037
772.23	23.887
772.54	18.519
772.85	22.120
773.16	26.190
773.47	20.106
773.78	18.378
774.09	25.568
774.39	22.500
774.70	22.404
775.01	18.902
775.32	13.529
775.63	15.337
775.94	14.650
776.25	23.226
776.56	30.128
776.87	31.293
777.18	21.379
777.48	14.685
777.79	18.243
778.10	20.588
778.41	27.083
778.72	27.586
779.03	22.840
779.34	18.788
779.65	22.280
779.95	28.889
780.26	19.886
780.57	22.581
780.88	24.638
781.19	17.419
781.50	20.000
781.80	18.280
782.11	19.048
782.42	12.121
782.73	21.557
783.04	17.877
783.34	14.545
783.65	20.915
783.96	19.255
784.27	22.024
784.57	16.556
784.88	23.571
785.19	13.386
785.50	11.024
785.81	20.301
786.11	18.462
786.42	15.108
786.73	19.424
787.04	20.301
787.34	26.230
787.65	19.200
787.96	12.687
788.26	17.483
788.57	25.874
788.88	15.789
789.19	20.261
789.49	18.493
789.80	15.603
790.11	14.961
790.41	17.969
790.72	18.644
791.03	15.534
791.33	15.652
791.64	22.807
791.95	8.929
792.25	14.286
792.56	23.214
792.87	21.875
793.17	23.214
793.48	11.458
793.79	9.639
794.09	21.101
794.40	18.349
794.70	16.327
795.01	18.831
795.32	14.384
795.62	11.972
795.93	18.182
796.23	16.393
796.54	24.107
796.85	6.383
797.15	9.783
797.46	13.699
797.76	18.750
798.07	14.130
798.37	12.371
798.68	14.286
798.99	17.241
799.29	17.978
799.60	23.404
799.90	25.301
800.21	3.077
800.51	13.433
800.82	11.765
801.12	-2.740
801.43	2.941
801.73	1.695
802.04	15.152
802.34	5.000
802.65	15.254
802.95	16.418
803.26	10.169
803.56	12.329
803.87	8.571
804.17	21.918
804.48	-12.281
804.78	23.611
805.09	12.069
805.39	35.135
805.70	9.859
806.00	1.220
806.30	6.024
806.61	15.068
806.91	17.308
807.22	22.222
807.52	8.046
807.83	16.667
808.13	21.687
808.43	17.978
808.74	13.750
809.04	0.000
809.35	16.000
809.65	24.286
809.95	19.178
810.26	10.526
810.56	10.345
810.86	23.529
811.17	7.018
811.47	4.918
811.77	-13.333
812.08	11.864
812.38	23.333
812.69	17.241
812.99	7.547
813.29	-12.821
813.59	16.000
813.90	17.544
814.20	20.000
814.50	25.352
814.81	11.538
815.11	9.836
815.41	16.418
815.72	8.621
816.02	16.071
816.32	31.111
816.62	38.636
816.93	6.667
817.23	1.852
817.53	0.000
817.84	14.286
818.14	23.529
818.44	16.327
818.74	35.556
819.04	23.077
819.35	-14.286
819.65	-53.846
819.95	30.189
820.25	0.000
820.56	19.048
820.86	-3.125
821.16	5.128
821.46	-16.279
821.76	-2.000
822.07	7.143
822.37	6.522
822.67	4.255
822.97	-8.108
823.27	-7.500
823.57	26.531
823.88	15.556
824.18	22.500
824.48	-6.667
824.78	0.000
825.08	-9.091
825.38	42.222
825.69	25.532
825.99	16.667
826.29	-40.000
826.59	7.692
826.89	-13.953
827.19	24.000
827.49	8.824
827.79	10.417
828.09	-21.622
828.39	23.333
828.70	26.829
829.00	34.884
829.30	-3.571
829.60	5.882
829.90	4.348
830.20	2.857
830.50	-37.931
830.80	16.667
831.10	11.538
831.40	0.000
831.70	-9.524
832.00	25.806
832.30	-117.647
832.60	-12.500
832.90	-15.385
833.20	10.526
833.50	-75.000
833.80	10.526
834.10	-61.905
834.40	8.333
834.70	25.000
835.00	-40.000
835.30	14.706
835.60	0.000
835.90	-24.000
836.20	-81.818
836.50	4.000
836.80	-39.394
837.10	3.704
837.40	25.926
837.70	-68.750
838.00	28.571
838.30	-60.870
838.60	6.897
838.90	-100.000
839.19	-47.826
839.49	8.333
839.79	-8.696
840.09	-18.750
840.39	-15.000
840.69	32.258
840.99	10.714
841.29	-126.667
841.59	0.000
841.88	-5.128
842.18	-23.077
842.48	-90.000
842.78	-10.000
843.08	6.667
843.38	6.452
843.68	-66.667
843.97	14.706
844.27	43.750
844.57	-5.263
844.87	-30.000
845.17	-6.667
845.47	9.524
845.76	-33.333
846.06	66.667
846.36	-52.941
846.66	-11.538
846.96	-120.000
847.25	-35.294
847.55	-4.348
847.85	-45.000
848.15	-11.765
848.44	-54.545
848.74	38.095
849.04	25.000
849.34	-18.750
849.63	8.696
849.93	300.000
850.23	-20.000
850.53	26.923
850.82	-36.364
851.12	40.909
851.42	-18.182
851.71	-30.769
852.01	-10.000
852.31	23.077
852.61	-63.158
852.90	-91.667
853.20	-44.444
853.50	-88.889
853.79	-23.810
854.09	-86.364
854.39	-91.667
854.68	9.677
854.98	-26.923
855.28	50.000
855.57	-3.571
855.87	-12.000
856.17	-4.545
856.46	33.333
856.76	-5.556
857.05	-69.565
857.35	12.500
857.65	0.000
857.94	-14.286
858.24	14.815
858.53	52.174
858.83	5.882
859.13	-11.765
859.42	23.529
859.72	-14.286
860.01	-35.000
860.31	-55.556
860.60	-60.000
860.90	-73.333
861.20	-22.222
861.49	-92.308
861.79	0.000
862.08	-61.538
862.38	28.125
862.67	-5.882
862.97	-68.750
863.26	88.889
863.56	10.000
863.85	27.273
864.15	11.111
864.44	-166.667
864.74	-7.143
865.03	-43.750
865.33	-120.000
865.62	-35.484
865.92	4.545
866.21	0.000
866.51	-64.286
866.80	-40.000
867.10	-100.000
867.39	-116.667
867.69	1200.000
867.98	-42.857
868.27	-29.412
868.57	-2500.000
868.86	-140.000
869.16	-9.524
869.45	20.833
869.75	18.182
870.04	-100.000
870.33	41.667
870.63	-200.000
870.92	-75.000
871.22	-150.000
871.51	-72.727
871.80	-700.000
872.10	-400.000
>>>>>End Processed Spectral Data<<<<<
