SpectraSuite Data File
++++++++++++++++++++++++++++++++++++
Date: Thu May 14 16:06:09 PDT 2015
User: schluterlab
Dark Spectrum Present: Yes
Reference Spectrum Present: Yes
Number of Sampled Component Spectra: 1
Spectrometers: USB2E3373
Integration Time (usec): 3000 (USB2E3373)
Spectra Averaged: 3 (USB2E3373)
Boxcar Smoothing: 0 (USB2E3373)
Correct for Electrical Dark: No (USB2E3373)
Strobe/Lamp Enabled: No (USB2E3373)
Correct for Detector Non-linearity: No (USB2E3373)
Correct for Stray Light: No (USB2E3373)
Number of Pixels in Processed Spectrum: 2048
>>>>>Begin Processed Spectral Data<<<<<
178.53	0.000
178.91	200.000
179.29	-1900.000
179.67	-1300.000
180.04	228.571
180.42	90.000
180.80	460.000
181.18	-1700.000
181.56	-100.000
181.94	300.000
182.31	-300.000
182.69	700.000
183.07	-700.000
183.45	250.000
183.83	-83.333
184.20	-633.333
184.58	1200.000
184.96	-425.000
185.34	-188.889
185.72	-280.000
186.09	266.667
186.47	750.000
186.85	440.000
187.23	-255.556
187.61	-2100.000
187.98	320.000
188.36	475.000
188.74	-475.000
189.12	-300.000
189.49	-43.750
189.87	-237.500
190.25	-88.889
190.63	-180.000
191.00	-155.556
191.38	0.000
191.76	-450.000
192.14	-266.667
192.51	850.000
192.89	-116.667
193.27	0.000
193.65	-128.571
194.02	-1600.000
194.40	-85.714
194.78	342.857
195.15	0.000
195.53	-54.545
195.91	0.000
196.29	-100.000
196.66	-92.308
197.04	-1900.000
197.42	-242.857
197.79	-950.000
198.17	-225.000
198.55	-214.286
198.92	-88.889
199.30	-175.000
199.68	-45.455
200.05	-114.286
200.43	-1000.000
200.81	328.571
201.18	0.000
201.56	244.444
201.94	0.000
202.31	533.333
202.69	-200.000
203.07	700.000
203.44	-122.222
203.82	-500.000
204.19	-100.000
204.57	-300.000
204.95	-137.500
205.32	-800.000
205.70	200.000
206.08	-183.333
206.45	-216.667
206.83	800.000
207.20	-250.000
207.58	-340.000
207.96	-216.667
208.33	-183.333
208.71	216.667
209.08	-150.000
209.46	0.000
209.84	366.667
210.21	650.000
210.59	550.000
210.96	433.333
211.34	-475.000
211.71	-212.500
212.09	-1200.000
212.46	0.000
212.84	1000.000
213.22	-380.000
213.59	-150.000
213.97	-90.000
214.34	-433.333
214.72	283.333
215.09	-300.000
215.47	0.000
215.84	214.286
216.22	1200.000
216.59	-100.000
216.97	-200.000
217.34	-275.000
217.72	-87.500
218.09	-700.000
218.47	-575.000
218.84	0.000
219.22	320.000
219.59	-58.824
219.97	-40.000
220.34	900.000
220.72	-122.222
221.09	-15.385
221.47	-333.333
221.84	-140.000
222.22	-114.286
222.59	0.000
222.97	-187.500
223.34	-300.000
223.72	-1500.000
224.09	-525.000
224.46	-475.000
224.84	-100.000
225.21	-357.143
225.59	-275.000
225.96	-275.000
226.34	-50.000
226.71	333.333
227.08	-1000.000
227.46	-40.000
227.83	-350.000
228.21	-42.105
228.58	275.000
228.95	550.000
229.33	-8.333
229.70	-70.000
230.08	-5.263
230.45	150.000
230.82	-566.667
231.20	-92.857
231.57	-50.000
231.95	-181.818
232.32	-90.909
232.69	-25.000
233.07	-500.000
233.44	-41.176
233.81	-140.000
234.19	-44.444
234.56	-13.636
234.93	3.448
235.31	-31.579
235.68	-44.444
236.05	-60.000
236.43	34.615
236.80	0.000
237.17	18.519
237.55	-12.121
237.92	-100.000
238.29	-6.452
238.67	13.636
239.04	27.778
239.41	-2.381
239.79	-2.174
240.16	0.000
240.53	-13.043
240.91	-15.686
241.28	-16.393
241.65	7.463
242.02	17.568
242.40	1.538
242.77	10.667
243.14	-2.439
243.51	-1.316
243.89	24.359
244.26	10.891
244.63	22.549
245.00	9.346
245.38	12.281
245.75	16.814
246.12	23.016
246.49	20.930
246.87	19.286
247.24	21.854
247.61	24.342
247.98	23.490
248.36	12.346
248.73	19.018
249.10	14.754
249.47	28.358
249.84	27.749
250.22	16.580
250.59	24.444
250.96	21.818
251.33	16.837
251.70	17.949
252.08	22.500
252.45	22.541
252.82	19.008
253.19	16.406
253.56	21.673
253.94	19.615
254.31	25.379
254.68	23.077
255.05	24.756
255.42	20.748
255.79	19.741
256.16	22.848
256.54	21.854
256.91	24.590
257.28	17.705
257.65	19.427
258.02	21.829
258.39	20.798
258.76	25.382
259.14	23.276
259.51	22.767
259.88	23.796
260.25	21.111
260.62	24.384
260.99	24.044
261.36	23.861
261.73	25.464
262.10	21.978
262.47	27.078
262.85	26.263
263.22	22.597
263.59	19.211
263.96	28.133
264.33	23.529
264.70	27.654
265.07	25.298
265.44	22.676
265.81	23.843
266.18	24.717
266.55	26.562
266.92	22.551
267.29	25.164
267.66	23.947
268.03	25.109
268.40	24.217
268.77	22.779
269.14	22.467
269.51	22.588
269.88	24.590
270.25	24.145
270.62	23.418
270.99	26.061
271.36	25.743
271.73	23.969
272.10	27.054
272.47	24.449
272.84	23.494
273.21	24.248
273.58	24.395
273.95	20.962
274.32	21.293
274.69	22.244
275.06	24.725
275.43	23.105
275.80	24.691
276.17	24.259
276.54	24.254
276.91	23.256
277.28	24.412
277.65	22.442
278.02	24.265
278.39	22.464
278.76	24.253
279.13	23.227
279.50	24.914
279.87	25.224
280.23	19.718
280.60	23.220
280.97	25.493
281.34	25.297
281.71	25.212
282.08	23.422
282.45	21.931
282.82	21.350
283.19	21.971
283.56	22.787
283.92	25.375
284.29	24.803
284.66	23.974
285.03	23.077
285.40	23.029
285.77	24.303
286.14	24.580
286.51	22.527
286.87	23.855
287.24	24.096
287.61	21.226
287.98	22.508
288.35	23.669
288.72	22.929
289.08	24.305
289.45	20.858
289.82	21.084
290.19	21.408
290.56	21.972
290.93	21.113
291.29	20.937
291.66	22.039
292.03	20.488
292.40	22.041
292.77	19.407
293.13	21.380
293.50	19.185
293.87	21.074
294.24	20.133
294.60	21.113
294.97	17.718
295.34	20.359
295.71	19.168
296.08	17.700
296.44	19.485
296.81	18.879
297.18	18.057
297.55	19.104
297.91	18.861
298.28	17.536
298.65	17.836
299.02	17.355
299.38	17.735
299.75	17.290
300.12	17.477
300.48	17.281
300.85	18.673
301.22	18.680
301.59	16.324
301.95	17.401
302.32	18.111
302.69	18.620
303.05	18.934
303.42	18.514
303.79	17.917
304.15	18.612
304.52	17.230
304.89	17.592
305.25	18.116
305.62	15.987
305.99	17.320
306.35	17.036
306.72	18.511
307.09	17.970
307.45	17.495
307.82	18.163
308.19	16.549
308.55	18.226
308.92	17.819
309.29	18.391
309.65	15.887
310.02	17.426
310.38	18.110
310.75	18.544
311.12	18.025
311.48	18.671
311.85	16.714
312.22	18.216
312.58	18.592
312.95	18.260
313.31	18.428
313.68	17.308
314.05	18.970
314.41	18.944
314.78	18.438
315.14	18.693
315.51	18.560
315.87	19.532
316.24	18.721
316.61	20.870
316.97	19.910
317.34	18.695
317.70	19.738
318.07	19.224
318.43	20.408
318.80	20.569
319.16	19.742
319.53	20.051
319.89	19.369
320.26	20.819
320.62	18.972
320.99	19.945
321.35	20.333
321.72	21.674
322.08	20.379
322.45	21.680
322.81	21.751
323.18	21.593
323.54	22.328
323.91	22.687
324.27	22.117
324.64	23.426
325.00	22.637
325.37	23.915
325.73	23.388
326.10	24.088
326.46	24.267
326.83	23.859
327.19	23.386
327.56	25.138
327.92	24.469
328.29	23.710
328.65	24.121
329.01	25.212
329.38	25.695
329.74	25.856
330.11	25.257
330.47	25.021
330.84	25.409
331.20	24.917
331.56	24.437
331.93	26.444
332.29	25.593
332.66	24.751
333.02	25.293
333.38	25.503
333.75	25.253
334.11	26.188
334.48	26.403
334.84	25.149
335.20	24.937
335.57	25.548
335.93	25.124
336.29	24.958
336.66	26.493
337.02	26.505
337.38	27.296
337.75	25.372
338.11	25.988
338.47	25.145
338.84	25.550
339.20	24.600
339.56	24.959
339.93	24.056
340.29	25.362
340.65	25.629
341.02	25.539
341.38	24.980
341.74	25.424
342.11	25.422
342.47	24.623
342.83	25.765
343.20	26.901
343.56	25.662
343.92	24.900
344.28	25.000
344.65	25.349
345.01	25.663
345.37	26.516
345.73	25.019
346.10	25.975
346.46	24.921
346.82	25.243
347.19	25.821
347.55	25.190
347.91	25.037
348.27	24.962
348.63	25.590
349.00	24.758
349.36	26.468
349.72	24.628
350.08	25.557
350.45	24.867
350.81	25.641
351.17	25.113
351.53	25.777
351.89	25.740
352.26	25.000
352.62	25.522
352.98	26.107
353.34	25.243
353.70	26.271
354.07	25.335
354.43	26.120
354.79	25.131
355.15	25.166
355.51	25.658
355.87	25.355
356.24	25.551
356.60	24.908
356.96	25.130
357.32	25.502
357.68	25.988
358.04	25.823
358.40	25.075
358.77	26.096
359.13	25.258
359.49	25.502
359.85	25.743
360.21	26.542
360.57	25.054
360.93	26.164
361.29	25.825
361.66	25.851
362.02	26.374
362.38	26.845
362.74	26.816
363.10	27.648
363.46	25.970
363.82	27.344
364.18	27.586
364.54	26.279
364.90	26.488
365.26	26.759
365.62	26.533
365.98	27.434
366.35	25.839
366.71	27.687
367.07	26.252
367.43	26.461
367.79	27.538
368.15	27.425
368.51	27.334
368.87	25.604
369.23	27.533
369.59	26.844
369.95	26.842
370.31	27.616
370.67	26.960
371.03	27.562
371.39	26.326
371.75	27.510
372.11	28.252
372.47	26.811
372.83	27.749
373.19	26.618
373.55	27.304
373.91	26.789
374.27	27.555
374.63	28.078
374.99	27.785
375.35	28.182
375.71	27.806
376.07	28.341
376.42	27.582
376.78	28.216
377.14	28.696
377.50	28.906
377.86	29.249
378.22	27.485
378.58	28.775
378.94	28.052
379.30	27.944
379.66	28.219
380.02	27.813
380.38	29.263
380.74	28.563
381.09	28.397
381.45	28.750
381.81	29.333
382.17	28.860
382.53	29.298
382.89	28.950
383.25	28.898
383.61	28.646
383.97	28.857
384.32	29.366
384.68	28.596
385.04	29.439
385.40	30.701
385.76	30.012
386.12	28.426
386.48	28.529
386.83	29.440
387.19	28.737
387.55	29.284
387.91	28.082
388.27	28.984
388.62	29.152
388.98	28.201
389.34	29.994
389.70	29.460
390.06	29.722
390.42	28.855
390.77	30.464
391.13	29.225
391.49	29.891
391.85	29.758
392.20	28.648
392.56	29.179
392.92	29.662
393.28	29.353
393.64	29.274
393.99	29.808
394.35	29.848
394.71	29.401
395.07	28.862
395.42	29.126
395.78	30.347
396.14	29.709
396.50	28.385
396.85	28.682
397.21	29.231
397.57	30.035
397.92	29.897
398.28	29.441
398.64	28.661
399.00	28.901
399.35	28.639
399.71	28.859
400.07	29.815
400.42	28.696
400.78	28.530
401.14	28.970
401.49	29.221
401.85	28.953
402.21	28.737
402.57	28.697
402.92	28.369
403.28	28.337
403.63	28.938
403.99	28.385
404.35	29.051
404.70	28.952
405.06	28.641
405.42	29.215
405.77	29.171
406.13	29.390
406.49	28.829
406.84	28.643
407.20	29.290
407.55	28.649
407.91	28.661
408.27	27.621
408.62	28.796
408.98	28.613
409.34	27.507
409.69	28.183
410.05	28.957
410.40	29.292
410.76	28.716
411.11	29.573
411.47	27.887
411.83	29.042
412.18	30.241
412.54	29.223
412.89	28.813
413.25	28.047
413.60	28.719
413.96	28.788
414.31	28.782
414.67	28.861
415.03	28.985
415.38	28.499
415.74	28.833
416.09	28.439
416.45	27.051
416.80	27.111
417.16	29.310
417.51	29.016
417.87	28.142
418.22	28.383
418.58	28.191
418.93	28.580
419.29	28.237
419.64	27.611
420.00	28.012
420.35	28.299
420.71	27.570
421.06	27.717
421.42	27.580
421.77	27.141
422.12	28.224
422.48	27.445
422.83	28.970
423.19	27.745
423.54	28.872
423.90	27.223
424.25	29.067
424.61	28.243
424.96	27.842
425.31	28.185
425.67	28.502
426.02	28.998
426.38	27.440
426.73	27.121
427.09	28.316
427.44	27.362
427.79	27.197
428.15	26.941
428.50	26.910
428.85	27.612
429.21	28.351
429.56	27.394
429.92	27.813
430.27	27.229
430.62	27.406
430.98	27.201
431.33	27.517
431.68	27.586
432.04	27.984
432.39	27.156
432.74	28.710
433.10	27.691
433.45	26.533
433.80	27.843
434.16	27.738
434.51	27.390
434.86	28.122
435.22	27.949
435.57	27.830
435.92	27.602
436.28	28.441
436.63	28.509
436.98	27.697
437.34	28.354
437.69	27.298
438.04	28.398
438.39	28.145
438.75	27.283
439.10	27.326
439.45	27.781
439.81	27.514
440.16	26.863
440.51	28.149
440.86	28.071
441.22	27.492
441.57	28.459
441.92	27.255
442.27	28.535
442.63	27.968
442.98	27.908
443.33	27.670
443.68	28.246
444.03	28.128
444.39	28.017
444.74	28.229
445.09	28.282
445.44	28.609
445.79	28.161
446.15	27.903
446.50	28.010
446.85	28.113
447.20	28.530
447.55	28.347
447.91	27.539
448.26	28.066
448.61	27.949
448.96	29.024
449.31	27.359
449.66	27.832
450.02	26.793
450.37	28.556
450.72	27.933
451.07	27.733
451.42	27.556
451.77	26.959
452.12	28.330
452.47	27.094
452.83	28.041
453.18	27.963
453.53	27.226
453.88	26.836
454.23	27.232
454.58	27.568
454.93	26.699
455.28	28.477
455.63	27.686
455.98	28.492
456.34	27.150
456.69	27.454
457.04	28.014
457.39	27.605
457.74	28.188
458.09	26.359
458.44	27.694
458.79	26.663
459.14	27.740
459.49	27.561
459.84	28.332
460.19	26.985
460.54	28.279
460.89	27.263
461.24	27.241
461.59	27.504
461.94	26.640
462.29	27.436
462.64	27.761
462.99	28.500
463.34	27.450
463.69	27.081
464.04	27.293
464.39	26.401
464.74	27.651
465.09	27.682
465.44	27.200
465.79	27.922
466.14	26.628
466.49	26.526
466.84	27.328
467.19	27.283
467.54	27.497
467.89	27.126
468.24	27.424
468.59	26.694
468.94	26.224
469.29	27.475
469.64	27.209
469.99	27.470
470.34	27.599
470.68	27.683
471.03	27.243
471.38	28.581
471.73	26.853
472.08	27.094
472.43	27.815
472.78	27.393
473.13	27.118
473.48	27.855
473.83	28.207
474.17	27.491
474.52	27.601
474.87	27.409
475.22	27.155
475.57	27.155
475.92	27.675
476.27	27.423
476.61	27.155
476.96	27.372
477.31	27.574
477.66	27.702
478.01	27.504
478.36	26.820
478.70	27.537
479.05	28.374
479.40	26.950
479.75	27.378
480.10	27.333
480.45	27.256
480.79	27.438
481.14	27.390
481.49	27.306
481.84	27.459
482.19	27.355
482.53	27.941
482.88	28.179
483.23	28.057
483.58	27.293
483.92	26.507
484.27	26.926
484.62	27.104
484.97	27.722
485.31	26.786
485.66	26.033
486.01	25.355
486.36	25.486
486.70	27.152
487.05	27.496
487.40	28.163
487.75	27.913
488.09	28.177
488.44	27.682
488.79	27.690
489.13	27.516
489.48	27.029
489.83	26.640
490.17	26.326
490.52	27.094
490.87	26.734
491.22	26.603
491.56	26.664
491.91	26.777
492.26	26.915
492.60	26.148
492.95	26.722
493.30	26.759
493.64	26.938
493.99	26.404
494.34	26.437
494.68	26.338
495.03	26.344
495.37	26.942
495.72	27.392
496.07	26.819
496.41	26.083
496.76	27.189
497.11	26.369
497.45	26.888
497.80	27.143
498.14	26.893
498.49	26.746
498.84	27.011
499.18	26.496
499.53	26.816
499.87	26.857
500.22	25.245
500.56	26.991
500.91	26.270
501.26	27.045
501.60	26.602
501.95	26.357
502.29	26.327
502.64	27.110
502.98	26.316
503.33	26.436
503.67	25.687
504.02	25.482
504.36	26.273
504.71	27.102
505.06	26.330
505.40	26.645
505.75	26.776
506.09	26.427
506.44	26.927
506.78	27.477
507.13	27.340
507.47	27.901
507.82	27.841
508.16	26.673
508.51	26.301
508.85	26.878
509.19	27.333
509.54	26.993
509.88	26.809
510.23	27.246
510.57	27.985
510.92	26.802
511.26	26.599
511.61	27.040
511.95	27.330
512.30	27.720
512.64	27.486
512.98	26.763
513.33	27.470
513.67	26.823
514.02	27.798
514.36	28.133
514.70	27.917
515.05	28.571
515.39	26.667
515.74	28.102
516.08	27.734
516.42	28.048
516.77	28.286
517.11	27.953
517.46	28.526
517.80	28.915
518.14	28.999
518.49	28.362
518.83	28.632
519.17	27.841
519.52	28.145
519.86	28.564
520.20	28.647
520.55	28.697
520.89	29.054
521.23	28.420
521.58	29.774
521.92	29.292
522.26	28.408
522.61	29.630
522.95	28.431
523.29	28.851
523.64	28.083
523.98	29.150
524.32	30.602
524.66	28.344
525.01	28.369
525.35	28.374
525.69	28.480
526.04	29.621
526.38	29.425
526.72	29.815
527.06	29.560
527.41	29.504
527.75	28.682
528.09	29.339
528.43	28.538
528.78	28.382
529.12	29.128
529.46	28.668
529.80	28.719
530.15	29.623
530.49	29.656
530.83	29.870
531.17	29.869
531.51	29.543
531.86	29.928
532.20	30.488
532.54	29.144
532.88	29.818
533.22	29.994
533.57	29.429
533.91	28.844
534.25	29.282
534.59	29.540
534.93	28.070
535.27	29.746
535.62	29.505
535.96	30.041
536.30	29.730
536.64	30.030
536.98	29.766
537.32	30.185
537.66	30.318
538.01	29.003
538.35	28.989
538.69	30.168
539.03	28.694
539.37	28.916
539.71	29.189
540.05	28.957
540.39	29.095
540.73	28.658
541.07	29.185
541.42	29.356
541.76	27.936
542.10	28.649
542.44	28.685
542.78	29.136
543.12	28.486
543.46	29.426
543.80	28.058
544.14	28.426
544.48	28.605
544.82	28.546
545.16	28.801
545.50	29.239
545.84	28.965
546.18	29.198
546.52	28.217
546.86	28.302
547.20	28.753
547.54	28.152
547.88	28.571
548.22	28.129
548.56	28.028
548.90	27.582
549.24	28.571
549.58	29.338
549.92	27.487
550.26	28.091
550.60	28.334
550.94	28.266
551.28	28.251
551.62	29.178
551.96	28.932
552.30	27.916
552.64	27.754
552.98	28.384
553.32	27.910
553.66	28.360
554.00	28.499
554.34	28.250
554.68	27.114
555.02	28.515
555.36	28.665
555.69	27.995
556.03	27.995
556.37	28.911
556.71	28.789
557.05	27.923
557.39	28.135
557.73	27.543
558.07	27.285
558.41	28.173
558.75	26.707
559.08	29.088
559.42	27.503
559.76	26.866
560.10	28.600
560.44	27.573
560.78	28.188
561.12	27.032
561.45	27.616
561.79	27.045
562.13	28.158
562.47	27.189
562.81	28.038
563.15	27.588
563.48	28.341
563.82	27.267
564.16	26.953
564.50	27.652
564.84	26.608
565.17	27.588
565.51	26.812
565.85	26.781
566.19	26.440
566.52	26.448
566.86	27.108
567.20	26.101
567.54	27.403
567.88	27.370
568.21	26.482
568.55	26.475
568.89	26.237
569.23	25.940
569.56	26.456
569.90	26.978
570.24	25.329
570.57	25.914
570.91	25.413
571.25	25.195
571.59	25.633
571.92	25.133
572.26	25.331
572.60	25.962
572.93	25.828
573.27	25.513
573.61	25.225
573.95	25.079
574.28	25.485
574.62	24.852
574.96	24.504
575.29	24.763
575.63	24.602
575.97	24.958
576.30	24.870
576.64	25.078
576.98	25.444
577.31	25.011
577.65	24.660
577.98	24.661
578.32	24.361
578.66	24.312
578.99	24.452
579.33	25.056
579.67	25.023
580.00	24.904
580.34	25.131
580.67	24.316
581.01	24.665
581.35	24.138
581.68	24.206
582.02	24.104
582.35	24.318
582.69	24.547
583.02	24.594
583.36	25.241
583.70	24.699
584.03	24.910
584.37	24.710
584.70	24.719
585.04	24.366
585.37	23.995
585.71	24.250
586.04	24.306
586.38	24.188
586.72	23.866
587.05	23.894
587.39	24.084
587.72	24.402
588.06	24.855
588.39	24.521
588.73	24.180
589.06	24.464
589.40	24.677
589.73	23.940
590.07	24.503
590.40	24.713
590.73	24.885
591.07	24.572
591.40	24.184
591.74	24.364
592.07	24.685
592.41	24.054
592.74	24.281
593.08	23.439
593.41	24.059
593.75	23.276
594.08	23.659
594.41	23.654
594.75	23.746
595.08	24.125
595.42	23.799
595.75	23.959
596.09	24.161
596.42	24.042
596.75	25.048
597.09	24.323
597.42	24.315
597.75	23.559
598.09	23.452
598.42	23.683
598.76	22.927
599.09	22.926
599.42	22.930
599.76	23.011
600.09	23.323
600.42	23.223
600.76	23.514
601.09	22.702
601.42	23.000
601.76	23.138
602.09	23.946
602.42	23.991
602.76	22.657
603.09	23.678
603.42	23.302
603.76	23.221
604.09	23.882
604.42	23.193
604.76	23.135
605.09	23.454
605.42	23.246
605.75	23.154
606.09	22.620
606.42	23.276
606.75	22.451
607.09	22.734
607.42	22.659
607.75	23.056
608.08	22.849
608.42	22.451
608.75	23.881
609.08	23.345
609.41	22.717
609.75	23.036
610.08	23.703
610.41	22.175
610.74	22.395
611.07	23.091
611.41	23.184
611.74	22.910
612.07	23.329
612.40	21.768
612.73	22.934
613.07	22.836
613.40	23.292
613.73	22.870
614.06	22.816
614.39	22.303
614.72	23.193
615.06	22.281
615.39	22.426
615.72	22.275
616.05	22.681
616.38	23.007
616.71	22.780
617.05	22.204
617.38	23.649
617.71	23.380
618.04	22.180
618.37	23.169
618.70	22.172
619.03	22.461
619.36	22.256
619.69	22.293
620.03	22.976
620.36	21.902
620.69	22.949
621.02	22.572
621.35	23.585
621.68	22.415
622.01	22.491
622.34	21.409
622.67	22.612
623.00	21.862
623.33	22.561
623.66	22.049
623.99	22.054
624.32	22.677
624.65	21.943
624.99	22.562
625.32	22.600
625.65	22.724
625.98	21.763
626.31	22.892
626.64	22.418
626.97	22.356
627.30	20.805
627.63	21.980
627.96	23.874
628.29	23.191
628.62	22.502
628.95	23.050
629.28	22.940
629.61	21.380
629.94	22.008
630.26	22.034
630.59	21.762
630.92	20.866
631.25	22.540
631.58	22.411
631.91	22.118
632.24	22.190
632.57	21.917
632.90	22.267
633.23	22.041
633.56	22.857
633.89	21.074
634.22	22.973
634.55	22.860
634.88	22.078
635.20	23.036
635.53	23.051
635.86	22.102
636.19	22.800
636.52	21.941
636.85	22.063
637.18	20.374
637.51	21.075
637.83	23.477
638.16	22.350
638.49	22.770
638.82	21.195
639.15	22.337
639.48	21.709
639.81	21.247
640.13	21.437
640.46	19.515
640.79	19.975
641.12	20.994
641.45	22.083
641.77	22.721
642.10	20.472
642.43	21.809
642.76	22.629
643.09	20.411
643.41	19.748
643.74	21.655
644.07	23.034
644.40	21.358
644.73	22.061
645.05	21.586
645.38	22.590
645.71	23.754
646.04	23.673
646.36	19.708
646.69	20.859
647.02	20.795
647.35	20.458
647.67	23.349
648.00	22.930
648.33	22.072
648.66	19.829
648.98	20.408
649.31	20.298
649.64	21.381
649.96	22.281
650.29	19.889
650.62	19.943
650.94	20.420
651.27	21.108
651.60	21.637
651.92	21.277
652.25	22.287
652.58	19.395
652.90	19.331
653.23	21.127
653.56	19.829
653.88	22.331
654.21	21.549
654.54	21.821
654.86	20.538
655.19	19.322
655.52	21.548
655.84	19.668
656.17	22.555
656.49	32.459
656.82	35.989
657.15	28.662
657.47	22.119
657.80	16.785
658.13	13.468
658.45	18.198
658.78	22.700
659.10	22.037
659.43	22.322
659.75	21.362
660.08	21.008
660.41	20.099
660.73	18.016
661.06	20.558
661.38	18.979
661.71	20.862
662.03	20.459
662.36	21.467
662.68	20.075
663.01	16.991
663.33	21.550
663.66	21.612
663.98	20.000
664.31	21.951
664.63	15.414
664.96	20.327
665.28	19.056
665.61	22.203
665.93	19.464
666.26	19.355
666.58	18.819
666.91	21.682
667.23	21.524
667.56	18.343
667.88	21.800
668.21	16.406
668.53	18.726
668.86	21.218
669.18	19.348
669.50	20.080
669.83	19.000
670.15	18.504
670.48	21.627
670.80	19.885
671.13	18.904
671.45	18.898
671.77	20.151
672.10	19.833
672.42	20.388
672.75	18.433
673.07	19.552
673.39	18.028
673.72	20.302
674.04	20.690
674.37	20.036
674.69	22.575
675.01	18.095
675.34	18.702
675.66	17.978
675.98	19.590
676.31	17.383
676.63	20.913
676.95	21.648
677.28	19.355
677.60	16.535
677.92	20.729
678.25	19.013
678.57	19.395
678.89	20.478
679.22	18.990
679.54	18.120
679.86	17.288
680.18	19.071
680.51	20.126
680.83	19.476
681.15	18.103
681.48	20.553
681.80	19.516
682.12	17.133
682.44	19.699
682.77	17.553
683.09	18.371
683.41	22.287
683.73	20.493
684.06	18.635
684.38	16.995
684.70	19.390
685.02	19.105
685.34	16.805
685.67	18.139
685.99	17.331
686.31	17.297
686.63	18.483
686.96	18.770
687.28	19.055
687.60	16.667
687.92	17.846
688.24	18.030
688.56	15.345
688.89	19.782
689.21	19.961
689.53	14.510
689.85	19.329
690.17	18.519
690.49	15.936
690.82	16.436
691.14	16.802
691.46	17.973
691.78	18.416
692.10	17.798
692.42	17.679
692.74	17.423
693.06	17.037
693.39	16.698
693.71	17.293
694.03	19.703
694.35	18.476
694.67	17.043
694.99	16.170
695.31	16.115
695.63	16.667
695.95	18.841
696.27	15.165
696.59	19.469
696.91	16.667
697.23	18.462
697.56	16.497
697.88	16.856
698.20	16.573
698.52	22.159
698.84	18.295
699.16	19.388
699.48	18.410
699.80	14.681
700.12	15.721
700.44	17.051
700.76	16.627
701.08	17.918
701.40	19.171
701.72	16.915
702.04	17.380
702.36	14.660
702.68	15.403
703.00	14.425
703.32	18.227
703.64	18.093
703.96	19.332
704.28	15.479
704.60	19.747
704.91	17.347
705.23	18.356
705.55	18.663
705.87	19.394
706.19	16.564
706.51	15.361
706.83	15.274
707.15	13.228
707.47	14.953
707.79	13.537
708.11	12.500
708.43	15.269
708.74	13.170
709.06	16.705
709.38	18.075
709.70	18.362
710.02	12.661
710.34	15.160
710.66	16.480
710.98	14.481
711.29	14.286
711.61	14.972
711.93	18.234
712.25	16.486
712.57	14.454
712.89	18.529
713.20	15.385
713.52	15.607
713.84	15.042
714.16	16.579
714.48	14.175
714.80	16.104
715.11	14.436
715.43	14.854
715.75	15.263
716.07	12.983
716.39	17.760
716.70	12.048
717.02	14.098
717.34	13.589
717.66	12.752
717.97	10.274
718.29	12.715
718.61	16.118
718.93	10.680
719.24	14.907
719.56	16.258
719.88	13.514
720.20	15.161
720.51	14.907
720.83	16.250
721.15	12.500
721.46	16.096
721.78	15.667
722.10	12.945
722.42	14.765
722.73	16.452
723.05	10.877
723.37	13.194
723.68	19.713
724.00	18.412
724.32	13.732
724.63	12.587
724.95	14.184
725.27	11.498
725.58	13.428
725.90	16.207
726.22	13.793
726.53	15.584
726.85	13.208
727.16	12.085
727.48	14.985
727.80	14.570
728.11	13.781
728.43	14.141
728.74	11.037
729.06	11.258
729.38	15.584
729.69	15.772
730.01	16.369
730.32	11.212
730.64	14.465
730.96	14.596
731.27	17.877
731.59	15.110
731.90	15.065
732.22	12.760
732.53	10.497
732.85	14.286
733.16	14.076
733.48	8.841
733.80	13.092
734.11	16.524
734.43	16.486
734.74	16.962
735.06	15.829
735.37	17.027
735.69	15.135
736.00	15.819
736.32	15.903
736.63	16.389
736.95	14.080
737.26	15.455
737.58	12.121
737.89	14.706
738.21	12.844
738.52	13.770
738.83	14.676
739.15	12.766
739.46	16.327
739.78	16.564
740.09	11.748
740.41	15.743
740.72	12.333
741.04	15.210
741.35	10.877
741.66	14.510
741.98	13.934
742.29	14.644
742.61	9.211
742.92	10.769
743.23	16.968
743.55	16.279
743.86	13.200
744.18	8.678
744.49	6.751
744.80	12.346
745.12	11.392
745.43	14.228
745.74	11.638
746.06	13.983
746.37	13.924
746.68	14.228
747.00	12.917
747.31	12.446
747.62	16.154
747.94	12.955
748.25	6.426
748.56	11.020
748.88	11.966
749.19	18.966
749.50	11.688
749.82	10.843
750.13	12.811
750.44	13.333
750.75	11.692
751.07	13.538
751.38	15.773
751.69	14.696
752.01	13.269
752.32	16.013
752.63	9.864
752.94	9.343
753.26	8.922
753.57	10.741
753.88	14.981
754.19	17.042
754.51	13.505
754.82	15.434
755.13	17.377
755.44	17.065
755.75	13.158
756.07	13.731
756.38	12.893
756.69	15.663
757.00	10.803
757.31	13.388
757.63	13.555
757.94	10.563
758.25	13.544
758.56	13.290
758.87	14.318
759.18	13.333
759.50	16.714
759.81	13.445
760.12	14.286
760.43	14.323
760.74	13.793
761.05	12.000
761.36	13.976
761.67	11.675
761.99	14.595
762.30	12.195
762.61	10.891
762.92	7.836
763.23	11.236
763.54	12.230
763.85	9.966
764.16	12.795
764.47	12.324
764.78	15.335
765.10	13.490
765.41	15.897
765.72	10.847
766.03	13.277
766.34	8.777
766.65	11.498
766.96	12.749
767.27	11.060
767.58	6.965
767.89	11.058
768.20	11.737
768.51	11.574
768.82	14.458
769.13	9.091
769.44	4.615
769.75	10.469
770.06	11.538
770.37	14.567
770.68	8.511
770.99	10.526
771.30	15.556
771.61	11.787
771.92	6.296
772.23	15.789
772.54	4.630
772.85	9.217
773.16	9.048
773.47	8.466
773.78	2.703
774.09	12.500
774.39	12.500
774.70	9.836
775.01	4.268
775.32	0.000
775.63	2.454
775.94	0.637
776.25	8.387
776.56	9.615
776.87	8.163
777.18	6.897
777.48	8.392
777.79	11.486
778.10	0.735
778.41	12.500
778.72	9.655
779.03	4.321
779.34	9.091
779.65	7.772
779.95	7.222
780.26	5.682
780.57	8.387
780.88	15.217
781.19	11.613
781.50	8.824
781.80	10.215
782.11	10.053
782.42	5.051
782.73	10.778
783.04	7.821
783.34	3.030
783.65	5.882
783.96	3.727
784.27	10.119
784.57	7.947
784.88	11.429
785.19	0.000
785.50	8.661
785.81	3.759
786.11	6.154
786.42	7.194
786.73	10.072
787.04	12.030
787.34	0.000
787.65	-6.400
787.96	3.731
788.26	13.986
788.57	15.385
788.88	8.553
789.19	18.301
789.49	10.959
789.80	7.801
790.11	11.811
790.41	6.250
790.72	11.864
791.03	-7.767
791.33	0.870
791.64	10.526
791.95	8.929
792.25	5.714
792.56	4.464
792.87	-7.292
793.17	0.000
793.48	-4.167
793.79	-7.229
794.09	2.752
794.40	4.587
794.70	7.483
795.01	1.299
795.32	6.164
795.62	6.338
795.93	5.303
796.23	7.377
796.54	1.786
796.85	-3.191
797.15	2.174
797.46	-2.740
797.76	3.750
798.07	3.261
798.37	-8.247
798.68	-7.792
798.99	3.448
799.29	-3.371
799.60	0.000
799.90	1.205
800.21	-9.231
800.51	-19.403
800.82	-16.176
801.12	-10.959
801.43	-25.000
801.73	-23.729
802.04	-10.606
802.34	-20.000
802.65	-16.949
802.95	-1.493
803.26	-8.475
803.56	-5.479
803.87	-4.286
804.17	6.849
804.48	-35.088
804.78	-9.722
805.09	-6.897
805.39	5.405
805.70	-18.310
806.00	2.439
806.30	1.205
806.61	-12.329
806.91	3.846
807.22	1.111
807.52	-14.943
807.83	5.556
808.13	8.434
808.43	5.618
808.74	3.750
809.04	-10.294
809.35	1.333
809.65	-1.429
809.95	-8.219
810.26	-24.561
810.56	5.172
810.86	-7.353
811.17	10.526
811.47	-13.115
811.77	-35.556
812.08	-20.339
812.38	3.333
812.69	8.621
812.99	-26.415
813.29	-58.974
813.59	-22.000
813.90	-7.018
814.20	-23.636
814.50	7.042
814.81	3.846
815.11	9.836
815.41	-5.970
815.72	6.897
816.02	-12.500
816.32	-2.222
816.62	-4.545
816.93	-22.222
817.23	0.000
817.53	-29.787
817.84	-9.524
818.14	-17.647
818.44	-24.490
818.74	-22.222
819.04	-46.154
819.35	-25.714
819.65	-50.000
819.95	-13.208
820.25	-24.444
820.56	-45.238
820.86	-40.625
821.16	-23.077
821.46	-27.907
821.76	-20.000
822.07	-12.500
822.37	-32.609
822.67	-31.915
822.97	-40.541
823.27	-35.000
823.57	-10.204
823.88	2.222
824.18	-7.500
824.48	-46.667
824.78	-16.000
825.08	-21.212
825.38	20.000
825.69	-4.255
825.99	-16.667
826.29	-60.000
826.59	-38.462
826.89	-20.930
827.19	-20.000
827.49	-17.647
827.79	-12.500
828.09	-27.027
828.39	-26.667
828.70	-21.951
829.00	-18.605
829.30	-32.143
829.60	-11.765
829.90	-6.522
830.20	-37.143
830.50	-37.931
830.80	-83.333
831.10	-57.692
831.40	-14.706
831.70	-14.286
832.00	-3.226
832.30	-205.882
832.60	-83.333
832.90	-115.385
833.20	-78.947
833.50	-80.000
833.80	-89.474
834.10	-100.000
834.40	-2.778
834.70	-28.125
835.00	-54.286
835.30	-35.294
835.60	-63.333
835.90	-36.000
836.20	-122.727
836.50	-20.000
836.80	-60.606
837.10	-59.259
837.40	-37.037
837.70	-125.000
838.00	-14.286
838.30	-26.087
838.60	-34.483
838.90	-85.714
839.19	-86.957
839.49	-125.000
839.79	-26.087
840.09	-143.750
840.39	-40.000
840.69	0.000
840.99	-28.571
841.29	-126.667
841.59	-52.632
841.88	5.128
842.18	-50.000
842.48	-180.000
842.78	-115.000
843.08	-16.667
843.38	-3.226
843.68	-155.556
843.97	-5.882
844.27	-75.000
844.57	-78.947
844.87	-190.000
845.17	-133.333
845.47	-38.095
845.76	-76.190
846.06	-133.333
846.36	-52.941
846.66	-53.846
846.96	-93.333
847.25	-88.235
847.55	-17.391
847.85	-55.000
848.15	-52.941
848.44	-227.273
848.74	-38.095
849.04	-66.667
849.34	-68.750
849.63	-52.174
849.93	1050.000
850.23	-113.333
850.53	-3.846
850.82	-63.636
851.12	-31.818
851.42	-45.455
851.71	-46.154
852.01	-45.000
852.31	-61.538
852.61	-57.895
852.90	-133.333
853.20	-72.222
853.50	-144.444
853.79	-47.619
854.09	-31.818
854.39	-158.333
854.68	-12.903
854.98	-15.385
855.28	-61.111
855.57	-78.571
855.87	-68.000
856.17	-45.455
856.46	-48.148
856.76	-66.667
857.05	-52.174
857.35	-54.167
857.65	-115.385
857.94	-9.524
858.24	-37.037
858.53	-21.739
858.83	-17.647
859.13	-105.882
859.42	-47.059
859.72	21.429
860.01	-60.000
860.31	-200.000
860.60	-170.000
860.90	-60.000
861.20	-83.333
861.49	-100.000
861.79	-46.667
862.08	-92.308
862.38	6.250
862.67	-11.765
862.97	-68.750
863.26	-144.444
863.56	-130.000
863.85	-136.364
864.15	-33.333
864.44	-633.333
864.74	-85.714
865.03	-93.750
865.33	-230.000
865.62	-38.710
865.92	-22.727
866.21	-69.565
866.51	-114.286
866.80	-400.000
867.10	-91.667
867.39	-133.333
867.69	2600.000
867.98	-114.286
868.27	-82.353
868.57	-2100.000
868.86	-240.000
869.16	-57.143
869.45	-41.667
869.75	-118.182
870.04	-271.429
870.33	-16.667
870.63	-157.143
870.92	-75.000
871.22	-275.000
871.51	-154.545
871.80	-466.667
872.10	-850.000
>>>>>End Processed Spectral Data<<<<<
