SpectraSuite Data File
++++++++++++++++++++++++++++++++++++
Date: Thu May 14 16:07:57 PDT 2015
User: schluterlab
Dark Spectrum Present: Yes
Reference Spectrum Present: Yes
Number of Sampled Component Spectra: 1
Spectrometers: USB2E3373
Integration Time (usec): 3000 (USB2E3373)
Spectra Averaged: 3 (USB2E3373)
Boxcar Smoothing: 0 (USB2E3373)
Correct for Electrical Dark: No (USB2E3373)
Strobe/Lamp Enabled: No (USB2E3373)
Correct for Detector Non-linearity: No (USB2E3373)
Correct for Stray Light: No (USB2E3373)
Number of Pixels in Processed Spectrum: 2048
>>>>>Begin Processed Spectral Data<<<<<
178.53	0.000
178.91	185.714
179.29	-1800.000
179.67	-2000.000
180.04	192.857
180.42	70.000
180.80	180.000
181.18	-1600.000
181.56	-1300.000
181.94	275.000
182.31	-200.000
182.69	366.667
183.07	-800.000
183.45	250.000
183.83	-66.667
184.20	-433.333
184.58	700.000
184.96	-375.000
185.34	-22.222
185.72	-220.000
186.09	388.889
186.47	1200.000
186.85	300.000
187.23	-188.889
187.61	-1500.000
187.98	320.000
188.36	400.000
188.74	-325.000
189.12	-300.000
189.49	-37.500
189.87	-150.000
190.25	-88.889
190.63	-80.000
191.00	-155.556
191.38	0.000
191.76	-625.000
192.14	-300.000
192.51	800.000
192.89	-200.000
193.27	0.000
193.65	-100.000
194.02	-2100.000
194.40	-171.429
194.78	271.429
195.15	0.000
195.53	-90.909
195.91	0.000
196.29	-225.000
196.66	-69.231
197.04	-1800.000
197.42	-114.286
197.79	-850.000
198.17	-187.500
198.55	-128.571
198.92	-77.778
199.30	-212.500
199.68	-81.818
200.05	-35.714
200.43	-1000.000
200.81	414.286
201.18	0.000
201.56	222.222
201.94	0.000
202.31	566.667
202.69	-122.222
203.07	900.000
203.44	-155.556
203.82	-300.000
204.19	-75.000
204.57	-150.000
204.95	-337.500
205.32	-1600.000
205.70	400.000
206.08	-100.000
206.45	-33.333
206.83	460.000
207.20	-200.000
207.58	-420.000
207.96	-316.667
208.33	-133.333
208.71	133.333
209.08	-100.000
209.46	0.000
209.84	366.667
210.21	1000.000
210.59	900.000
210.96	333.333
211.34	-375.000
211.71	-187.500
212.09	-1800.000
212.46	0.000
212.84	1000.000
213.22	-280.000
213.59	-50.000
213.97	-100.000
214.34	-400.000
214.72	250.000
215.09	-425.000
215.47	0.000
215.84	157.143
216.22	950.000
216.59	-280.000
216.97	-280.000
217.34	-325.000
217.72	-112.500
218.09	-425.000
218.47	-325.000
218.84	0.000
219.22	400.000
219.59	-88.235
219.97	-35.000
220.34	750.000
220.72	-122.222
221.09	-30.769
221.47	-500.000
221.84	-110.000
222.22	-100.000
222.59	0.000
222.97	-187.500
223.34	-260.000
223.72	-900.000
224.09	-200.000
224.46	-450.000
224.84	-320.000
225.21	-242.857
225.59	-325.000
225.96	-325.000
226.34	0.000
226.71	266.667
227.08	-450.000
227.46	-33.333
227.83	-225.000
228.21	-31.579
228.58	237.500
228.95	800.000
229.33	-91.667
229.70	-80.000
230.08	26.316
230.45	90.000
230.82	-100.000
231.20	-14.286
231.57	-66.667
231.95	-54.545
232.32	-72.727
232.69	-40.000
233.07	-25.000
233.44	-76.471
233.81	-80.000
234.19	11.111
234.56	-22.727
234.93	10.345
235.31	0.000
235.68	-5.556
236.05	-75.000
236.43	-30.769
236.80	28.000
237.17	-11.111
237.55	-15.152
237.92	-100.000
238.29	-25.806
238.67	11.364
239.04	-8.333
239.41	-2.381
239.79	4.348
240.16	1.852
240.53	-15.217
240.91	-13.725
241.28	0.000
241.65	20.896
242.02	14.865
242.40	-7.692
242.77	1.333
243.14	2.439
243.51	-5.263
243.89	3.846
244.26	13.861
244.63	8.824
245.00	16.822
245.38	7.018
245.75	3.540
246.12	6.349
246.49	15.504
246.87	17.857
247.24	15.232
247.61	13.158
247.98	10.738
248.36	12.963
248.73	17.178
249.10	16.393
249.47	21.891
249.84	22.513
250.22	15.544
250.59	19.444
250.96	21.818
251.33	14.286
251.70	17.521
252.08	19.167
252.45	17.213
252.82	16.116
253.19	16.406
253.56	21.293
253.94	17.692
254.31	17.803
254.68	23.427
255.05	23.453
255.42	18.367
255.79	19.094
256.16	21.192
256.54	16.556
256.91	22.623
257.28	20.000
257.65	19.427
258.02	16.224
258.39	19.658
258.76	25.994
259.14	19.828
259.51	19.597
259.88	19.263
260.25	21.389
260.62	22.192
260.99	25.683
261.36	22.252
261.73	20.690
262.10	20.330
262.47	22.520
262.85	22.222
263.22	22.338
263.59	18.421
263.96	20.972
264.33	18.670
264.70	23.704
265.07	21.957
265.44	24.717
265.81	20.139
266.18	22.676
266.55	22.321
266.92	22.779
267.29	21.882
267.66	23.725
268.03	22.707
268.40	21.503
268.77	19.818
269.14	22.247
269.51	22.149
269.88	24.590
270.25	23.541
270.62	22.152
270.99	24.444
271.36	21.188
271.73	23.576
272.10	22.846
272.47	21.242
272.84	19.880
273.21	23.447
273.58	21.169
273.95	18.462
274.32	21.293
274.69	21.857
275.06	21.062
275.43	20.148
275.80	22.751
276.17	19.444
276.54	21.082
276.91	21.825
277.28	19.892
277.65	19.749
278.02	20.221
278.39	21.920
278.76	19.684
279.13	22.340
279.50	21.478
279.87	22.004
280.23	18.486
280.60	22.034
280.97	20.888
281.34	21.562
281.71	23.519
282.08	21.262
282.45	19.313
282.82	21.350
283.19	18.417
283.56	22.131
283.92	22.523
284.29	22.591
284.66	22.167
285.03	20.994
285.40	21.329
285.77	20.588
286.14	20.763
286.51	21.309
286.87	20.221
287.24	19.428
287.61	19.731
287.98	21.299
288.35	19.675
288.72	19.970
289.08	20.937
289.45	19.822
289.82	19.428
290.19	19.253
290.56	20.563
290.93	18.260
291.29	18.044
291.66	19.284
292.03	18.725
292.40	19.184
292.77	17.251
293.13	17.050
293.50	17.608
293.87	19.195
294.24	20.133
294.60	17.826
294.97	16.644
295.34	17.414
295.71	17.024
296.08	16.021
296.44	18.627
296.81	17.783
297.18	16.563
297.55	16.156
297.91	14.828
298.28	16.114
298.65	16.647
299.02	15.821
299.38	17.620
299.75	15.304
300.12	16.088
300.48	16.475
300.85	17.323
301.22	16.667
301.59	16.324
301.95	15.706
302.32	17.111
302.69	15.225
303.05	15.669
303.42	17.073
303.79	16.875
304.15	16.509
304.52	14.799
304.89	15.079
305.25	15.735
305.62	16.301
305.99	16.495
306.35	16.532
306.72	16.649
307.09	15.736
307.45	16.977
307.82	15.338
308.19	14.531
308.55	16.586
308.92	16.748
309.29	16.667
309.65	16.472
310.02	15.446
310.38	15.551
310.75	17.087
311.12	16.779
311.48	16.422
311.85	16.714
312.22	16.509
312.58	17.089
312.95	15.296
313.31	16.079
313.68	16.667
314.05	17.615
314.41	18.215
314.78	17.166
315.14	17.514
315.51	17.913
315.87	18.182
316.24	16.895
316.61	18.561
316.97	18.552
317.34	18.166
317.70	19.738
318.07	19.577
318.43	19.898
318.80	20.903
319.16	19.313
319.53	18.852
319.89	19.982
320.26	19.662
320.62	19.770
320.99	21.237
321.35	21.072
321.72	21.953
322.08	22.543
322.45	21.229
322.81	22.563
323.18	21.327
323.54	21.983
323.91	22.954
324.27	22.719
324.64	23.594
325.00	22.886
325.37	23.423
325.73	24.050
326.10	24.006
326.46	24.674
326.83	25.140
327.19	24.882
327.56	24.822
327.92	24.469
328.29	24.113
328.65	24.874
329.01	24.365
329.38	25.021
329.74	25.000
330.11	25.771
330.47	24.853
330.84	24.720
331.20	26.000
331.56	24.957
331.93	25.439
332.29	25.847
332.66	25.664
333.02	25.544
333.38	25.000
333.75	25.926
334.11	24.854
334.48	25.990
334.84	26.593
335.20	25.945
335.57	25.548
335.93	25.455
336.29	25.042
336.66	25.820
337.02	24.916
337.38	25.850
337.75	24.876
338.11	24.895
338.47	25.972
338.84	26.311
339.20	24.768
339.56	25.371
339.93	25.616
340.29	24.638
340.65	24.655
341.02	24.421
341.38	25.707
341.74	24.859
342.11	25.744
342.47	24.146
342.83	25.443
343.20	26.165
343.56	25.742
343.92	24.500
344.28	26.172
344.65	25.039
345.01	25.351
345.37	26.283
345.73	24.942
346.10	25.195
346.46	24.367
346.82	24.794
347.19	25.210
347.55	24.734
347.91	24.963
348.27	24.507
348.63	24.448
349.00	24.683
349.36	24.089
349.72	24.926
350.08	24.740
350.45	24.943
350.81	24.284
351.17	24.436
351.53	24.564
351.89	25.437
352.26	24.851
352.62	23.955
352.98	24.275
353.34	24.272
353.70	23.652
354.07	24.814
354.43	24.222
354.79	24.308
355.15	24.945
355.51	24.927
355.87	24.458
356.24	25.095
356.60	23.651
356.96	24.240
357.32	24.089
357.68	25.183
358.04	23.877
358.40	24.552
358.77	23.611
359.13	23.855
359.49	22.974
359.85	24.365
360.21	24.462
360.57	24.121
360.93	23.413
361.29	24.281
361.66	24.185
362.02	24.426
362.38	23.331
362.74	23.813
363.10	24.072
363.46	24.515
363.82	24.574
364.18	23.997
364.54	24.136
364.90	24.950
365.26	24.345
365.62	23.667
365.98	24.302
366.35	24.564
366.71	24.218
367.07	23.816
367.43	23.769
367.79	24.552
368.15	23.946
368.51	24.628
368.87	24.037
369.23	24.333
369.59	24.932
369.95	24.544
370.31	24.983
370.67	24.140
371.03	24.792
371.39	23.909
371.75	24.278
372.11	23.645
372.47	23.290
372.83	23.887
373.19	24.216
373.55	24.119
373.91	24.267
374.27	24.127
374.63	24.019
374.99	23.210
375.35	25.974
375.71	24.323
376.07	23.822
376.42	24.307
376.78	24.177
377.14	24.017
377.50	24.478
377.86	24.200
378.22	24.850
378.58	24.078
378.94	23.650
379.30	24.077
379.66	24.103
380.02	24.351
380.38	25.518
380.74	24.282
381.09	24.681
381.45	24.034
381.81	25.176
382.17	24.466
382.53	24.094
382.89	23.758
383.25	24.736
383.61	23.264
383.97	24.323
384.32	24.342
384.68	24.478
385.04	24.928
385.40	24.160
385.76	24.795
386.12	24.835
386.48	24.294
386.83	24.613
387.19	23.696
387.55	24.531
387.91	23.744
388.27	25.346
388.62	24.112
388.98	24.196
389.34	24.808
389.70	25.044
390.06	24.512
390.42	24.759
390.77	24.744
391.13	23.768
391.49	24.336
391.85	24.303
392.20	24.259
392.56	24.808
392.92	24.264
393.28	25.097
393.64	23.855
393.99	24.869
394.35	25.409
394.71	24.731
395.07	24.072
395.42	23.587
395.78	25.107
396.14	24.896
396.50	25.119
396.85	25.343
397.21	23.669
397.57	24.264
397.92	24.742
398.28	23.737
398.64	23.913
399.00	23.141
399.35	24.607
399.71	24.402
400.07	24.537
400.42	23.632
400.78	23.611
401.14	24.417
401.49	25.014
401.85	25.233
402.21	24.565
402.57	24.883
402.92	24.350
403.28	23.653
403.63	23.866
403.99	24.050
404.35	24.105
404.70	24.646
405.06	23.913
405.42	24.239
405.77	24.809
406.13	24.203
406.49	23.986
406.84	23.601
407.20	24.707
407.55	24.531
407.91	25.267
408.27	23.969
408.62	24.084
408.98	24.086
409.34	24.223
409.69	23.918
410.05	24.971
410.40	24.536
410.76	24.341
411.11	24.781
411.47	24.631
411.83	24.574
412.18	24.639
412.54	23.177
412.89	24.447
413.25	23.702
413.60	24.067
413.96	24.242
414.31	23.853
414.67	24.329
415.03	24.000
415.38	24.527
415.74	23.824
416.09	25.601
416.45	23.544
416.80	24.235
417.16	23.691
417.51	24.346
417.87	24.280
418.22	23.772
418.58	23.916
418.93	25.437
419.29	24.353
419.64	23.950
420.00	24.154
420.35	24.031
420.71	23.607
421.06	23.634
421.42	24.828
421.77	23.263
422.12	23.732
422.48	24.270
422.83	23.932
423.19	23.926
423.54	24.447
423.90	23.744
424.25	23.360
424.61	23.479
424.96	23.394
425.31	23.408
425.67	23.403
426.02	23.243
426.38	23.651
426.73	23.884
427.09	25.202
427.44	23.484
427.79	23.438
428.15	23.516
428.50	23.933
428.85	23.479
429.21	24.787
429.56	23.396
429.92	24.177
430.27	24.337
430.62	24.084
430.98	24.594
431.33	23.460
431.68	23.228
432.04	23.972
432.39	23.514
432.74	24.144
433.10	24.121
433.45	23.467
433.80	23.444
434.16	24.225
434.51	24.974
434.86	24.647
435.22	24.336
435.57	24.410
435.92	24.040
436.28	23.720
436.63	24.249
436.98	23.779
437.34	24.239
437.69	23.335
438.04	23.585
438.39	25.043
438.75	24.128
439.10	24.419
439.45	23.924
439.81	23.503
440.16	23.485
440.51	23.690
440.86	24.180
441.22	23.848
441.57	24.266
441.92	24.054
442.27	23.990
442.63	22.752
442.98	22.946
443.33	23.882
443.68	24.480
444.03	24.224
444.39	23.948
444.74	24.400
445.09	24.024
445.44	25.342
445.79	23.898
446.15	23.741
446.50	23.152
446.85	24.222
447.20	24.081
447.55	23.745
447.91	23.508
448.26	22.886
448.61	24.495
448.96	25.107
449.31	24.284
449.66	24.292
450.02	23.734
450.37	23.815
450.72	24.327
451.07	23.690
451.42	24.263
451.77	23.457
452.12	24.436
452.47	22.816
452.83	24.662
453.18	23.876
453.53	24.124
453.88	23.192
454.23	24.237
454.58	24.376
454.93	23.847
455.28	24.142
455.63	23.366
455.98	24.302
456.34	24.558
456.69	23.868
457.04	24.113
457.39	23.836
457.74	24.329
458.09	24.053
458.44	24.030
458.79	23.672
459.14	23.755
459.49	24.278
459.84	24.029
460.19	24.209
460.54	24.475
460.89	24.457
461.24	23.678
461.59	24.460
461.94	23.217
462.29	24.636
462.64	23.718
462.99	23.540
463.34	24.335
463.69	24.560
464.04	24.013
464.39	23.711
464.74	23.717
465.09	23.183
465.44	23.820
465.79	23.903
466.14	23.606
466.49	23.842
466.84	23.636
467.19	24.220
467.54	22.973
467.89	23.448
468.24	23.712
468.59	22.872
468.94	23.485
469.29	22.855
469.64	23.204
469.99	23.964
470.34	23.453
470.68	23.718
471.03	23.969
471.38	23.610
471.73	23.797
472.08	23.921
472.43	22.517
472.78	23.615
473.13	24.336
473.48	24.894
473.83	23.506
474.17	23.681
474.52	23.151
474.87	23.200
475.22	23.831
475.57	24.247
475.92	23.196
476.27	23.855
476.61	23.572
476.96	22.680
477.31	24.010
477.66	24.029
478.01	23.233
478.36	22.832
478.70	23.695
479.05	24.489
479.40	23.100
479.75	23.775
480.10	22.880
480.45	24.157
480.79	23.265
481.14	23.437
481.49	22.990
481.84	23.890
482.19	23.398
482.53	23.962
482.88	23.615
483.23	23.922
483.58	23.231
483.92	23.404
484.27	23.709
484.62	23.102
484.97	23.639
485.31	22.985
485.66	22.225
486.01	21.939
486.36	22.838
486.70	23.282
487.05	22.920
487.40	22.638
487.75	23.028
488.09	22.063
488.44	22.102
488.79	22.698
489.13	22.339
489.48	22.796
489.83	22.777
490.17	22.965
490.52	23.071
490.87	23.350
491.22	23.700
491.56	23.208
491.91	23.724
492.26	23.540
492.60	22.650
492.95	22.993
493.30	23.935
493.64	22.908
493.99	23.289
494.34	22.692
494.68	22.484
495.03	23.084
495.37	22.459
495.72	23.537
496.07	23.138
496.41	22.823
496.76	23.520
497.11	23.652
497.45	23.392
497.80	23.412
498.14	23.719
498.49	23.529
498.84	23.309
499.18	23.482
499.53	24.170
499.87	23.736
500.22	22.796
500.56	23.167
500.91	23.661
501.26	23.773
501.60	23.288
501.95	23.404
502.29	24.046
502.64	23.393
502.98	23.512
503.33	22.721
503.67	22.939
504.02	23.380
504.36	23.414
504.71	22.738
505.06	22.465
505.40	22.989
505.75	23.087
506.09	23.389
506.44	23.491
506.78	23.165
507.13	22.591
507.47	23.733
507.82	22.964
508.16	22.897
508.51	23.254
508.85	23.855
509.19	23.401
509.54	24.015
509.88	23.555
510.23	23.555
510.57	24.553
510.92	23.319
511.26	22.896
511.61	23.032
511.95	23.084
512.30	23.437
512.64	23.288
512.98	22.861
513.33	23.589
513.67	23.304
514.02	23.403
514.36	23.734
514.70	23.021
515.05	23.514
515.39	23.307
515.74	24.125
516.08	23.772
516.42	23.391
516.77	23.186
517.11	23.259
517.46	22.959
517.80	23.838
518.14	24.592
518.49	24.349
518.83	24.534
519.17	23.479
519.52	24.004
519.86	23.970
520.20	23.110
520.55	23.658
520.89	23.649
521.23	23.841
521.58	24.237
521.92	23.966
522.26	23.597
522.61	24.306
522.95	24.164
523.29	23.506
523.64	23.487
523.98	23.845
524.32	25.272
524.66	23.620
525.01	23.783
525.35	23.894
525.69	23.260
526.04	24.225
526.38	24.828
526.72	23.760
527.06	24.927
527.41	23.907
527.75	25.000
528.09	24.557
528.43	24.393
528.78	23.699
529.12	23.567
529.46	23.721
529.80	24.085
530.15	24.116
530.49	24.081
530.83	24.321
531.17	24.253
531.51	24.188
531.86	24.940
532.20	24.756
532.54	23.878
532.88	24.606
533.22	24.101
533.57	24.409
533.91	24.523
534.25	24.760
534.59	24.885
534.93	24.052
535.27	24.282
535.62	24.332
535.96	24.404
536.30	24.266
536.64	24.384
536.98	24.662
537.32	24.321
537.66	25.452
538.01	24.471
538.35	24.726
538.69	24.519
539.03	25.383
539.37	24.558
539.71	24.805
540.05	25.000
540.39	23.900
540.73	24.044
541.07	25.383
541.42	24.572
541.76	24.140
542.10	25.090
542.44	23.021
542.78	25.122
543.12	24.553
543.46	24.420
543.80	23.261
544.14	24.237
544.48	24.941
544.82	24.476
545.16	24.925
545.50	24.925
545.84	24.189
546.18	25.123
546.52	24.777
546.86	24.025
547.20	24.555
547.54	24.532
547.88	24.593
548.22	24.327
548.56	24.166
548.90	24.179
549.24	24.985
549.58	25.110
549.92	24.681
550.26	25.178
550.60	24.186
550.94	25.291
551.28	24.290
551.62	25.943
551.96	24.207
552.30	23.964
552.64	25.264
552.98	24.891
553.32	25.273
553.66	24.823
554.00	25.536
554.34	24.260
554.68	24.145
555.02	24.179
555.36	26.233
555.69	24.728
556.03	24.086
556.37	24.656
556.71	24.604
557.05	24.665
557.39	24.685
557.73	24.373
558.07	25.497
558.41	26.312
558.75	25.287
559.08	26.305
559.42	24.829
559.76	25.441
560.10	25.586
560.44	25.726
560.78	25.562
561.12	24.877
561.45	25.122
561.79	24.481
562.13	24.892
562.47	24.353
562.81	25.316
563.15	25.316
563.48	25.544
563.82	25.453
564.16	24.107
564.50	24.553
564.84	24.661
565.17	24.824
565.51	24.684
565.85	25.178
566.19	24.885
566.52	24.225
566.86	24.788
567.20	23.763
567.54	24.429
567.88	24.720
568.21	24.852
568.55	25.036
568.89	25.057
569.23	24.926
569.56	24.814
569.90	24.840
570.24	24.115
570.57	23.990
570.91	23.546
571.25	23.865
571.59	24.158
571.92	23.801
572.26	23.690
572.60	23.778
572.93	23.601
573.27	23.630
573.61	23.346
573.95	23.258
574.28	23.499
574.62	23.261
574.96	22.783
575.29	22.913
575.63	23.192
575.97	23.401
576.30	23.094
576.64	22.930
576.98	23.030
577.31	23.281
577.65	23.463
577.98	23.513
578.32	23.074
578.66	23.031
578.99	22.957
579.33	22.832
579.67	23.119
580.00	22.567
580.34	23.146
580.67	22.529
581.01	23.064
581.35	23.086
581.68	23.177
582.02	23.111
582.35	23.709
582.69	23.298
583.02	23.229
583.36	22.797
583.70	22.972
584.03	22.654
584.37	22.661
584.70	22.543
585.04	22.506
585.37	23.067
585.71	22.999
586.04	23.096
586.38	23.259
586.72	23.038
587.05	22.998
587.39	23.111
587.72	23.254
588.06	23.308
588.39	23.152
588.73	22.751
589.06	23.025
589.40	22.926
589.73	23.072
590.07	23.408
590.40	23.293
590.73	22.941
591.07	22.934
591.40	23.561
591.74	23.172
592.07	24.888
592.41	23.107
592.74	22.968
593.08	24.140
593.41	23.914
593.75	23.879
594.08	23.659
594.41	23.397
594.75	23.082
595.08	22.779
595.42	23.117
595.75	23.313
596.09	23.450
596.42	23.755
596.75	23.466
597.09	24.040
597.42	23.639
597.75	23.285
598.09	23.651
598.42	23.241
598.76	22.851
599.09	23.425
599.42	23.366
599.76	23.704
600.09	23.156
600.42	23.190
600.76	23.778
601.09	23.199
601.42	23.103
601.76	23.207
602.09	22.981
602.42	23.192
602.76	23.690
603.09	23.458
603.42	23.266
603.76	23.221
604.09	23.989
604.42	23.486
604.76	23.174
605.09	23.335
605.42	24.043
605.75	22.269
606.09	23.554
606.42	22.875
606.75	22.789
607.09	23.003
607.42	23.276
607.75	23.447
608.08	23.165
608.42	23.096
608.75	23.466
609.08	23.090
609.41	23.379
609.75	23.259
610.08	24.230
610.41	23.237
610.74	23.487
611.07	23.579
611.41	24.126
611.74	24.527
612.07	23.843
612.40	24.097
612.73	23.863
613.07	23.521
613.40	23.821
613.73	23.784
614.06	23.896
614.39	22.886
614.72	23.823
615.06	23.292
615.39	23.780
615.72	23.318
616.05	23.895
616.38	23.915
616.71	24.033
617.05	23.269
617.38	24.398
617.71	23.704
618.04	24.339
618.37	24.645
618.70	24.265
619.03	23.357
619.36	23.798
619.69	24.279
620.03	23.917
620.36	23.620
620.69	23.874
621.02	23.819
621.35	24.311
621.68	25.524
622.01	24.626
622.34	24.128
622.67	23.986
623.00	22.470
623.33	24.287
623.66	24.449
623.99	24.556
624.32	24.886
624.65	23.423
624.99	23.862
625.32	24.690
625.65	25.624
625.98	23.593
626.31	24.309
626.64	26.007
626.97	23.031
627.30	24.450
627.63	24.456
627.96	25.150
628.29	24.747
628.62	23.846
628.95	23.926
629.28	24.044
629.61	24.579
629.94	24.268
630.26	24.068
630.59	25.302
630.92	23.810
631.25	25.492
631.58	25.518
631.91	23.993
632.24	24.784
632.57	24.953
632.90	24.473
633.23	26.939
633.56	23.776
633.89	24.690
634.22	25.884
634.55	26.305
634.88	24.459
635.20	26.157
635.53	24.859
635.86	25.244
636.19	25.769
636.52	24.473
636.85	25.230
637.18	25.884
637.51	25.806
637.83	25.914
638.16	26.728
638.49	25.939
638.82	25.254
639.15	25.430
639.48	26.790
639.81	25.173
640.13	25.206
640.46	24.606
640.79	22.059
641.12	25.714
641.45	23.714
641.77	25.289
642.10	24.278
642.43	26.330
642.76	24.797
643.09	25.616
643.41	26.050
643.74	24.828
644.07	26.345
644.40	24.328
644.73	25.689
645.05	23.789
645.38	24.460
645.71	24.927
646.04	25.825
646.36	23.066
646.69	26.074
647.02	25.535
647.35	24.427
647.67	25.121
648.00	24.841
648.33	25.526
648.66	24.108
648.98	23.946
649.31	24.628
649.64	25.896
649.96	22.546
650.29	22.949
650.62	23.338
650.94	24.775
651.27	22.605
651.60	23.977
651.92	24.316
652.25	25.181
652.58	23.246
652.90	23.110
653.23	25.775
653.56	24.251
653.88	26.124
654.21	26.197
654.54	23.555
654.86	23.938
655.19	21.330
655.52	24.581
655.84	23.825
656.17	28.060
656.49	38.486
656.82	40.706
657.15	29.808
657.47	21.805
657.80	15.547
658.13	11.763
658.45	15.076
658.78	18.031
659.10	17.799
659.43	17.714
659.75	18.443
660.08	17.647
660.41	19.768
660.73	18.472
661.06	20.705
661.38	22.010
661.71	22.586
662.03	23.633
662.36	24.508
662.68	23.827
663.01	22.655
663.33	25.709
663.66	26.190
663.98	24.423
664.31	26.079
664.63	24.470
664.96	25.953
665.28	23.956
665.61	24.825
665.93	22.321
666.26	24.014
666.58	23.801
666.91	25.981
667.23	23.810
667.56	24.852
667.88	24.400
668.21	22.461
668.53	22.780
668.86	25.147
669.18	25.255
669.50	26.839
669.83	22.400
670.15	23.425
670.48	24.206
670.80	23.518
671.13	21.928
671.45	24.803
671.77	25.235
672.10	21.667
672.42	23.301
672.75	22.888
673.07	21.791
673.39	22.342
673.72	24.161
674.04	22.931
674.37	23.971
674.69	24.868
675.01	21.143
675.34	22.901
675.66	25.281
675.98	24.440
676.31	24.023
676.63	24.525
676.95	24.330
677.28	25.202
677.60	20.866
677.92	23.417
678.25	25.229
678.57	24.199
678.89	25.768
679.22	23.171
679.54	22.564
679.86	20.169
680.18	22.720
680.51	23.742
680.83	23.077
681.15	22.586
681.48	22.971
681.80	23.489
682.12	22.727
682.44	22.538
682.77	22.872
683.09	24.242
683.41	25.775
683.73	22.770
684.06	25.830
684.38	23.077
684.70	25.135
685.02	24.441
685.34	23.295
685.67	22.082
685.99	21.779
686.31	21.657
686.63	20.221
686.96	23.028
687.28	21.498
687.60	20.370
687.92	23.633
688.24	23.038
688.56	20.862
688.89	21.053
689.21	24.462
689.53	22.941
689.85	22.288
690.17	21.481
690.49	22.112
690.82	23.960
691.14	21.862
691.46	22.180
691.78	23.941
692.10	23.119
692.42	21.429
692.74	21.234
693.06	20.000
693.39	21.252
693.71	20.677
694.03	25.093
694.35	23.048
694.67	20.945
694.99	24.255
695.31	23.841
695.63	23.810
695.95	22.360
696.27	21.099
696.59	22.788
696.91	24.099
697.23	21.319
697.56	21.589
697.88	23.295
698.20	22.222
698.52	23.864
698.84	22.453
699.16	23.878
699.48	21.548
699.80	21.915
700.12	22.707
700.44	22.120
700.76	24.466
701.08	22.760
701.40	23.834
701.72	20.896
702.04	25.401
702.36	23.560
702.68	22.983
703.00	20.782
703.32	24.138
703.64	22.983
703.96	23.866
704.28	20.639
704.60	21.013
704.91	18.622
705.23	21.644
705.55	20.891
705.87	25.455
706.19	26.380
706.51	20.181
706.83	22.190
707.15	16.931
707.47	18.692
707.79	23.144
708.11	19.280
708.43	18.065
708.74	19.866
709.06	18.794
709.38	22.770
709.70	23.325
710.02	19.638
710.34	22.340
710.66	21.508
710.98	18.306
711.29	17.582
711.61	23.729
711.93	23.077
712.25	19.459
712.57	22.124
712.89	24.118
713.20	20.414
713.52	23.121
713.84	21.448
714.16	25.526
714.48	21.134
714.80	23.636
715.11	19.160
715.43	16.711
715.75	24.211
716.07	20.442
716.39	19.672
716.70	19.880
717.02	20.328
717.34	22.997
717.66	23.490
717.97	21.918
718.29	20.619
718.61	20.066
718.93	21.036
719.24	23.602
719.56	23.006
719.88	23.423
720.20	21.935
720.51	20.497
720.83	19.688
721.15	18.421
721.46	18.151
721.78	16.000
722.10	15.210
722.42	20.805
722.73	16.452
723.05	20.351
723.37	19.097
723.68	20.072
724.00	18.051
724.32	17.958
724.63	17.483
724.95	19.858
725.27	17.073
725.58	15.901
725.90	21.724
726.22	16.614
726.53	16.883
726.85	22.642
727.16	21.752
727.48	18.960
727.80	20.199
728.11	15.194
728.43	23.232
728.74	16.388
729.06	18.543
729.38	21.429
729.69	20.134
730.01	17.857
730.32	16.970
730.64	18.239
730.96	18.012
731.27	20.670
731.59	19.780
731.90	16.883
732.22	17.708
732.53	16.851
732.85	18.000
733.16	18.182
733.48	17.683
733.80	18.384
734.11	18.234
734.43	18.108
734.74	21.772
735.06	18.593
735.37	18.919
735.69	20.270
736.00	20.339
736.32	18.059
736.63	20.278
736.95	19.253
737.26	18.788
737.58	17.273
737.89	16.765
738.21	17.431
738.52	15.410
738.83	21.502
739.15	17.021
739.46	18.367
739.78	19.632
740.09	14.327
740.41	18.076
740.72	19.333
741.04	18.770
741.35	18.596
741.66	16.471
741.98	22.951
742.29	19.247
742.61	18.421
742.92	22.692
743.23	22.022
743.55	17.054
743.86	14.400
744.18	14.876
744.49	18.565
744.80	23.868
745.12	20.253
745.43	18.293
745.74	15.948
746.06	19.492
746.37	18.143
746.68	26.423
747.00	16.250
747.31	16.309
747.62	18.846
747.94	12.146
748.25	17.269
748.56	19.184
748.88	17.949
749.19	22.414
749.50	21.212
749.82	18.072
750.13	22.420
750.44	15.667
750.75	16.308
751.07	18.154
751.38	18.927
751.69	17.572
752.01	18.123
752.32	14.379
752.63	20.748
752.94	18.339
753.26	11.152
753.57	22.593
753.88	17.603
754.19	19.614
754.51	17.363
754.82	19.936
755.13	20.984
755.44	16.382
755.75	19.737
756.07	19.701
756.38	16.667
756.69	18.675
757.00	16.620
757.31	17.213
757.63	14.066
757.94	15.023
758.25	19.187
758.56	17.429
758.87	17.500
759.18	15.467
759.50	18.697
759.81	19.048
760.12	17.520
760.43	14.844
760.74	17.241
761.05	15.500
761.36	17.349
761.67	17.259
761.99	19.459
762.30	17.073
762.61	11.221
762.92	20.149
763.23	16.105
763.54	17.986
763.85	15.808
764.16	15.488
764.47	16.549
764.78	19.808
765.10	13.783
765.41	21.282
765.72	18.254
766.03	17.797
766.34	15.361
766.65	12.892
766.96	16.335
767.27	21.659
767.58	12.438
767.89	19.712
768.20	12.676
768.51	14.352
768.82	22.088
769.13	19.697
769.44	12.308
769.75	18.412
770.06	16.154
770.37	21.260
770.68	16.596
770.99	11.336
771.30	21.852
771.61	18.251
771.92	12.963
772.23	20.243
772.54	12.500
772.85	19.816
773.16	19.524
773.47	11.111
773.78	7.027
774.09	13.068
774.39	19.500
774.70	18.579
775.01	13.415
775.32	4.706
775.63	10.429
775.94	10.191
776.25	14.194
776.56	18.590
776.87	20.408
777.18	12.414
777.48	18.182
777.79	13.514
778.10	13.235
778.41	7.639
778.72	17.241
779.03	17.901
779.34	18.182
779.65	13.990
779.95	17.778
780.26	19.318
780.57	14.839
780.88	12.319
781.19	21.290
781.50	23.529
781.80	16.129
782.11	17.989
782.42	7.576
782.73	12.575
783.04	16.201
783.34	7.879
783.65	12.418
783.96	13.665
784.27	12.500
784.57	11.921
784.88	15.000
785.19	18.110
785.50	11.024
785.81	15.038
786.11	13.077
786.42	13.669
786.73	15.827
787.04	15.789
787.34	9.016
787.65	14.400
787.96	17.164
788.26	14.685
788.57	14.685
788.88	18.421
789.19	16.993
789.49	10.959
789.80	12.766
790.11	10.236
790.41	7.813
790.72	5.085
791.03	5.825
791.33	13.913
791.64	8.772
791.95	2.679
792.25	14.286
792.56	5.357
792.87	1.042
793.17	11.607
793.48	11.458
793.79	2.410
794.09	9.174
794.40	1.835
794.70	7.483
795.01	12.338
795.32	12.329
795.62	11.268
795.93	21.212
796.23	17.213
796.54	6.250
796.85	1.064
797.15	7.609
797.46	1.370
797.76	2.500
798.07	11.957
798.37	5.155
798.68	-3.896
798.99	14.943
799.29	7.865
799.60	2.128
799.90	-6.024
800.21	0.000
800.51	7.463
800.82	-7.353
801.12	-10.959
801.43	-5.882
801.73	0.000
802.04	-4.545
802.34	-10.000
802.65	-6.780
802.95	7.463
803.26	-5.085
803.56	5.479
803.87	8.571
804.17	5.479
804.48	-3.509
804.78	1.389
805.09	-5.172
805.39	5.405
805.70	-11.268
806.00	1.220
806.30	1.205
806.61	9.589
806.91	11.538
807.22	12.222
807.52	-5.747
807.83	4.167
808.13	6.024
808.43	2.247
808.74	-7.500
809.04	0.000
809.35	21.333
809.65	-1.429
809.95	4.110
810.26	-10.526
810.56	-3.448
810.86	11.765
811.17	17.544
811.47	-9.836
811.77	-24.444
812.08	-10.169
812.38	11.667
812.69	0.000
812.99	-18.868
813.29	-30.769
813.59	-10.000
813.90	-1.754
814.20	0.000
814.50	1.408
814.81	6.410
815.11	11.475
815.41	-8.955
815.72	0.000
816.02	-16.071
816.32	-11.111
816.62	4.545
816.93	-24.444
817.23	0.000
817.53	-17.021
817.84	2.381
818.14	0.000
818.44	0.000
818.74	-4.444
819.04	-48.718
819.35	-68.571
819.65	-34.615
819.95	0.000
820.25	-11.111
820.56	-26.190
820.86	-31.250
821.16	-2.564
821.46	-18.605
821.76	-30.000
822.07	-1.786
822.37	-21.739
822.67	14.894
822.97	-27.027
823.27	-7.500
823.57	4.082
823.88	0.000
824.18	-10.000
824.48	-36.667
824.78	-36.000
825.08	3.030
825.38	0.000
825.69	-29.787
825.99	8.333
826.29	-40.000
826.59	-35.897
826.89	-16.279
827.19	0.000
827.49	-2.941
827.79	6.250
828.09	-18.919
828.39	-40.000
828.70	4.878
829.00	-9.302
829.30	-25.000
829.60	-11.765
829.90	2.174
830.20	-20.000
830.50	-37.931
830.80	-38.889
831.10	-42.308
831.40	-20.588
831.70	-4.762
832.00	-16.129
832.30	-147.059
832.60	-41.667
832.90	-138.462
833.20	-42.105
833.50	-80.000
833.80	-78.947
834.10	-100.000
834.40	-25.000
834.70	-6.250
835.00	-37.143
835.30	0.000
835.60	-30.000
835.90	-28.000
836.20	-86.364
836.50	-12.000
836.80	-60.606
837.10	-70.370
837.40	-40.741
837.70	-106.250
838.00	-50.000
838.30	-56.522
838.60	-10.345
838.90	-50.000
839.19	-60.870
839.49	-166.667
839.79	-69.565
840.09	-68.750
840.39	-25.000
840.69	-16.129
840.99	-60.714
841.29	-53.333
841.59	-84.211
841.88	-23.077
842.18	-69.231
842.48	-70.000
842.78	-10.000
843.08	-6.667
843.38	0.000
843.68	-55.556
843.97	-17.647
844.27	-37.500
844.57	-21.053
844.87	-170.000
845.17	-120.000
845.47	-4.762
845.76	-47.619
846.06	-133.333
846.36	-82.353
846.66	-65.385
846.96	-86.667
847.25	-70.588
847.55	-13.043
847.85	-50.000
848.15	-5.882
848.44	-109.091
848.74	-76.190
849.04	-45.833
849.34	-43.750
849.63	0.000
849.93	1250.000
850.23	-100.000
850.53	7.692
850.82	-54.545
851.12	-9.091
851.42	-72.727
851.71	-61.538
852.01	-90.000
852.31	-61.538
852.61	5.263
852.90	-25.000
853.20	-61.111
853.50	-155.556
853.79	-9.524
854.09	-72.727
854.39	-166.667
854.68	-19.355
854.98	-42.308
855.28	-55.556
855.57	-21.429
855.87	-28.000
856.17	-45.455
856.46	-14.815
856.76	-66.667
857.05	-65.217
857.35	-62.500
857.65	-123.077
857.94	-14.286
858.24	-14.815
858.53	0.000
858.83	-29.412
859.13	-41.176
859.42	-70.588
859.72	-35.714
860.01	-50.000
860.31	-77.778
860.60	-140.000
860.90	-66.667
861.20	-44.444
861.49	-69.231
861.79	-13.333
862.08	-84.615
862.38	-6.250
862.67	-52.941
862.97	-56.250
863.26	-288.889
863.56	-120.000
863.85	-100.000
864.15	-27.778
864.44	-300.000
864.74	-42.857
865.03	-87.500
865.33	-200.000
865.62	-35.484
865.92	-22.727
866.21	4.348
866.51	-100.000
866.80	-340.000
867.10	-116.667
867.39	-166.667
867.69	1900.000
867.98	-85.714
868.27	-41.176
868.57	-2700.000
868.86	-70.000
869.16	-52.381
869.45	-66.667
869.75	-145.455
870.04	-285.714
870.33	-16.667
870.63	-242.857
870.92	-125.000
871.22	-312.500
871.51	-145.455
871.80	-800.000
872.10	-700.000
>>>>>End Processed Spectral Data<<<<<
