SpectraSuite Data File
++++++++++++++++++++++++++++++++++++
Date: Thu May 14 16:12:00 PDT 2015
User: schluterlab
Dark Spectrum Present: Yes
Reference Spectrum Present: Yes
Number of Sampled Component Spectra: 1
Spectrometers: USB2E3373
Integration Time (usec): 3000 (USB2E3373)
Spectra Averaged: 3 (USB2E3373)
Boxcar Smoothing: 0 (USB2E3373)
Correct for Electrical Dark: No (USB2E3373)
Strobe/Lamp Enabled: No (USB2E3373)
Correct for Detector Non-linearity: No (USB2E3373)
Correct for Stray Light: No (USB2E3373)
Number of Pixels in Processed Spectrum: 2048
>>>>>Begin Processed Spectral Data<<<<<
178.53	0.000
178.91	-0.000
179.29	-1400.000
179.67	-1200.000
180.04	178.571
180.42	130.000
180.80	60.000
181.18	-600.000
181.56	100.000
181.94	325.000
182.31	-75.000
182.69	233.333
183.07	-400.000
183.45	325.000
183.83	-83.333
184.20	-66.667
184.58	700.000
184.96	-300.000
185.34	-100.000
185.72	-40.000
186.09	133.333
186.47	450.000
186.85	280.000
187.23	-111.111
187.61	-700.000
187.98	60.000
188.36	300.000
188.74	-225.000
189.12	-200.000
189.49	-12.500
189.87	-62.500
190.25	11.111
190.63	-40.000
191.00	-244.444
191.38	0.000
191.76	-100.000
192.14	-133.333
192.51	300.000
192.89	-183.333
193.27	0.000
193.65	-100.000
194.02	-2100.000
194.40	-128.571
194.78	200.000
195.15	0.000
195.53	36.364
195.91	0.000
196.29	-25.000
196.66	-7.692
197.04	-200.000
197.42	-28.571
197.79	-200.000
198.17	-87.500
198.55	-71.429
198.92	-22.222
199.30	-137.500
199.68	-100.000
200.05	7.143
200.43	-800.000
200.81	142.857
201.18	0.000
201.56	277.778
201.94	0.000
202.31	400.000
202.69	-111.111
203.07	700.000
203.44	-33.333
203.82	-75.000
204.19	-58.333
204.57	-50.000
204.95	-62.500
205.32	-300.000
205.70	50.000
206.08	-150.000
206.45	-116.667
206.83	520.000
207.20	-33.333
207.58	-220.000
207.96	-100.000
208.33	-66.667
208.71	100.000
209.08	-133.333
209.46	0.000
209.84	183.333
210.21	350.000
210.59	200.000
210.96	500.000
211.34	50.000
211.71	-87.500
212.09	-700.000
212.46	0.000
212.84	1000.000
213.22	-240.000
213.59	-125.000
213.97	10.000
214.34	-266.667
214.72	200.000
215.09	-225.000
215.47	0.000
215.84	157.143
216.22	500.000
216.59	-260.000
216.97	-120.000
217.34	-100.000
217.72	-25.000
218.09	-375.000
218.47	-250.000
218.84	0.000
219.22	60.000
219.59	-29.412
219.97	-30.000
220.34	350.000
220.72	-11.111
221.09	-23.077
221.47	-200.000
221.84	-70.000
222.22	-114.286
222.59	0.000
222.97	0.000
223.34	-220.000
223.72	-1600.000
224.09	-275.000
224.46	-125.000
224.84	20.000
225.21	-71.429
225.59	-300.000
225.96	-175.000
226.34	23.077
226.71	83.333
227.08	-450.000
227.46	0.000
227.83	-100.000
228.21	-36.842
228.58	175.000
228.95	600.000
229.33	25.000
229.70	-20.000
230.08	10.526
230.45	90.000
230.82	0.000
231.20	-50.000
231.57	-66.667
231.95	-54.545
232.32	-81.818
232.69	-20.000
233.07	0.000
233.44	-35.294
233.81	-90.000
234.19	44.444
234.56	4.545
234.93	3.448
235.31	-15.789
235.68	11.111
236.05	-75.000
236.43	3.846
236.80	28.000
237.17	-11.111
237.55	6.061
237.92	-70.000
238.29	-3.226
238.67	-6.818
239.04	-19.444
239.41	-30.952
239.79	-2.174
240.16	-27.778
240.53	-21.739
240.91	-19.608
241.28	1.639
241.65	11.940
242.02	1.351
242.40	-12.308
242.77	5.333
243.14	-7.317
243.51	-11.842
243.89	-16.667
244.26	3.960
244.63	-2.941
245.00	-0.935
245.38	-1.754
245.75	-9.735
246.12	3.968
246.49	-4.651
246.87	1.429
247.24	-1.325
247.61	-1.974
247.98	-6.040
248.36	0.617
248.73	-7.975
249.10	-5.464
249.47	6.468
249.84	4.188
250.22	-1.036
250.59	-1.667
250.96	-0.909
251.33	-4.082
251.70	0.427
252.08	2.500
252.45	-0.820
252.82	-0.826
253.19	1.172
253.56	2.662
253.94	0.385
254.31	0.379
254.68	2.797
255.05	3.257
255.42	-0.340
255.79	1.942
256.16	1.656
256.54	0.000
256.91	0.984
257.28	2.623
257.65	-0.637
258.02	-1.475
258.39	2.564
258.76	3.976
259.14	4.023
259.51	1.153
259.88	-0.567
260.25	2.500
260.62	0.274
260.99	2.459
261.36	4.021
261.73	0.796
262.10	-0.275
262.47	2.681
262.85	4.293
263.22	-1.558
263.59	-0.526
263.96	1.790
264.33	1.535
264.70	0.247
265.07	2.148
265.44	5.896
265.81	2.546
266.18	1.814
266.55	1.562
266.92	0.683
267.29	3.282
267.66	1.552
268.03	2.620
268.40	1.879
268.77	-1.822
269.14	-0.661
269.51	1.974
269.88	4.508
270.25	5.634
270.62	2.743
270.99	3.434
271.36	3.564
271.73	2.750
272.10	2.204
272.47	0.401
272.84	2.008
273.21	3.006
273.58	3.024
273.95	3.462
274.32	1.521
274.69	2.515
275.06	0.733
275.43	0.924
275.80	3.704
276.17	0.926
276.54	2.239
276.91	1.252
277.28	2.712
277.65	4.129
278.02	4.412
278.39	3.804
278.76	2.285
279.13	1.950
279.50	3.093
279.87	3.578
280.23	0.528
280.60	3.051
280.97	3.454
281.34	1.019
281.71	3.723
282.08	1.993
282.45	0.982
282.82	2.512
283.19	0.485
283.56	1.311
283.92	5.706
284.29	6.003
284.66	2.299
285.03	0.481
285.40	4.173
285.77	0.929
286.14	3.817
286.51	3.653
286.87	2.528
287.24	3.614
287.61	2.093
287.98	2.568
288.35	2.811
288.72	3.846
289.08	3.660
289.45	2.515
289.82	2.711
290.19	2.011
290.56	4.085
290.93	3.281
291.29	3.581
291.66	3.444
292.03	4.342
292.40	4.354
292.77	2.695
293.13	2.706
293.50	2.628
293.87	4.027
294.24	5.067
294.60	4.425
294.97	3.221
295.34	5.762
295.71	3.657
296.08	5.039
296.44	4.289
296.81	5.725
297.18	4.981
297.55	5.896
297.91	6.643
298.28	5.806
298.65	6.778
299.02	6.494
299.38	7.551
299.75	7.360
300.12	6.481
300.48	6.797
300.85	7.087
301.22	7.606
301.59	7.991
301.95	8.023
302.32	9.111
302.69	8.543
303.05	8.161
303.42	8.426
303.79	8.750
304.15	8.412
304.52	8.140
304.89	8.691
305.25	9.524
305.62	8.777
305.99	9.175
306.35	9.778
306.72	10.031
307.09	10.457
307.45	9.834
307.82	11.201
308.19	9.889
308.55	10.318
308.92	10.711
309.29	11.303
309.65	10.624
310.02	10.891
310.38	11.122
310.75	12.330
311.12	13.423
311.48	12.610
311.85	12.726
312.22	12.144
312.58	13.146
312.95	13.384
313.31	14.182
313.68	14.835
314.05	14.273
314.41	15.756
314.78	14.623
315.14	15.971
315.51	15.882
315.87	16.472
316.24	15.799
316.61	17.407
316.97	15.928
317.34	16.755
317.70	17.380
318.07	18.254
318.43	17.687
318.80	19.064
319.16	18.283
319.53	17.909
319.89	18.230
320.26	19.217
320.62	18.706
320.99	20.222
321.35	20.702
321.72	20.837
322.08	20.379
322.45	19.512
322.81	20.668
323.18	20.973
323.54	21.293
323.91	21.975
324.27	21.256
324.64	21.411
325.00	21.476
325.37	22.277
325.73	22.645
326.10	23.358
326.46	24.104
326.83	23.699
327.19	22.913
327.56	23.162
327.92	22.738
328.29	23.710
328.65	23.786
329.01	23.689
329.38	23.505
329.74	25.171
330.11	24.401
330.47	23.505
330.84	24.720
331.20	24.583
331.56	25.390
331.93	24.435
332.29	24.661
332.66	24.751
333.02	23.702
333.38	24.916
333.75	22.896
334.11	23.436
334.48	24.587
334.84	24.554
335.20	24.517
335.57	25.042
335.93	24.793
336.29	23.045
336.66	23.802
337.02	24.164
337.38	24.320
337.75	23.967
338.11	23.886
338.47	24.979
338.84	24.958
339.20	23.252
339.56	24.053
339.93	24.384
340.29	23.671
340.65	24.736
341.02	24.421
341.38	25.384
341.74	23.971
342.11	24.618
342.47	23.987
342.83	24.638
343.20	24.530
343.56	25.662
343.92	23.619
344.28	24.062
344.65	25.504
345.01	25.351
345.37	24.883
345.73	22.603
346.10	24.961
346.46	23.734
346.82	24.345
347.19	24.905
347.55	24.734
347.91	24.368
348.27	24.583
348.63	24.829
349.00	24.310
349.36	24.461
349.72	23.512
350.08	23.848
350.45	23.574
350.81	24.284
351.17	24.286
351.53	24.867
351.89	24.601
352.26	23.955
352.62	24.104
352.98	23.511
353.34	23.898
353.70	24.268
354.07	25.484
354.43	23.842
354.79	24.832
355.15	24.577
355.51	25.439
355.87	25.505
356.24	25.019
356.60	23.577
356.96	25.649
357.32	24.461
357.68	25.476
358.04	24.401
358.40	25.149
358.77	23.977
359.13	24.742
359.49	25.204
359.85	25.236
360.21	25.036
360.57	24.982
360.93	24.965
361.29	25.684
361.66	25.489
362.02	25.122
362.38	25.861
362.74	25.698
363.10	26.204
363.46	25.900
363.82	25.142
364.18	25.123
364.54	26.487
364.90	26.020
365.26	25.241
365.62	26.333
365.98	25.868
366.35	25.235
366.71	25.850
367.07	25.913
367.43	26.921
367.79	26.676
368.15	26.957
368.51	26.049
368.87	26.519
369.23	25.333
369.59	26.025
369.95	26.234
370.31	26.604
370.67	26.960
371.03	25.900
371.39	26.125
371.75	26.547
372.11	26.897
372.47	26.743
372.83	27.552
373.19	27.352
373.55	26.626
373.91	26.858
374.27	27.167
374.63	26.522
374.99	27.387
375.35	27.013
375.71	28.000
376.07	27.954
376.42	27.393
376.78	26.165
377.14	26.762
377.50	26.818
377.86	28.017
378.22	27.365
378.58	27.229
378.94	28.110
379.30	27.358
379.66	27.160
380.02	27.294
380.38	27.823
380.74	27.211
381.09	28.165
381.45	26.761
381.81	28.103
382.17	27.435
382.53	27.953
382.89	28.047
383.25	28.312
383.61	27.720
383.97	27.680
384.32	27.033
384.68	27.784
385.04	28.514
385.40	29.110
385.76	28.370
386.12	27.708
386.48	28.882
386.83	28.963
387.19	28.042
387.55	28.345
387.91	27.683
388.27	27.540
388.62	28.236
388.98	27.524
389.34	28.108
389.70	28.239
390.06	27.886
390.42	27.289
390.77	28.055
391.13	28.110
391.49	28.321
391.85	28.061
392.20	27.521
392.56	28.293
392.92	28.299
393.28	28.192
393.64	28.436
393.99	27.833
394.35	28.154
394.71	28.862
395.07	28.084
395.42	28.155
395.78	29.372
396.14	28.580
396.50	27.553
396.85	27.370
397.21	27.633
397.57	27.797
397.92	28.694
398.28	28.300
398.64	27.860
399.00	26.649
399.35	28.272
399.71	27.663
400.07	27.681
400.42	27.532
400.78	28.067
401.14	27.945
401.49	27.629
401.85	28.256
402.21	29.374
402.57	28.110
402.92	27.600
403.28	27.283
403.63	27.685
403.99	27.732
404.35	27.061
404.70	26.062
405.06	27.011
405.42	27.108
405.77	28.408
406.13	26.850
406.49	26.802
406.84	26.870
407.20	27.949
407.55	26.529
407.91	26.587
408.27	27.739
408.62	27.865
408.98	27.046
409.34	26.158
409.69	27.503
410.05	27.315
410.40	26.856
410.76	26.753
411.11	27.528
411.47	27.027
411.83	26.925
412.18	26.747
412.54	27.386
412.89	28.056
413.25	26.467
413.60	26.766
413.96	26.807
414.31	25.326
414.67	26.535
415.03	25.969
415.38	26.860
415.74	25.962
416.09	27.082
416.45	26.299
416.80	25.398
417.16	26.437
417.51	25.903
417.87	26.242
418.22	26.766
418.58	26.518
418.93	26.892
419.29	26.757
419.64	26.050
420.00	26.825
420.35	26.670
420.71	26.766
421.06	26.452
421.42	27.179
421.77	26.440
422.12	26.744
422.48	25.806
422.83	26.999
423.19	27.374
423.54	26.051
423.90	26.339
424.25	27.147
424.61	26.693
424.96	26.139
425.31	27.017
425.67	26.033
426.02	26.287
426.38	25.890
426.73	25.893
427.09	26.528
427.44	25.669
427.79	26.755
428.15	25.913
428.50	25.787
428.85	25.086
429.21	26.383
429.56	26.752
429.92	26.437
430.27	26.458
430.62	26.478
430.98	26.217
431.33	25.318
431.68	26.341
432.04	26.308
432.39	25.603
432.74	25.913
433.10	26.988
433.45	25.530
433.80	26.180
434.16	26.240
434.51	25.951
434.86	26.276
435.22	26.621
435.57	26.828
435.92	26.210
436.28	26.052
436.63	26.434
436.98	25.765
437.34	25.479
437.69	26.307
438.04	26.282
438.39	25.790
438.75	25.567
439.10	26.638
439.45	26.160
439.81	25.480
440.16	25.255
440.51	25.864
440.86	26.348
441.22	24.705
441.57	26.310
441.92	24.879
442.27	26.414
442.63	25.832
442.98	25.934
443.33	25.881
443.68	25.966
444.03	26.199
444.39	25.705
444.74	26.238
445.09	25.038
445.44	25.922
445.79	25.718
446.15	25.488
446.50	26.047
446.85	25.146
447.20	25.580
447.55	25.889
447.91	25.131
448.26	25.264
448.61	25.664
448.96	25.429
449.31	25.186
449.66	25.163
450.02	24.895
450.37	25.147
450.72	24.865
451.07	25.342
451.42	25.014
451.77	25.347
452.12	24.944
452.47	24.302
452.83	25.788
453.18	24.635
453.53	24.182
453.88	24.406
454.23	25.593
454.58	24.782
454.93	24.636
455.28	24.564
455.63	24.673
455.98	24.134
456.34	24.264
456.69	24.162
457.04	24.350
457.39	24.279
457.74	24.609
458.09	23.998
458.44	24.569
458.79	23.724
459.14	23.650
459.49	23.995
459.84	23.820
460.19	23.320
460.54	23.509
460.89	23.928
461.24	24.080
461.59	24.405
461.94	22.989
462.29	24.020
462.64	23.657
462.99	23.917
463.34	24.010
463.69	23.095
464.04	23.902
464.39	22.870
464.74	23.090
465.09	23.414
465.44	23.015
465.79	23.004
466.14	22.876
466.49	22.842
466.84	22.755
467.19	23.295
467.54	21.974
467.89	22.759
468.24	22.548
468.59	22.351
468.94	22.028
469.29	22.436
469.64	21.805
469.99	22.626
470.34	22.710
470.68	22.830
471.03	22.921
471.38	22.368
471.73	22.497
472.08	22.398
472.43	21.975
472.78	22.607
473.13	21.555
473.48	22.115
473.83	22.809
474.17	22.040
474.52	21.648
474.87	22.038
475.22	21.746
475.57	21.859
475.92	20.707
476.27	20.980
476.61	21.340
476.96	21.116
477.31	21.931
477.66	21.721
478.01	22.013
478.36	21.087
478.70	20.837
479.05	22.290
479.40	21.076
479.75	21.614
480.10	21.649
480.45	20.966
480.79	20.635
481.14	20.175
481.49	20.763
481.84	21.366
482.19	20.731
482.53	21.338
482.88	21.356
483.23	21.387
483.58	20.655
483.92	20.789
484.27	20.406
484.62	20.173
484.97	20.451
485.31	19.887
485.66	19.012
486.01	19.889
486.36	20.083
486.70	20.424
487.05	20.127
487.40	20.455
487.75	19.898
488.09	19.611
488.44	19.205
488.79	20.169
489.13	19.623
489.48	19.612
489.83	19.396
490.17	19.239
490.52	19.007
490.87	19.670
491.22	19.367
491.56	19.241
491.91	18.535
492.26	19.212
492.60	18.802
492.95	18.649
493.30	19.229
493.64	18.353
493.99	18.904
494.34	17.988
494.68	18.158
495.03	18.414
495.37	19.041
495.72	18.231
496.07	18.668
496.41	18.662
496.76	18.307
497.11	18.514
497.45	18.170
497.80	18.214
498.14	18.776
498.49	18.612
498.84	18.282
499.18	17.904
499.53	18.251
499.87	18.022
500.22	16.652
500.56	17.184
500.91	18.169
501.26	17.727
501.60	17.366
501.95	17.586
502.29	17.201
502.64	17.753
502.98	17.860
503.33	16.890
503.67	16.921
504.02	17.075
504.36	17.962
504.71	17.409
505.06	16.780
505.40	16.636
505.75	17.213
506.09	17.173
506.44	17.224
506.78	17.523
507.13	17.520
507.47	17.575
507.82	16.288
508.16	16.874
508.51	16.409
508.85	17.100
509.19	17.575
509.54	17.723
509.88	17.387
510.23	16.707
510.57	16.820
510.92	16.739
511.26	15.825
511.61	15.645
511.95	16.301
512.30	16.741
512.64	16.242
512.98	16.408
513.33	16.633
513.67	16.522
514.02	16.249
514.36	17.033
514.70	16.562
515.05	15.954
515.39	16.430
515.74	15.589
516.08	16.165
516.42	16.641
516.77	16.351
517.11	15.730
517.46	16.013
517.80	16.782
518.14	15.778
518.49	16.323
518.83	15.327
519.17	14.809
519.52	15.094
519.86	15.628
520.20	15.868
520.55	15.334
520.89	14.977
521.23	15.801
521.58	14.576
521.92	15.977
522.26	15.178
522.61	15.625
522.95	15.571
523.29	14.713
523.64	14.742
523.98	15.345
524.32	16.619
524.66	15.253
525.01	15.062
525.35	14.991
525.69	14.733
526.04	14.122
526.38	15.402
526.72	15.167
527.06	15.367
527.41	14.985
527.75	14.846
528.09	14.935
528.43	14.624
528.78	14.104
529.12	14.507
529.46	14.390
529.80	14.416
530.15	14.377
530.49	14.176
530.83	14.876
531.17	14.217
531.51	14.140
531.86	15.144
532.20	14.146
532.54	14.363
532.88	13.030
533.22	13.671
533.57	14.830
533.91	14.534
534.25	14.132
534.59	14.195
534.93	13.978
535.27	14.366
535.62	13.701
535.96	14.178
536.30	13.572
536.64	14.595
536.98	13.899
537.32	14.012
537.66	13.787
538.01	13.897
538.35	13.946
538.69	13.882
539.03	14.040
539.37	13.604
539.71	13.874
540.05	14.149
540.39	12.958
540.73	12.690
541.07	13.673
541.42	13.349
541.76	13.464
542.10	13.329
542.44	12.667
542.78	13.564
543.12	13.528
543.46	13.126
543.80	12.890
544.14	13.764
544.48	13.416
544.82	13.345
545.16	13.775
545.50	13.002
545.84	12.921
546.18	12.654
546.52	12.739
546.86	12.013
547.20	13.041
547.54	12.172
547.88	12.236
548.22	12.749
548.56	13.458
548.90	12.060
549.24	13.435
549.58	12.555
549.92	12.054
550.26	13.269
550.60	12.380
550.94	12.549
551.28	12.673
551.62	13.140
551.96	12.751
552.30	12.556
552.64	12.446
552.98	11.728
553.32	12.412
553.66	12.154
554.00	11.602
554.34	12.098
554.68	12.266
555.02	11.958
555.36	12.755
555.69	11.787
556.03	11.665
556.37	12.516
556.71	11.858
557.05	12.268
557.39	10.750
557.73	11.823
558.07	11.523
558.41	12.359
558.75	12.035
559.08	11.830
559.42	11.866
559.76	12.619
560.10	11.319
560.44	12.203
560.78	13.063
561.12	12.131
561.45	11.861
561.79	11.355
562.13	12.323
562.47	11.406
562.81	11.646
563.15	11.679
563.48	11.746
563.82	11.608
564.16	10.963
564.50	11.979
564.84	11.150
565.17	11.824
565.51	11.277
565.85	10.689
566.19	10.599
566.52	11.352
566.86	11.488
567.20	10.767
567.54	10.674
567.88	11.774
568.21	11.561
568.55	10.887
568.89	11.802
569.23	11.365
569.56	11.020
569.90	11.582
570.24	11.164
570.57	10.969
570.91	10.778
571.25	11.195
571.59	11.383
571.92	11.327
572.26	10.826
572.60	10.865
572.93	11.383
573.27	11.183
573.61	11.011
573.95	10.634
574.28	11.002
574.62	10.755
574.96	10.763
575.29	10.773
575.63	10.603
575.97	10.539
576.30	10.831
576.64	10.761
576.98	10.888
577.31	10.710
577.65	10.256
577.98	10.222
578.32	10.480
578.66	10.441
578.99	10.465
579.33	10.582
579.67	10.381
580.00	10.564
580.34	10.537
580.67	10.216
581.01	10.234
581.35	10.423
581.68	10.541
582.02	10.440
582.35	10.408
582.69	10.520
583.02	10.484
583.36	10.495
583.70	10.270
584.03	10.199
584.37	10.294
584.70	10.098
585.04	10.044
585.37	10.163
585.71	10.183
586.04	9.952
586.38	10.214
586.72	10.078
587.05	10.079
587.39	10.022
587.72	10.120
588.06	10.227
588.39	10.505
588.73	9.868
589.06	10.130
589.40	10.479
589.73	9.801
590.07	9.881
590.40	10.717
590.73	10.392
591.07	10.350
591.40	9.681
591.74	9.857
592.07	9.825
592.41	9.661
592.74	9.727
593.08	10.350
593.41	10.207
593.75	9.799
594.08	9.815
594.41	10.417
594.75	9.864
595.08	9.690
595.42	10.032
595.75	10.171
596.09	9.929
596.42	9.566
596.75	9.687
597.09	10.545
597.42	9.972
597.75	9.878
598.09	10.079
598.42	9.972
598.76	9.209
599.09	9.292
599.42	9.219
599.76	9.607
600.09	9.977
600.42	9.676
600.76	9.742
601.09	9.061
601.42	9.269
601.76	9.517
602.09	9.364
602.42	9.197
602.76	9.668
603.09	8.994
603.42	9.718
603.76	9.056
604.09	9.688
604.42	9.101
604.76	8.714
605.09	9.493
605.42	9.569
605.75	9.192
606.09	9.145
606.42	9.194
606.75	8.921
607.09	9.178
607.42	9.750
607.75	9.222
608.08	9.274
608.42	9.674
608.75	8.914
609.08	9.083
609.41	9.396
609.75	8.393
610.08	9.147
610.41	8.921
610.74	9.454
611.07	9.369
611.41	9.327
611.74	9.330
612.07	9.444
612.40	8.413
612.73	8.704
613.07	8.900
613.40	8.999
613.73	8.714
614.06	8.832
614.39	9.232
614.72	8.588
615.06	8.951
615.39	8.845
615.72	8.720
616.05	8.791
616.38	9.334
616.71	8.725
617.05	9.372
617.38	8.454
617.71	8.963
618.04	9.228
618.37	9.399
618.70	9.106
619.03	8.423
619.36	8.631
619.69	8.712
620.03	8.788
620.36	8.160
620.69	8.575
621.02	9.514
621.35	9.216
621.68	9.183
622.01	8.968
622.34	8.159
622.67	8.729
623.00	7.490
623.33	9.290
623.66	9.274
623.99	8.822
624.32	8.772
624.65	7.722
624.99	8.973
625.32	9.144
625.65	8.092
625.98	8.068
626.31	7.725
626.64	9.158
626.97	7.427
627.30	6.834
627.63	8.252
627.96	9.384
628.29	8.560
628.62	8.732
628.95	8.238
629.28	7.477
629.61	9.007
629.94	7.782
630.26	7.458
630.59	8.204
630.92	7.879
631.25	8.945
631.58	8.851
631.91	7.591
632.24	8.261
632.57	8.159
632.90	8.024
633.23	7.857
633.56	8.980
633.89	7.128
634.22	7.380
634.55	8.351
634.88	6.818
635.20	8.719
635.53	8.023
635.86	7.476
636.19	9.120
636.52	8.544
636.85	8.887
637.18	7.173
637.51	8.280
637.83	7.530
638.16	8.180
638.49	7.629
638.82	8.906
639.15	6.300
639.48	9.469
639.81	8.199
640.13	9.069
640.46	6.424
640.79	6.863
641.12	8.323
641.45	7.528
641.77	8.858
642.10	6.824
642.43	8.112
642.76	6.504
643.09	7.808
643.41	7.843
643.74	7.724
644.07	9.793
644.40	6.506
644.73	8.273
645.05	6.755
645.38	6.619
645.71	7.771
646.04	8.321
646.36	7.299
646.69	6.902
647.02	8.716
647.35	6.718
647.67	7.729
648.00	7.006
648.33	8.408
648.66	7.846
648.98	5.986
649.31	8.119
649.64	8.367
649.96	8.223
650.29	7.371
650.62	7.496
650.94	5.706
651.27	6.886
651.60	6.871
651.92	5.471
652.25	8.104
652.58	6.878
652.90	5.959
653.23	8.169
653.56	6.847
653.88	8.006
654.21	8.169
654.54	6.936
654.86	6.232
655.19	6.650
655.52	7.263
655.84	7.213
656.17	9.076
656.49	12.656
656.82	14.211
657.15	11.144
657.47	8.642
657.80	6.361
658.13	5.055
658.45	6.502
658.78	8.224
659.10	7.939
659.43	7.750
659.75	7.256
660.08	6.667
660.41	7.279
660.73	6.727
661.06	6.167
661.38	5.263
661.71	8.276
662.03	7.584
662.36	8.587
662.68	6.754
663.01	7.257
663.33	7.372
663.66	9.524
663.98	6.346
664.31	4.878
664.63	5.395
664.96	7.441
665.28	4.537
665.61	8.916
665.93	5.000
666.26	6.631
666.58	4.428
666.91	9.159
667.23	8.952
667.56	6.903
667.88	6.200
668.21	5.273
668.53	4.247
668.86	7.073
669.18	4.684
669.50	6.362
669.83	5.000
670.15	6.693
670.48	7.143
670.80	6.119
671.13	3.025
671.45	5.709
671.77	6.591
672.10	6.333
672.42	5.663
672.75	5.376
673.07	5.970
673.39	5.393
673.72	4.530
674.04	7.759
674.37	7.335
674.69	6.173
675.01	6.667
675.34	7.061
675.66	5.993
675.98	5.970
676.31	5.273
676.63	7.034
676.95	6.897
677.28	5.040
677.60	3.937
677.92	7.294
678.25	6.033
678.57	6.940
678.89	8.191
679.22	5.749
679.54	6.838
679.86	4.576
680.18	5.473
680.51	5.975
680.83	6.547
681.15	5.000
681.48	8.117
681.80	7.254
682.12	5.420
682.44	7.679
682.77	6.028
683.09	7.765
683.41	4.845
683.73	5.313
684.06	4.059
684.38	3.578
684.70	6.822
685.02	6.885
685.34	5.491
685.67	6.940
685.99	5.828
686.31	5.814
686.63	5.687
686.96	6.151
687.28	7.329
687.60	5.387
687.92	5.627
688.24	6.010
688.56	4.310
688.89	7.804
689.21	6.849
689.53	5.098
689.85	5.523
690.17	5.926
690.49	3.984
690.82	5.743
691.14	5.668
691.46	6.883
691.78	6.814
692.10	4.954
692.42	4.107
692.74	5.082
693.06	3.704
693.39	6.641
693.71	7.331
694.03	6.320
694.35	6.857
694.67	4.723
694.99	6.809
695.31	4.857
695.63	6.926
695.95	2.899
696.27	4.396
696.59	7.743
696.91	5.856
697.23	8.352
697.56	2.851
697.88	4.545
698.20	5.838
698.52	9.091
698.84	3.119
699.16	7.143
699.48	5.649
699.80	5.957
700.12	5.240
700.44	5.069
700.76	6.651
701.08	9.443
701.40	6.477
701.72	6.716
702.04	8.021
702.36	4.712
702.68	5.379
703.00	3.423
703.32	3.941
703.64	3.667
703.96	6.921
704.28	4.177
704.60	6.582
704.91	3.827
705.23	6.301
705.55	6.685
705.87	4.242
706.19	4.908
706.51	0.904
706.83	1.153
707.15	1.852
707.47	4.907
707.79	3.275
708.11	1.483
708.43	3.871
708.74	3.795
709.06	4.640
709.38	6.573
709.70	6.700
710.02	4.910
710.34	6.117
710.66	3.631
710.98	3.552
711.29	4.670
711.61	6.497
711.93	3.134
712.25	4.865
712.57	7.670
712.89	6.765
713.20	3.254
713.52	2.890
713.84	7.799
714.16	7.105
714.48	4.639
714.80	9.091
715.11	2.625
715.43	5.570
715.75	6.053
716.07	2.762
716.39	4.918
716.70	4.518
717.02	1.967
717.34	1.394
717.66	6.711
717.97	1.027
718.29	1.375
718.61	2.632
718.93	3.883
719.24	4.969
719.56	7.975
719.88	4.805
720.20	6.129
720.51	4.658
720.83	2.813
721.15	2.303
721.46	2.397
721.78	5.333
722.10	4.854
722.42	3.691
722.73	3.226
723.05	3.860
723.37	4.514
723.68	2.867
724.00	5.776
724.32	3.873
724.63	2.098
724.95	6.028
725.27	4.530
725.58	-0.353
725.90	5.862
726.22	4.389
726.53	3.896
726.85	3.459
727.16	5.136
727.48	7.645
727.80	3.642
728.11	3.180
728.43	3.704
728.74	2.676
729.06	1.656
729.38	6.818
729.69	2.349
730.01	5.357
730.32	2.727
730.64	3.459
730.96	1.863
731.27	7.263
731.59	6.319
731.90	4.675
732.22	3.125
732.53	7.182
732.85	5.429
733.16	6.745
733.48	4.268
733.80	3.064
734.11	6.268
734.43	4.595
734.74	6.582
735.06	2.764
735.37	2.432
735.69	1.892
736.00	5.932
736.32	3.774
736.63	6.111
736.95	3.448
737.26	4.848
737.58	2.121
737.89	7.059
738.21	0.612
738.52	1.311
738.83	6.485
739.15	0.709
739.46	3.741
739.78	6.135
740.09	3.438
740.41	4.956
740.72	-2.000
741.04	5.825
741.35	6.316
741.66	2.353
741.98	4.098
742.29	3.347
742.61	5.702
742.92	2.308
743.23	5.415
743.55	1.550
743.86	6.800
744.18	1.240
744.49	1.266
744.80	3.292
745.12	3.376
745.43	8.537
745.74	2.155
746.06	1.695
746.37	5.063
746.68	6.098
747.00	2.917
747.31	-0.858
747.62	4.231
747.94	4.453
748.25	1.205
748.56	2.449
748.88	1.709
749.19	5.603
749.50	3.896
749.82	6.024
750.13	6.406
750.44	0.667
750.75	5.231
751.07	4.923
751.38	2.208
751.69	3.514
752.01	0.647
752.32	5.229
752.63	3.401
752.94	-0.692
753.26	1.115
753.57	5.556
753.88	1.873
754.19	3.859
754.51	3.859
754.82	3.859
755.13	4.918
755.44	3.754
755.75	2.632
756.07	4.478
756.38	3.774
756.69	4.518
757.00	1.108
757.31	3.552
757.63	3.325
757.94	2.347
758.25	5.418
758.56	6.754
758.87	6.136
759.18	1.867
759.50	7.082
759.81	5.042
760.12	4.313
760.43	3.906
760.74	4.926
761.05	2.500
761.36	0.723
761.67	1.269
761.99	2.703
762.30	2.439
762.61	1.650
762.92	3.358
763.23	2.996
763.54	3.237
763.85	2.405
764.16	1.010
764.47	4.225
764.78	1.917
765.10	4.692
765.41	6.410
765.72	3.175
766.03	5.367
766.34	0.940
766.65	2.091
766.96	2.789
767.27	3.687
767.58	-0.498
767.89	5.769
768.20	3.756
768.51	3.704
768.82	3.614
769.13	3.030
769.44	-2.692
769.75	5.054
770.06	5.385
770.37	7.087
770.68	0.851
770.99	-2.834
771.30	5.556
771.61	0.380
771.92	0.000
772.23	2.834
772.54	-0.926
772.85	4.608
773.16	8.095
773.47	1.058
773.78	-5.946
774.09	3.977
774.39	11.000
774.70	7.650
775.01	0.610
775.32	-1.176
775.63	-1.840
775.94	-0.637
776.25	5.161
776.56	5.769
776.87	6.122
777.18	-2.069
777.48	2.797
777.79	0.676
778.10	5.147
778.41	5.556
778.72	4.138
779.03	-3.704
779.34	1.818
779.65	2.073
779.95	5.000
780.26	2.841
780.57	1.290
780.88	2.174
781.19	6.452
781.50	5.882
781.80	7.527
782.11	-0.529
782.42	-1.515
782.73	-2.395
783.04	1.676
783.34	2.424
783.65	-1.307
783.96	0.000
784.27	-5.952
784.57	-1.325
784.88	7.143
785.19	-2.362
785.50	-6.299
785.81	0.752
786.11	4.615
786.42	-2.158
786.73	-3.597
787.04	3.759
787.34	-4.098
787.65	-2.400
787.96	-2.239
788.26	6.294
788.57	4.196
788.88	-0.658
789.19	1.307
789.49	-0.685
789.80	3.546
790.11	5.512
790.41	3.125
790.72	3.390
791.03	0.971
791.33	-7.826
791.64	4.386
791.95	0.000
792.25	-4.762
792.56	4.464
792.87	5.208
793.17	2.679
793.48	-6.250
793.79	-2.410
794.09	-5.505
794.40	-2.752
794.70	1.361
795.01	-2.597
795.32	-4.110
795.62	2.113
795.93	-2.273
796.23	-5.738
796.54	-8.036
796.85	-8.511
797.15	-8.696
797.46	1.370
797.76	-3.750
798.07	3.261
798.37	-9.278
798.68	5.195
798.99	-2.299
799.29	-6.742
799.60	5.319
799.90	1.205
800.21	-13.846
800.51	-19.403
800.82	-20.588
801.12	-12.329
801.43	-26.471
801.73	-20.339
802.04	-13.636
802.34	-16.667
802.65	-10.169
802.95	-17.910
803.26	-16.949
803.56	-1.370
803.87	5.714
804.17	6.849
804.48	-31.579
804.78	-6.944
805.09	-32.759
805.39	-4.054
805.70	-12.676
806.00	-1.220
806.30	0.000
806.61	-19.178
806.91	-2.885
807.22	-4.444
807.52	-9.195
807.83	-1.389
808.13	0.000
808.43	3.371
808.74	-6.250
809.04	-25.000
809.35	0.000
809.65	-11.429
809.95	5.479
810.26	-17.544
810.56	-15.517
810.86	-11.765
811.17	-21.053
811.47	-14.754
811.77	-48.889
812.08	3.390
812.38	-5.000
812.69	6.897
812.99	-5.660
813.29	-41.026
813.59	-4.000
813.90	0.000
814.20	-25.455
814.50	9.859
814.81	0.000
815.11	8.197
815.41	5.970
815.72	18.966
816.02	0.000
816.32	-8.889
816.62	-2.273
816.93	-8.889
817.23	3.704
817.53	-10.638
817.84	7.143
818.14	-29.412
818.44	-16.327
818.74	-31.111
819.04	-12.821
819.35	-28.571
819.65	-46.154
819.95	-5.660
820.25	-2.222
820.56	-28.571
820.86	-37.500
821.16	-23.077
821.46	-13.953
821.76	-28.000
822.07	-16.071
822.37	-8.696
822.67	-21.277
822.97	-40.541
823.27	2.500
823.57	-4.082
823.88	2.222
824.18	-17.500
824.48	-26.667
824.78	-56.000
825.08	-24.242
825.38	-40.000
825.69	4.255
825.99	-33.333
826.29	-54.286
826.59	-17.949
826.89	-23.256
827.19	0.000
827.49	-23.529
827.79	-12.500
828.09	-37.838
828.39	-20.000
828.70	-12.195
829.00	-6.977
829.30	-39.286
829.60	-2.941
829.90	0.000
830.20	-14.286
830.50	-44.828
830.80	-33.333
831.10	-23.077
831.40	8.824
831.70	-42.857
832.00	9.677
832.30	-111.765
832.60	-37.500
832.90	-115.385
833.20	-57.895
833.50	-95.000
833.80	-57.895
834.10	-109.524
834.40	-30.556
834.70	0.000
835.00	-51.429
835.30	-8.824
835.60	-10.000
835.90	-4.000
836.20	-77.273
836.50	-52.000
836.80	-33.333
837.10	3.704
837.40	-18.519
837.70	-112.500
838.00	-7.143
838.30	-47.826
838.60	-20.690
838.90	0.000
839.19	-65.217
839.49	-50.000
839.79	0.000
840.09	-43.750
840.39	-30.000
840.69	-6.452
840.99	-25.000
841.29	-33.333
841.59	-47.368
841.88	12.821
842.18	-38.462
842.48	-110.000
842.78	-20.000
843.08	13.333
843.38	-3.226
843.68	-50.000
843.97	5.882
844.27	-56.250
844.57	-42.105
844.87	-170.000
845.17	-73.333
845.47	23.810
845.76	-57.143
846.06	-111.111
846.36	-82.353
846.66	-19.231
846.96	-73.333
847.25	-94.118
847.55	8.696
847.85	0.000
848.15	-17.647
848.44	-9.091
848.74	-33.333
849.04	-37.500
849.34	-62.500
849.63	-34.783
849.93	750.000
850.23	-53.333
850.53	34.615
850.82	-127.273
851.12	0.000
851.42	-127.273
851.71	0.000
852.01	-25.000
852.31	-61.538
852.61	-73.684
852.90	-33.333
853.20	-33.333
853.50	-211.111
853.79	-47.619
854.09	-63.636
854.39	-91.667
854.68	-6.452
854.98	-30.769
855.28	-11.111
855.57	-35.714
855.87	-32.000
856.17	-9.091
856.46	-11.111
856.76	-77.778
857.05	-52.174
857.35	-45.833
857.65	-61.538
857.94	23.810
858.24	7.407
858.53	-8.696
858.83	-58.824
859.13	-5.882
859.42	17.647
859.72	-50.000
860.01	15.000
860.31	-133.333
860.60	-50.000
860.90	-33.333
861.20	-11.111
861.49	-92.308
861.79	-13.333
862.08	-46.154
862.38	34.375
862.67	29.412
862.97	-93.750
863.26	-122.222
863.56	-120.000
863.85	-172.727
864.15	-22.222
864.44	-466.667
864.74	-57.143
865.03	-50.000
865.33	-220.000
865.62	-74.194
865.92	-40.909
866.21	-17.391
866.51	-7.143
866.80	-320.000
867.10	-33.333
867.39	-141.667
867.69	2200.000
867.98	-71.429
868.27	-35.294
868.57	-1700.000
868.86	-150.000
869.16	-33.333
869.45	-12.500
869.75	-9.091
870.04	-214.286
870.33	33.333
870.63	-257.143
870.92	-150.000
871.22	-200.000
871.51	-109.091
871.80	-300.000
872.10	-500.000
>>>>>End Processed Spectral Data<<<<<
