SpectraSuite Data File
++++++++++++++++++++++++++++++++++++
Date: Thu May 14 16:09:18 PDT 2015
User: schluterlab
Dark Spectrum Present: Yes
Reference Spectrum Present: Yes
Number of Sampled Component Spectra: 1
Spectrometers: USB2E3373
Integration Time (usec): 3000 (USB2E3373)
Spectra Averaged: 3 (USB2E3373)
Boxcar Smoothing: 0 (USB2E3373)
Correct for Electrical Dark: No (USB2E3373)
Strobe/Lamp Enabled: No (USB2E3373)
Correct for Detector Non-linearity: No (USB2E3373)
Correct for Stray Light: No (USB2E3373)
Number of Pixels in Processed Spectrum: 2048
>>>>>Begin Processed Spectral Data<<<<<
178.53	0.000
178.91	200.000
179.29	-1700.000
179.67	-1600.000
180.04	178.571
180.42	80.000
180.80	520.000
181.18	-2000.000
181.56	700.000
181.94	350.000
182.31	-200.000
182.69	366.667
183.07	-150.000
183.45	475.000
183.83	-150.000
184.20	-300.000
184.58	300.000
184.96	-275.000
185.34	-77.778
185.72	-200.000
186.09	188.889
186.47	850.000
186.85	360.000
187.23	-166.667
187.61	-1200.000
187.98	180.000
188.36	450.000
188.74	-300.000
189.12	-133.333
189.49	-6.250
189.87	-187.500
190.25	-88.889
190.63	-200.000
191.00	-144.444
191.38	0.000
191.76	-300.000
192.14	-183.333
192.51	1000.000
192.89	-116.667
193.27	0.000
193.65	-271.429
194.02	-2200.000
194.40	-114.286
194.78	100.000
195.15	0.000
195.53	-81.818
195.91	0.000
196.29	-275.000
196.66	-92.308
197.04	-1600.000
197.42	-71.429
197.79	-500.000
198.17	-200.000
198.55	-185.714
198.92	0.000
199.30	-200.000
199.68	-63.636
200.05	-57.143
200.43	-650.000
200.81	242.857
201.18	0.000
201.56	188.889
201.94	0.000
202.31	800.000
202.69	-111.111
203.07	1000.000
203.44	-111.111
203.82	-200.000
204.19	33.333
204.57	-266.667
204.95	-225.000
205.32	-1100.000
205.70	225.000
206.08	-233.333
206.45	-300.000
206.83	320.000
207.20	-100.000
207.58	-240.000
207.96	-383.333
208.33	-100.000
208.71	116.667
209.08	-116.667
209.46	0.000
209.84	433.333
210.21	1050.000
210.59	650.000
210.96	500.000
211.34	-375.000
211.71	-75.000
212.09	-1800.000
212.46	0.000
212.84	800.000
213.22	-280.000
213.59	-150.000
213.97	-100.000
214.34	-366.667
214.72	316.667
215.09	-450.000
215.47	0.000
215.84	271.429
216.22	500.000
216.59	-300.000
216.97	-300.000
217.34	-325.000
217.72	-112.500
218.09	-475.000
218.47	-175.000
218.84	0.000
219.22	220.000
219.59	-11.765
219.97	-40.000
220.34	900.000
220.72	-188.889
221.09	-23.077
221.47	-300.000
221.84	-80.000
222.22	-157.143
222.59	0.000
222.97	-25.000
223.34	-180.000
223.72	-900.000
224.09	-275.000
224.46	-200.000
224.84	-80.000
225.21	-228.571
225.59	-250.000
225.96	-450.000
226.34	-7.692
226.71	316.667
227.08	-700.000
227.46	-106.667
227.83	-425.000
228.21	-21.053
228.58	212.500
228.95	350.000
229.33	-33.333
229.70	-50.000
230.08	-5.263
230.45	170.000
230.82	-333.333
231.20	-78.571
231.57	-50.000
231.95	-90.909
232.32	-54.545
232.69	-5.000
233.07	-150.000
233.44	-47.059
233.81	-120.000
234.19	-22.222
234.56	-31.818
234.93	3.448
235.31	-10.526
235.68	-27.778
236.05	-65.000
236.43	19.231
236.80	0.000
237.17	7.407
237.55	-6.061
237.92	-40.000
238.29	6.452
238.67	-4.545
239.04	16.667
239.41	-7.143
239.79	-13.043
240.16	1.852
240.53	4.348
240.91	-5.882
241.28	1.639
241.65	23.881
242.02	17.568
242.40	15.385
242.77	21.333
243.14	6.098
243.51	14.474
243.89	21.795
244.26	23.762
244.63	26.471
245.00	25.234
245.38	20.175
245.75	14.159
246.12	23.016
246.49	19.380
246.87	25.714
247.24	26.490
247.61	27.632
247.98	26.174
248.36	27.778
248.73	20.859
249.10	21.858
249.47	24.876
249.84	27.225
250.22	27.461
250.59	28.889
250.96	28.636
251.33	27.041
251.70	25.214
252.08	30.000
252.45	27.459
252.82	23.554
253.19	23.437
253.56	25.856
253.94	25.385
254.31	27.273
254.68	30.070
255.05	30.945
255.42	24.490
255.79	25.890
256.16	24.834
256.54	26.821
256.91	27.213
257.28	26.557
257.65	23.567
258.02	23.599
258.39	25.356
258.76	33.639
259.14	28.448
259.51	27.666
259.88	26.629
260.25	26.944
260.62	29.041
260.99	31.967
261.36	30.563
261.73	25.464
262.10	27.747
262.47	29.223
262.85	31.566
263.22	30.390
263.59	27.368
263.96	30.435
264.33	28.645
264.70	30.864
265.07	30.788
265.44	31.746
265.81	31.250
266.18	31.293
266.55	29.687
266.92	28.929
267.29	30.416
267.66	31.042
268.03	27.511
268.40	29.854
268.77	30.068
269.14	26.211
269.51	26.974
269.88	27.049
270.25	28.571
270.62	32.700
270.99	30.707
271.36	29.109
271.73	29.077
272.10	30.661
272.47	29.459
272.84	27.711
273.21	29.058
273.58	30.847
273.95	26.538
274.32	27.567
274.69	28.046
275.06	28.938
275.43	26.802
275.80	28.571
276.17	30.185
276.54	26.866
276.91	27.907
277.28	26.040
277.65	26.750
278.02	28.309
278.39	27.536
278.76	29.701
279.13	28.014
279.50	27.148
279.87	29.338
280.23	25.704
280.60	29.661
280.97	28.454
281.34	28.183
281.71	27.411
282.08	25.748
282.45	28.151
282.82	26.374
283.19	28.110
283.56	27.049
283.92	28.228
284.29	29.068
284.66	29.557
285.03	25.641
285.40	27.666
285.77	25.387
286.14	28.702
286.51	26.788
286.87	26.698
287.24	28.163
287.61	27.055
287.98	26.586
288.35	27.811
288.72	26.331
289.08	27.672
289.45	23.373
289.82	24.096
290.19	25.144
290.56	25.915
290.93	25.678
291.29	25.482
291.66	25.344
292.03	22.252
292.40	26.939
292.77	25.472
293.13	24.222
293.50	22.733
293.87	22.685
294.24	25.467
294.60	23.641
294.97	21.879
295.34	23.944
295.71	21.564
296.08	22.610
296.44	24.265
296.81	22.412
297.18	23.661
297.55	22.759
297.91	21.471
298.28	21.801
298.65	21.046
299.02	21.842
299.38	22.197
299.75	21.729
300.12	21.528
300.48	21.313
300.85	22.497
301.22	21.365
301.59	20.091
301.95	22.260
302.32	21.778
302.69	20.811
303.05	21.219
303.42	22.173
303.79	20.833
304.15	20.820
304.52	20.825
304.89	21.885
305.25	21.636
305.62	21.944
305.99	22.062
306.35	20.968
306.72	22.958
307.09	22.843
307.45	22.257
307.82	20.787
308.19	22.301
308.55	22.372
308.92	22.103
309.29	21.743
309.65	21.637
310.02	22.376
310.38	20.866
310.75	23.495
311.12	23.778
311.48	23.265
311.85	23.172
312.22	22.296
312.58	23.380
312.95	22.275
313.31	23.306
313.68	22.253
314.05	24.932
314.41	24.226
314.78	24.069
315.14	24.047
315.51	24.192
315.87	24.122
316.24	24.932
316.61	24.778
316.97	23.529
317.34	24.956
317.70	24.978
318.07	25.838
318.43	26.190
318.80	25.836
319.16	26.352
319.53	25.878
319.89	26.643
320.26	26.157
320.62	25.266
320.99	27.608
321.35	28.096
321.72	26.512
322.08	26.060
322.45	26.739
322.81	27.888
323.18	26.460
323.54	26.638
323.91	28.025
324.27	27.194
324.64	27.876
325.00	27.032
325.37	27.682
325.73	29.256
326.10	28.305
326.46	29.153
326.83	29.624
327.19	29.449
327.56	30.514
327.92	28.324
328.29	27.500
328.65	28.727
329.01	28.596
329.38	29.065
329.74	30.051
330.11	28.767
330.47	29.065
330.84	29.113
331.20	30.083
331.56	29.723
331.93	29.038
332.29	29.661
332.66	30.316
333.02	28.643
333.38	29.027
333.75	29.209
334.11	28.274
334.48	29.950
334.84	29.737
335.20	29.639
335.57	30.101
335.93	29.421
336.29	29.035
336.66	29.184
337.02	29.013
337.38	29.932
337.75	28.926
338.11	29.268
338.47	28.867
338.84	29.357
339.20	28.475
339.56	28.336
339.93	29.475
340.29	29.388
340.65	29.278
341.02	28.970
341.38	28.779
341.74	27.441
342.11	28.962
342.47	28.753
342.83	29.469
343.20	30.090
343.56	28.869
343.92	28.583
344.28	29.062
344.65	30.155
345.01	28.705
345.37	29.393
345.73	28.059
346.10	28.939
346.46	28.244
346.82	28.015
347.19	29.335
347.55	29.439
347.91	28.083
348.27	28.756
348.63	29.551
349.00	27.964
349.36	29.071
349.72	28.274
350.08	28.752
350.45	28.517
350.81	27.828
351.17	28.346
351.53	29.037
351.89	28.550
352.26	28.358
352.62	28.060
352.98	28.244
353.34	26.662
353.70	29.507
354.07	28.316
354.43	28.094
354.79	28.123
355.15	28.182
355.51	28.801
355.87	28.721
356.24	28.213
356.60	27.273
356.96	27.279
357.32	27.138
357.68	27.599
358.04	27.395
358.40	28.134
358.77	27.558
359.13	28.656
359.49	28.253
359.85	27.411
360.21	28.479
360.57	27.423
360.93	27.645
361.29	27.860
361.66	27.082
362.02	28.810
362.38	28.391
362.74	28.073
363.10	27.923
363.46	28.255
363.82	28.480
364.18	27.938
364.54	28.562
364.90	27.692
365.26	29.103
365.62	28.600
365.98	27.502
366.35	26.779
366.71	28.367
367.07	28.281
367.43	28.693
367.79	28.799
368.15	28.094
368.51	27.876
368.87	27.760
369.23	27.400
369.59	28.484
369.95	28.059
370.31	28.224
370.67	27.992
371.03	28.947
371.39	27.602
371.75	28.680
372.11	28.388
372.47	27.691
372.83	28.141
373.19	28.486
373.55	28.455
373.91	27.062
374.27	28.590
374.63	29.093
374.99	27.653
375.35	28.052
375.71	27.935
376.07	27.889
376.42	27.645
376.78	28.776
377.14	27.636
377.50	28.590
377.86	28.387
378.22	28.743
378.58	28.954
378.94	29.049
379.30	28.822
379.66	28.807
380.02	28.621
380.38	28.917
380.74	28.563
381.09	28.630
381.45	28.807
381.81	30.035
382.17	29.335
382.53	28.246
382.89	28.160
383.25	29.250
383.61	29.282
383.97	28.033
384.32	29.605
384.68	28.712
385.04	29.092
385.40	28.933
385.76	30.012
386.12	28.785
386.48	29.176
386.83	29.261
387.19	29.200
387.55	28.932
387.91	30.194
388.27	29.446
388.62	28.923
388.98	29.272
389.34	28.403
389.70	30.157
390.06	29.189
390.42	29.036
390.77	29.500
391.13	28.815
391.49	28.744
391.85	28.788
392.20	29.181
392.56	29.002
392.92	29.771
393.28	29.630
393.64	28.827
393.99	29.808
394.35	29.439
394.71	30.180
395.07	28.503
395.42	28.955
395.78	29.982
396.14	29.174
396.50	28.385
396.85	28.682
397.21	29.586
397.57	30.271
397.92	28.465
398.28	28.517
398.64	29.348
399.00	29.005
399.35	28.848
399.71	29.076
400.07	29.366
400.42	29.511
400.78	29.630
401.14	28.287
401.49	29.676
401.85	29.186
402.21	28.621
402.57	29.460
402.92	28.783
403.28	28.747
403.63	29.535
403.99	28.741
404.35	28.709
404.70	29.348
405.06	29.239
405.42	28.747
405.77	29.171
406.13	29.173
406.49	29.955
406.84	29.086
407.20	28.340
407.55	28.528
407.91	28.096
408.27	28.151
408.62	28.563
408.98	28.787
409.34	27.918
409.69	30.099
410.05	29.015
410.40	29.292
410.76	28.996
411.11	29.632
411.47	28.808
411.83	28.924
412.18	28.976
412.54	28.453
412.89	27.590
413.25	28.442
413.60	28.374
413.96	28.380
414.31	28.102
414.67	28.324
415.03	27.754
415.38	29.130
415.74	28.222
416.09	28.378
416.45	27.552
416.80	27.968
417.16	28.416
417.51	29.141
417.87	27.652
418.22	28.024
418.58	27.943
418.93	28.929
419.29	28.730
419.64	27.491
420.00	27.122
420.35	27.569
420.71	27.743
421.06	26.855
421.42	27.752
421.77	26.817
422.12	27.378
422.48	27.394
422.83	28.587
423.19	27.639
423.54	27.434
423.90	26.836
424.25	26.720
424.61	26.636
424.96	27.677
425.31	28.503
425.67	26.785
426.02	27.117
426.38	26.464
426.73	26.228
427.09	27.970
427.44	26.871
427.79	25.594
428.15	25.856
428.50	26.910
428.85	26.980
429.21	26.915
429.56	26.703
429.92	26.634
430.27	26.651
430.62	26.722
430.98	26.217
431.33	26.051
431.68	25.623
432.04	26.866
432.39	25.870
432.74	25.628
433.10	26.447
433.45	25.139
433.80	27.146
434.16	25.981
434.51	26.721
434.86	27.144
435.22	26.621
435.57	26.356
435.92	26.266
436.28	25.540
436.63	26.597
436.98	26.033
437.34	25.592
437.69	25.096
438.04	25.648
438.39	25.330
438.75	25.678
439.10	26.004
439.45	25.489
439.81	25.254
440.16	25.845
440.51	25.362
440.86	24.736
441.22	24.920
441.57	25.157
441.92	24.976
442.27	25.253
442.63	25.931
442.98	25.667
443.33	25.408
443.68	25.570
444.03	26.011
444.39	25.104
444.74	25.013
445.09	24.328
445.44	24.816
445.79	25.239
446.15	24.923
446.50	24.806
446.85	25.000
447.20	25.048
447.55	24.634
447.91	25.079
448.26	24.630
448.61	24.708
448.96	25.322
449.31	24.337
449.66	23.312
450.02	24.262
450.37	24.560
450.72	23.197
451.07	23.804
451.42	22.819
451.77	23.402
452.12	23.815
452.47	23.529
452.83	25.000
453.18	23.701
453.53	22.975
453.88	23.026
454.23	23.672
454.58	23.680
454.93	23.422
455.28	24.082
455.63	23.536
455.98	23.911
456.34	23.439
456.69	23.045
457.04	23.582
457.39	22.228
457.74	23.714
458.09	23.339
458.44	23.922
458.79	23.620
459.14	23.440
459.49	23.430
459.84	23.715
460.19	22.543
460.54	23.793
460.89	22.975
461.24	22.184
461.59	23.298
461.94	22.305
462.29	22.900
462.64	21.666
462.99	22.599
463.34	23.232
463.69	21.923
464.04	22.346
464.39	21.805
464.74	22.292
465.09	22.203
465.44	21.996
465.79	22.581
466.14	22.355
466.49	22.421
466.84	22.700
467.19	22.370
467.54	21.798
467.89	20.862
468.24	21.330
468.59	20.730
468.94	21.445
469.29	19.976
469.64	21.043
469.99	20.650
470.34	21.040
470.68	20.916
471.03	20.825
471.38	21.648
471.73	21.391
472.08	21.637
472.43	21.132
472.78	22.229
473.13	20.923
473.48	21.390
473.83	22.055
474.17	21.278
474.52	21.407
474.87	21.262
475.22	20.620
475.57	20.509
475.92	20.956
476.27	20.554
476.61	20.976
476.96	20.855
477.31	20.891
477.66	21.511
478.01	20.590
478.36	20.837
478.70	19.901
479.05	20.603
479.40	20.632
479.75	20.125
480.10	20.275
480.45	20.510
480.79	21.043
481.14	20.083
481.49	20.309
481.84	21.018
482.19	20.688
482.53	21.163
482.88	20.337
483.23	19.120
483.58	20.044
483.92	20.346
484.27	20.322
484.62	19.926
484.97	20.295
485.31	20.169
485.66	20.659
486.01	21.145
486.36	22.073
486.70	22.592
487.05	22.445
487.40	21.453
487.75	20.356
488.09	20.344
488.44	20.222
488.79	19.899
489.13	19.117
489.48	19.146
489.83	19.356
490.17	18.915
490.52	19.253
490.87	19.459
491.22	19.584
491.56	19.113
491.91	19.625
492.26	19.688
492.60	18.758
492.95	19.351
493.30	19.095
493.64	19.360
493.99	19.386
494.34	19.077
494.68	19.186
495.03	19.295
495.37	18.953
495.72	18.231
496.07	18.975
496.41	18.404
496.76	19.183
497.11	19.023
497.45	17.825
497.80	18.880
498.14	18.912
498.49	18.428
498.84	18.007
499.18	19.703
499.53	18.879
499.87	18.681
500.22	17.676
500.56	18.399
500.91	18.307
501.26	18.955
501.60	18.471
501.95	18.628
502.29	17.946
502.64	19.021
502.98	18.680
503.33	17.754
503.67	18.099
504.02	18.082
504.36	18.722
504.71	18.374
505.06	18.327
505.40	17.962
505.75	18.443
506.09	18.094
506.44	18.384
506.78	17.936
507.13	18.488
507.47	17.717
507.82	17.614
508.16	16.778
508.51	17.206
508.85	18.044
509.19	17.811
509.54	17.147
509.88	17.824
510.23	17.921
510.57	18.028
510.92	17.949
511.26	17.124
511.61	16.562
511.95	17.326
512.30	17.824
512.64	16.542
512.98	17.309
513.33	17.641
513.67	16.930
514.02	17.731
514.36	18.261
514.70	16.979
515.05	17.258
515.39	17.375
515.74	17.126
516.08	17.010
516.42	18.263
516.77	17.087
517.11	16.400
517.46	17.126
517.80	17.584
518.14	16.921
518.49	16.920
518.83	16.605
519.17	16.263
519.52	17.034
519.86	17.423
520.20	16.933
520.55	15.827
520.89	15.991
521.23	15.969
521.58	16.723
521.92	16.601
522.26	15.922
522.61	16.956
522.95	16.494
523.29	16.897
523.64	16.760
523.98	16.942
524.32	17.593
524.66	16.619
525.01	16.308
525.35	16.198
525.69	15.255
526.04	16.590
526.38	15.920
526.72	16.667
527.06	15.718
527.41	17.085
527.75	15.736
528.09	16.647
528.43	15.986
528.78	15.838
529.12	15.539
529.46	15.795
529.80	17.105
530.15	16.290
530.49	15.777
530.83	16.234
531.17	16.428
531.51	15.945
531.86	15.925
532.20	16.585
532.54	15.619
532.88	15.697
533.22	16.382
533.57	16.676
533.91	16.947
534.25	16.111
534.59	17.069
534.93	16.299
535.27	16.056
535.62	16.941
535.96	16.676
536.30	15.805
536.64	16.697
536.98	16.359
537.32	15.802
537.66	15.471
538.01	15.529
538.35	15.591
538.69	16.286
539.03	16.616
539.37	16.254
539.71	16.997
540.05	16.906
540.39	15.831
540.73	15.361
541.07	15.573
541.42	16.361
541.76	16.133
542.10	15.802
542.44	15.834
542.78	16.910
543.12	15.137
543.46	16.728
543.80	14.868
544.14	16.098
544.48	15.426
544.82	16.756
545.16	16.577
545.50	17.076
545.84	16.044
546.18	16.049
546.52	15.860
546.86	15.409
547.20	15.903
547.54	16.042
547.88	16.034
548.22	15.848
548.56	16.442
548.90	15.761
549.24	15.927
549.58	15.016
549.92	15.306
550.26	14.822
550.60	14.742
550.94	15.524
551.28	15.314
551.62	15.633
551.96	14.822
552.30	16.507
552.64	15.557
552.98	15.721
553.32	16.013
553.66	16.399
554.00	16.456
554.34	15.830
554.68	15.236
555.02	15.506
555.36	16.371
555.69	14.862
556.03	15.574
556.37	15.832
556.71	16.107
557.05	15.080
557.39	15.660
557.73	15.654
558.07	15.430
558.41	16.013
558.75	14.807
559.08	15.101
559.42	14.266
559.76	16.079
560.10	16.008
560.44	14.908
560.78	15.688
561.12	16.256
561.45	16.180
561.79	15.873
562.13	15.773
562.47	15.413
562.81	15.696
563.15	16.035
563.48	15.786
563.82	16.143
564.16	15.809
564.50	15.733
564.84	15.634
565.17	16.000
565.51	15.535
565.85	15.974
566.19	16.244
566.52	14.980
566.86	16.355
567.20	15.933
567.54	15.454
567.88	16.361
568.21	16.749
568.55	17.170
568.89	17.567
569.23	17.026
569.56	17.898
569.90	18.140
570.24	18.415
570.57	17.896
570.91	17.789
571.25	18.397
571.59	18.397
571.92	18.710
572.26	17.840
572.60	18.182
572.93	17.868
573.27	18.123
573.61	18.714
573.95	18.572
574.28	18.594
574.62	18.690
574.96	18.350
575.29	18.506
575.63	17.995
575.97	17.892
576.30	17.592
576.64	18.063
576.98	18.155
577.31	18.725
577.65	19.026
577.98	19.221
578.32	18.901
578.66	18.828
578.99	18.308
579.33	18.386
579.67	17.860
580.00	17.959
580.34	18.106
580.67	18.049
581.01	18.347
581.35	19.034
581.68	19.166
582.02	19.186
582.35	19.599
582.69	18.919
583.02	18.763
583.36	18.525
583.70	17.723
584.03	17.591
584.37	17.699
584.70	17.751
585.04	17.903
585.37	18.316
585.71	18.123
586.04	18.428
586.38	18.129
586.72	17.674
587.05	17.703
587.39	18.449
587.72	18.421
588.06	18.109
588.39	18.322
588.73	17.487
589.06	17.551
589.40	17.886
589.73	17.320
590.07	17.407
590.40	17.748
590.73	17.497
591.07	17.163
591.40	16.874
591.74	16.534
592.07	17.296
592.41	16.995
592.74	17.536
593.08	18.153
593.41	18.898
593.75	18.362
594.08	18.267
594.41	17.885
594.75	17.436
595.08	16.857
595.42	17.370
595.75	17.695
596.09	17.045
596.42	17.091
596.75	17.368
597.09	17.253
597.42	17.362
597.75	17.131
598.09	17.103
598.42	17.129
598.76	17.042
599.09	17.836
599.42	17.264
599.76	17.233
600.09	17.885
600.42	17.618
600.76	18.065
601.09	17.391
601.42	16.958
601.76	16.931
602.09	17.370
602.42	17.048
602.76	17.011
603.09	17.364
603.42	17.197
603.76	17.125
604.09	17.885
604.42	17.101
604.76	16.781
605.09	16.594
605.42	16.866
605.75	17.462
606.09	17.619
606.42	17.329
606.75	16.754
607.09	16.551
607.42	16.956
607.75	17.468
608.08	16.851
608.42	17.574
608.75	16.376
609.08	16.638
609.41	16.850
609.75	16.518
610.08	17.326
610.41	16.822
610.74	16.975
611.07	16.519
611.41	17.085
611.74	16.905
612.07	16.550
612.40	16.587
612.73	16.528
613.07	16.235
613.40	16.843
613.73	16.659
614.06	16.830
614.39	16.375
614.72	16.642
615.06	16.073
615.39	16.675
615.72	16.872
616.05	16.464
616.38	16.398
616.71	16.876
617.05	15.921
617.38	16.800
617.71	16.523
618.04	17.161
618.37	16.721
618.70	15.950
619.03	14.695
619.36	15.105
619.69	16.015
620.03	16.133
620.36	15.153
620.69	15.978
621.02	15.486
621.35	14.804
621.68	15.401
622.01	14.804
622.34	14.086
622.67	15.326
623.00	14.642
623.33	15.660
623.66	16.148
623.99	14.681
624.32	16.309
624.65	15.251
624.99	15.150
625.32	16.003
625.65	15.105
625.98	14.780
626.31	15.308
626.64	15.824
626.97	15.004
627.30	14.351
627.63	14.929
627.96	15.541
628.29	14.708
628.62	13.518
628.95	14.636
629.28	13.764
629.61	14.983
629.94	13.975
630.26	14.492
630.59	14.767
630.92	14.113
631.25	15.116
631.58	14.313
631.91	12.559
632.24	13.929
632.57	13.472
632.90	12.839
633.23	13.469
633.56	13.265
633.89	12.603
634.22	12.994
634.55	13.674
634.88	12.662
635.20	12.271
635.53	13.898
635.86	12.676
636.19	13.043
636.52	13.397
636.85	13.075
637.18	13.202
637.51	13.011
637.83	14.507
638.16	12.212
638.49	12.324
638.82	11.838
639.15	12.371
639.48	14.319
639.81	12.702
640.13	13.545
640.46	12.000
640.79	10.907
641.12	12.919
641.45	13.300
641.77	14.763
642.10	11.417
642.43	13.431
642.76	11.247
643.09	11.644
643.41	12.185
643.74	12.138
644.07	14.345
644.40	10.750
644.73	12.772
645.05	12.041
645.38	13.381
645.71	10.704
646.04	14.204
646.36	11.095
646.69	11.350
647.02	11.621
647.35	12.824
647.67	10.950
648.00	10.191
648.33	10.661
648.66	13.837
648.98	14.558
649.31	13.532
649.64	14.210
649.96	13.130
650.29	12.100
650.62	11.174
650.94	11.562
651.27	11.527
651.60	11.111
651.92	12.158
652.25	12.301
652.58	11.692
652.90	11.047
653.23	13.662
653.56	11.270
653.88	14.045
654.21	11.408
654.54	12.861
654.86	12.606
655.19	14.931
655.52	17.318
655.84	20.424
656.17	26.126
656.49	35.778
656.82	38.525
657.15	28.145
657.47	20.405
657.80	14.317
658.13	10.788
658.45	13.481
658.78	16.019
659.10	15.269
659.43	14.722
659.75	14.025
660.08	12.941
660.41	12.490
660.73	11.859
661.06	10.279
661.38	11.962
661.71	11.379
662.03	9.877
662.36	10.376
662.68	9.568
663.01	12.035
663.33	11.531
663.66	13.370
663.98	10.000
664.31	9.381
664.63	9.056
664.96	10.526
665.28	10.708
665.61	11.538
665.93	9.643
666.26	11.470
666.58	9.594
666.91	11.589
667.23	11.048
667.56	11.243
667.88	11.200
668.21	8.984
668.53	6.757
668.86	10.609
669.18	7.943
669.50	9.940
669.83	9.800
670.15	11.811
670.48	10.317
670.80	8.987
671.13	11.342
671.45	11.220
671.77	12.618
672.10	14.833
672.42	13.107
672.75	10.138
673.07	11.791
673.39	12.018
673.72	11.242
674.04	12.759
674.37	12.165
674.69	11.111
675.01	9.143
675.34	7.443
675.66	9.925
675.98	12.127
676.31	10.547
676.63	13.498
676.95	13.410
677.28	13.306
677.60	8.661
677.92	10.749
678.25	12.797
678.57	11.566
678.89	12.287
679.22	12.021
679.54	12.650
679.86	12.203
680.18	11.940
680.51	13.365
680.83	12.930
681.15	12.241
681.48	13.472
681.80	12.608
682.12	12.063
682.44	11.686
682.77	10.993
683.09	10.985
683.41	10.853
683.73	11.954
684.06	9.594
684.38	10.376
684.70	12.029
685.02	12.565
685.34	11.814
685.67	12.145
685.99	11.656
686.31	12.064
686.63	12.322
686.96	12.934
687.28	12.378
687.60	12.121
687.92	10.772
688.24	13.022
688.56	10.172
688.89	11.615
689.21	11.742
689.53	10.588
689.85	10.454
690.17	12.407
690.49	11.355
690.82	11.089
691.14	7.490
691.46	11.472
691.78	13.076
692.10	12.110
692.42	12.679
692.74	12.523
693.06	9.259
693.39	12.524
693.71	11.090
694.03	11.896
694.35	12.000
694.67	13.758
694.99	10.426
695.31	9.934
695.63	7.792
695.95	12.008
696.27	9.451
696.59	13.053
696.91	10.360
697.23	12.088
697.56	11.405
697.88	10.606
698.20	13.183
698.52	13.826
698.84	12.058
699.16	14.490
699.48	12.762
699.80	11.277
700.12	13.319
700.44	9.447
700.76	11.401
701.08	13.559
701.40	10.881
701.72	9.204
702.04	11.765
702.36	6.283
702.68	12.469
703.00	10.513
703.32	9.113
703.64	12.958
703.96	10.263
704.28	9.091
704.60	11.646
704.91	9.184
705.23	10.411
705.55	10.306
705.87	10.000
706.19	11.656
706.51	7.831
706.83	8.357
707.15	7.937
707.47	8.879
707.79	13.100
708.11	8.898
708.43	12.258
708.74	7.589
709.06	11.833
709.38	12.207
709.70	13.151
710.02	9.561
710.34	12.766
710.66	10.335
710.98	11.749
711.29	6.593
711.61	9.887
711.93	8.547
712.25	10.000
712.57	13.864
712.89	13.235
713.20	10.651
713.52	13.006
713.84	15.320
714.16	12.105
714.48	12.113
714.80	13.247
715.11	11.024
715.43	11.936
715.75	13.158
716.07	11.878
716.39	12.568
716.70	9.940
717.02	8.852
717.34	7.317
717.66	7.718
717.97	3.425
718.29	8.591
718.61	4.934
718.93	10.356
719.24	12.112
719.56	10.123
719.88	7.508
720.20	9.677
720.51	11.180
720.83	8.125
721.15	10.197
721.46	6.849
721.78	9.667
722.10	8.091
722.42	12.081
722.73	7.419
723.05	9.123
723.37	11.458
723.68	13.978
724.00	12.274
724.32	8.803
724.63	6.643
724.95	14.894
725.27	10.105
725.58	8.127
725.90	12.069
726.22	10.972
726.53	11.364
726.85	11.635
727.16	16.012
727.48	14.067
727.80	10.596
728.11	7.067
728.43	10.101
728.74	12.040
729.06	11.589
729.38	14.610
729.69	9.732
730.01	13.988
730.32	7.576
730.64	13.208
730.96	11.491
731.27	15.922
731.59	13.736
731.90	10.909
732.22	10.937
732.53	7.459
732.85	11.714
733.16	10.264
733.48	11.890
733.80	6.964
734.11	12.536
734.43	12.703
734.74	15.949
735.06	14.322
735.37	11.081
735.69	10.270
736.00	13.842
736.32	10.243
736.63	12.500
736.95	11.782
737.26	11.515
737.58	11.212
737.89	13.235
738.21	13.456
738.52	9.180
738.83	10.239
739.15	9.929
739.46	13.265
739.78	11.350
740.09	11.748
740.41	14.286
740.72	12.000
741.04	12.298
741.35	13.684
741.66	9.804
741.98	9.836
742.29	10.460
742.61	9.211
742.92	11.538
743.23	12.996
743.55	9.302
743.86	10.400
744.18	7.851
744.49	5.063
744.80	12.346
745.12	10.127
745.43	8.537
745.74	12.500
746.06	9.322
746.37	13.080
746.68	13.821
747.00	10.000
747.31	10.300
747.62	12.692
747.94	8.907
748.25	9.639
748.56	8.980
748.88	4.701
749.19	9.483
749.50	9.091
749.82	12.851
750.13	12.811
750.44	8.667
750.75	13.231
751.07	13.231
751.38	13.249
751.69	13.099
752.01	13.592
752.32	15.033
752.63	10.204
752.94	11.765
753.26	8.178
753.57	8.148
753.88	9.738
754.19	11.897
754.51	11.897
754.82	10.932
755.13	14.098
755.44	12.628
755.75	13.487
756.07	14.328
756.38	11.006
756.69	13.554
757.00	12.465
757.31	11.202
757.63	10.230
757.94	14.085
758.25	12.867
758.56	14.597
758.87	15.000
759.18	12.533
759.50	13.881
759.81	16.246
760.12	13.747
760.43	13.281
760.74	15.271
761.05	14.250
761.36	12.289
761.67	12.183
761.99	12.703
762.30	12.195
762.61	8.581
762.92	14.925
763.23	13.109
763.54	15.108
763.85	12.371
764.16	13.131
764.47	13.732
764.78	15.655
765.10	11.144
765.41	17.949
765.72	11.376
766.03	13.842
766.34	11.285
766.65	7.666
766.96	10.757
767.27	12.442
767.58	10.945
767.89	13.462
768.20	7.042
768.51	8.796
768.82	10.040
769.13	10.606
769.44	7.308
769.75	13.718
770.06	10.385
770.37	16.142
770.68	12.766
770.99	4.453
771.30	19.630
771.61	15.209
771.92	7.037
772.23	15.789
772.54	3.241
772.85	18.894
773.16	10.000
773.47	11.640
773.78	4.324
774.09	9.659
774.39	17.000
774.70	13.115
775.01	6.098
775.32	4.706
775.63	9.202
775.94	0.000
776.25	7.097
776.56	14.744
776.87	8.163
777.18	9.655
777.48	4.895
777.79	6.757
778.10	5.147
778.41	6.944
778.72	7.586
779.03	4.321
779.34	12.727
779.65	7.772
779.95	8.889
780.26	10.227
780.57	14.194
780.88	5.797
781.19	12.903
781.50	17.059
781.80	12.903
782.11	7.937
782.42	6.061
782.73	6.587
783.04	7.263
783.34	12.727
783.65	2.614
783.96	11.180
784.27	5.952
784.57	9.272
784.88	6.429
785.19	5.512
785.50	7.087
785.81	6.767
786.11	5.385
786.42	-3.597
786.73	5.036
787.04	6.015
787.34	3.279
787.65	5.600
787.96	11.940
788.26	11.189
788.57	19.580
788.88	9.868
789.19	10.458
789.49	6.849
789.80	9.220
790.11	2.362
790.41	4.687
790.72	12.712
791.03	-4.854
791.33	6.957
791.64	9.649
791.95	2.679
792.25	2.857
792.56	10.714
792.87	-1.042
793.17	-6.250
793.48	-6.250
793.79	-7.229
794.09	0.000
794.40	0.917
794.70	14.286
795.01	10.390
795.32	12.329
795.62	15.493
795.93	5.303
796.23	9.016
796.54	7.143
796.85	1.064
797.15	-5.435
797.46	-16.438
797.76	-6.250
798.07	-4.348
798.37	-12.371
798.68	-10.390
798.99	8.046
799.29	6.742
799.60	3.191
799.90	12.048
800.21	-9.231
800.51	0.000
800.82	-5.882
801.12	-23.288
801.43	-10.294
801.73	-15.254
802.04	-12.121
802.34	-3.333
802.65	-8.475
802.95	-10.448
803.26	-8.475
803.56	-13.699
803.87	2.857
804.17	2.740
804.48	-19.298
804.78	-12.500
805.09	-25.862
805.39	-1.351
805.70	-18.310
806.00	9.756
806.30	-8.434
806.61	-10.959
806.91	10.577
807.22	11.111
807.52	-6.897
807.83	4.167
808.13	7.229
808.43	0.000
808.74	0.000
809.04	-19.118
809.35	-6.667
809.65	2.857
809.95	6.849
810.26	-17.544
810.56	-1.724
810.86	-2.941
811.17	7.018
811.47	-8.197
811.77	-13.333
812.08	-1.695
812.38	1.667
812.69	1.724
812.99	-24.528
813.29	-38.462
813.59	-20.000
813.90	0.000
814.20	-9.091
814.50	12.676
814.81	5.128
815.11	-4.918
815.41	-7.463
815.72	13.793
816.02	-1.786
816.32	6.667
816.62	-9.091
816.93	-15.556
817.23	3.704
817.53	-10.638
817.84	2.381
818.14	-35.294
818.44	0.000
818.74	-17.778
819.04	-33.333
819.35	-34.286
819.65	-53.846
819.95	-16.981
820.25	11.111
820.56	-16.667
820.86	-34.375
821.16	-15.385
821.46	-11.628
821.76	-28.000
822.07	-12.500
822.37	-17.391
822.67	-19.149
822.97	-43.243
823.27	-15.000
823.57	-20.408
823.88	-6.667
824.18	-2.500
824.48	-23.333
824.78	-36.000
825.08	-30.303
825.38	-24.444
825.69	-12.766
825.99	-30.556
826.29	-34.286
826.59	-15.385
826.89	-18.605
827.19	0.000
827.49	-20.588
827.79	-8.333
828.09	-21.622
828.39	-46.667
828.70	-9.756
829.00	-13.953
829.30	-42.857
829.60	-26.471
829.90	-23.913
830.20	-11.429
830.50	-17.241
830.80	-61.111
831.10	-57.692
831.40	-23.529
831.70	23.810
832.00	-16.129
832.30	-141.176
832.60	-87.500
832.90	-138.462
833.20	-36.842
833.50	-95.000
833.80	-31.579
834.10	-119.048
834.40	-13.889
834.70	18.750
835.00	-17.143
835.30	-11.765
835.60	-33.333
835.90	-44.000
836.20	-100.000
836.50	-16.000
836.80	-57.576
837.10	-48.148
837.40	-7.407
837.70	-62.500
838.00	-3.571
838.30	-47.826
838.60	0.000
838.90	-92.857
839.19	-104.348
839.49	-216.667
839.79	-78.261
840.09	-112.500
840.39	-95.000
840.69	-29.032
840.99	-39.286
841.29	-80.000
841.59	-68.421
841.88	10.256
842.18	-26.923
842.48	-200.000
842.78	-90.000
843.08	-43.333
843.38	-19.355
843.68	-116.667
843.97	2.941
844.27	-81.250
844.57	-105.263
844.87	-180.000
845.17	-113.333
845.47	0.000
845.76	-71.429
846.06	-133.333
846.36	-82.353
846.66	-53.846
846.96	-120.000
847.25	-64.706
847.55	-26.087
847.85	-30.000
848.15	-94.118
848.44	-154.545
848.74	-4.762
849.04	-50.000
849.34	-68.750
849.63	-43.478
849.93	700.000
850.23	-86.667
850.53	-11.538
850.82	-109.091
851.12	-27.273
851.42	-118.182
851.71	-69.231
852.01	-115.000
852.31	-146.154
852.61	-52.632
852.90	-91.667
853.20	-66.667
853.50	-300.000
853.79	-19.048
854.09	-72.727
854.39	-141.667
854.68	-22.581
854.98	-50.000
855.28	-66.667
855.57	-53.571
855.87	-56.000
856.17	-59.091
856.46	-29.630
856.76	-72.222
857.05	-39.130
857.35	-12.500
857.65	-92.308
857.94	-4.762
858.24	-25.926
858.53	-43.478
858.83	-52.941
859.13	-47.059
859.42	-47.059
859.72	-71.429
860.01	-95.000
860.31	-200.000
860.60	-70.000
860.90	-26.667
861.20	-16.667
861.49	-76.923
861.79	-36.667
862.08	-130.769
862.38	-15.625
862.67	-64.706
862.97	0.000
863.26	-133.333
863.56	-100.000
863.85	-54.545
864.15	-27.778
864.44	-233.333
864.74	-71.429
865.03	-87.500
865.33	-270.000
865.62	-38.710
865.92	-27.273
866.21	-21.739
866.51	-92.857
866.80	-400.000
867.10	-141.667
867.39	-133.333
867.69	1700.000
867.98	-128.571
868.27	5.882
868.57	-1700.000
868.86	-220.000
869.16	-19.048
869.45	0.000
869.75	-9.091
870.04	-114.286
870.33	-100.000
870.63	-300.000
870.92	-425.000
871.22	-187.500
871.51	-200.000
871.80	-700.000
872.10	-750.000
>>>>>End Processed Spectral Data<<<<<
