SpectraSuite Data File
++++++++++++++++++++++++++++++++++++
Date: Thu May 14 16:21:32 PDT 2015
User: schluterlab
Dark Spectrum Present: Yes
Reference Spectrum Present: Yes
Number of Sampled Component Spectra: 1
Spectrometers: USB2E3373
Integration Time (usec): 3000 (USB2E3373)
Spectra Averaged: 3 (USB2E3373)
Boxcar Smoothing: 0 (USB2E3373)
Correct for Electrical Dark: No (USB2E3373)
Strobe/Lamp Enabled: No (USB2E3373)
Correct for Detector Non-linearity: No (USB2E3373)
Correct for Stray Light: No (USB2E3373)
Number of Pixels in Processed Spectrum: 2048
>>>>>Begin Processed Spectral Data<<<<<
178.53	0.000
178.91	100.000
179.29	-2200.000
179.67	-1300.000
180.04	178.571
180.42	60.000
180.80	240.000
181.18	200.000
181.56	100.000
181.94	125.000
182.31	-75.000
182.69	133.333
183.07	-500.000
183.45	150.000
183.83	-166.667
184.20	-466.667
184.58	300.000
184.96	-325.000
185.34	-44.444
185.72	0.000
186.09	144.444
186.47	600.000
186.85	380.000
187.23	-122.222
187.61	-1600.000
187.98	20.000
188.36	150.000
188.74	-200.000
189.12	-300.000
189.49	0.000
189.87	-200.000
190.25	0.000
190.63	20.000
191.00	-144.444
191.38	0.000
191.76	-225.000
192.14	-33.333
192.51	550.000
192.89	66.667
193.27	0.000
193.65	-14.286
194.02	-1800.000
194.40	85.714
194.78	300.000
195.15	0.000
195.53	9.091
195.91	0.000
196.29	-75.000
196.66	-53.846
197.04	-600.000
197.42	-85.714
197.79	-400.000
198.17	12.500
198.55	-28.571
198.92	0.000
199.30	-100.000
199.68	-18.182
200.05	21.429
200.43	-750.000
200.81	214.286
201.18	0.000
201.56	277.778
201.94	0.000
202.31	200.000
202.69	-200.000
203.07	700.000
203.44	11.111
203.82	-150.000
204.19	33.333
204.57	-66.667
204.95	-62.500
205.32	-800.000
205.70	50.000
206.08	-150.000
206.45	-216.667
206.83	240.000
207.20	66.667
207.58	-120.000
207.96	-83.333
208.33	150.000
208.71	116.667
209.08	-83.333
209.46	0.000
209.84	200.000
210.21	200.000
210.59	50.000
210.96	366.667
211.34	0.000
211.71	0.000
212.09	-900.000
212.46	0.000
212.84	750.000
213.22	-60.000
213.59	25.000
213.97	-20.000
214.34	-233.333
214.72	66.667
215.09	-150.000
215.47	0.000
215.84	157.143
216.22	500.000
216.59	0.000
216.97	40.000
217.34	-150.000
217.72	-50.000
218.09	-225.000
218.47	-225.000
218.84	0.000
219.22	80.000
219.59	-5.882
219.97	55.000
220.34	450.000
220.72	-77.778
221.09	-15.385
221.47	-133.333
221.84	-30.000
222.22	-171.429
222.59	0.000
222.97	25.000
223.34	-200.000
223.72	-100.000
224.09	-200.000
224.46	-250.000
224.84	-60.000
225.21	-100.000
225.59	-175.000
225.96	-250.000
226.34	7.692
226.71	233.333
227.08	-400.000
227.46	0.000
227.83	-25.000
228.21	0.000
228.58	125.000
228.95	-50.000
229.33	-58.333
229.70	-100.000
230.08	5.263
230.45	170.000
230.82	-266.667
231.20	-28.571
231.57	-33.333
231.95	-136.364
232.32	36.364
232.69	-15.000
233.07	-25.000
233.44	-17.647
233.81	-70.000
234.19	-16.667
234.56	36.364
234.93	13.793
235.31	-15.789
235.68	-50.000
236.05	-65.000
236.43	-3.846
236.80	56.000
237.17	0.000
237.55	9.091
237.92	-150.000
238.29	-12.903
238.67	0.000
239.04	-11.111
239.41	-9.524
239.79	-6.522
240.16	-14.815
240.53	-32.609
240.91	-23.529
241.28	-11.475
241.65	-5.970
242.02	14.865
242.40	-15.385
242.77	-2.667
243.14	-8.537
243.51	-13.158
243.89	-17.949
244.26	1.980
244.63	-3.922
245.00	0.000
245.38	-5.263
245.75	-10.619
246.12	5.556
246.49	-4.651
246.87	-4.286
247.24	1.987
247.61	0.000
247.98	-5.369
248.36	-3.704
248.73	-4.294
249.10	-4.918
249.47	0.995
249.84	1.571
250.22	-2.591
250.59	0.556
250.96	0.455
251.33	-4.592
251.70	0.427
252.08	0.833
252.45	4.918
252.82	-3.306
253.19	0.781
253.56	1.141
253.94	-4.615
254.31	0.000
254.68	-0.350
255.05	2.932
255.42	2.041
255.79	-1.618
256.16	-1.987
256.54	-1.987
256.91	-1.311
257.28	-1.967
257.65	-2.229
258.02	-2.360
258.39	0.000
258.76	0.917
259.14	-1.724
259.51	0.288
259.88	-1.133
260.25	0.556
260.62	1.096
260.99	2.459
261.36	1.340
261.73	-1.592
262.10	-1.099
262.47	-1.609
262.85	2.525
263.22	-2.338
263.59	-0.526
263.96	-0.767
264.33	-4.092
264.70	-0.247
265.07	2.387
265.44	2.494
265.81	-0.694
266.18	2.948
266.55	0.893
266.92	-0.456
267.29	2.407
267.66	-0.665
268.03	0.437
268.40	-0.209
268.77	-2.733
269.14	-0.661
269.51	0.219
269.88	2.049
270.25	-0.604
270.62	-0.422
270.99	1.212
271.36	0.792
271.73	1.572
272.10	1.002
272.47	1.403
272.84	0.201
273.21	0.000
273.58	0.605
273.95	-0.192
274.32	0.000
274.69	0.000
275.06	0.733
275.43	-0.370
275.80	0.705
276.17	-1.481
276.54	-1.306
276.91	-0.537
277.28	0.181
277.65	1.616
278.02	0.184
278.39	-0.725
278.76	0.879
279.13	-0.355
279.50	1.203
279.87	1.073
280.23	-1.232
280.60	2.542
280.97	2.303
281.34	-1.019
281.71	0.846
282.08	-0.498
282.45	0.000
282.82	1.413
283.19	-1.777
283.56	-0.164
283.92	2.853
284.29	1.422
284.66	1.149
285.03	-0.962
285.40	1.546
285.77	0.000
286.14	2.137
286.51	1.218
286.87	1.106
287.24	1.205
287.61	0.000
287.98	-1.057
288.35	0.000
288.72	-1.036
289.08	2.782
289.45	1.183
289.82	0.452
290.19	0.718
290.56	2.254
290.93	1.141
291.29	1.102
291.66	0.275
292.03	0.407
292.40	2.721
292.77	0.270
293.13	1.759
293.50	0.788
293.87	1.208
294.24	3.333
294.60	2.276
294.97	-1.074
295.34	1.665
295.71	1.261
296.08	0.904
296.44	1.838
296.81	1.096
297.18	1.121
297.55	0.708
297.91	1.068
298.28	0.711
298.65	2.140
299.02	1.417
299.38	1.945
299.75	1.636
300.12	0.579
300.48	1.843
300.85	2.362
301.22	1.902
301.59	1.256
301.95	1.130
302.32	3.111
302.69	1.752
303.05	2.503
303.42	2.993
303.79	2.604
304.15	2.839
304.52	1.797
304.89	2.304
305.25	2.070
305.62	2.194
305.99	2.371
306.35	0.706
306.72	2.482
307.09	2.437
307.45	3.623
307.82	2.725
308.19	2.624
308.55	3.857
308.92	2.240
309.29	3.927
309.65	1.754
310.02	2.673
310.38	2.559
310.75	3.010
311.12	4.123
311.48	2.933
311.85	3.419
312.22	4.269
312.58	4.789
312.95	3.537
313.31	4.336
313.68	5.037
314.05	6.143
314.41	6.102
314.78	4.723
315.14	5.082
315.51	6.556
315.87	6.751
316.24	6.849
316.61	7.726
316.97	5.701
317.34	6.966
317.70	7.860
318.07	7.672
318.43	8.588
318.80	9.615
319.16	8.412
319.53	8.055
319.89	7.975
320.26	9.342
320.62	9.663
320.99	10.434
321.35	10.259
321.72	11.628
322.08	10.370
322.45	11.743
322.81	12.094
323.18	11.947
323.54	12.241
323.91	12.722
324.27	12.737
324.64	14.274
325.00	13.599
325.37	15.152
325.73	15.372
326.10	16.302
326.46	17.264
326.83	16.653
327.19	17.008
327.56	16.285
327.92	18.096
328.29	17.742
328.65	17.085
329.01	17.597
329.38	17.860
329.74	19.521
330.11	19.949
330.47	19.882
330.84	18.949
331.20	20.500
331.56	19.497
331.93	19.749
332.29	21.356
332.66	20.349
333.02	20.017
333.38	19.883
333.75	19.276
334.11	19.349
334.48	21.782
334.84	21.410
335.20	20.067
335.57	20.826
335.93	22.066
336.29	19.800
336.66	19.680
337.02	21.321
337.38	20.493
337.75	21.653
338.11	21.278
338.47	21.257
338.84	20.812
339.20	19.966
339.56	21.087
339.93	20.854
340.29	21.659
340.65	21.817
341.02	22.346
341.38	21.908
341.74	20.904
342.11	21.319
342.47	20.334
342.83	21.820
343.20	21.177
343.56	21.251
343.92	21.137
344.28	21.406
344.65	21.318
345.01	21.763
345.37	20.918
345.73	20.577
346.10	21.061
346.46	21.203
346.82	21.498
347.19	21.467
347.55	22.003
347.91	20.654
348.27	22.458
348.63	20.792
349.00	21.402
349.36	21.338
349.72	21.131
350.08	22.065
350.45	22.357
350.81	21.644
351.17	20.376
351.53	21.304
351.89	21.640
352.26	20.896
352.62	22.015
352.98	21.527
353.34	20.314
353.70	21.803
354.07	21.311
354.43	20.881
354.79	21.391
355.15	21.339
355.51	22.515
355.87	20.942
356.24	22.662
356.60	20.916
356.96	20.979
357.32	21.115
357.68	22.182
358.04	21.632
358.40	21.940
358.77	20.833
359.13	22.083
359.49	21.338
359.85	21.682
360.21	21.879
360.57	21.034
360.93	21.791
361.29	22.175
361.66	22.013
362.02	22.408
362.38	22.207
362.74	21.508
363.10	22.902
363.46	22.091
363.82	21.733
364.18	21.886
364.54	23.098
364.90	22.140
365.26	22.000
365.62	22.867
365.98	22.328
366.35	21.745
366.71	21.429
367.07	22.936
367.43	21.799
367.79	22.561
368.15	22.876
368.51	22.057
368.87	22.926
369.23	22.067
369.59	22.951
369.95	23.056
370.31	23.228
370.67	21.596
371.03	22.922
371.39	21.424
371.75	22.627
372.11	22.019
372.47	23.020
372.83	21.990
373.19	22.215
373.55	22.222
373.91	21.950
374.27	23.157
374.63	23.072
374.99	22.480
375.35	22.597
375.71	22.452
376.07	22.402
376.42	22.481
376.78	23.369
377.14	22.645
377.50	22.391
377.86	23.399
378.22	23.114
378.58	23.187
378.94	23.298
379.30	23.199
379.66	23.516
380.02	23.024
380.38	24.078
380.74	22.986
381.09	22.822
381.45	23.580
381.81	24.415
382.17	23.990
382.53	23.158
382.89	23.307
383.25	23.505
383.61	23.206
383.97	23.204
384.32	23.266
384.68	22.912
385.04	23.540
385.40	24.337
385.76	23.798
386.12	23.579
386.48	23.647
386.83	23.659
387.19	23.754
387.55	22.477
387.91	22.717
388.27	23.788
388.62	23.024
388.98	23.125
389.34	24.691
389.70	23.068
390.06	23.387
390.42	22.349
390.77	24.383
391.13	23.768
391.49	22.464
391.85	22.303
392.20	23.310
392.56	23.922
392.92	23.282
393.28	23.770
393.64	22.682
393.99	23.707
394.35	24.357
394.71	24.431
395.07	22.216
395.42	22.844
395.78	23.888
396.14	22.698
396.50	23.040
396.85	22.779
397.21	22.367
397.57	22.733
397.92	22.050
398.28	22.379
398.64	23.112
399.00	22.356
399.35	22.827
399.71	22.717
400.07	23.189
400.42	23.108
400.78	23.553
401.14	22.482
401.49	23.422
401.85	22.384
402.21	22.306
402.57	23.474
402.92	23.227
403.28	22.365
403.63	21.539
403.99	22.447
404.35	22.854
404.70	21.870
405.06	22.935
405.42	22.190
405.77	22.792
406.13	22.366
406.49	23.029
406.84	22.050
407.20	22.918
407.55	22.108
407.91	23.130
408.27	22.261
408.62	21.990
408.98	21.997
409.34	22.757
409.69	22.559
410.05	22.157
410.40	22.274
410.76	21.929
411.11	22.092
411.47	22.973
411.83	22.163
412.18	21.867
412.54	22.703
412.89	22.817
413.25	22.686
413.60	21.137
413.96	22.902
414.31	21.926
414.67	21.944
415.03	21.785
415.38	22.573
415.74	21.075
416.09	22.023
416.45	21.540
416.80	22.032
417.16	21.775
417.51	22.540
417.87	22.747
418.22	22.156
418.58	21.314
418.93	23.458
419.29	22.380
419.64	22.089
420.00	21.602
420.35	22.010
420.71	22.975
421.06	21.564
421.42	22.936
421.77	21.271
422.12	22.833
422.48	22.427
422.83	22.508
423.19	22.281
423.54	22.345
423.90	21.480
424.25	22.773
424.61	21.986
424.96	21.801
425.31	23.355
425.67	22.491
426.02	22.136
426.38	22.101
426.73	22.321
427.09	23.183
427.44	22.884
427.79	22.996
428.15	23.059
428.50	22.191
428.85	22.675
429.21	23.404
429.56	22.655
429.92	22.359
430.27	22.651
430.62	23.302
430.98	22.282
431.33	22.972
431.68	22.318
432.04	23.261
432.39	23.139
432.74	23.174
433.10	23.256
433.45	23.077
433.80	23.230
434.16	23.967
434.51	24.203
434.86	22.856
435.22	23.539
435.57	24.292
435.92	23.817
436.28	23.777
436.63	23.976
436.98	23.618
437.34	24.464
437.69	24.601
438.04	23.797
438.39	24.411
438.75	24.737
439.10	24.260
439.45	24.203
439.81	24.124
440.16	23.539
440.51	24.526
440.86	24.958
441.22	25.027
441.57	24.633
441.92	25.461
442.27	25.556
442.63	25.484
442.98	25.560
443.33	24.882
443.68	25.273
444.03	25.588
444.39	25.428
444.74	25.319
445.09	24.785
445.44	25.184
445.79	25.766
446.15	26.670
446.50	25.323
446.85	25.924
447.20	25.387
447.55	25.262
447.91	25.969
448.26	25.476
448.61	25.080
448.96	26.985
449.31	25.716
449.66	24.946
450.02	25.738
450.37	25.892
450.72	25.511
451.07	26.765
451.42	25.592
451.77	25.625
452.12	25.903
452.47	26.203
452.83	26.464
453.18	26.095
453.53	25.962
453.88	25.897
454.23	25.876
454.58	26.059
454.93	24.636
455.28	26.851
455.63	26.322
455.98	26.872
456.34	25.972
456.69	26.102
457.04	26.596
457.39	25.998
457.74	26.678
458.09	25.755
458.44	26.616
458.79	25.580
459.14	25.800
459.49	26.542
459.84	25.656
460.19	25.430
460.54	26.746
460.89	26.416
461.24	25.460
461.59	26.508
461.94	24.701
462.29	25.588
462.64	25.468
462.99	25.926
463.34	25.633
463.69	25.615
464.04	26.737
464.39	25.729
464.74	25.941
465.09	26.471
465.44	26.073
465.79	25.965
466.14	25.482
466.49	26.368
466.84	25.785
467.19	26.185
467.54	26.263
467.89	25.690
468.24	25.263
468.59	25.304
468.94	24.709
469.29	24.895
469.64	25.238
469.99	26.259
470.34	25.248
470.68	27.068
471.03	25.868
471.38	26.357
471.73	25.358
472.08	26.269
472.43	25.226
472.78	26.008
473.13	26.296
473.48	25.982
473.83	26.001
474.17	25.733
474.52	26.158
474.87	25.471
475.22	25.972
475.57	24.299
475.92	25.087
476.27	26.411
476.61	24.870
476.96	25.287
477.31	25.644
477.66	26.810
478.01	25.318
478.36	24.626
478.70	25.369
479.05	26.227
479.40	25.469
479.75	25.168
480.10	25.486
480.45	25.205
480.79	24.989
481.14	25.000
481.49	25.488
481.84	24.456
482.19	24.946
482.53	25.404
482.88	25.698
483.23	25.167
483.58	25.109
483.92	24.734
484.27	24.598
484.62	24.670
484.97	25.117
485.31	23.970
485.66	23.683
486.01	24.229
486.36	24.797
486.70	25.434
487.05	25.258
487.40	24.518
487.75	24.097
488.09	23.781
488.44	23.859
488.79	24.115
489.13	24.077
489.48	23.728
489.83	23.742
490.17	24.058
490.52	24.179
490.87	24.196
491.22	24.133
491.56	24.445
491.91	24.597
492.26	24.535
492.60	24.486
492.95	24.309
493.30	23.846
493.64	24.661
493.99	24.386
494.34	24.347
494.68	23.897
495.03	24.053
495.37	24.412
495.72	23.356
496.07	24.671
496.41	23.509
496.76	24.604
497.11	24.544
497.45	24.169
497.80	23.190
498.14	23.764
498.49	23.989
498.84	23.949
499.18	23.392
499.53	23.229
499.87	23.385
500.22	22.974
500.56	23.977
500.91	23.661
501.26	23.818
501.60	23.023
501.95	23.665
502.29	23.695
502.64	23.787
502.98	23.382
503.33	23.456
503.67	22.983
504.02	23.336
504.36	24.129
504.71	23.702
505.06	23.465
505.40	23.172
505.75	23.087
506.09	23.527
506.44	23.213
506.78	23.211
507.13	23.836
507.47	23.828
507.82	22.917
508.16	22.514
508.51	23.066
508.85	22.485
509.19	23.685
509.54	22.815
509.88	23.167
510.23	22.681
510.57	24.360
510.92	22.738
511.26	21.597
511.61	22.598
511.95	22.304
512.30	23.092
512.64	22.039
512.98	22.061
513.33	22.681
513.67	22.234
514.02	22.637
514.36	22.609
514.70	22.240
515.05	22.576
515.39	22.992
515.74	22.587
516.08	22.927
516.42	23.339
516.77	22.397
517.11	22.176
517.46	23.489
517.80	22.715
518.14	22.633
518.49	22.289
518.83	21.660
519.17	21.540
519.52	22.537
519.86	22.228
520.20	21.991
520.55	22.125
520.89	21.791
521.23	21.496
521.58	21.695
521.92	22.323
522.26	21.478
522.61	21.528
522.95	20.934
523.29	22.011
523.64	21.581
523.98	22.191
524.32	21.948
524.66	21.742
525.01	20.725
525.35	20.678
525.69	21.404
526.04	20.666
526.38	21.667
526.72	21.165
527.06	21.114
527.41	20.641
527.75	21.378
528.09	20.779
528.43	20.485
528.78	20.751
529.12	21.044
529.46	20.911
529.80	20.881
530.15	20.870
530.49	20.107
530.83	21.015
531.17	19.952
531.51	21.119
531.86	20.673
532.20	20.671
532.54	19.928
532.88	20.364
533.22	20.978
533.57	20.600
533.91	20.034
534.25	20.972
534.59	20.747
534.93	19.355
535.27	19.493
535.62	20.011
535.96	20.569
536.30	20.447
536.64	19.520
536.98	21.095
537.32	19.877
537.66	20.337
538.01	19.758
538.35	20.463
538.69	18.990
539.03	20.049
539.37	19.965
539.71	19.820
540.05	20.264
540.39	19.010
540.73	19.126
541.07	18.639
541.42	19.138
541.76	18.683
542.10	19.059
542.44	18.149
542.78	19.100
543.12	19.190
543.46	18.987
543.80	18.765
544.14	19.090
544.48	18.735
544.82	19.569
545.16	18.843
545.50	18.993
545.84	18.861
546.18	19.383
546.52	18.790
546.86	19.119
547.20	19.084
547.54	18.227
547.88	18.324
548.22	18.947
548.56	18.724
548.90	18.328
549.24	18.602
549.58	18.423
549.92	19.133
550.26	19.547
550.60	18.634
550.94	19.664
551.28	17.360
551.62	19.272
551.96	18.706
552.30	19.630
552.64	18.544
552.98	18.590
553.32	18.328
553.66	17.685
554.00	17.970
554.34	17.954
554.68	18.722
555.02	19.054
555.36	18.343
555.69	17.873
556.03	17.970
556.37	18.461
556.71	18.009
557.05	18.211
557.39	17.518
557.73	17.635
558.07	17.152
558.41	18.870
558.75	17.512
559.08	18.093
559.42	17.558
559.76	18.046
560.10	17.482
560.44	18.008
560.78	18.625
561.12	16.441
561.45	18.309
561.79	17.766
562.13	16.821
562.47	17.694
562.81	17.342
563.15	18.056
563.48	18.334
563.82	17.956
564.16	16.778
564.50	16.567
564.84	17.640
565.17	17.824
565.51	16.398
565.85	17.399
566.19	17.396
566.52	17.086
566.86	16.978
567.20	16.531
567.54	17.366
567.88	16.667
568.21	16.403
568.55	16.787
568.89	17.204
569.23	17.237
569.56	16.022
569.90	16.892
570.24	16.830
570.57	16.389
570.91	15.922
571.25	16.633
571.59	16.309
571.92	16.578
572.26	16.305
572.60	16.107
572.93	16.616
573.27	15.369
573.61	15.776
573.95	16.169
574.28	16.048
574.62	15.553
574.96	15.637
575.29	15.752
575.63	15.893
575.97	15.593
576.30	15.741
576.64	15.295
576.98	15.467
577.31	15.769
577.65	15.972
577.98	15.907
578.32	15.389
578.66	15.530
578.99	15.503
579.33	15.540
579.67	15.005
580.00	15.352
580.34	15.118
580.67	14.960
581.01	14.950
581.35	15.098
581.68	15.723
582.02	15.179
582.35	15.932
582.69	15.618
583.02	15.306
583.36	15.075
583.70	15.224
584.03	14.687
584.37	14.786
584.70	15.183
585.04	14.857
585.37	15.223
585.71	15.189
586.04	14.795
586.38	15.367
586.72	14.841
587.05	14.786
587.39	15.084
587.72	14.928
588.06	15.135
588.39	15.086
588.73	15.238
589.06	15.265
589.40	15.274
589.73	15.135
590.07	15.020
590.40	15.416
590.73	15.129
591.07	15.376
591.40	14.114
591.74	15.302
592.07	15.104
592.41	14.590
592.74	15.477
593.08	14.904
593.41	14.931
593.75	14.799
594.08	15.117
594.41	14.808
594.75	14.447
595.08	14.569
595.42	14.708
595.75	14.982
596.09	14.842
596.42	14.475
596.75	14.743
597.09	14.626
597.42	13.707
597.75	14.387
598.09	14.444
598.42	15.038
598.76	14.215
599.09	14.311
599.42	14.080
599.76	14.757
600.09	14.681
600.42	14.481
600.76	14.201
601.09	13.674
601.42	14.246
601.76	13.655
602.09	14.189
602.42	14.322
602.76	13.985
603.09	13.803
603.42	14.812
603.76	13.883
604.09	14.478
604.42	14.312
604.76	14.498
605.09	14.081
605.42	14.394
605.75	14.269
606.09	13.811
606.42	14.301
606.75	13.868
607.09	13.863
607.42	13.757
607.75	13.951
608.08	14.365
608.42	13.180
608.75	14.303
609.08	13.879
609.41	14.160
609.75	13.170
610.08	14.072
610.41	13.679
610.74	14.328
611.07	13.854
611.41	14.126
611.74	13.718
612.07	14.446
612.40	13.831
612.73	14.132
613.07	13.741
613.40	14.052
613.73	12.711
614.06	13.739
614.39	13.751
614.72	12.906
615.06	13.282
615.39	13.340
615.72	13.839
616.05	13.696
616.38	12.866
616.71	13.427
617.05	12.993
617.38	13.590
617.71	12.905
618.04	13.330
618.37	13.989
618.70	13.971
619.03	12.903
619.36	12.700
619.69	13.517
620.03	12.932
620.36	12.761
620.69	12.647
621.02	13.714
621.35	13.135
621.68	13.449
622.01	12.527
622.34	12.971
622.67	13.265
623.00	12.348
623.33	12.741
623.66	13.294
623.99	12.837
624.32	13.450
624.65	13.063
624.99	12.809
625.32	13.521
625.65	13.891
625.98	12.678
626.31	13.253
626.64	12.527
626.97	13.428
627.30	12.149
627.63	12.603
627.96	14.114
628.29	13.152
628.62	12.762
628.95	12.358
629.28	11.725
629.61	11.616
629.94	12.218
630.26	12.034
630.59	12.694
630.92	12.121
631.25	13.327
631.58	12.618
631.91	11.621
632.24	12.680
632.57	13.093
632.90	12.839
633.23	13.571
633.56	13.061
633.89	12.707
634.22	13.514
634.55	12.526
634.88	12.013
635.20	13.025
635.53	12.429
635.86	12.893
636.19	12.725
636.52	13.819
636.85	13.381
637.18	11.331
637.51	12.151
637.83	12.514
638.16	12.788
638.49	11.854
638.82	12.176
639.15	13.173
639.48	12.587
639.81	12.471
640.13	13.781
640.46	11.273
640.79	9.559
641.12	11.677
641.45	13.174
641.77	13.350
642.10	11.155
642.43	13.431
642.76	11.518
643.09	12.055
643.41	11.345
643.74	12.276
644.07	12.414
644.40	11.457
644.73	11.466
645.05	11.454
645.38	12.662
645.71	13.783
646.04	13.630
646.36	10.657
646.69	10.736
647.02	12.538
647.35	11.298
647.67	12.721
648.00	11.306
648.33	11.261
648.66	11.983
648.98	11.429
649.31	12.314
649.64	11.952
649.96	12.334
650.29	11.405
650.62	11.174
650.94	10.360
651.27	11.377
651.60	10.380
651.92	12.918
652.25	13.025
652.58	11.417
652.90	9.593
653.23	11.972
653.56	11.983
653.88	12.640
654.21	11.690
654.54	10.694
654.86	12.323
655.19	9.787
655.52	12.769
655.84	11.929
656.17	13.826
656.49	19.523
656.82	21.201
657.15	16.050
657.47	11.848
657.80	8.931
658.13	6.615
658.45	8.779
658.78	10.412
659.10	10.187
659.43	10.263
659.75	9.809
660.08	9.356
660.41	9.926
660.73	10.490
661.06	9.398
661.38	10.367
661.71	10.172
662.03	11.817
662.36	13.596
662.68	12.383
663.01	11.504
663.33	11.153
663.66	14.652
663.98	11.923
664.31	12.758
664.63	10.019
664.96	12.886
665.28	11.797
665.61	12.238
665.93	10.536
666.26	11.470
666.58	10.148
666.91	13.084
667.23	12.190
667.56	11.834
667.88	11.200
668.21	10.352
668.53	9.266
668.86	11.002
669.18	10.183
669.50	10.139
669.83	9.000
670.15	9.646
670.48	11.508
670.80	11.663
671.13	10.208
671.45	8.858
671.77	11.299
672.10	10.833
672.42	10.194
672.75	9.831
673.07	10.896
673.39	8.166
673.72	10.067
674.04	12.586
674.37	11.270
674.69	11.640
675.01	9.143
675.34	10.305
675.66	7.303
675.98	10.634
676.31	9.961
676.63	9.506
676.95	10.153
677.28	9.476
677.60	8.661
677.92	10.557
678.25	9.689
678.57	10.676
678.89	10.068
679.22	9.756
679.54	9.402
679.86	9.661
680.18	9.619
680.51	9.434
680.83	11.784
681.15	8.103
681.48	8.636
681.80	11.572
682.12	9.965
682.44	10.184
682.77	10.638
683.09	11.553
683.41	11.240
683.73	10.816
684.06	8.118
684.38	9.123
684.70	8.977
685.02	11.015
685.34	7.488
685.67	8.360
685.99	9.356
686.31	8.285
686.63	7.583
686.96	10.568
687.28	9.935
687.60	7.744
687.92	9.968
688.24	10.184
688.56	10.172
688.89	8.893
689.21	9.393
689.53	8.627
689.85	7.495
690.17	10.000
690.49	9.363
690.82	9.901
691.14	5.870
691.46	10.899
691.78	10.497
692.10	9.358
692.42	8.036
692.74	10.163
693.06	8.333
693.39	9.108
693.71	8.647
694.03	10.781
694.35	8.952
694.67	7.187
694.99	8.085
695.31	7.726
695.63	9.740
695.95	7.867
696.27	7.692
696.59	11.062
696.91	9.234
697.23	10.989
697.56	7.332
697.88	6.629
698.20	9.605
698.52	12.500
698.84	7.277
699.16	11.429
699.48	6.276
699.80	8.298
700.12	11.354
700.44	8.756
700.76	9.264
701.08	9.685
701.40	10.622
701.72	5.970
702.04	8.289
702.36	7.853
702.68	10.758
703.00	7.090
703.32	7.143
703.64	9.780
703.96	6.444
704.28	6.143
704.60	9.367
704.91	9.184
705.23	10.685
705.55	7.242
705.87	10.000
706.19	9.509
706.51	9.036
706.83	9.510
707.15	7.407
707.47	9.346
707.79	8.734
708.11	4.661
708.43	7.742
708.74	7.143
709.06	6.497
709.38	10.329
709.70	10.918
710.02	8.010
710.34	8.511
710.66	5.866
710.98	9.290
711.29	4.121
711.61	8.475
711.93	9.687
712.25	7.568
712.57	11.799
712.89	10.882
713.20	8.876
713.52	11.272
713.84	7.799
714.16	8.421
714.48	7.216
714.80	11.169
715.11	6.037
715.43	7.162
715.75	6.842
716.07	7.182
716.39	9.563
716.70	6.627
717.02	8.197
717.34	5.575
717.66	8.725
717.97	7.192
718.29	8.935
718.61	7.566
718.93	4.207
719.24	4.037
719.56	7.362
719.88	9.610
720.20	3.548
720.51	6.832
720.83	9.375
721.15	4.605
721.46	6.164
721.78	3.667
722.10	8.414
722.42	6.376
722.73	7.419
723.05	8.772
723.37	7.639
723.68	7.885
724.00	4.332
724.32	5.634
724.63	5.944
724.95	12.411
725.27	8.014
725.58	6.360
725.90	7.241
726.22	6.897
726.53	7.143
726.85	8.176
727.16	6.344
727.48	10.092
727.80	7.947
728.11	3.534
728.43	8.081
728.74	7.023
729.06	6.291
729.38	5.519
729.69	6.040
730.01	5.952
730.32	4.242
730.64	7.233
730.96	3.416
731.27	8.380
731.59	7.418
731.90	5.455
732.22	5.729
732.53	6.354
732.85	8.000
733.16	9.091
733.48	7.012
733.80	8.914
734.11	4.843
734.43	6.216
734.74	8.354
735.06	7.035
735.37	4.865
735.69	9.459
736.00	7.627
736.32	8.895
736.63	5.833
736.95	6.609
737.26	4.848
737.58	6.061
737.89	5.294
738.21	8.563
738.52	6.230
738.83	6.826
739.15	8.865
739.46	5.782
739.78	7.669
740.09	5.731
740.41	6.706
740.72	7.000
741.04	9.061
741.35	7.018
741.66	7.843
741.98	10.656
742.29	3.347
742.61	5.702
742.92	5.000
743.23	7.581
743.55	5.814
743.86	5.600
744.18	3.306
744.49	4.219
744.80	5.350
745.12	4.219
745.43	6.504
745.74	5.603
746.06	5.085
746.37	8.861
746.68	11.382
747.00	6.250
747.31	4.721
747.62	8.077
747.94	8.097
748.25	2.410
748.56	5.714
748.88	7.265
749.19	7.759
749.50	2.597
749.82	6.426
750.13	7.829
750.44	6.000
750.75	8.000
751.07	6.769
751.38	9.779
751.69	5.112
752.01	5.825
752.32	7.190
752.63	3.061
752.94	3.806
753.26	5.948
753.57	7.407
753.88	4.494
754.19	6.431
754.51	4.823
754.82	6.431
755.13	11.475
755.44	7.167
755.75	3.289
756.07	10.149
756.38	5.660
756.69	6.627
757.00	5.263
757.31	7.923
757.63	5.627
757.94	5.869
758.25	6.546
758.56	5.882
758.87	8.182
759.18	5.867
759.50	6.516
759.81	5.042
760.12	7.008
760.43	6.250
760.74	7.389
761.05	6.500
761.36	6.747
761.67	4.569
761.99	6.486
762.30	5.488
762.61	6.601
762.92	5.224
763.23	7.116
763.54	5.036
763.85	6.186
764.16	3.367
764.47	5.986
764.78	5.751
765.10	7.918
765.41	8.974
765.72	4.233
766.03	9.322
766.34	3.448
766.65	3.136
766.96	3.187
767.27	4.147
767.58	0.995
767.89	7.212
768.20	8.920
768.51	6.944
768.82	8.032
769.13	6.439
769.44	1.923
769.75	9.025
770.06	10.000
770.37	9.449
770.68	1.702
770.99	-0.405
771.30	11.481
771.61	9.886
771.92	0.741
772.23	7.692
772.54	4.167
772.85	7.834
773.16	10.476
773.47	3.175
773.78	-1.081
774.09	4.545
774.39	12.500
774.70	6.011
775.01	2.439
775.32	1.765
775.63	7.975
775.94	1.911
776.25	5.806
776.56	9.615
776.87	6.803
777.18	4.828
777.48	9.091
777.79	4.054
778.10	-1.471
778.41	2.083
778.72	8.276
779.03	7.407
779.34	8.485
779.65	6.736
779.95	5.556
780.26	4.545
780.57	-2.581
780.88	10.145
781.19	6.452
781.50	6.471
781.80	9.140
782.11	6.349
782.42	0.505
782.73	2.994
783.04	5.028
783.34	0.606
783.65	-1.961
783.96	2.484
784.27	8.929
784.57	5.298
784.88	5.000
785.19	-3.150
785.50	-2.362
785.81	5.263
786.11	8.462
786.42	0.719
786.73	4.317
787.04	-3.008
787.34	4.098
787.65	4.000
787.96	7.463
788.26	6.993
788.57	3.497
788.88	7.237
789.19	9.804
789.49	0.685
789.80	11.348
790.11	2.362
790.41	0.781
790.72	0.847
791.03	-6.796
791.33	6.087
791.64	7.018
791.95	1.786
792.25	-6.667
792.56	0.893
792.87	-6.250
793.17	5.357
793.48	-1.042
793.79	-13.253
794.09	3.670
794.40	0.917
794.70	8.163
795.01	4.545
795.32	1.370
795.62	3.521
795.93	-0.758
796.23	7.377
796.54	5.357
796.85	1.064
797.15	-1.087
797.46	0.000
797.76	1.250
798.07	1.087
798.37	-5.155
798.68	-15.584
798.99	-10.345
799.29	2.247
799.60	6.383
799.90	-4.819
800.21	-16.923
800.51	-7.463
800.82	-8.824
801.12	-13.699
801.43	-11.765
801.73	-15.254
802.04	-6.061
802.34	-13.333
802.65	0.000
802.95	-5.970
803.26	5.085
803.56	0.000
803.87	-1.429
804.17	-5.479
804.48	-31.579
804.78	-1.389
805.09	-12.069
805.39	-5.405
805.70	-19.718
806.00	6.098
806.30	-2.410
806.61	-1.370
806.91	3.846
807.22	-3.333
807.52	-1.149
807.83	12.500
808.13	4.819
808.43	5.618
808.74	-1.250
809.04	-16.176
809.35	-9.333
809.65	-5.714
809.95	-2.740
810.26	-22.807
810.56	-6.897
810.86	8.824
811.17	-10.526
811.47	-4.918
811.77	-22.222
812.08	10.169
812.38	11.667
812.69	20.690
812.99	-5.660
813.29	-33.333
813.59	6.000
813.90	7.018
814.20	-18.182
814.50	8.451
814.81	-11.538
815.11	-3.279
815.41	-11.940
815.72	1.724
816.02	5.357
816.32	-13.333
816.62	2.273
816.93	-24.444
817.23	9.259
817.53	-25.532
817.84	-9.524
818.14	20.588
818.44	-2.041
818.74	-13.333
819.04	-12.821
819.35	-11.429
819.65	-61.538
819.95	-9.434
820.25	26.667
820.56	-26.190
820.86	12.500
821.16	-15.385
821.46	-13.953
821.76	-10.000
822.07	1.786
822.37	-13.043
822.67	2.128
822.97	-18.919
823.27	-10.000
823.57	-8.163
823.88	15.556
824.18	2.500
824.48	-6.667
824.78	-28.000
825.08	-24.242
825.38	-4.444
825.69	17.021
825.99	-30.556
826.29	-54.286
826.59	-10.256
826.89	-18.605
827.19	-8.000
827.49	-32.353
827.79	4.167
828.09	-18.919
828.39	-33.333
828.70	-24.390
829.00	-16.279
829.30	-28.571
829.60	-5.882
829.90	-13.043
830.20	-11.429
830.50	-31.034
830.80	-22.222
831.10	-42.308
831.40	-32.353
831.70	14.286
832.00	35.484
832.30	-170.588
832.60	-33.333
832.90	-30.769
833.20	-36.842
833.50	-65.000
833.80	-21.053
834.10	-85.714
834.40	2.778
834.70	25.000
835.00	-11.429
835.30	-2.941
835.60	-43.333
835.90	-32.000
836.20	-63.636
836.50	-12.000
836.80	-39.394
837.10	-48.148
837.40	25.926
837.70	-62.500
838.00	14.286
838.30	-30.435
838.60	3.448
838.90	-64.286
839.19	-60.870
839.49	-150.000
839.79	-8.696
840.09	-87.500
840.39	-95.000
840.69	-22.581
840.99	-46.429
841.29	-53.333
841.59	-31.579
841.88	23.077
842.18	-53.846
842.48	-140.000
842.78	-15.000
843.08	3.333
843.38	16.129
843.68	-55.556
843.97	14.706
844.27	18.750
844.57	-36.842
844.87	-170.000
845.17	-13.333
845.47	14.286
845.76	-38.095
846.06	-122.222
846.36	-82.353
846.66	-11.538
846.96	-46.667
847.25	-52.941
847.55	-13.043
847.85	-15.000
848.15	29.412
848.44	-72.727
848.74	23.810
849.04	-37.500
849.34	6.250
849.63	-30.435
849.93	500.000
850.23	6.667
850.53	7.692
850.82	-27.273
851.12	13.636
851.42	-145.455
851.71	53.846
852.01	-35.000
852.31	-76.923
852.61	-52.632
852.90	8.333
853.20	-72.222
853.50	-177.778
853.79	-52.381
854.09	-54.545
854.39	-158.333
854.68	-58.065
854.98	-38.462
855.28	22.222
855.57	-42.857
855.87	-40.000
856.17	-22.727
856.46	29.630
856.76	-33.333
857.05	-43.478
857.35	-8.333
857.65	-76.923
857.94	-33.333
858.24	3.704
858.53	-30.435
858.83	17.647
859.13	-35.294
859.42	-11.765
859.72	0.000
860.01	-65.000
860.31	-122.222
860.60	-20.000
860.90	-13.333
861.20	-22.222
861.49	-23.077
861.79	-13.333
862.08	-69.231
862.38	34.375
862.67	-17.647
862.97	-43.750
863.26	-133.333
863.56	-30.000
863.85	-54.545
864.15	-33.333
864.44	-300.000
864.74	-42.857
865.03	-87.500
865.33	-160.000
865.62	-6.452
865.92	40.909
866.21	17.391
866.51	-114.286
866.80	-220.000
867.10	-91.667
867.39	-75.000
867.69	1700.000
867.98	28.571
868.27	-47.059
868.57	-900.000
868.86	-130.000
869.16	-28.571
869.45	-16.667
869.75	-36.364
870.04	-85.714
870.33	-83.333
870.63	-242.857
870.92	125.000
871.22	-325.000
871.51	-145.455
871.80	-533.333
872.10	0.000
>>>>>End Processed Spectral Data<<<<<
