SpectraSuite Data File
++++++++++++++++++++++++++++++++++++
Date: Thu May 14 16:07:39 PDT 2015
User: schluterlab
Dark Spectrum Present: Yes
Reference Spectrum Present: Yes
Number of Sampled Component Spectra: 1
Spectrometers: USB2E3373
Integration Time (usec): 3000 (USB2E3373)
Spectra Averaged: 3 (USB2E3373)
Boxcar Smoothing: 0 (USB2E3373)
Correct for Electrical Dark: No (USB2E3373)
Strobe/Lamp Enabled: No (USB2E3373)
Correct for Detector Non-linearity: No (USB2E3373)
Correct for Stray Light: No (USB2E3373)
Number of Pixels in Processed Spectrum: 2048
>>>>>Begin Processed Spectral Data<<<<<
178.53	0.000
178.91	200.000
179.29	-2300.000
179.67	-1100.000
180.04	207.143
180.42	110.000
180.80	240.000
181.18	-1600.000
181.56	-200.000
181.94	325.000
182.31	-400.000
182.69	200.000
183.07	-400.000
183.45	475.000
183.83	-200.000
184.20	-333.333
184.58	1400.000
184.96	-400.000
185.34	-133.333
185.72	-100.000
186.09	288.889
186.47	950.000
186.85	480.000
187.23	-233.333
187.61	-1700.000
187.98	300.000
188.36	375.000
188.74	-300.000
189.12	-400.000
189.49	-62.500
189.87	-175.000
190.25	-55.556
190.63	-160.000
191.00	-111.111
191.38	0.000
191.76	-450.000
192.14	-283.333
192.51	650.000
192.89	-33.333
193.27	0.000
193.65	-128.571
194.02	-1700.000
194.40	-185.714
194.78	257.143
195.15	0.000
195.53	-27.273
195.91	0.000
196.29	-25.000
196.66	-76.923
197.04	-1900.000
197.42	-300.000
197.79	-450.000
198.17	-175.000
198.55	-100.000
198.92	-66.667
199.30	-112.500
199.68	9.091
200.05	-7.143
200.43	-550.000
200.81	157.143
201.18	0.000
201.56	311.111
201.94	0.000
202.31	333.333
202.69	-111.111
203.07	1200.000
203.44	-144.444
203.82	-325.000
204.19	-116.667
204.57	-216.667
204.95	-150.000
205.32	-1400.000
205.70	250.000
206.08	-83.333
206.45	-183.333
206.83	340.000
207.20	-83.333
207.58	-480.000
207.96	-333.333
208.33	-83.333
208.71	58.333
209.08	-33.333
209.46	0.000
209.84	316.667
210.21	500.000
210.59	950.000
210.96	466.667
211.34	-50.000
211.71	-125.000
212.09	-1300.000
212.46	0.000
212.84	1350.000
213.22	-280.000
213.59	-275.000
213.97	0.000
214.34	-366.667
214.72	383.333
215.09	-375.000
215.47	0.000
215.84	171.429
216.22	600.000
216.59	-60.000
216.97	-160.000
217.34	-450.000
217.72	-137.500
218.09	-375.000
218.47	-375.000
218.84	0.000
219.22	220.000
219.59	-35.294
219.97	-45.000
220.34	850.000
220.72	-200.000
221.09	-76.923
221.47	-400.000
221.84	-100.000
222.22	-285.714
222.59	0.000
222.97	25.000
223.34	-320.000
223.72	-1100.000
224.09	-275.000
224.46	-375.000
224.84	-100.000
225.21	-185.714
225.59	-300.000
225.96	-250.000
226.34	-19.231
226.71	250.000
227.08	-350.000
227.46	-26.667
227.83	-375.000
228.21	-36.842
228.58	187.500
228.95	950.000
229.33	-41.667
229.70	-160.000
230.08	5.263
230.45	140.000
230.82	33.333
231.20	-21.429
231.57	-58.333
231.95	-163.636
232.32	-127.273
232.69	-20.000
233.07	-300.000
233.44	-47.059
233.81	-40.000
234.19	-33.333
234.56	-59.091
234.93	3.448
235.31	-52.632
235.68	-33.333
236.05	-150.000
236.43	-3.846
236.80	40.000
237.17	-3.704
237.55	-6.061
237.92	-120.000
238.29	-9.677
238.67	-11.364
239.04	-30.556
239.41	16.667
239.79	-2.174
240.16	12.963
240.53	15.217
240.91	9.804
241.28	13.115
241.65	28.358
242.02	25.676
242.40	27.692
242.77	24.000
243.14	6.098
243.51	0.000
243.89	16.667
244.26	28.713
244.63	26.471
245.00	20.561
245.38	20.175
245.75	13.274
246.12	23.016
246.49	14.729
246.87	29.286
247.24	20.530
247.61	26.974
247.98	28.859
248.36	20.370
248.73	22.086
249.10	27.869
249.47	29.353
249.84	28.796
250.22	32.124
250.59	28.333
250.96	30.000
251.33	20.918
251.70	26.923
252.08	28.750
252.45	30.328
252.82	32.231
253.19	29.297
253.56	27.757
253.94	25.385
254.31	31.061
254.68	30.420
255.05	28.013
255.42	23.810
255.79	29.450
256.16	28.808
256.54	26.821
256.91	31.148
257.28	28.852
257.65	29.936
258.02	27.434
258.39	32.194
258.76	31.193
259.14	33.621
259.51	29.683
259.88	30.595
260.25	33.611
260.62	36.164
260.99	30.055
261.36	34.316
261.73	32.095
262.10	29.121
262.47	34.316
262.85	32.576
263.22	31.688
263.59	28.421
263.96	29.412
264.33	32.225
264.70	33.086
265.07	32.697
265.44	33.560
265.81	30.787
266.18	34.014
266.55	32.366
266.92	29.157
267.29	31.729
267.66	31.707
268.03	34.498
268.40	30.271
268.77	30.979
269.14	28.855
269.51	33.114
269.88	32.992
270.25	32.596
270.62	33.966
270.99	32.323
271.36	31.683
271.73	30.845
272.10	31.663
272.47	31.864
272.84	31.928
273.21	30.461
273.58	30.444
273.95	30.385
274.32	30.608
274.69	28.627
275.06	32.234
275.43	27.726
275.80	33.157
276.17	28.889
276.54	29.851
276.91	31.306
277.28	32.188
277.65	27.289
278.02	32.537
278.39	31.884
278.76	28.822
279.13	30.674
279.50	31.787
279.87	31.843
280.23	29.577
280.60	31.017
280.97	32.072
281.34	29.881
281.71	32.318
282.08	28.738
282.45	28.805
282.82	30.455
283.19	30.533
283.56	29.836
283.92	29.730
284.29	32.859
284.66	29.721
285.03	28.526
285.40	30.294
285.77	30.495
286.14	30.687
286.51	27.854
286.87	26.382
287.24	29.819
287.61	28.849
287.98	28.701
288.35	29.586
288.72	27.663
289.08	30.161
289.45	27.367
289.82	27.560
290.19	27.730
290.56	27.887
290.93	28.531
291.29	27.410
291.66	28.375
292.03	25.102
292.40	26.395
292.77	26.280
293.13	27.334
293.50	25.493
293.87	25.772
294.24	26.000
294.60	25.411
294.97	24.295
295.34	24.456
295.71	24.590
296.08	23.127
296.44	25.000
296.81	24.970
297.18	25.031
297.55	23.821
297.91	23.962
298.28	22.749
298.65	23.187
299.02	22.550
299.38	23.227
299.75	21.379
300.12	24.537
300.48	22.926
300.85	24.634
301.22	23.154
301.59	21.575
301.95	24.294
302.32	23.111
302.69	24.425
303.05	23.504
303.42	22.949
303.79	22.812
304.15	22.082
304.52	22.304
304.89	21.990
305.25	21.946
305.62	22.362
305.99	22.062
306.35	21.270
306.72	22.027
307.09	21.523
307.45	23.499
307.82	21.695
308.19	22.704
308.55	22.469
308.92	23.466
309.29	22.605
309.65	22.515
310.02	21.683
310.38	23.228
310.75	22.136
311.12	23.011
311.48	23.069
311.85	23.552
312.22	22.011
312.58	21.315
312.95	21.224
313.31	23.035
313.68	22.894
314.05	25.384
314.41	24.408
314.78	24.705
315.14	24.592
315.51	23.823
315.87	24.752
316.24	24.566
316.61	25.133
316.97	24.253
317.34	23.986
317.70	25.764
318.07	25.397
318.43	25.340
318.80	26.171
319.16	26.953
319.53	25.793
319.89	26.906
320.26	26.868
320.62	26.862
320.99	26.870
321.35	27.911
321.72	28.744
322.08	28.674
322.45	28.275
322.81	29.422
323.18	29.735
323.54	28.793
323.91	30.872
324.27	29.604
324.64	29.975
325.00	30.929
325.37	30.549
325.73	32.066
326.10	32.928
326.46	32.980
326.83	32.666
327.19	32.362
327.56	32.806
327.92	32.179
328.29	32.258
328.65	31.575
329.01	34.433
329.38	34.794
329.74	35.274
330.11	33.476
330.47	35.131
330.84	34.970
331.20	35.583
331.56	35.962
331.93	36.318
332.29	35.339
332.66	34.385
333.02	35.846
333.38	35.235
333.75	35.606
334.11	35.530
334.48	35.479
334.84	36.364
335.20	36.692
335.57	34.823
335.93	35.537
336.29	35.774
336.66	35.408
337.02	35.033
337.38	36.565
337.75	35.950
338.11	37.006
338.47	35.815
338.84	35.956
339.20	36.394
339.56	34.926
339.93	35.386
340.29	35.507
340.65	36.172
341.02	35.116
341.38	36.702
341.74	35.190
342.11	35.720
342.47	35.346
342.83	37.359
343.20	36.304
343.56	36.407
343.92	36.669
344.28	36.094
344.65	35.814
345.01	34.867
345.37	36.314
345.73	36.009
346.10	36.427
346.46	35.997
346.82	35.431
347.19	37.128
347.55	35.888
347.91	36.107
348.27	36.874
348.63	36.405
349.00	35.123
349.36	36.283
349.72	36.458
350.08	35.587
350.45	36.198
350.81	35.822
351.17	36.767
351.53	36.770
351.89	36.219
352.26	36.940
352.62	35.970
352.98	36.718
353.34	35.773
353.70	37.057
354.07	36.736
354.43	37.813
354.79	35.752
355.15	36.203
355.51	37.135
355.87	36.948
356.24	38.023
356.60	36.659
356.96	37.880
357.32	36.729
357.68	37.262
358.04	36.602
358.40	36.716
358.77	36.477
359.13	36.780
359.49	37.770
359.85	37.201
360.21	38.451
360.57	38.981
360.93	37.447
361.29	37.965
361.66	38.306
362.02	38.483
362.38	37.667
362.74	37.640
363.10	38.721
363.46	38.850
363.82	38.991
364.18	38.705
364.54	38.935
364.90	39.599
365.26	39.034
365.62	39.333
365.98	38.734
366.35	40.000
366.71	39.252
367.07	38.904
367.43	39.790
367.79	41.009
368.15	41.405
368.51	40.325
368.87	40.627
369.23	40.333
369.59	41.189
369.95	40.365
370.31	41.864
370.67	41.265
371.03	40.859
371.39	41.572
371.75	42.022
372.11	41.599
372.47	41.300
372.83	43.259
373.19	42.428
373.55	42.141
373.91	42.536
374.27	42.497
374.63	43.031
374.99	43.634
375.35	44.026
375.71	43.484
376.07	44.932
376.42	44.647
376.78	44.375
377.14	44.853
377.50	45.351
377.86	46.121
378.22	45.269
378.58	46.611
378.94	45.188
379.30	45.401
379.66	46.032
380.02	47.432
380.38	48.733
380.74	47.268
381.09	48.780
381.45	48.182
381.81	49.532
382.17	49.762
382.53	49.766
382.89	48.928
383.25	50.410
383.61	51.215
383.97	50.353
384.32	51.435
384.68	50.870
385.04	51.070
385.40	52.740
385.76	52.755
386.12	53.262
386.48	52.412
386.83	53.337
387.19	53.650
387.55	53.580
387.91	55.194
388.27	55.716
388.62	55.613
388.98	54.428
389.34	55.038
389.70	55.898
390.06	55.713
390.42	55.060
390.77	56.833
391.13	56.925
391.49	58.092
391.85	57.636
392.20	56.880
392.56	58.890
392.92	58.451
393.28	59.259
393.64	59.441
393.99	60.721
394.35	61.799
394.71	61.617
395.07	60.240
395.42	61.222
395.78	62.035
396.14	62.805
396.50	61.876
396.85	62.194
397.21	63.018
397.57	64.134
397.92	62.658
398.28	63.552
398.64	64.130
399.00	62.461
399.35	65.393
399.71	65.163
400.07	66.367
400.42	67.346
400.78	66.782
401.14	66.591
401.49	68.505
401.85	68.547
402.21	70.162
402.57	70.070
402.92	69.976
403.28	68.911
403.63	69.809
403.99	70.309
404.35	70.267
404.70	70.142
405.06	70.435
405.42	72.014
405.77	72.465
406.13	71.907
406.49	73.029
406.84	72.521
407.20	74.008
407.55	74.016
407.91	74.544
408.27	73.969
408.62	75.742
408.98	75.276
409.34	75.777
409.69	76.020
410.05	76.260
410.40	78.306
410.76	78.463
411.11	78.375
411.47	77.764
411.83	78.601
412.18	80.120
412.54	79.253
412.89	79.278
413.25	79.233
413.60	80.126
413.96	80.303
414.31	79.660
414.67	81.634
415.03	81.108
415.38	83.859
415.74	80.696
416.09	83.097
416.45	82.217
416.80	82.069
417.16	82.567
417.51	83.873
417.87	82.894
418.22	83.772
418.58	83.519
418.93	84.109
419.29	84.772
419.64	84.874
420.00	85.401
420.35	84.278
420.71	86.100
421.06	84.531
421.42	86.009
421.77	83.414
422.12	84.567
422.48	86.687
422.83	88.719
423.19	87.162
423.54	88.496
423.90	86.195
424.25	88.800
424.61	87.543
424.96	86.875
425.31	88.323
425.67	85.668
426.02	88.600
426.38	88.691
426.73	86.105
427.09	87.947
427.44	87.111
427.79	86.733
428.15	87.785
428.50	88.652
428.85	87.600
429.21	88.777
429.56	86.525
429.92	86.781
430.27	88.964
430.62	89.448
430.98	88.588
431.33	87.292
431.68	86.398
432.04	89.639
432.39	88.538
432.74	88.584
433.10	89.454
433.45	88.127
433.80	88.948
434.16	88.688
434.51	90.647
434.86	91.477
435.22	91.392
435.57	90.566
435.92	90.317
436.28	89.135
436.63	90.606
436.98	88.728
437.34	90.699
437.69	89.598
438.04	89.318
438.39	90.006
438.75	89.264
439.10	90.592
439.45	88.932
439.81	91.073
440.16	89.115
440.51	91.026
440.86	88.382
441.22	88.049
441.57	89.518
441.92	88.458
442.27	91.515
442.63	88.723
442.98	89.007
443.33	88.427
443.68	88.305
444.03	89.840
444.39	89.829
444.74	90.250
445.09	88.545
445.44	89.041
445.79	89.655
446.15	90.442
446.50	89.096
446.85	88.911
447.20	88.588
447.55	88.232
447.91	89.476
448.26	87.896
448.61	88.417
448.96	89.109
449.31	88.282
449.66	87.255
450.02	87.605
450.37	87.533
450.72	87.890
451.07	86.902
451.42	87.117
451.77	87.104
452.12	88.657
452.47	88.235
452.83	89.414
453.18	87.741
453.53	88.110
453.88	84.870
454.23	85.932
454.58	86.419
454.93	86.347
455.28	88.140
455.63	86.413
455.98	87.877
456.34	86.160
456.69	87.184
457.04	87.470
457.39	86.530
457.74	86.745
458.09	87.315
458.44	86.315
458.79	85.095
459.14	85.212
459.49	86.474
459.84	85.100
460.19	84.675
460.54	85.633
460.89	87.136
461.24	85.230
461.59	86.110
461.94	82.715
462.29	85.890
462.64	84.369
462.99	85.687
463.34	85.724
463.69	82.649
464.04	83.991
464.39	84.473
464.74	82.953
465.09	83.218
465.44	83.101
465.79	83.712
466.14	82.647
466.49	82.895
466.84	85.399
467.19	83.526
467.54	81.551
467.89	82.816
468.24	82.493
468.59	82.166
468.94	81.993
469.29	81.404
469.64	81.882
469.99	83.939
470.34	81.621
470.68	83.254
471.03	81.925
471.38	82.341
471.73	82.705
472.08	82.805
472.43	82.420
472.78	83.879
473.13	83.692
473.48	82.175
473.83	81.660
474.17	81.712
474.52	83.043
474.87	80.454
475.22	82.197
475.57	80.685
475.92	79.841
476.27	81.736
476.61	80.270
476.96	82.795
477.31	79.307
477.66	81.375
478.01	79.969
478.36	79.262
478.70	81.921
479.05	80.828
479.40	81.096
479.75	80.211
480.10	79.725
480.45	79.854
480.79	80.680
481.14	79.550
481.49	79.964
481.84	79.809
482.19	79.226
482.53	81.417
482.88	80.461
483.23	80.391
483.58	78.996
483.92	77.571
484.27	79.043
484.62	79.043
484.97	79.588
485.31	78.282
485.66	75.128
486.01	75.568
486.36	77.866
486.70	80.700
487.05	81.735
487.40	79.731
487.75	79.135
488.09	79.346
488.44	76.695
488.79	78.314
489.13	78.204
489.48	77.825
489.83	76.459
490.17	76.306
490.52	76.765
490.87	77.327
491.22	77.470
491.56	77.816
491.91	76.973
492.26	76.201
492.60	78.225
492.95	76.262
493.30	77.678
493.64	76.654
493.99	76.974
494.34	76.481
494.68	76.574
495.03	77.137
495.37	77.408
495.72	76.871
496.07	77.301
496.41	76.791
496.76	77.023
497.11	77.410
497.45	76.349
497.80	76.011
498.14	76.644
498.49	77.711
498.84	76.782
499.18	75.394
499.53	75.605
499.87	78.154
500.22	77.115
500.56	76.338
500.91	76.018
501.26	78.000
501.60	75.829
501.95	75.554
502.29	75.910
502.64	76.738
502.98	75.755
503.33	75.205
503.67	75.883
504.02	74.562
504.36	77.301
504.71	76.987
505.06	75.625
505.40	75.914
505.75	75.546
506.09	76.934
506.44	76.277
506.78	76.147
507.13	75.426
507.47	75.841
507.82	76.562
508.16	76.434
508.51	75.246
508.85	77.232
509.19	75.699
509.54	76.513
509.88	75.134
510.23	75.911
510.57	77.187
510.92	77.165
511.26	76.046
511.61	76.002
511.95	76.037
512.30	76.022
512.64	75.262
512.98	76.438
513.33	76.462
513.67	77.206
514.02	76.444
514.36	77.442
514.70	78.281
515.05	77.007
515.39	77.218
515.74	77.572
516.08	77.179
516.42	77.551
516.77	76.498
517.11	75.297
517.46	77.041
517.80	77.766
518.14	78.509
518.49	78.362
518.83	75.572
519.17	77.060
519.52	76.310
519.86	78.036
520.20	76.624
520.55	76.451
520.89	77.984
521.23	77.108
521.58	77.797
521.92	76.884
522.26	77.205
522.61	78.762
522.95	78.143
523.29	78.736
523.64	77.354
523.98	78.437
524.32	79.255
524.66	77.974
525.01	76.897
525.35	76.163
525.69	78.074
526.04	76.521
526.38	77.241
526.72	77.336
527.06	78.182
527.41	77.843
527.75	78.919
528.09	78.689
528.43	78.982
528.78	78.208
529.12	76.950
529.46	77.459
529.80	79.634
530.15	78.957
530.49	78.470
530.83	78.335
531.17	78.674
531.51	80.024
531.86	78.486
532.20	78.780
532.54	78.157
532.88	79.273
533.22	77.843
533.57	77.438
533.91	77.441
534.25	79.254
534.59	80.230
534.93	78.551
535.27	77.239
535.62	78.965
535.96	79.198
536.30	78.085
536.64	79.640
536.98	79.274
537.32	78.333
537.66	78.415
538.01	76.677
538.35	78.136
538.69	77.945
539.03	79.154
539.37	77.208
539.71	78.679
540.05	78.237
540.39	77.812
540.73	77.110
541.07	78.541
541.42	78.559
541.76	77.046
542.10	78.468
542.44	75.944
542.78	78.285
543.12	75.805
543.46	77.045
543.80	76.679
544.14	77.319
544.48	77.955
544.82	78.037
545.16	77.639
545.50	79.089
545.84	77.097
546.18	79.321
546.52	77.898
546.86	76.289
547.20	78.244
547.54	76.654
547.88	76.432
548.22	75.088
548.56	77.472
548.90	77.552
549.24	75.927
549.58	76.845
549.92	75.829
550.26	77.087
550.60	75.303
550.94	76.779
551.28	75.776
551.62	77.763
551.96	74.434
552.30	76.354
552.64	77.162
552.98	75.983
553.32	77.106
553.66	76.206
554.00	77.301
554.34	75.869
554.68	73.983
555.02	75.361
555.36	77.252
555.69	74.439
556.03	74.653
556.37	76.345
556.71	75.206
557.05	75.974
557.39	76.045
557.73	75.627
558.07	75.232
558.41	76.013
558.75	75.321
559.08	75.087
559.42	76.063
559.76	75.577
560.10	74.682
560.44	74.736
560.78	76.000
561.12	74.815
561.45	75.852
561.79	75.092
562.13	75.293
562.47	72.935
562.81	75.063
563.15	73.611
563.48	74.829
563.82	74.849
564.16	74.561
564.50	74.076
564.84	73.982
565.17	73.471
565.51	73.015
565.85	74.109
566.19	73.329
566.52	74.371
566.86	74.080
567.20	72.866
567.54	74.456
567.88	74.669
568.21	73.814
568.55	75.060
568.89	74.035
569.23	73.046
569.56	73.662
569.90	73.770
570.24	74.165
570.57	73.605
570.91	73.086
571.25	73.127
571.59	73.615
571.92	72.681
572.26	72.446
572.60	71.690
572.93	70.999
573.27	71.818
573.61	72.049
573.95	71.522
574.28	70.895
574.62	71.896
574.96	70.578
575.29	70.192
575.63	71.264
575.97	71.449
576.30	70.417
576.64	70.389
576.98	71.048
577.31	71.463
577.65	71.585
577.98	70.576
578.32	70.583
578.66	70.317
578.99	70.653
579.33	70.631
579.67	70.580
580.00	69.476
580.34	69.328
580.67	69.550
581.01	69.472
581.35	69.608
581.68	69.352
582.02	70.277
582.35	71.259
582.69	71.023
583.02	70.529
583.36	69.809
583.70	70.507
584.03	69.570
584.37	69.859
584.70	69.462
585.04	68.193
585.37	69.289
585.71	68.436
586.04	70.035
586.38	69.174
586.72	68.363
587.05	69.916
587.39	69.883
587.72	69.330
588.06	69.415
588.39	69.903
588.73	69.312
589.06	69.300
589.40	70.252
589.73	69.859
590.07	69.164
590.40	68.560
590.73	68.611
591.07	69.025
591.40	67.963
591.74	68.879
592.07	69.184
592.41	68.573
592.74	68.548
593.08	68.726
593.41	69.525
593.75	67.787
594.08	69.585
594.41	68.397
594.75	67.685
595.08	67.564
595.42	68.896
595.75	67.678
596.09	68.113
596.42	67.897
596.75	68.005
597.09	67.960
597.42	67.064
597.75	67.934
598.09	66.032
598.42	67.350
598.76	66.718
599.09	66.287
599.42	67.281
599.76	67.976
600.09	67.100
600.42	66.533
600.76	66.744
601.09	66.379
601.42	67.044
601.76	65.414
602.09	66.083
602.42	65.867
602.76	66.642
603.09	66.814
603.42	68.389
603.76	66.314
604.09	66.643
604.42	67.193
604.76	65.830
605.09	65.935
605.42	66.627
605.75	65.962
606.09	66.517
606.42	64.721
606.75	65.217
607.09	64.363
607.42	65.434
607.75	65.533
608.08	64.444
608.42	65.095
608.75	65.340
609.08	65.789
609.41	64.667
609.75	65.536
610.08	66.315
610.41	65.378
610.74	64.664
611.07	66.297
611.41	65.964
611.74	66.097
612.07	64.563
612.40	65.114
612.73	65.379
613.07	65.868
613.40	65.351
613.73	64.324
614.06	63.935
614.39	64.383
614.72	62.979
615.06	63.523
615.39	64.137
615.72	63.791
616.05	63.575
616.38	65.641
616.71	63.009
617.05	63.951
617.38	63.189
617.71	63.877
618.04	64.274
618.37	64.426
618.70	64.876
619.03	65.233
619.36	62.330
619.69	64.382
620.03	64.470
620.36	63.681
620.69	65.083
621.02	64.501
621.35	65.094
621.68	63.991
622.01	64.199
622.34	62.971
622.67	63.368
623.00	63.293
623.33	63.504
623.66	63.813
623.99	63.792
624.32	64.133
624.65	63.063
624.99	64.629
625.32	64.141
625.65	63.115
625.98	61.966
626.31	64.352
626.64	63.004
626.97	62.491
627.30	64.161
627.63	63.016
627.96	63.814
628.29	62.179
628.62	61.629
628.95	62.752
629.28	64.146
629.61	63.384
629.94	61.004
630.26	61.441
630.59	62.435
630.92	60.866
631.25	62.791
631.58	63.183
631.91	62.137
632.24	62.536
632.57	63.283
632.90	64.193
633.23	63.571
633.56	60.918
633.89	61.260
634.22	62.786
634.55	62.526
634.88	62.987
635.20	63.402
635.53	64.068
635.86	61.863
636.19	61.506
636.52	60.865
636.85	60.776
637.18	61.019
637.51	60.323
637.83	59.358
638.16	62.788
638.49	61.854
638.82	59.977
639.15	60.481
639.48	62.240
639.81	60.046
640.13	59.835
640.46	59.758
640.79	60.049
641.12	61.491
641.45	60.477
641.77	62.388
642.10	61.155
642.43	61.037
642.76	61.789
643.09	61.370
643.41	61.765
643.74	60.828
644.07	61.793
644.40	61.103
644.73	60.958
645.05	59.765
645.38	59.712
645.71	59.091
646.04	58.393
646.36	58.978
646.69	60.736
647.02	61.009
647.35	60.153
647.67	61.997
648.00	63.217
648.33	60.210
648.66	59.058
648.98	57.279
649.31	59.269
649.64	58.964
649.96	58.223
650.29	58.693
650.62	56.577
650.94	60.511
651.27	59.132
651.60	56.140
651.92	58.967
652.25	60.926
652.58	55.846
652.90	58.576
653.23	56.761
653.56	58.488
653.88	58.708
654.21	57.746
654.54	58.237
654.86	58.924
655.19	55.834
655.52	59.218
655.84	60.072
656.17	70.210
656.49	95.960
656.82	100.008
657.15	84.570
657.47	60.266
657.80	44.987
658.13	34.730
658.45	45.393
658.78	54.073
659.10	52.787
659.43	52.603
659.75	51.642
660.08	50.084
660.41	50.538
660.73	53.934
661.06	52.863
661.38	54.705
661.71	55.690
662.03	55.026
662.36	55.456
662.68	57.223
663.01	56.991
663.33	57.845
663.66	56.593
663.98	55.577
664.31	57.223
664.63	54.913
664.96	58.076
665.28	55.172
665.61	55.245
665.93	55.000
666.26	56.989
666.58	56.458
666.91	55.514
667.23	55.619
667.56	55.227
667.88	57.200
668.21	55.078
668.53	55.598
668.86	53.831
669.18	58.248
669.50	54.672
669.83	53.400
670.15	55.512
670.48	58.333
670.80	52.008
671.13	52.363
671.45	55.906
671.77	57.250
672.10	50.667
672.42	54.693
672.75	52.381
673.07	52.388
673.39	54.083
673.72	55.872
674.04	50.517
674.37	52.415
674.69	52.910
675.01	55.429
675.34	54.389
675.66	52.809
675.98	54.104
676.31	54.883
676.63	53.992
676.95	58.046
677.28	55.645
677.60	51.969
677.92	52.207
678.25	54.845
678.57	56.584
678.89	55.119
679.22	51.045
679.54	54.701
679.86	53.898
680.18	51.907
680.51	53.459
680.83	53.846
681.15	52.241
681.48	54.922
681.80	53.022
682.12	54.196
682.44	50.250
682.77	54.255
683.09	52.841
683.41	54.070
683.73	53.131
684.06	52.583
684.38	51.699
684.70	53.501
685.02	53.528
685.34	51.913
685.67	49.842
685.99	52.454
686.31	49.128
686.63	51.817
686.96	50.000
687.28	52.606
687.60	50.337
687.92	50.643
688.24	50.250
688.56	48.966
688.89	51.724
689.21	53.816
689.53	49.412
689.85	53.452
690.17	50.185
690.49	52.390
690.82	50.495
691.14	51.822
691.46	50.860
691.78	51.197
692.10	51.193
692.42	48.750
692.74	50.454
693.06	49.815
693.39	50.664
693.71	48.496
694.03	49.628
694.35	46.095
694.67	49.692
694.99	50.213
695.31	50.331
695.63	51.515
695.95	46.377
696.27	48.571
696.59	52.212
696.91	47.523
697.23	51.648
697.56	48.065
697.88	48.295
698.20	49.906
698.52	51.894
698.84	52.599
699.16	51.633
699.48	51.883
699.80	47.447
700.12	48.472
700.44	50.000
700.76	47.268
701.08	47.458
701.40	50.000
701.72	49.751
702.04	49.465
702.36	49.738
702.68	48.166
703.00	47.433
703.32	46.798
703.64	51.345
703.96	49.165
704.28	46.929
704.60	48.101
704.91	49.490
705.23	49.589
705.55	45.404
705.87	48.182
706.19	50.000
706.51	46.386
706.83	45.533
707.15	48.677
707.47	48.832
707.79	47.817
708.11	45.551
708.43	44.086
708.74	45.982
709.06	46.636
709.38	47.653
709.70	48.635
710.02	46.512
710.34	51.330
710.66	46.927
710.98	46.448
711.29	47.802
711.61	48.023
711.93	47.293
712.25	44.595
712.57	48.673
712.89	45.882
713.20	44.970
713.52	48.266
713.84	44.847
714.16	49.474
714.48	45.619
714.80	48.312
715.11	47.244
715.43	48.806
715.75	47.895
716.07	47.514
716.39	46.175
716.70	42.470
717.02	48.852
717.34	43.902
717.66	45.638
717.97	41.781
718.29	45.017
718.61	46.711
718.93	45.631
719.24	45.963
719.56	42.638
719.88	42.042
720.20	48.710
720.51	45.963
720.83	44.375
721.15	40.789
721.46	43.151
721.78	47.333
722.10	40.777
722.42	43.289
722.73	43.548
723.05	47.719
723.37	44.792
723.68	47.312
724.00	45.487
724.32	43.662
724.63	41.608
724.95	45.745
725.27	43.902
725.58	43.110
725.90	52.069
726.22	40.752
726.53	47.078
726.85	45.597
727.16	40.181
727.48	41.284
727.80	42.715
728.11	46.290
728.43	42.088
728.74	44.816
729.06	43.377
729.38	42.857
729.69	45.302
730.01	43.155
730.32	38.788
730.64	41.195
730.96	43.168
731.27	45.810
731.59	44.505
731.90	39.740
732.22	41.667
732.53	39.779
732.85	44.286
733.16	41.935
733.48	44.512
733.80	40.390
734.11	43.020
734.43	43.243
734.74	45.823
735.06	43.970
735.37	46.486
735.69	39.189
736.00	41.808
736.32	39.084
736.63	38.889
736.95	43.103
737.26	45.455
737.58	43.030
737.89	44.412
738.21	40.061
738.52	40.000
738.83	41.980
739.15	41.135
739.46	41.156
739.78	43.558
740.09	39.542
740.41	42.274
740.72	41.667
741.04	41.100
741.35	43.158
741.66	37.255
741.98	42.623
742.29	43.515
742.61	42.544
742.92	36.923
743.23	42.599
743.55	40.310
743.86	45.200
744.18	37.190
744.49	35.021
744.80	39.095
745.12	43.038
745.43	45.935
745.74	43.534
746.06	39.831
746.37	44.304
746.68	43.902
747.00	38.750
747.31	41.631
747.62	42.692
747.94	42.915
748.25	42.169
748.56	37.143
748.88	41.026
749.19	41.810
749.50	44.156
749.82	38.956
750.13	42.349
750.44	42.667
750.75	40.308
751.07	41.846
751.38	41.956
751.69	38.019
752.01	39.482
752.32	38.562
752.63	43.197
752.94	37.370
753.26	38.662
753.57	42.593
753.88	33.708
754.19	40.514
754.51	37.621
754.82	40.836
755.13	44.918
755.44	41.980
755.75	40.461
756.07	40.299
756.38	38.365
756.69	40.060
757.00	36.842
757.31	41.803
757.63	38.363
757.94	37.324
758.25	41.535
758.56	38.562
758.87	38.636
759.18	35.733
759.50	36.827
759.81	40.056
760.12	40.970
760.43	42.187
760.74	41.379
761.05	40.500
761.36	40.000
761.67	38.832
761.99	38.378
762.30	42.378
762.61	34.983
762.92	39.925
763.23	39.326
763.54	42.086
763.85	36.770
764.16	39.057
764.47	39.789
764.78	38.019
765.10	38.123
765.41	40.513
765.72	37.037
766.03	37.288
766.34	38.871
766.65	33.798
766.96	35.458
767.27	42.396
767.58	31.841
767.89	29.327
768.20	37.089
768.51	36.111
768.82	39.357
769.13	39.394
769.44	33.462
769.75	40.794
770.06	36.923
770.37	40.551
770.68	33.617
770.99	31.174
771.30	41.852
771.61	39.924
771.92	38.519
772.23	40.081
772.54	37.037
772.85	38.249
773.16	38.571
773.47	41.270
773.78	35.135
774.09	33.523
774.39	41.500
774.70	39.891
775.01	31.707
775.32	28.235
775.63	35.583
775.94	25.478
776.25	32.903
776.56	33.974
776.87	36.735
777.18	31.034
777.48	33.566
777.79	34.459
778.10	27.941
778.41	36.111
778.72	30.345
779.03	32.716
779.34	35.758
779.65	31.088
779.95	33.889
780.26	30.682
780.57	26.452
780.88	35.507
781.19	34.194
781.50	36.471
781.80	36.559
782.11	40.741
782.42	25.758
782.73	34.132
783.04	41.899
783.34	33.333
783.65	33.333
783.96	34.783
784.27	36.905
784.57	28.477
784.88	31.429
785.19	25.984
785.50	31.496
785.81	37.594
786.11	30.769
786.42	30.216
786.73	29.496
787.04	33.083
787.34	28.689
787.65	25.600
787.96	30.597
788.26	38.462
788.57	37.063
788.88	32.237
789.19	28.105
789.49	19.863
789.80	31.206
790.11	31.496
790.41	23.437
790.72	22.881
791.03	28.155
791.33	20.870
791.64	29.825
791.95	32.143
792.25	35.238
792.56	27.679
792.87	19.792
793.17	27.679
793.48	19.792
793.79	25.301
794.09	22.936
794.40	33.945
794.70	24.490
795.01	27.273
795.32	30.137
795.62	25.352
795.93	29.545
796.23	28.689
796.54	19.643
796.85	13.830
797.15	29.348
797.46	32.877
797.76	16.250
798.07	16.304
798.37	17.526
798.68	22.078
798.99	26.437
799.29	26.966
799.60	32.979
799.90	25.301
800.21	23.077
800.51	23.881
800.82	23.529
801.12	8.219
801.43	10.294
801.73	15.254
802.04	18.182
802.34	20.000
802.65	10.169
802.95	14.925
803.26	13.559
803.56	17.808
803.87	24.286
804.17	13.699
804.48	3.509
804.78	16.667
805.09	10.345
805.39	36.486
805.70	16.901
806.00	18.293
806.30	16.867
806.61	17.808
806.91	26.923
807.22	23.333
807.52	13.793
807.83	31.944
808.13	24.096
808.43	16.854
808.74	18.750
809.04	17.647
809.35	13.333
809.65	17.143
809.95	24.658
810.26	5.263
810.56	29.310
810.86	26.471
811.17	21.053
811.47	-4.918
811.77	0.000
812.08	16.949
812.38	20.000
812.69	12.069
812.99	-13.208
813.29	-15.385
813.59	10.000
813.90	17.544
814.20	18.182
814.50	23.944
814.81	15.385
815.11	31.148
815.41	17.910
815.72	37.931
816.02	19.643
816.32	22.222
816.62	-13.636
816.93	15.556
817.23	0.000
817.53	17.021
817.84	35.714
818.14	32.353
818.44	22.449
818.74	11.111
819.04	23.077
819.35	-22.857
819.65	-73.077
819.95	1.887
820.25	2.222
820.56	-14.286
820.86	-3.125
821.16	-7.692
821.46	4.651
821.76	-16.000
822.07	19.643
822.37	-2.174
822.67	-12.766
822.97	-35.135
823.27	-15.000
823.57	32.653
823.88	11.111
824.18	2.500
824.48	6.667
824.78	-20.000
825.08	9.091
825.38	13.333
825.69	8.511
825.99	8.333
826.29	-31.429
826.59	-15.385
826.89	-13.953
827.19	2.000
827.49	5.882
827.79	22.917
828.09	5.405
828.39	3.333
828.70	26.829
829.00	2.326
829.30	-14.286
829.60	14.706
829.90	0.000
830.20	-14.286
830.50	-34.483
830.80	16.667
831.10	-15.385
831.40	-5.882
831.70	-28.571
832.00	-29.032
832.30	-129.412
832.60	-37.500
832.90	-107.692
833.20	-26.316
833.50	-55.000
833.80	-21.053
834.10	-90.476
834.40	2.778
834.70	25.000
835.00	-42.857
835.30	-14.706
835.60	-46.667
835.90	16.000
836.20	-81.818
836.50	32.000
836.80	-15.152
837.10	-25.926
837.40	-29.630
837.70	-100.000
838.00	-28.571
838.30	-30.435
838.60	-3.448
838.90	-42.857
839.19	-47.826
839.49	-133.333
839.79	-4.348
840.09	-131.250
840.39	-20.000
840.69	6.452
840.99	-28.571
841.29	-60.000
841.59	-52.632
841.88	5.128
842.18	-19.231
842.48	-150.000
842.78	-35.000
843.08	-13.333
843.38	22.581
843.68	-77.778
843.97	-11.765
844.27	-75.000
844.57	-42.105
844.87	-120.000
845.17	-80.000
845.47	19.048
845.76	-47.619
846.06	-33.333
846.36	-88.235
846.66	3.846
846.96	-86.667
847.25	-35.294
847.55	4.348
847.85	-35.000
848.15	-11.765
848.44	-81.818
848.74	-23.810
849.04	-62.500
849.34	-68.750
849.63	-8.696
849.93	800.000
850.23	-13.333
850.53	-11.538
850.82	-109.091
851.12	-4.545
851.42	-100.000
851.71	-23.077
852.01	-95.000
852.31	-84.615
852.61	-73.684
852.90	-83.333
853.20	-33.333
853.50	-155.556
853.79	-47.619
854.09	-86.364
854.39	-133.333
854.68	22.581
854.98	-53.846
855.28	-16.667
855.57	-42.857
855.87	8.000
856.17	13.636
856.46	-33.333
856.76	0.000
857.05	-60.870
857.35	-50.000
857.65	-100.000
857.94	-14.286
858.24	-14.815
858.53	-21.739
858.83	-52.941
859.13	-70.588
859.42	11.765
859.72	-71.429
860.01	-55.000
860.31	-155.556
860.60	70.000
860.90	-120.000
861.20	-88.889
861.49	-69.231
861.79	-10.000
862.08	-84.615
862.38	-3.125
862.67	-35.294
862.97	-31.250
863.26	-200.000
863.56	-80.000
863.85	-109.091
864.15	-61.111
864.44	-466.667
864.74	-128.571
865.03	-43.750
865.33	-170.000
865.62	-38.710
865.92	-22.727
866.21	13.043
866.51	-21.429
866.80	-280.000
867.10	-141.667
867.39	-183.333
867.69	1600.000
867.98	-42.857
868.27	-5.882
868.57	-2300.000
868.86	-140.000
869.16	-9.524
869.45	-20.833
869.75	-63.636
870.04	-200.000
870.33	-91.667
870.63	-228.571
870.92	-250.000
871.22	-250.000
871.51	-109.091
871.80	-933.333
872.10	-750.000
>>>>>End Processed Spectral Data<<<<<
