SpectraSuite Data File
++++++++++++++++++++++++++++++++++++
Date: Thu May 14 16:13:12 PDT 2015
User: schluterlab
Dark Spectrum Present: Yes
Reference Spectrum Present: Yes
Number of Sampled Component Spectra: 1
Spectrometers: USB2E3373
Integration Time (usec): 3000 (USB2E3373)
Spectra Averaged: 3 (USB2E3373)
Boxcar Smoothing: 0 (USB2E3373)
Correct for Electrical Dark: No (USB2E3373)
Strobe/Lamp Enabled: No (USB2E3373)
Correct for Detector Non-linearity: No (USB2E3373)
Correct for Stray Light: No (USB2E3373)
Number of Pixels in Processed Spectrum: 2048
>>>>>Begin Processed Spectral Data<<<<<
178.53	0.000
178.91	-14.286
179.29	-800.000
179.67	-1100.000
180.04	185.714
180.42	90.000
180.80	240.000
181.18	500.000
181.56	0.000
181.94	275.000
182.31	-50.000
182.69	366.667
183.07	-150.000
183.45	350.000
183.83	-33.333
184.20	0.000
184.58	-0.000
184.96	-75.000
185.34	11.111
185.72	-220.000
186.09	188.889
186.47	500.000
186.85	400.000
187.23	-144.444
187.61	-1000.000
187.98	160.000
188.36	350.000
188.74	-300.000
189.12	-133.333
189.49	-25.000
189.87	-112.500
190.25	-11.111
190.63	0.000
191.00	-122.222
191.38	0.000
191.76	-325.000
192.14	-83.333
192.51	300.000
192.89	66.667
193.27	0.000
193.65	-42.857
194.02	-1100.000
194.40	-71.429
194.78	171.429
195.15	0.000
195.53	-45.455
195.91	0.000
196.29	225.000
196.66	23.077
197.04	-1400.000
197.42	-171.429
197.79	-700.000
198.17	-137.500
198.55	-128.571
198.92	11.111
199.30	-225.000
199.68	0.000
200.05	7.143
200.43	-900.000
200.81	328.571
201.18	0.000
201.56	133.333
201.94	0.000
202.31	400.000
202.69	-100.000
203.07	700.000
203.44	-44.444
203.82	-225.000
204.19	-66.667
204.57	-216.667
204.95	-87.500
205.32	-700.000
205.70	100.000
206.08	-100.000
206.45	-16.667
206.83	380.000
207.20	-83.333
207.58	-200.000
207.96	-200.000
208.33	-16.667
208.71	83.333
209.08	16.667
209.46	0.000
209.84	250.000
210.21	450.000
210.59	350.000
210.96	333.333
211.34	-200.000
211.71	-112.500
212.09	-300.000
212.46	0.000
212.84	600.000
213.22	-240.000
213.59	-75.000
213.97	-10.000
214.34	-300.000
214.72	233.333
215.09	-125.000
215.47	0.000
215.84	157.143
216.22	850.000
216.59	-80.000
216.97	-140.000
217.34	-75.000
217.72	0.000
218.09	-350.000
218.47	-225.000
218.84	0.000
219.22	60.000
219.59	-11.765
219.97	10.000
220.34	600.000
220.72	-133.333
221.09	-7.692
221.47	-66.667
221.84	-80.000
222.22	28.571
222.59	0.000
222.97	-12.500
223.34	-360.000
223.72	-900.000
224.09	-50.000
224.46	-325.000
224.84	140.000
225.21	-85.714
225.59	-325.000
225.96	-275.000
226.34	30.769
226.71	33.333
227.08	-400.000
227.46	26.667
227.83	-175.000
228.21	15.789
228.58	100.000
228.95	450.000
229.33	25.000
229.70	-40.000
230.08	0.000
230.45	190.000
230.82	333.333
231.20	0.000
231.57	0.000
231.95	0.000
232.32	45.455
232.69	15.000
233.07	-200.000
233.44	-5.882
233.81	-30.000
234.19	11.111
234.56	18.182
234.93	20.690
235.31	21.053
235.68	-33.333
236.05	-5.000
236.43	26.923
236.80	60.000
237.17	59.259
237.55	27.273
237.92	-10.000
238.29	-6.452
238.67	45.455
239.04	38.889
239.41	23.810
239.79	50.000
240.16	7.407
240.53	6.522
240.91	-1.961
241.28	9.836
241.65	40.299
242.02	41.892
242.40	41.538
242.77	34.667
243.14	18.293
243.51	25.000
243.89	35.897
244.26	31.683
244.63	19.608
245.00	29.907
245.38	18.421
245.75	11.504
246.12	34.921
246.49	26.357
246.87	33.571
247.24	29.139
247.61	34.868
247.98	32.215
248.36	33.951
248.73	33.742
249.10	28.962
249.47	34.826
249.84	40.314
250.22	33.161
250.59	33.333
250.96	36.364
251.33	30.612
251.70	36.752
252.08	30.833
252.45	37.295
252.82	36.777
253.19	32.812
253.56	36.882
253.94	31.154
254.31	38.636
254.68	34.615
255.05	36.482
255.42	32.653
255.79	33.657
256.16	32.450
256.54	34.437
256.91	38.361
257.28	36.066
257.65	36.306
258.02	33.038
258.39	35.897
258.76	41.896
259.14	41.379
259.51	35.735
259.88	36.261
260.25	38.056
260.62	36.164
260.99	35.519
261.36	35.657
261.73	39.523
262.10	34.615
262.47	39.142
262.85	38.384
263.22	38.182
263.59	33.684
263.96	37.596
264.33	33.760
264.70	34.568
265.07	39.141
265.44	37.868
265.81	35.648
266.18	36.508
266.55	38.839
266.92	34.169
267.29	40.263
267.66	37.694
268.03	37.336
268.40	36.952
268.77	36.902
269.14	36.784
269.51	33.991
269.88	36.680
270.25	34.809
270.62	38.819
270.99	38.788
271.36	37.624
271.73	37.917
272.10	38.277
272.47	36.673
272.84	37.149
273.21	33.467
273.58	37.500
273.95	35.769
274.32	33.270
274.69	36.170
275.06	35.897
275.43	33.457
275.80	37.213
276.17	36.111
276.54	35.448
276.91	33.810
277.28	36.709
277.65	34.650
278.02	36.949
278.39	35.145
278.76	35.852
279.13	36.702
279.50	36.426
279.87	36.315
280.23	32.218
280.60	36.271
280.97	35.855
281.34	34.805
281.71	34.687
282.08	33.056
282.45	34.697
282.82	32.182
283.19	35.864
283.56	33.934
283.92	33.934
284.29	36.177
284.66	37.438
285.03	32.212
285.40	35.858
285.77	34.365
286.14	34.504
286.51	33.790
286.87	33.017
287.24	34.036
287.61	34.230
287.98	33.988
288.35	35.799
288.72	33.432
289.08	33.382
289.45	33.284
289.82	32.982
290.19	33.046
290.56	34.085
290.93	33.524
291.29	31.956
291.66	32.094
292.03	30.393
292.40	32.245
292.77	29.515
293.13	32.070
293.50	29.961
293.87	29.530
294.24	31.733
294.60	29.962
294.97	29.799
295.34	30.218
295.71	28.247
296.08	29.587
296.44	28.922
296.81	28.380
297.18	28.892
297.55	29.363
297.91	27.995
298.28	26.303
298.65	28.775
299.02	28.099
299.38	28.375
299.75	27.687
300.12	26.968
300.48	28.226
300.85	28.121
301.22	27.740
301.59	28.196
301.95	26.780
302.32	27.556
302.69	25.739
303.05	26.007
303.42	25.166
303.79	27.604
304.15	26.288
304.52	26.110
304.89	26.073
305.25	26.915
305.62	27.273
305.99	26.907
306.35	25.806
306.72	25.750
307.09	26.599
307.45	26.294
307.82	25.530
308.19	25.429
308.55	25.265
308.92	26.193
309.29	25.479
309.65	26.316
310.02	24.257
310.38	25.098
310.75	26.311
311.12	26.558
311.48	25.220
311.85	24.501
312.22	25.142
312.58	24.977
312.95	24.379
313.31	25.023
313.68	24.817
314.05	26.197
314.41	25.319
314.78	25.613
315.14	26.225
315.51	25.762
315.87	25.833
316.24	24.749
316.61	25.755
316.97	25.973
317.34	24.250
317.70	25.590
318.07	24.515
318.43	25.850
318.80	26.421
319.16	26.180
319.53	24.336
319.89	23.313
320.26	24.822
320.62	23.936
320.99	24.838
321.35	25.601
321.72	25.209
322.08	24.256
322.45	24.842
322.81	25.090
323.18	23.894
323.54	25.603
323.91	25.979
324.27	23.752
324.64	26.029
325.00	24.378
325.37	24.488
325.73	24.628
326.10	26.277
326.46	24.267
326.83	25.941
327.19	24.567
327.56	26.482
327.92	25.492
328.29	24.032
328.65	23.869
329.01	25.381
329.38	24.263
329.74	26.027
330.11	26.455
330.47	25.021
330.84	24.117
331.20	25.333
331.56	24.610
331.93	25.272
332.29	24.915
332.66	24.169
333.02	23.786
333.38	24.161
333.75	25.337
334.11	24.771
334.48	25.000
334.84	25.828
335.20	24.097
335.57	26.138
335.93	25.207
336.29	23.211
336.66	24.474
337.02	24.666
337.38	25.425
337.75	25.620
338.11	24.727
338.47	24.235
338.84	24.365
339.20	22.915
339.56	22.652
339.93	23.153
340.29	23.752
340.65	24.169
341.02	24.581
341.38	24.656
341.74	24.617
342.11	23.572
342.47	24.226
342.83	24.155
343.20	23.957
343.56	24.379
343.92	23.219
344.28	22.969
344.65	25.116
345.01	23.401
345.37	23.795
345.73	22.214
346.10	22.465
346.46	23.813
346.82	23.146
347.19	23.529
347.55	23.824
347.91	24.294
348.27	23.217
348.63	23.534
349.00	23.565
349.36	23.420
349.72	22.693
350.08	24.517
350.45	23.802
350.81	23.152
351.17	24.286
351.53	23.124
351.89	24.525
352.26	23.657
352.62	22.164
352.98	23.511
353.34	22.330
353.70	22.573
354.07	23.025
354.43	23.538
354.79	23.111
355.15	22.517
355.51	24.050
355.87	23.485
356.24	22.433
356.60	21.877
356.96	22.683
357.32	21.710
357.68	22.767
358.04	22.455
358.40	22.687
358.77	23.465
359.13	21.935
359.49	21.636
359.85	22.263
360.21	22.812
360.57	22.972
360.93	22.285
361.29	23.368
361.66	22.158
362.02	23.521
362.38	22.136
362.74	23.115
363.10	23.796
363.46	22.022
363.82	22.514
364.18	21.886
364.54	22.337
364.90	22.876
365.26	22.276
365.62	22.333
365.98	22.805
366.35	23.356
366.71	21.497
367.07	22.666
367.43	21.930
367.79	22.893
368.15	22.943
368.51	22.666
368.87	22.796
369.23	22.267
369.59	22.951
369.95	22.110
370.31	22.755
370.67	22.971
371.03	22.022
371.39	21.357
371.75	21.733
372.11	21.748
372.47	21.598
372.83	22.971
373.19	21.481
373.55	21.816
373.91	21.745
374.27	21.863
374.63	21.786
374.99	21.950
375.35	22.403
375.71	22.000
376.07	22.079
376.42	22.418
376.78	22.250
377.14	22.208
377.50	21.822
377.86	22.352
378.22	21.916
378.58	21.106
378.94	22.066
379.30	21.910
379.66	21.869
380.02	21.119
380.38	21.889
380.74	21.746
381.09	22.242
381.45	22.159
381.81	22.248
382.17	21.793
382.53	21.813
382.89	22.065
383.25	21.864
383.61	21.412
383.97	21.437
384.32	21.711
384.68	21.346
385.04	22.556
385.40	22.569
385.76	22.333
386.12	21.664
386.48	22.294
386.83	22.288
387.19	21.611
387.55	20.775
387.91	21.632
388.27	21.478
388.62	21.363
388.98	20.812
389.34	21.626
389.70	21.034
390.06	21.847
390.42	21.566
390.77	22.216
391.13	21.362
391.49	21.377
391.85	21.212
392.20	21.471
392.56	21.087
392.92	21.701
393.28	22.001
393.64	21.844
393.99	21.383
394.35	22.547
394.71	22.335
395.07	21.377
395.42	20.560
395.78	21.633
396.14	21.569
396.50	21.200
396.85	21.169
397.21	21.243
397.57	22.438
397.92	22.279
398.28	21.727
398.64	21.396
399.00	20.733
399.35	21.675
399.71	21.739
400.07	21.449
400.42	21.478
400.78	21.759
401.14	22.026
401.49	21.433
401.85	21.919
402.21	21.669
402.57	22.711
402.92	20.981
403.28	20.433
403.63	20.585
403.99	22.209
404.35	20.068
404.70	21.586
405.06	21.087
405.42	22.190
405.77	21.919
406.13	21.394
406.49	21.509
406.84	21.551
407.20	21.185
407.55	21.018
407.91	21.433
408.27	20.907
408.62	21.408
408.98	21.764
409.34	20.880
409.69	22.435
410.05	21.688
410.40	21.984
410.76	21.312
411.11	21.859
411.47	21.560
411.83	21.517
412.18	21.627
412.54	20.925
412.89	21.711
413.25	20.598
413.60	21.597
413.96	22.494
414.31	21.643
414.67	21.884
415.03	21.415
415.38	22.005
415.74	20.892
416.09	21.900
416.45	22.041
416.80	21.420
417.16	22.414
417.51	20.922
417.87	21.153
418.22	21.976
418.58	21.437
418.93	22.119
419.29	22.318
419.64	20.768
420.00	21.365
420.35	21.673
420.71	20.793
421.06	20.989
421.42	21.216
421.77	21.163
422.12	21.617
422.48	21.249
422.83	22.125
423.19	21.273
423.54	21.515
423.90	20.707
424.25	21.867
424.61	21.584
424.96	20.977
425.31	21.656
425.67	21.739
426.02	21.472
426.38	20.838
426.73	21.652
427.09	22.722
427.44	21.136
427.79	21.006
428.15	20.605
428.50	21.966
428.85	20.264
429.21	20.585
429.56	21.076
429.92	20.688
430.27	21.060
430.62	21.641
430.98	20.708
431.33	21.261
431.68	21.264
432.04	21.077
432.39	21.585
432.74	21.918
433.10	20.714
433.45	20.736
433.80	22.103
434.16	21.281
434.51	21.737
434.86	22.421
435.22	21.732
435.57	21.875
435.92	21.814
436.28	21.672
436.63	21.300
436.98	21.793
437.34	22.097
437.69	21.794
438.04	21.259
438.39	21.424
438.75	21.140
439.10	21.195
439.45	20.906
439.81	20.113
440.16	21.019
440.51	21.293
440.86	20.845
441.22	21.436
441.57	21.279
441.92	20.951
442.27	22.374
442.63	21.461
442.98	21.505
443.33	21.883
443.68	21.506
444.03	22.295
444.39	21.544
444.74	21.797
445.09	21.389
445.44	22.023
445.79	21.935
446.15	22.045
446.50	21.654
446.85	22.276
447.20	21.712
447.55	22.176
447.91	21.728
448.26	21.723
448.61	21.785
448.96	22.210
449.31	22.057
449.66	21.351
450.02	21.097
450.37	22.536
450.72	21.744
451.07	21.925
451.42	21.895
451.77	21.456
452.12	22.235
452.47	21.331
452.83	22.241
453.18	21.600
453.53	21.080
453.88	21.645
454.23	22.881
454.58	22.113
454.93	21.299
455.28	22.396
455.63	21.489
455.98	22.570
456.34	21.731
456.69	21.811
457.04	21.809
457.39	21.452
457.74	22.371
458.09	22.405
458.44	22.091
458.79	21.506
459.14	21.395
459.49	21.845
459.84	22.403
460.19	21.266
460.54	22.203
460.89	21.863
461.24	21.782
461.59	22.634
461.94	21.335
462.29	21.892
462.64	22.209
462.99	21.218
463.34	21.220
463.69	22.216
464.04	22.568
464.39	21.357
464.74	22.520
465.09	22.607
465.44	21.727
465.79	21.893
466.14	22.460
466.49	21.947
466.84	22.094
467.19	21.734
467.54	21.034
467.89	21.839
468.24	21.773
468.59	21.367
468.94	22.203
469.29	21.656
469.64	20.979
469.99	22.180
470.34	21.844
470.68	22.693
471.03	23.314
471.38	22.237
471.73	21.586
472.08	22.145
472.43	21.734
472.78	22.040
473.13	21.492
473.48	22.115
473.83	22.519
474.17	21.161
474.52	22.189
474.87	22.038
475.22	22.310
475.57	21.755
475.92	21.453
476.27	22.258
476.61	21.495
476.96	21.794
477.31	21.683
477.66	22.560
478.01	22.318
478.36	21.735
478.70	21.970
479.05	23.057
479.40	21.767
479.75	22.382
480.10	22.264
480.45	22.470
480.79	22.676
481.14	21.415
481.49	21.672
481.84	22.150
482.19	22.237
482.53	22.431
482.88	22.729
483.23	22.188
483.58	22.096
483.92	21.099
484.27	22.566
484.62	22.112
484.97	21.540
485.31	21.331
485.66	21.712
486.01	21.477
486.36	21.659
486.70	22.270
487.05	22.306
487.40	22.429
487.75	21.730
488.09	22.119
488.44	21.887
488.79	21.788
489.13	22.411
489.48	22.058
489.83	22.012
490.17	21.223
490.52	21.798
490.87	22.124
491.22	22.270
491.56	21.587
491.91	22.678
492.26	21.679
492.60	21.775
492.95	22.466
493.30	22.411
493.64	21.813
493.99	22.412
494.34	22.343
494.68	21.542
495.03	22.775
495.37	22.503
495.72	22.313
496.07	22.086
496.41	21.407
496.76	22.602
497.11	21.614
497.45	22.184
497.80	22.745
498.14	21.723
498.49	21.967
498.84	22.075
499.18	22.627
499.53	22.063
499.87	22.593
500.22	21.594
500.56	21.952
500.91	22.059
501.26	22.409
501.60	22.050
501.95	22.058
502.29	22.159
502.64	22.606
502.98	22.045
503.33	21.901
503.67	22.111
504.02	22.067
504.36	22.341
504.71	22.049
505.06	22.419
505.40	22.943
505.75	22.632
506.09	22.698
506.44	22.563
506.78	22.156
507.13	22.222
507.47	22.501
507.82	22.112
508.16	22.132
508.51	21.331
508.85	21.634
509.19	22.217
509.54	22.911
509.88	22.195
510.23	22.778
510.57	22.716
510.92	22.206
511.26	23.377
511.61	21.246
511.95	21.523
512.30	22.058
512.64	21.589
512.98	21.411
513.33	22.379
513.67	22.591
514.02	22.330
514.36	21.841
514.70	22.500
515.05	22.263
515.39	22.415
515.74	23.489
516.08	22.979
516.42	22.920
516.77	22.503
517.11	22.022
517.46	23.065
517.80	22.715
518.14	22.905
518.49	22.343
518.83	22.406
519.17	21.809
519.52	22.537
519.86	22.386
520.20	22.364
520.55	22.180
520.89	22.973
521.23	22.111
521.58	22.768
521.92	22.720
522.26	22.509
522.61	22.569
522.95	23.529
523.29	22.874
523.64	23.767
523.98	22.761
524.32	23.324
524.66	23.221
525.01	23.046
525.35	22.918
525.69	22.854
526.04	22.273
526.38	22.529
526.72	22.376
527.06	22.815
527.41	23.149
527.75	22.268
528.09	23.613
528.43	22.854
528.78	21.965
529.12	22.706
529.46	22.597
529.80	23.227
530.15	22.667
530.49	22.123
530.83	23.731
531.17	22.999
531.51	22.744
531.86	23.017
532.20	23.659
532.54	22.501
532.88	23.758
533.22	22.687
533.57	23.543
533.91	22.840
534.25	23.347
534.59	23.161
534.93	22.411
535.27	23.324
535.62	23.252
535.96	22.952
536.30	22.679
536.64	23.604
536.98	24.354
537.32	23.086
537.66	23.643
538.01	22.719
538.35	23.203
538.69	22.776
539.03	23.483
539.37	23.675
539.71	22.763
540.05	23.381
540.39	23.044
540.73	23.194
541.07	23.360
541.42	22.977
541.76	22.776
542.10	23.824
542.44	22.655
542.78	24.513
543.12	23.004
543.46	22.772
543.80	22.242
544.14	22.442
544.48	23.404
544.82	23.220
545.16	22.838
545.50	23.008
545.84	22.780
546.18	23.704
546.52	22.357
546.86	22.327
547.20	22.265
547.54	21.910
547.88	22.905
548.22	22.749
548.56	22.996
548.90	23.701
549.24	22.979
549.58	23.028
549.92	23.469
550.26	22.524
550.60	23.484
550.94	23.157
551.28	22.904
551.62	22.911
551.96	22.913
552.30	23.773
552.64	22.651
552.98	23.768
553.32	23.408
553.66	23.987
554.00	23.834
554.34	23.359
554.68	22.789
555.02	23.719
555.36	24.589
555.69	22.293
556.03	23.707
556.37	24.030
556.71	23.209
557.05	23.898
557.39	23.490
557.73	23.514
558.07	22.185
558.41	24.120
558.75	23.259
559.08	24.078
559.42	22.908
559.76	23.474
560.10	22.773
560.44	23.285
560.78	23.438
561.12	22.845
561.45	24.088
561.79	23.199
562.13	23.660
562.47	22.873
562.81	23.418
563.15	23.801
563.48	23.617
563.82	22.672
564.16	23.622
564.50	23.242
564.84	23.717
565.17	23.412
565.51	22.497
565.85	23.634
566.19	22.350
566.52	22.820
566.86	23.203
567.20	23.654
567.54	22.570
567.88	22.936
568.21	22.777
568.55	23.693
568.89	23.967
569.23	23.785
569.56	22.313
569.90	22.808
570.24	22.968
570.57	23.445
570.91	22.413
571.25	22.563
571.59	22.850
571.92	23.054
572.26	22.790
572.60	22.304
572.93	22.683
573.27	22.366
573.61	22.446
573.95	22.360
574.28	22.588
574.62	22.237
574.96	22.254
575.29	22.538
575.63	22.800
575.97	22.539
576.30	22.601
576.64	22.668
576.98	22.210
577.31	22.777
577.65	22.802
577.98	22.534
578.32	22.357
578.66	22.503
578.99	21.790
579.33	22.432
579.67	22.688
580.00	22.275
580.34	22.666
580.67	22.440
581.01	22.458
581.35	22.755
581.68	22.591
582.02	22.182
582.35	22.690
582.69	22.819
583.02	22.781
583.36	22.777
583.70	22.608
584.03	22.558
584.37	22.636
584.70	22.812
585.04	22.739
585.37	22.316
585.71	22.524
586.04	22.765
586.38	22.632
586.72	21.685
587.05	22.691
587.39	22.563
587.72	22.297
588.06	22.921
588.39	22.878
588.73	22.646
589.06	22.856
589.40	22.403
589.73	23.201
590.07	22.944
590.40	22.684
590.73	21.951
591.07	22.636
591.40	23.056
591.74	22.893
592.07	22.412
592.41	22.831
592.74	23.323
593.08	22.675
593.41	23.476
593.75	22.672
594.08	22.993
594.41	22.981
594.75	22.185
595.08	22.746
595.42	22.890
595.75	22.764
596.09	23.111
596.42	22.716
596.75	22.926
597.09	22.990
597.42	23.043
597.75	22.971
598.09	23.135
598.42	22.678
598.76	22.965
599.09	22.820
599.42	22.058
599.76	22.747
600.09	22.589
600.42	22.489
600.76	22.952
601.09	22.204
601.42	22.279
601.76	22.931
602.09	22.337
602.42	22.719
602.76	22.768
603.09	23.201
603.42	22.290
603.76	22.445
604.09	23.208
604.42	23.046
604.76	22.336
605.09	22.776
605.42	22.648
605.75	22.385
606.09	22.322
606.42	22.364
606.75	22.639
607.09	22.427
607.42	22.428
607.75	22.782
608.08	22.178
608.42	22.733
608.75	22.305
609.08	21.902
609.41	22.364
609.75	22.366
610.08	23.527
610.41	22.770
610.74	22.479
611.07	23.224
611.41	23.229
611.74	23.464
612.07	22.908
612.40	23.337
612.73	23.814
613.07	22.787
613.40	22.955
613.73	22.581
614.06	23.258
614.39	22.449
614.72	22.853
615.06	22.137
615.39	22.136
615.72	22.417
616.05	23.312
616.38	23.461
616.71	22.623
617.05	22.364
617.38	23.114
617.71	23.758
618.04	23.098
618.37	23.005
618.70	24.038
619.03	23.118
619.36	22.380
619.69	23.703
620.03	22.473
620.36	22.822
620.69	23.010
621.02	24.016
621.35	23.730
621.68	23.933
622.01	22.918
622.34	22.873
622.67	23.780
623.00	22.537
623.33	22.827
623.66	23.606
623.99	22.581
624.32	24.172
624.65	23.230
624.99	24.122
625.32	23.775
625.65	24.005
625.98	22.847
626.31	24.026
626.64	23.223
626.97	22.806
627.30	23.538
627.63	23.856
627.96	23.949
628.29	24.047
628.62	23.090
628.95	24.277
629.28	23.619
629.61	23.822
629.94	22.678
630.26	23.051
630.59	24.007
630.92	23.030
631.25	24.061
631.58	24.200
631.91	24.461
632.24	23.823
632.57	24.194
632.90	24.273
633.23	24.184
633.56	23.367
633.89	23.244
634.22	24.428
634.55	24.113
634.88	22.727
635.20	23.789
635.53	25.085
635.86	23.402
636.19	23.860
636.52	22.679
636.85	23.698
637.18	22.973
637.51	23.333
637.83	24.695
638.16	24.194
638.49	24.648
638.82	23.450
639.15	23.482
639.48	24.942
639.81	24.134
640.13	25.206
640.46	22.303
640.79	23.529
641.12	24.099
641.45	22.961
641.77	25.289
642.10	23.228
642.43	23.803
642.76	25.339
643.09	25.068
643.41	24.370
643.74	23.586
644.07	25.793
644.40	23.338
644.73	23.512
645.05	24.670
645.38	24.748
645.71	23.314
646.04	24.677
646.36	22.482
646.69	24.693
647.02	22.630
647.35	24.580
647.67	23.510
648.00	25.478
648.33	24.625
648.66	24.679
648.98	23.265
649.31	24.628
649.64	24.967
649.96	22.812
650.29	23.783
650.62	23.479
650.94	23.574
651.27	23.204
651.60	23.099
651.92	24.468
652.25	23.589
652.58	23.109
652.90	22.529
653.23	24.366
653.56	23.252
653.88	26.685
654.21	22.394
654.54	22.254
654.86	23.371
655.19	20.828
655.52	22.825
655.84	22.297
656.17	26.635
656.49	37.586
656.82	41.113
657.15	31.981
657.47	24.001
657.80	17.820
658.13	13.824
658.45	18.539
658.78	22.583
659.10	21.991
659.43	21.574
659.75	21.727
660.08	21.513
660.41	20.926
660.73	19.042
661.06	22.026
661.38	23.445
661.71	23.448
662.03	22.928
662.36	24.150
662.68	23.640
663.01	23.540
663.33	25.142
663.66	25.641
663.98	23.846
664.31	25.516
664.63	21.965
664.96	25.408
665.28	21.960
665.61	26.399
665.93	25.179
666.26	22.939
666.58	21.218
666.91	23.551
667.23	25.143
667.56	22.485
667.88	25.800
668.21	21.289
668.53	21.622
668.86	23.969
669.18	25.051
669.50	23.260
669.83	24.200
670.15	24.016
670.48	25.198
670.80	21.033
671.13	22.495
671.45	23.622
671.77	22.976
672.10	22.667
672.42	22.330
672.75	19.662
673.07	21.791
673.39	21.263
673.72	23.490
674.04	24.828
674.37	23.256
674.69	23.457
675.01	23.619
675.34	25.191
675.66	20.974
675.98	23.321
676.31	23.047
676.63	27.186
676.95	24.904
677.28	23.387
677.60	21.850
677.92	23.608
678.25	22.852
678.57	25.445
678.89	24.403
679.22	19.512
679.54	22.906
679.86	22.712
680.18	24.212
680.51	23.428
680.83	22.095
681.15	23.448
681.48	25.043
681.80	21.762
682.12	23.077
682.44	20.868
682.77	24.468
683.09	22.917
683.41	24.225
683.73	21.063
684.06	23.063
684.38	20.215
684.70	24.057
685.02	23.924
685.34	24.626
685.67	22.555
685.99	21.012
686.31	21.076
686.63	23.539
686.96	22.713
687.28	19.707
687.60	21.549
687.92	22.347
688.24	24.207
688.56	21.897
688.89	23.049
689.21	25.049
689.53	22.549
689.85	22.091
690.17	21.111
690.49	23.307
690.82	23.366
691.14	19.838
691.46	23.136
691.78	24.678
692.10	23.486
692.42	21.607
692.74	23.049
693.06	23.148
693.39	24.668
693.71	24.248
694.03	21.561
694.35	22.667
694.67	22.177
694.99	18.298
695.31	21.854
695.63	23.810
695.95	20.497
696.27	22.198
696.59	25.885
696.91	23.423
697.23	27.253
697.56	21.589
697.88	23.485
698.20	23.540
698.52	23.295
698.84	22.869
699.16	23.469
699.48	21.548
699.80	21.064
700.12	22.707
700.44	23.963
700.76	21.853
701.08	25.182
701.40	23.057
701.72	23.881
702.04	23.797
702.36	22.775
702.68	24.450
703.00	22.494
703.32	22.167
703.64	23.716
703.96	21.002
704.28	20.147
704.60	21.519
704.91	23.214
705.23	24.932
705.55	20.891
705.87	22.121
706.19	25.767
706.51	20.482
706.83	20.461
707.15	21.693
707.47	20.561
707.79	19.651
708.11	20.339
708.43	22.151
708.74	18.973
709.06	20.650
709.38	23.944
709.70	22.333
710.02	22.481
710.34	25.532
710.66	20.670
710.98	24.317
711.29	24.451
711.61	22.316
711.93	22.507
712.25	24.054
712.57	24.779
712.89	22.059
713.20	22.189
713.52	20.231
713.84	23.677
714.16	22.632
714.48	22.165
714.80	27.273
715.11	22.835
715.43	23.873
715.75	20.789
716.07	23.204
716.39	22.131
716.70	18.675
717.02	26.557
717.34	17.422
717.66	22.819
717.97	20.890
718.29	25.086
718.61	21.053
718.93	20.388
719.24	21.118
719.56	23.620
719.88	19.520
720.20	21.935
720.51	21.739
720.83	20.000
721.15	17.105
721.46	19.521
721.78	22.333
722.10	16.181
722.42	22.483
722.73	17.742
723.05	22.105
723.37	20.833
723.68	21.147
724.00	24.549
724.32	19.366
724.63	20.629
724.95	19.858
725.27	21.951
725.58	19.081
725.90	24.828
726.22	20.376
726.53	22.078
726.85	21.384
727.16	21.752
727.48	20.795
727.80	21.192
728.11	20.495
728.43	22.896
728.74	21.405
729.06	21.523
729.38	24.351
729.69	22.148
730.01	24.405
730.32	22.727
730.64	24.214
730.96	19.876
731.27	23.184
731.59	20.330
731.90	19.221
732.22	20.312
732.53	18.508
732.85	19.143
733.16	24.340
733.48	21.341
733.80	19.220
734.11	23.647
734.43	22.162
734.74	21.519
735.06	23.618
735.37	19.459
735.69	20.270
736.00	19.774
736.32	21.024
736.63	22.500
736.95	21.264
737.26	23.636
737.58	20.909
737.89	22.647
738.21	22.324
738.52	21.639
738.83	23.208
739.15	18.440
739.46	23.810
739.78	24.540
740.09	17.192
740.41	21.283
740.72	18.333
741.04	22.330
741.35	21.053
741.66	19.216
741.98	22.131
742.29	20.502
742.61	18.860
742.92	21.538
743.23	20.217
743.55	17.442
743.86	22.400
744.18	19.835
744.49	21.519
744.80	21.399
745.12	22.785
745.43	20.732
745.74	18.103
746.06	21.186
746.37	27.004
746.68	22.358
747.00	20.417
747.31	21.030
747.62	23.077
747.94	17.004
748.25	18.876
748.56	18.367
748.88	21.795
749.19	23.276
749.50	22.511
749.82	24.498
750.13	23.488
750.44	21.333
750.75	20.923
751.07	21.538
751.38	22.082
751.69	20.767
752.01	20.065
752.32	23.529
752.63	20.068
752.94	24.221
753.26	20.074
753.57	17.778
753.88	22.846
754.19	19.614
754.51	19.293
754.82	21.222
755.13	26.557
755.44	21.843
755.75	25.329
756.07	21.493
756.38	19.497
756.69	23.193
757.00	19.114
757.31	20.492
757.63	19.437
757.94	19.718
758.25	21.445
758.56	18.954
758.87	22.955
759.18	20.533
759.50	23.229
759.81	21.289
760.12	20.216
760.43	17.448
760.74	22.414
761.05	24.250
761.36	20.241
761.67	21.066
761.99	20.541
762.30	20.427
762.61	18.812
762.92	19.030
763.23	22.472
763.54	21.942
763.85	19.588
764.16	18.182
764.47	21.127
764.78	21.406
765.10	20.528
765.41	22.564
765.72	19.048
766.03	20.339
766.34	19.436
766.65	19.164
766.96	26.295
767.27	22.581
767.58	20.398
767.89	25.000
768.20	16.901
768.51	22.685
768.82	20.080
769.13	20.833
769.44	16.154
769.75	23.466
770.06	22.692
770.37	20.079
770.68	16.170
770.99	16.599
771.30	22.963
771.61	22.053
771.92	14.815
772.23	21.457
772.54	16.667
772.85	25.346
773.16	24.286
773.47	15.873
773.78	15.135
774.09	23.864
774.39	25.000
774.70	24.044
775.01	17.683
775.32	11.765
775.63	20.859
775.94	14.013
776.25	25.161
776.56	26.282
776.87	23.129
777.18	18.621
777.48	22.378
777.79	15.541
778.10	13.971
778.41	25.000
778.72	20.690
779.03	13.580
779.34	20.000
779.65	18.653
779.95	23.333
780.26	16.477
780.57	19.355
780.88	24.638
781.19	29.677
781.50	25.882
781.80	21.505
782.11	22.751
782.42	13.131
782.73	16.168
783.04	20.112
783.34	12.727
783.65	14.379
783.96	23.602
784.27	16.667
784.57	23.841
784.88	23.571
785.19	16.535
785.50	14.961
785.81	18.045
786.11	23.077
786.42	15.108
786.73	17.986
787.04	22.556
787.34	22.951
787.65	13.600
787.96	15.672
788.26	25.175
788.57	27.273
788.88	12.500
789.19	20.261
789.49	16.438
789.80	23.404
790.11	27.559
790.41	11.719
790.72	15.254
791.03	12.621
791.33	20.000
791.64	20.175
791.95	20.536
792.25	20.952
792.56	18.750
792.87	11.458
793.17	20.536
793.48	12.500
793.79	0.000
794.09	11.927
794.40	14.679
794.70	19.728
795.01	9.091
795.32	15.753
795.62	23.239
795.93	18.939
796.23	18.852
796.54	8.929
796.85	15.957
797.15	11.957
797.46	13.699
797.76	23.750
798.07	13.043
798.37	13.402
798.68	9.091
798.99	26.437
799.29	19.101
799.60	12.766
799.90	7.229
800.21	13.846
800.51	14.925
800.82	2.941
801.12	-4.110
801.43	8.824
801.73	-5.085
802.04	3.030
802.34	3.333
802.65	13.559
802.95	23.881
803.26	8.475
803.56	20.548
803.87	20.000
804.17	26.027
804.48	5.263
804.78	16.667
805.09	-3.448
805.39	22.973
805.70	16.901
806.00	20.732
806.30	14.458
806.61	13.699
806.91	14.423
807.22	25.556
807.52	13.793
807.83	22.222
808.13	14.458
808.43	20.225
808.74	18.750
809.04	-5.882
809.35	10.667
809.65	24.286
809.95	10.959
810.26	7.018
810.56	13.793
810.86	22.059
811.17	12.281
811.47	11.475
811.77	-24.444
812.08	-5.085
812.38	13.333
812.69	5.172
812.99	-5.660
813.29	-17.949
813.59	16.000
813.90	28.070
814.20	1.818
814.50	29.577
814.81	20.513
815.11	11.475
815.41	13.433
815.72	24.138
816.02	12.500
816.32	17.778
816.62	22.727
816.93	20.000
817.23	-1.852
817.53	2.128
817.84	19.048
818.14	-14.706
818.44	4.082
818.74	24.444
819.04	0.000
819.35	-11.429
819.65	-15.385
819.95	18.868
820.25	13.333
820.56	2.381
820.86	18.750
821.16	5.128
821.46	-13.953
821.76	-4.000
822.07	19.643
822.37	2.174
822.67	14.894
822.97	-2.703
823.27	7.500
823.57	16.327
823.88	11.111
824.18	47.500
824.48	0.000
824.78	-4.000
825.08	3.030
825.38	-2.222
825.69	27.660
825.99	30.556
826.29	-17.143
826.59	7.692
826.89	27.907
827.19	8.000
827.49	8.824
827.79	12.500
828.09	-27.027
828.39	-16.667
828.70	-4.878
829.00	6.977
829.30	-42.857
829.60	-2.941
829.90	4.348
830.20	-17.143
830.50	20.690
830.80	11.111
831.10	-26.923
831.40	8.824
831.70	-9.524
832.00	22.581
832.30	-88.235
832.60	-16.667
832.90	-92.308
833.20	-36.842
833.50	20.000
833.80	-15.789
834.10	-57.143
834.40	0.000
834.70	12.500
835.00	-34.286
835.30	20.588
835.60	3.333
835.90	-4.000
836.20	-45.455
836.50	12.000
836.80	-6.061
837.10	-22.222
837.40	14.815
837.70	-56.250
838.00	-7.143
838.30	-43.478
838.60	17.241
838.90	7.143
839.19	-39.130
839.49	-141.667
839.79	-21.739
840.09	-37.500
840.39	-45.000
840.69	12.903
840.99	-7.143
841.29	-13.333
841.59	-21.053
841.88	5.128
842.18	-57.692
842.48	-80.000
842.78	-15.000
843.08	23.333
843.38	38.710
843.68	-27.778
843.97	-2.941
844.27	-43.750
844.57	-15.789
844.87	-20.000
845.17	-6.667
845.47	9.524
845.76	-23.810
846.06	-77.778
846.36	-47.059
846.66	-11.538
846.96	-66.667
847.25	5.882
847.55	-4.348
847.85	-25.000
848.15	17.647
848.44	-72.727
848.74	-4.762
849.04	0.000
849.34	18.750
849.63	21.739
849.93	400.000
850.23	-6.667
850.53	15.385
850.82	-9.091
851.12	4.545
851.42	-45.455
851.71	23.077
852.01	-20.000
852.31	-30.769
852.61	-42.105
852.90	16.667
853.20	-22.222
853.50	-111.111
853.79	-19.048
854.09	-50.000
854.39	-108.333
854.68	-22.581
854.98	-15.385
855.28	-16.667
855.57	42.857
855.87	0.000
856.17	-13.636
856.46	25.926
856.76	-16.667
857.05	-8.696
857.35	-45.833
857.65	-84.615
857.94	-28.571
858.24	22.222
858.53	17.391
858.83	29.412
859.13	0.000
859.42	-5.882
859.72	-28.571
860.01	10.000
860.31	-55.556
860.60	40.000
860.90	53.333
861.20	-22.222
861.49	-53.846
861.79	3.333
862.08	-69.231
862.38	0.000
862.67	23.529
862.97	-18.750
863.26	-88.889
863.56	-80.000
863.85	-54.545
864.15	11.111
864.44	-233.333
864.74	-7.143
865.03	12.500
865.33	-100.000
865.62	-32.258
865.92	-4.545
866.21	-26.087
866.51	-14.286
866.80	-140.000
867.10	-75.000
867.39	-100.000
867.69	1200.000
867.98	-71.429
868.27	29.412
868.57	-1300.000
868.86	-90.000
869.16	-28.571
869.45	-12.500
869.75	-36.364
870.04	-185.714
870.33	-25.000
870.63	-142.857
870.92	-300.000
871.22	-225.000
871.51	-136.364
871.80	-466.667
872.10	-400.000
>>>>>End Processed Spectral Data<<<<<
