SpectraSuite Data File
++++++++++++++++++++++++++++++++++++
Date: Thu May 14 16:07:59 PDT 2015
User: schluterlab
Dark Spectrum Present: Yes
Reference Spectrum Present: Yes
Number of Sampled Component Spectra: 1
Spectrometers: USB2E3373
Integration Time (usec): 3000 (USB2E3373)
Spectra Averaged: 3 (USB2E3373)
Boxcar Smoothing: 0 (USB2E3373)
Correct for Electrical Dark: No (USB2E3373)
Strobe/Lamp Enabled: No (USB2E3373)
Correct for Detector Non-linearity: No (USB2E3373)
Correct for Stray Light: No (USB2E3373)
Number of Pixels in Processed Spectrum: 2048
>>>>>Begin Processed Spectral Data<<<<<
178.53	0.000
178.91	128.571
179.29	-1700.000
179.67	-1300.000
180.04	221.429
180.42	170.000
180.80	240.000
181.18	-1500.000
181.56	-200.000
181.94	550.000
182.31	-400.000
182.69	400.000
183.07	-200.000
183.45	475.000
183.83	-250.000
184.20	-733.333
184.58	1200.000
184.96	-275.000
185.34	-211.111
185.72	-80.000
186.09	255.556
186.47	800.000
186.85	360.000
187.23	-211.111
187.61	-2400.000
187.98	280.000
188.36	475.000
188.74	-450.000
189.12	-466.667
189.49	-6.250
189.87	-187.500
190.25	-122.222
190.63	-160.000
191.00	-144.444
191.38	0.000
191.76	-400.000
192.14	-216.667
192.51	400.000
192.89	-200.000
193.27	0.000
193.65	-57.143
194.02	-2400.000
194.40	-228.571
194.78	128.571
195.15	0.000
195.53	-81.818
195.91	0.000
196.29	-300.000
196.66	-100.000
197.04	-1400.000
197.42	-200.000
197.79	-800.000
198.17	-150.000
198.55	-242.857
198.92	-55.556
199.30	-300.000
199.68	63.636
200.05	-114.286
200.43	-650.000
200.81	257.143
201.18	0.000
201.56	322.222
201.94	0.000
202.31	866.667
202.69	-211.111
203.07	1400.000
203.44	-66.667
203.82	-325.000
204.19	-91.667
204.57	-300.000
204.95	-212.500
205.32	-1500.000
205.70	225.000
206.08	-250.000
206.45	66.667
206.83	360.000
207.20	-133.333
207.58	-260.000
207.96	-266.667
208.33	-100.000
208.71	141.667
209.08	-150.000
209.46	0.000
209.84	333.333
210.21	500.000
210.59	500.000
210.96	866.667
211.34	-300.000
211.71	-137.500
212.09	-1800.000
212.46	0.000
212.84	1100.000
213.22	-400.000
213.59	-475.000
213.97	-100.000
214.34	-233.333
214.72	300.000
215.09	-350.000
215.47	0.000
215.84	214.286
216.22	1000.000
216.59	-140.000
216.97	-180.000
217.34	-225.000
217.72	-62.500
218.09	-450.000
218.47	-675.000
218.84	0.000
219.22	400.000
219.59	-64.706
219.97	-50.000
220.34	1200.000
220.72	-100.000
221.09	15.385
221.47	-400.000
221.84	-80.000
222.22	-214.286
222.59	0.000
222.97	-87.500
223.34	-280.000
223.72	-2000.000
224.09	-350.000
224.46	-450.000
224.84	-340.000
225.21	-271.429
225.59	-550.000
225.96	-400.000
226.34	-46.154
226.71	383.333
227.08	-750.000
227.46	-46.667
227.83	-50.000
228.21	26.316
228.58	212.500
228.95	700.000
229.33	-66.667
229.70	-130.000
230.08	-26.316
230.45	210.000
230.82	-300.000
231.20	-57.143
231.57	-100.000
231.95	-109.091
232.32	0.000
232.69	-25.000
233.07	-300.000
233.44	-64.706
233.81	-200.000
234.19	-61.111
234.56	-50.000
234.93	-34.483
235.31	-52.632
235.68	-22.222
236.05	-70.000
236.43	-3.846
236.80	-8.000
237.17	-22.222
237.55	-24.242
237.92	-90.000
238.29	-12.903
238.67	-20.455
239.04	2.778
239.41	-16.667
239.79	-15.217
240.16	-20.370
240.53	-28.261
240.91	-19.608
241.28	-16.393
241.65	-7.463
242.02	-4.054
242.40	-21.538
242.77	-20.000
243.14	-12.195
243.51	-14.474
243.89	-14.103
244.26	6.931
244.63	1.961
245.00	-5.607
245.38	-7.895
245.75	-3.540
246.12	-3.175
246.49	-0.775
246.87	-1.429
247.24	2.649
247.61	2.632
247.98	-4.698
248.36	-0.617
248.73	-3.681
249.10	-0.546
249.47	7.463
249.84	4.188
250.22	3.627
250.59	2.778
250.96	6.364
251.33	3.571
251.70	5.556
252.08	2.500
252.45	4.508
252.82	2.066
253.19	-0.391
253.56	3.422
253.94	0.000
254.31	6.439
254.68	4.196
255.05	10.098
255.42	3.061
255.79	3.560
256.16	2.980
256.54	4.636
256.91	6.230
257.28	4.590
257.65	4.140
258.02	4.720
258.39	8.262
258.76	7.034
259.14	6.034
259.51	7.781
259.88	4.533
260.25	6.389
260.62	5.205
260.99	7.377
261.36	7.507
261.73	5.305
262.10	5.495
262.47	10.188
262.85	8.333
263.22	5.455
263.59	4.474
263.96	7.928
264.33	5.882
264.70	9.136
265.07	8.592
265.44	10.204
265.81	6.250
266.18	5.896
266.55	8.705
266.92	6.606
267.29	9.190
267.66	6.874
268.03	7.860
268.40	9.603
268.77	2.961
269.14	3.965
269.51	5.702
269.88	9.221
270.25	7.847
270.62	8.228
270.99	8.889
271.36	8.317
271.73	7.073
272.10	8.617
272.47	6.814
272.84	7.831
273.21	4.609
273.58	8.065
273.95	6.923
274.32	5.894
274.69	5.222
275.06	8.425
275.43	4.806
275.80	8.466
276.17	6.296
276.54	5.784
276.91	4.472
277.28	7.233
277.65	6.643
278.02	6.434
278.39	7.428
278.76	6.151
279.13	8.156
279.50	7.560
279.87	8.587
280.23	2.817
280.60	8.814
280.97	8.224
281.34	5.263
281.71	8.799
282.08	7.475
282.45	5.401
282.82	6.436
283.19	5.816
283.56	6.230
283.92	7.357
284.29	9.163
284.66	7.553
285.03	4.006
285.40	6.801
285.77	6.656
286.14	7.481
286.51	5.936
286.87	7.109
287.24	7.078
287.61	5.830
287.98	4.985
288.35	7.396
288.72	6.953
289.08	6.589
289.45	6.213
289.82	4.669
290.19	6.609
290.56	6.197
290.93	6.705
291.29	6.336
291.66	4.683
292.03	5.699
292.40	8.299
292.77	5.121
293.13	7.442
293.50	4.599
293.87	5.369
294.24	7.733
294.60	6.700
294.97	4.430
295.34	6.914
295.71	6.557
296.08	5.685
296.44	6.250
296.81	5.847
297.18	5.479
297.55	5.896
297.91	6.406
298.28	5.213
298.65	6.421
299.02	5.195
299.38	6.751
299.75	5.374
300.12	4.514
300.48	6.452
300.85	6.299
301.22	6.376
301.59	5.594
301.95	6.102
302.32	7.556
302.69	5.476
303.05	6.420
303.42	6.763
303.79	6.771
304.15	6.940
304.52	4.545
304.89	5.445
305.25	6.936
305.62	4.807
305.99	7.010
306.35	5.444
306.72	7.342
307.09	5.482
307.45	6.936
307.82	7.366
308.19	5.954
308.55	7.715
308.92	7.400
309.29	7.280
309.65	6.530
310.02	6.238
310.38	7.480
310.75	8.350
311.12	8.533
311.48	7.722
311.85	7.787
312.22	7.021
312.58	9.296
312.95	7.553
313.31	9.485
313.68	8.516
314.05	10.388
314.41	9.563
314.78	9.446
315.14	11.071
315.51	11.911
315.87	11.341
316.24	12.329
316.61	11.812
316.97	11.584
317.34	11.199
317.70	12.052
318.07	14.021
318.43	12.500
318.80	14.548
319.16	14.163
319.53	13.539
319.89	14.110
320.26	15.925
320.62	14.539
320.99	16.898
321.35	15.712
321.72	17.953
322.08	16.050
322.45	17.886
322.81	18.051
323.18	17.788
323.54	19.052
323.91	18.861
324.27	17.814
324.64	19.731
325.00	19.983
325.37	20.639
325.73	19.669
326.10	21.573
326.46	21.987
326.83	22.338
327.19	22.362
327.56	22.609
327.92	21.007
328.29	20.806
328.65	22.111
329.01	22.420
329.38	22.578
329.74	22.860
330.11	23.630
330.47	22.494
330.84	23.170
331.20	23.417
331.56	23.830
331.93	21.590
332.29	24.153
332.66	23.256
333.02	22.446
333.38	22.651
333.75	23.990
334.11	23.853
334.48	23.762
334.84	24.639
335.20	23.174
335.57	25.126
335.93	23.884
336.29	23.461
336.66	24.474
337.02	23.662
337.38	23.044
337.75	23.967
338.11	24.306
338.47	23.160
338.84	22.250
339.20	23.252
339.56	22.652
339.93	23.317
340.29	23.188
340.65	22.222
341.02	24.182
341.38	23.525
341.74	23.648
342.11	24.216
342.47	22.002
342.83	24.235
343.20	24.285
343.56	23.496
343.92	23.859
344.28	23.359
344.65	23.488
345.01	23.401
345.37	22.784
345.73	23.149
346.10	23.479
346.46	24.367
346.82	24.045
347.19	22.918
347.55	22.534
347.91	22.660
348.27	22.914
348.63	22.315
349.00	22.819
349.36	22.974
349.72	23.214
350.08	24.368
350.45	22.814
350.81	22.700
351.17	22.406
351.53	22.820
351.89	23.690
352.26	23.433
352.62	21.269
352.98	22.672
353.34	21.658
353.70	22.111
354.07	21.759
354.43	23.311
354.79	22.364
355.15	23.105
355.51	23.392
355.87	22.887
356.24	22.586
356.60	21.729
356.96	22.165
357.32	22.379
357.68	21.889
358.04	22.231
358.40	23.209
358.77	23.684
359.13	22.600
359.49	22.156
359.85	22.770
360.21	22.669
360.57	23.833
360.93	23.272
361.29	22.807
361.66	23.534
362.02	23.939
362.38	22.699
362.74	22.696
363.10	23.728
363.46	23.061
363.82	23.366
364.18	22.942
364.54	23.651
364.90	23.278
365.26	23.586
365.62	23.733
365.98	23.077
366.35	21.879
366.71	24.422
367.07	23.342
367.43	23.703
367.79	23.822
368.15	23.880
368.51	23.951
368.87	23.645
369.23	23.333
369.59	23.770
369.95	24.206
370.31	25.321
370.67	25.516
371.03	23.892
371.39	22.834
371.75	24.278
372.11	24.187
372.47	23.900
372.83	24.542
373.19	23.549
373.55	23.713
373.91	23.245
374.27	23.545
374.63	25.304
374.99	25.000
375.35	23.896
375.71	23.742
376.07	23.628
376.42	24.874
376.78	24.177
377.14	24.704
377.50	23.403
377.86	24.692
378.22	24.491
378.58	24.792
378.94	24.237
379.30	23.902
379.66	25.456
380.02	25.101
380.38	25.115
380.74	24.789
381.09	25.087
381.45	25.284
381.81	26.112
382.17	25.178
382.53	25.029
382.89	24.774
383.25	25.264
383.61	24.479
383.97	25.029
384.32	26.017
384.68	24.884
385.04	25.853
385.40	26.282
385.76	25.147
386.12	24.417
386.48	25.529
386.83	26.043
387.19	25.145
387.55	25.704
387.91	25.285
388.27	25.577
388.62	25.601
388.98	25.776
389.34	26.400
389.70	25.973
390.06	26.406
390.42	25.422
390.77	26.610
391.13	25.880
391.49	26.147
391.85	27.152
392.20	25.860
392.56	26.167
392.92	25.900
393.28	26.147
393.64	26.201
393.99	26.438
394.35	26.460
394.71	26.707
395.07	25.389
395.42	25.700
395.78	26.996
396.14	26.857
396.50	26.900
396.85	25.820
397.21	25.680
397.57	26.090
397.92	26.976
398.28	25.910
398.64	26.201
399.00	26.178
399.35	26.440
399.71	25.598
400.07	26.727
400.42	27.125
400.78	27.199
401.14	27.490
401.49	25.981
401.85	27.209
402.21	27.115
402.57	27.758
402.92	26.359
403.28	26.698
403.63	26.850
403.99	26.366
404.35	26.379
404.70	26.572
405.06	26.304
405.42	26.405
405.77	27.917
406.13	26.472
406.49	26.858
406.84	26.704
407.20	26.216
407.55	26.287
407.91	26.524
408.27	27.150
408.62	26.062
408.98	26.640
409.34	25.982
409.69	26.947
410.05	27.140
410.40	27.262
410.76	27.650
411.11	27.294
411.47	27.334
411.83	27.454
412.18	27.892
412.54	26.675
412.89	26.892
413.25	26.919
413.60	25.675
413.96	27.273
414.31	26.629
414.67	27.311
415.03	26.585
415.38	26.230
415.74	26.634
416.09	27.390
416.45	26.988
416.80	26.438
417.16	26.756
417.51	27.460
417.87	26.977
418.22	27.425
418.58	25.589
418.93	27.183
419.29	26.880
419.64	26.351
420.00	26.291
420.35	26.165
420.71	26.422
421.06	26.279
421.42	27.466
421.77	26.656
422.12	26.744
422.48	26.984
422.83	27.163
423.19	26.790
423.54	26.217
423.90	27.167
424.25	27.520
424.61	26.751
424.96	27.018
425.31	27.813
425.67	26.355
426.02	27.061
426.38	27.153
426.73	26.283
427.09	27.970
427.44	26.925
427.79	26.313
428.15	26.998
428.50	26.180
428.85	26.349
429.21	26.862
429.56	26.950
429.92	26.683
430.27	26.506
430.62	26.624
430.98	25.922
431.33	26.491
431.68	26.533
432.04	26.968
432.39	27.049
432.74	26.313
433.10	27.096
433.45	26.198
433.80	27.092
434.16	27.014
434.51	27.287
434.86	27.090
435.22	26.514
435.57	27.241
435.92	26.544
436.28	27.702
436.63	27.144
436.98	26.087
437.34	26.268
437.69	26.582
438.04	26.864
438.39	27.858
438.75	26.785
439.10	27.061
439.45	27.054
439.81	26.441
440.16	26.220
440.51	26.700
440.86	26.348
441.22	27.063
441.57	27.254
441.92	26.819
442.27	27.576
442.63	26.776
442.98	26.894
443.33	26.670
443.68	27.453
444.03	27.658
444.39	27.554
444.74	27.106
445.09	26.761
445.44	27.819
445.79	26.964
446.15	26.156
446.50	26.615
446.85	27.286
447.20	26.451
447.55	27.458
447.91	26.702
448.26	26.321
448.61	26.249
448.96	27.092
449.31	26.405
449.66	26.525
450.02	26.951
450.37	26.851
450.72	26.964
451.07	25.854
451.42	25.708
451.77	26.459
452.12	26.467
452.47	25.668
452.83	27.534
453.18	26.562
453.53	26.479
453.88	26.505
454.23	27.966
454.58	27.684
454.93	26.153
455.28	27.754
455.63	26.890
455.98	26.648
456.34	25.854
456.69	26.161
457.04	26.005
457.39	26.441
457.74	27.013
458.09	25.700
458.44	26.024
458.79	26.044
459.14	26.481
459.49	26.825
459.84	27.177
460.19	25.708
460.54	26.122
460.89	26.310
461.24	26.149
461.59	26.619
461.94	24.643
462.29	25.980
462.64	24.864
462.99	25.675
463.34	25.892
463.69	25.264
464.04	25.792
464.39	25.280
464.74	25.542
465.09	25.375
465.44	24.893
465.79	24.590
466.14	24.700
466.49	26.158
466.84	25.344
467.19	25.434
467.54	24.089
467.89	24.138
468.24	25.152
468.59	24.609
468.94	24.242
469.29	24.175
469.64	24.158
469.99	24.347
470.34	24.381
470.68	25.632
471.03	23.707
471.38	24.787
471.73	24.577
472.08	24.810
472.43	24.383
472.78	25.504
473.13	23.704
473.48	25.317
473.83	23.796
474.17	24.560
474.52	23.692
474.87	24.862
475.22	24.451
475.57	23.624
475.92	23.942
476.27	24.068
476.61	23.313
476.96	23.514
477.31	24.257
477.66	23.190
478.01	23.945
478.36	23.529
478.70	23.399
479.05	24.693
479.40	23.741
479.75	24.304
480.10	23.591
480.45	24.066
480.79	24.036
481.14	23.070
481.49	23.671
481.84	23.673
482.19	23.527
482.53	23.655
482.88	23.793
483.23	23.388
483.58	23.188
483.92	22.872
484.27	23.031
484.62	22.607
484.97	22.823
485.31	22.950
485.66	21.685
486.01	21.736
486.36	22.042
486.70	22.945
487.05	23.078
487.40	23.009
487.75	22.621
488.09	22.598
488.44	22.287
488.79	22.799
489.13	21.796
489.48	22.214
489.83	22.012
490.17	21.669
490.52	22.783
490.87	21.954
491.22	21.664
491.56	22.611
491.91	22.067
492.26	22.285
492.60	22.125
492.95	22.554
493.30	22.008
493.64	21.375
493.99	21.930
494.34	21.124
494.68	21.670
495.03	22.026
495.37	21.793
495.72	21.497
496.07	21.604
496.41	21.107
496.76	21.643
497.11	21.104
497.45	21.191
497.80	21.990
498.14	21.406
498.49	20.910
498.84	21.892
499.18	21.592
499.53	21.031
499.87	21.802
500.22	21.193
500.56	20.648
500.91	21.190
501.26	20.773
501.60	20.725
501.95	20.582
502.29	21.018
502.64	21.382
502.98	21.096
503.33	19.827
503.67	20.410
504.02	20.709
504.36	21.314
504.71	20.349
505.06	20.691
505.40	20.201
505.75	20.310
506.09	20.120
506.44	20.613
506.78	21.101
507.13	19.779
507.47	19.896
507.82	20.644
508.16	20.172
508.51	19.362
508.85	20.265
509.19	20.275
509.54	20.557
509.88	19.815
510.23	21.030
510.57	20.396
510.92	20.561
511.26	19.336
511.61	19.845
511.95	19.619
512.30	20.138
512.64	19.140
512.98	19.510
513.33	20.212
513.67	19.786
514.02	19.009
514.36	19.437
514.70	19.010
515.05	19.499
515.39	19.475
515.74	20.414
516.08	19.334
516.42	20.094
516.77	19.611
517.11	19.752
517.46	20.255
517.80	20.310
518.14	19.913
518.49	19.740
518.83	18.467
519.17	19.332
519.52	20.126
519.86	19.219
520.20	19.595
520.55	18.949
520.89	19.032
521.23	19.375
521.58	19.944
521.92	18.924
522.26	19.588
522.61	20.197
522.95	18.512
523.29	18.391
523.64	18.778
523.98	19.681
524.32	19.771
524.66	18.611
525.01	19.026
525.35	19.357
525.69	18.735
526.04	18.657
526.38	17.529
526.72	18.281
527.06	18.944
527.41	18.426
527.75	19.299
528.09	18.949
528.43	18.236
528.78	18.382
529.12	18.406
529.46	18.775
529.80	18.535
530.15	18.493
530.49	17.438
530.83	18.418
531.17	17.802
531.51	18.592
531.86	18.089
532.20	18.659
532.54	18.552
532.88	17.455
533.22	18.621
533.57	18.696
533.91	17.845
534.25	17.694
534.59	18.218
534.93	16.469
535.27	18.366
535.62	17.908
535.96	18.129
536.30	17.450
536.64	18.559
536.98	17.958
537.32	18.951
537.66	18.653
538.01	17.644
538.35	17.966
538.69	17.909
539.03	17.842
539.37	17.668
539.71	18.318
540.05	17.806
540.39	17.910
540.73	17.304
541.07	17.535
541.42	17.838
541.76	16.429
542.10	17.551
542.44	16.748
542.78	17.640
543.12	16.746
543.46	17.460
543.80	16.547
544.14	16.577
544.48	17.494
544.82	17.056
545.16	16.756
545.50	17.076
545.84	17.085
546.18	18.272
546.52	17.070
546.86	17.610
547.20	16.985
547.54	16.167
547.88	16.335
548.22	16.725
548.56	16.735
548.90	15.940
549.24	16.717
549.58	16.341
549.92	15.497
550.26	17.023
550.60	16.784
550.94	16.171
551.28	15.908
551.62	18.059
551.96	16.570
552.30	17.081
552.64	16.677
552.98	16.095
553.32	16.977
553.66	15.563
554.00	15.700
554.34	16.667
554.68	15.623
555.02	16.820
555.36	17.488
555.69	16.272
556.03	15.889
556.37	16.959
556.71	16.867
557.05	16.230
557.39	15.594
557.73	16.446
558.07	15.695
558.41	16.611
558.75	15.957
559.08	15.727
559.42	15.981
559.76	16.282
560.10	16.008
560.44	16.755
560.78	16.625
561.12	16.626
561.45	16.302
561.79	16.117
562.13	15.096
562.47	14.673
562.81	15.380
563.15	15.783
563.48	16.470
563.82	16.385
564.16	15.627
564.50	15.316
564.84	15.575
565.17	15.588
565.51	14.730
565.85	15.914
566.19	14.977
566.52	15.331
566.86	15.733
567.20	14.736
567.54	15.773
567.88	15.443
568.21	15.761
568.55	15.396
568.89	15.433
569.23	14.998
569.56	14.810
569.90	14.968
570.24	14.840
570.57	14.753
570.91	14.911
571.25	14.955
571.59	14.918
571.92	14.712
572.26	14.479
572.60	14.551
572.93	14.779
573.27	14.695
573.61	14.505
573.95	14.470
574.28	14.903
574.62	14.620
574.96	14.248
575.29	14.100
575.63	14.576
575.97	14.707
576.30	14.384
576.64	14.173
576.98	14.351
577.31	14.214
577.65	14.239
577.98	14.062
578.32	14.120
578.66	14.342
578.99	14.274
579.33	14.362
579.67	14.143
580.00	14.138
580.34	14.529
580.67	14.210
581.01	14.215
581.35	14.494
581.68	14.126
582.02	14.169
582.35	14.337
582.69	14.386
583.02	14.315
583.36	14.479
583.70	14.565
584.03	14.663
584.37	14.293
584.70	14.059
585.04	13.997
585.37	13.875
585.71	14.002
586.04	14.421
586.38	14.531
586.72	13.763
587.05	13.712
587.39	13.962
587.72	13.900
588.06	13.709
588.39	13.841
588.73	13.598
589.06	14.334
589.40	14.413
589.73	14.267
590.07	14.092
590.40	14.233
590.73	14.033
591.07	14.594
591.40	14.269
591.74	13.514
592.07	14.535
592.41	13.959
592.74	13.596
593.08	13.885
593.41	14.027
593.75	13.736
594.08	14.329
594.41	14.071
594.75	14.181
595.08	13.392
595.42	14.188
595.75	13.723
596.09	13.961
596.42	14.045
596.75	13.740
597.09	13.939
597.42	14.064
597.75	13.838
598.09	13.810
598.42	13.792
598.76	13.451
599.09	13.279
599.42	13.543
599.76	13.536
600.09	13.614
600.42	13.347
600.76	13.573
601.09	13.110
601.42	13.251
601.76	13.862
602.09	13.224
602.42	13.341
602.76	13.247
603.09	13.399
603.42	13.403
603.76	12.967
604.09	14.053
604.42	13.541
604.76	13.052
605.09	14.001
605.42	13.357
605.75	13.154
606.09	12.766
606.42	13.426
606.75	12.931
607.09	12.942
607.42	13.642
607.75	13.599
608.08	13.575
608.42	13.382
608.75	13.018
609.08	13.031
609.41	13.454
609.75	13.214
610.08	13.588
610.41	12.999
610.74	12.773
611.07	13.366
611.41	13.991
611.74	13.903
612.07	13.464
612.40	13.118
612.73	12.323
613.07	13.399
613.40	13.571
613.73	13.000
614.06	13.788
614.39	12.536
614.72	12.955
615.06	12.656
615.39	13.001
615.72	13.460
616.05	12.967
616.38	14.026
616.71	13.271
617.05	12.620
617.38	13.537
617.71	13.607
618.04	12.952
618.37	14.098
618.70	13.122
619.03	13.262
619.36	12.392
619.69	12.812
620.03	13.371
620.36	13.374
620.69	13.140
621.02	13.648
621.35	13.933
621.68	13.377
622.01	13.310
622.34	11.994
622.67	12.440
623.00	11.606
623.33	13.670
623.66	13.424
623.99	13.101
624.32	13.970
624.65	12.098
624.99	13.849
625.32	13.521
625.65	12.610
625.98	12.339
626.31	13.040
626.64	13.333
626.97	12.303
627.30	11.769
627.63	12.978
627.96	12.763
628.29	12.918
628.62	12.762
628.95	12.883
629.28	11.980
629.61	13.384
629.94	11.381
630.26	12.203
630.59	11.744
630.92	12.208
631.25	12.970
631.58	13.183
631.91	12.090
632.24	12.296
632.57	12.903
632.90	11.735
633.23	12.449
633.56	13.673
633.89	12.293
634.22	13.617
634.55	12.735
634.88	13.095
635.20	13.132
635.53	14.463
635.86	12.243
636.19	12.301
636.52	13.080
636.85	13.585
637.18	12.266
637.51	13.333
637.83	13.953
638.16	12.903
638.49	11.972
638.82	13.641
639.15	11.913
639.48	14.203
639.81	12.009
640.13	14.252
640.46	10.788
640.79	11.765
641.12	13.913
641.45	11.418
641.77	15.148
642.10	11.942
642.43	13.963
642.76	12.873
643.09	12.192
643.41	12.465
643.74	11.448
644.07	12.690
644.40	12.447
644.73	10.160
645.05	11.601
645.38	12.086
645.71	10.411
646.04	14.060
646.36	12.263
646.69	12.117
647.02	14.679
647.35	13.588
647.67	12.882
648.00	11.146
648.33	13.514
648.66	11.555
648.98	10.612
649.31	12.043
649.64	12.882
649.96	13.528
650.29	10.848
650.62	12.306
650.94	12.913
651.27	9.880
651.60	10.965
651.92	11.702
652.25	11.577
652.58	12.792
652.90	10.320
653.23	12.254
653.56	12.981
653.88	11.938
654.21	11.972
654.54	12.572
654.86	12.890
655.19	11.292
655.52	12.530
655.84	11.436
656.17	13.360
656.49	18.971
656.82	21.176
657.15	16.627
657.47	12.730
657.80	9.525
658.13	7.336
658.45	9.637
658.78	12.190
659.10	11.663
659.43	11.131
659.75	10.742
660.08	9.748
660.41	10.505
660.73	9.920
661.06	9.838
661.38	12.440
661.71	10.862
662.03	11.111
662.36	14.311
662.68	10.507
663.01	11.504
663.33	12.476
663.66	12.271
663.98	12.500
664.31	12.008
664.63	10.597
664.96	11.797
665.28	10.889
665.61	12.063
665.93	10.357
666.26	10.394
666.58	9.225
666.91	11.589
667.23	10.286
667.56	12.821
667.88	11.400
668.21	9.766
668.53	10.039
668.86	11.198
669.18	9.369
669.50	11.133
669.83	10.800
670.15	10.433
670.48	12.698
670.80	9.943
671.13	10.019
671.45	9.252
671.77	11.299
672.10	11.167
672.42	9.547
672.75	8.141
673.07	10.896
673.39	11.864
673.72	12.248
674.04	10.690
674.37	10.197
674.69	13.580
675.01	9.905
675.34	8.588
675.66	10.300
675.98	12.313
676.31	11.133
676.63	11.407
676.95	12.452
677.28	9.879
677.60	9.252
677.92	10.557
678.25	12.066
678.57	11.210
678.89	12.287
679.22	9.059
679.54	8.889
679.86	10.000
680.18	9.121
680.51	11.006
680.83	10.966
681.15	9.655
681.48	10.708
681.80	11.054
682.12	9.790
682.44	12.354
682.77	12.589
683.09	10.795
683.41	12.597
683.73	11.006
684.06	11.255
684.38	9.123
684.70	13.106
685.02	12.048
685.34	9.484
685.67	11.041
685.99	10.429
686.31	9.884
686.63	10.111
686.96	10.883
687.28	8.958
687.60	8.923
687.92	9.968
688.24	10.351
688.56	8.621
688.89	11.071
689.21	11.155
689.53	12.157
689.85	8.876
690.17	10.000
690.49	10.359
690.82	8.911
691.14	10.121
691.46	10.899
691.78	10.129
692.10	12.294
692.42	10.357
692.74	10.163
693.06	10.185
693.39	10.626
693.71	9.586
694.03	10.409
694.35	11.048
694.67	10.062
694.99	8.723
695.31	6.623
695.63	9.524
695.95	9.317
696.27	9.890
696.59	11.504
696.91	10.586
697.23	11.648
697.56	9.369
697.88	8.712
698.20	9.981
698.52	13.447
698.84	8.732
699.16	12.653
699.48	8.996
699.80	9.149
700.12	11.790
700.44	8.986
700.76	8.789
701.08	11.380
701.40	9.326
701.72	9.950
702.04	8.556
702.36	7.592
702.68	8.802
703.00	8.068
703.32	7.389
703.64	8.802
703.96	10.501
704.28	8.108
704.60	12.911
704.91	10.714
705.23	10.685
705.55	10.864
705.87	11.515
706.19	10.123
706.51	6.627
706.83	8.357
707.15	8.995
707.47	7.710
707.79	9.825
708.11	6.144
708.43	7.097
708.74	8.259
709.06	9.049
709.38	12.441
709.70	9.926
710.02	7.494
710.34	11.170
710.66	5.307
710.98	12.568
711.29	7.967
711.61	9.322
711.93	6.553
712.25	5.946
712.57	12.979
712.89	11.176
713.20	7.988
713.52	9.249
713.84	9.192
714.16	10.789
714.48	6.443
714.80	8.831
715.11	7.874
715.43	6.897
715.75	9.737
716.07	11.050
716.39	10.656
716.70	7.831
717.02	9.836
717.34	7.317
717.66	8.054
717.97	2.397
718.29	5.842
718.61	11.842
718.93	7.443
719.24	9.317
719.56	7.669
719.88	7.508
720.20	5.806
720.51	6.211
720.83	5.000
721.15	4.276
721.46	4.452
721.78	5.333
722.10	8.414
722.42	6.376
722.73	8.065
723.05	5.614
723.37	7.986
723.68	10.394
724.00	7.942
724.32	5.986
724.63	7.343
724.95	7.447
725.27	9.408
725.58	4.594
725.90	10.000
726.22	6.583
726.53	9.091
726.85	10.692
727.16	7.855
727.48	11.621
727.80	9.934
728.11	6.714
728.43	9.764
728.74	6.689
729.06	9.272
729.38	9.740
729.69	10.403
730.01	9.524
730.32	10.000
730.64	10.377
730.96	3.106
731.27	10.894
731.59	9.066
731.90	5.714
732.22	4.167
732.53	7.182
732.85	9.714
733.16	9.384
733.48	6.098
733.80	9.749
734.11	7.407
734.43	9.189
734.74	12.405
735.06	6.030
735.37	5.676
735.69	8.378
736.00	6.215
736.32	9.704
736.63	8.889
736.95	7.184
737.26	8.788
737.58	6.364
737.89	7.353
738.21	5.810
738.52	6.230
738.83	8.532
739.15	6.383
739.46	7.143
739.78	5.828
740.09	6.304
740.41	8.163
740.72	6.333
741.04	10.032
741.35	10.175
741.66	8.627
741.98	6.557
742.29	7.531
742.61	5.702
742.92	6.154
743.23	8.664
743.55	9.690
743.86	6.000
744.18	1.240
744.49	5.485
744.80	4.938
745.12	7.595
745.43	6.504
745.74	4.310
746.06	7.203
746.37	3.797
746.68	12.195
747.00	7.083
747.31	6.009
747.62	9.231
747.94	4.453
748.25	2.008
748.56	4.490
748.88	8.547
749.19	8.621
749.50	2.165
749.82	8.835
750.13	7.117
750.44	6.000
750.75	8.000
751.07	8.615
751.38	8.517
751.69	7.029
752.01	6.149
752.32	6.209
752.63	5.782
752.94	4.844
753.26	5.576
753.57	6.296
753.88	5.243
754.19	7.395
754.51	5.788
754.82	5.145
755.13	9.180
755.44	7.167
755.75	9.539
756.07	8.955
756.38	10.692
756.69	6.024
757.00	4.432
757.31	7.377
757.63	5.115
757.94	4.930
758.25	9.707
758.56	6.972
758.87	8.864
759.18	6.400
759.50	9.632
759.81	6.723
760.12	9.434
760.43	9.635
760.74	8.128
761.05	8.250
761.36	5.060
761.67	7.107
761.99	9.189
762.30	6.707
762.61	6.271
762.92	5.224
763.23	7.865
763.54	5.755
763.85	6.873
764.16	5.051
764.47	5.986
764.78	9.585
765.10	5.865
765.41	8.974
765.72	5.820
766.03	7.062
766.34	5.956
766.65	6.272
766.96	8.367
767.27	6.912
767.58	0.498
767.89	5.769
768.20	7.042
768.51	7.407
768.82	6.024
769.13	4.545
769.44	1.923
769.75	9.025
770.06	6.923
770.37	9.843
770.68	1.702
770.99	4.453
771.30	8.889
771.61	6.464
771.92	3.333
772.23	5.668
772.54	2.778
772.85	9.677
773.16	2.381
773.47	2.646
773.78	2.703
774.09	3.409
774.39	12.500
774.70	11.475
775.01	-1.829
775.32	3.529
775.63	7.362
775.94	-3.822
776.25	7.742
776.56	3.846
776.87	3.401
777.18	3.448
777.48	-2.098
777.79	8.108
778.10	-2.941
778.41	1.389
778.72	-2.069
779.03	-4.321
779.34	-2.424
779.65	7.254
779.95	3.889
780.26	-2.273
780.57	3.871
780.88	7.971
781.19	7.742
781.50	7.059
781.80	3.763
782.11	7.937
782.42	3.030
782.73	-0.599
783.04	6.145
783.34	-4.848
783.65	1.307
783.96	9.317
784.27	0.595
784.57	5.960
784.88	1.429
785.19	-3.937
785.50	-3.150
785.81	1.504
786.11	1.538
786.42	-2.878
786.73	-1.439
787.04	-0.752
787.34	1.639
787.65	-1.600
787.96	2.239
788.26	4.196
788.57	11.888
788.88	0.658
789.19	9.150
789.49	3.425
789.80	5.674
790.11	3.150
790.41	6.250
790.72	-4.237
791.03	-15.534
791.33	0.000
791.64	7.895
791.95	-8.036
792.25	3.810
792.56	0.893
792.87	-4.167
793.17	5.357
793.48	-6.250
793.79	-4.819
794.09	8.257
794.40	-0.917
794.70	4.082
795.01	-2.597
795.32	-4.110
795.62	7.042
795.93	-3.030
796.23	2.459
796.54	-4.464
796.85	-3.191
797.15	-7.609
797.46	-15.068
797.76	-8.750
798.07	-7.609
798.37	-9.278
798.68	-7.792
798.99	-8.046
799.29	-5.618
799.60	0.000
799.90	7.229
800.21	-18.462
800.51	-11.940
800.82	-27.941
801.12	-35.616
801.43	-27.941
801.73	-20.339
802.04	-10.606
802.34	-21.667
802.65	-30.508
802.95	-4.478
803.26	-22.034
803.56	-6.849
803.87	-1.429
804.17	-9.589
804.48	-36.842
804.78	-18.056
805.09	-24.138
805.39	5.405
805.70	-15.493
806.00	1.220
806.30	-3.614
806.61	-13.699
806.91	-3.846
807.22	3.333
807.52	-9.195
807.83	4.167
808.13	-4.819
808.43	5.618
808.74	7.500
809.04	-23.529
809.35	-10.667
809.65	-17.143
809.95	0.000
810.26	-19.298
810.56	-18.966
810.86	-13.235
811.17	-8.772
811.47	-16.393
811.77	-15.556
812.08	-8.475
812.38	-3.333
812.69	-3.448
812.99	-9.434
813.29	-41.026
813.59	-12.000
813.90	-15.789
814.20	-23.636
814.50	7.042
814.81	-3.846
815.11	0.000
815.41	0.000
815.72	3.448
816.02	-5.357
816.32	-4.444
816.62	-20.455
816.93	-26.667
817.23	22.222
817.53	-23.404
817.84	-9.524
818.14	-29.412
818.44	-18.367
818.74	-15.556
819.04	-33.333
819.35	-20.000
819.65	-76.923
819.95	-22.642
820.25	-15.556
820.56	-23.810
820.86	-59.375
821.16	-41.026
821.46	-23.256
821.76	-52.000
822.07	-12.500
822.37	-23.913
822.67	-10.638
822.97	-21.622
823.27	-32.500
823.57	-16.327
823.88	-8.889
824.18	-35.000
824.48	-60.000
824.78	-72.000
825.08	-36.364
825.38	0.000
825.69	2.128
825.99	-5.556
826.29	-54.286
826.59	-20.513
826.89	-27.907
827.19	-6.000
827.49	-20.588
827.79	-2.083
828.09	-29.730
828.39	-30.000
828.70	-24.390
829.00	0.000
829.30	-10.714
829.60	-5.882
829.90	-17.391
830.20	-34.286
830.50	-34.483
830.80	-77.778
831.10	-30.769
831.40	-41.176
831.70	-57.143
832.00	0.000
832.30	-152.941
832.60	-54.167
832.90	-123.077
833.20	-78.947
833.50	-55.000
833.80	-52.632
834.10	-95.238
834.40	-13.889
834.70	-25.000
835.00	-40.000
835.30	-11.765
835.60	-40.000
835.90	-40.000
836.20	-86.364
836.50	-44.000
836.80	-63.636
837.10	-44.444
837.40	-55.556
837.70	-137.500
838.00	-75.000
838.30	-78.261
838.60	-34.483
838.90	-121.429
839.19	-117.391
839.49	-175.000
839.79	-21.739
840.09	-137.500
840.39	-20.000
840.69	22.581
840.99	-39.286
841.29	-113.333
841.59	-57.895
841.88	-5.128
842.18	-19.231
842.48	-210.000
842.78	-30.000
843.08	-23.333
843.38	-25.806
843.68	-88.889
843.97	2.941
844.27	-62.500
844.57	-15.789
844.87	-150.000
845.17	-46.667
845.47	-38.095
845.76	-28.571
846.06	-188.889
846.36	-117.647
846.66	-23.077
846.96	-80.000
847.25	-47.059
847.55	-26.087
847.85	-45.000
848.15	-41.176
848.44	-100.000
848.74	-28.571
849.04	-37.500
849.34	-100.000
849.63	-17.391
849.93	1350.000
850.23	-20.000
850.53	-46.154
850.82	-163.636
851.12	4.545
851.42	-209.091
851.71	-92.308
852.01	-85.000
852.31	-61.538
852.61	-68.421
852.90	-141.667
853.20	-38.889
853.50	-133.333
853.79	-57.143
854.09	-31.818
854.39	-183.333
854.68	-35.484
854.98	-15.385
855.28	-50.000
855.57	-32.143
855.87	-56.000
856.17	-27.273
856.46	-29.630
856.76	-83.333
857.05	-56.522
857.35	-45.833
857.65	-123.077
857.94	-4.762
858.24	-40.741
858.53	-56.522
858.83	-70.588
859.13	-70.588
859.42	-70.588
859.72	-42.857
860.01	-65.000
860.31	-55.556
860.60	-70.000
860.90	-66.667
861.20	-77.778
861.49	-107.692
861.79	13.333
862.08	-84.615
862.38	-18.750
862.67	-29.412
862.97	-62.500
863.26	-144.444
863.56	-70.000
863.85	-209.091
864.15	-66.667
864.44	-566.667
864.74	-92.857
865.03	-87.500
865.33	-250.000
865.62	-19.355
865.92	-31.818
866.21	0.000
866.51	-100.000
866.80	-240.000
867.10	-125.000
867.39	-33.333
867.69	2000.000
867.98	-300.000
868.27	-23.529
868.57	-1800.000
868.86	-210.000
869.16	-61.905
869.45	-50.000
869.75	-63.636
870.04	-171.429
870.33	-100.000
870.63	-285.714
870.92	-175.000
871.22	-237.500
871.51	-181.818
871.80	-766.667
872.10	-600.000
>>>>>End Processed Spectral Data<<<<<
