SpectraSuite Data File
++++++++++++++++++++++++++++++++++++
Date: Thu May 14 16:14:40 PDT 2015
User: schluterlab
Dark Spectrum Present: Yes
Reference Spectrum Present: Yes
Number of Sampled Component Spectra: 1
Spectrometers: USB2E3373
Integration Time (usec): 3000 (USB2E3373)
Spectra Averaged: 3 (USB2E3373)
Boxcar Smoothing: 0 (USB2E3373)
Correct for Electrical Dark: No (USB2E3373)
Strobe/Lamp Enabled: No (USB2E3373)
Correct for Detector Non-linearity: No (USB2E3373)
Correct for Stray Light: No (USB2E3373)
Number of Pixels in Processed Spectrum: 2048
>>>>>Begin Processed Spectral Data<<<<<
178.53	0.000
178.91	-28.571
179.29	-1000.000
179.67	-700.000
180.04	142.857
180.42	-10.000
180.80	120.000
181.18	-300.000
181.56	500.000
181.94	375.000
182.31	-200.000
182.69	300.000
183.07	0.000
183.45	200.000
183.83	-83.333
184.20	-300.000
184.58	300.000
184.96	-125.000
185.34	-44.444
185.72	100.000
186.09	144.444
186.47	600.000
186.85	260.000
187.23	-77.778
187.61	-1000.000
187.98	220.000
188.36	400.000
188.74	-200.000
189.12	-166.667
189.49	-31.250
189.87	-187.500
190.25	0.000
190.63	0.000
191.00	-111.111
191.38	0.000
191.76	-200.000
192.14	-83.333
192.51	500.000
192.89	133.333
193.27	0.000
193.65	128.571
194.02	-1100.000
194.40	57.143
194.78	157.143
195.15	0.000
195.53	-18.182
195.91	0.000
196.29	-125.000
196.66	-46.154
197.04	-400.000
197.42	14.286
197.79	150.000
198.17	0.000
198.55	-71.429
198.92	22.222
199.30	-112.500
199.68	-27.273
200.05	0.000
200.43	-300.000
200.81	171.429
201.18	0.000
201.56	111.111
201.94	0.000
202.31	400.000
202.69	-133.333
203.07	-0.000
203.44	-22.222
203.82	-225.000
204.19	-8.333
204.57	-83.333
204.95	75.000
205.32	-500.000
205.70	275.000
206.08	83.333
206.45	83.333
206.83	140.000
207.20	-133.333
207.58	-80.000
207.96	-83.333
208.33	16.667
208.71	50.000
209.08	100.000
209.46	0.000
209.84	133.333
210.21	-50.000
210.59	-200.000
210.96	233.333
211.34	-25.000
211.71	-37.500
212.09	-700.000
212.46	0.000
212.84	1000.000
213.22	-120.000
213.59	-50.000
213.97	30.000
214.34	-300.000
214.72	100.000
215.09	-125.000
215.47	0.000
215.84	28.571
216.22	750.000
216.59	120.000
216.97	-180.000
217.34	-125.000
217.72	-37.500
218.09	-150.000
218.47	-275.000
218.84	0.000
219.22	20.000
219.59	29.412
219.97	35.000
220.34	750.000
220.72	-111.111
221.09	30.769
221.47	-200.000
221.84	-60.000
222.22	-42.857
222.59	0.000
222.97	37.500
223.34	-120.000
223.72	-500.000
224.09	-125.000
224.46	-350.000
224.84	80.000
225.21	-28.571
225.59	-200.000
225.96	-50.000
226.34	11.538
226.71	166.667
227.08	-400.000
227.46	-13.333
227.83	-200.000
228.21	-15.789
228.58	-50.000
228.95	250.000
229.33	50.000
229.70	-20.000
230.08	78.947
230.45	80.000
230.82	-166.667
231.20	-7.143
231.57	16.667
231.95	-109.091
232.32	-9.091
232.69	15.000
233.07	-300.000
233.44	-17.647
233.81	10.000
234.19	33.333
234.56	4.545
234.93	48.276
235.31	-42.105
235.68	33.333
236.05	-20.000
236.43	15.385
236.80	60.000
237.17	40.741
237.55	15.152
237.92	20.000
238.29	-3.226
238.67	6.818
239.04	30.556
239.41	0.000
239.79	8.696
240.16	7.407
240.53	13.043
240.91	1.961
241.28	3.279
241.65	31.343
242.02	20.270
242.40	13.846
242.77	6.667
243.14	13.415
243.51	0.000
243.89	8.974
244.26	22.772
244.63	14.706
245.00	9.346
245.38	6.140
245.75	7.965
246.12	17.460
246.49	6.202
246.87	12.143
247.24	17.881
247.61	19.737
247.98	14.094
248.36	14.815
248.73	14.724
249.10	14.754
249.47	15.920
249.84	15.183
250.22	11.917
250.59	21.111
250.96	20.455
251.33	10.204
251.70	14.530
252.08	14.167
252.45	12.295
252.82	14.876
253.19	17.578
253.56	16.730
253.94	17.308
254.31	17.803
254.68	18.531
255.05	19.218
255.42	14.966
255.79	14.239
256.16	13.907
256.54	13.245
256.91	15.738
257.28	14.098
257.65	10.828
258.02	15.929
258.39	15.954
258.76	22.324
259.14	17.241
259.51	16.715
259.88	15.581
260.25	19.444
260.62	15.616
260.99	18.033
261.36	16.622
261.73	17.507
262.10	14.011
262.47	19.571
262.85	20.202
263.22	15.584
263.59	13.421
263.96	16.368
264.33	16.880
264.70	15.802
265.07	18.138
265.44	19.728
265.81	15.046
266.18	17.007
266.55	12.946
266.92	16.629
267.29	18.162
267.66	17.738
268.03	17.686
268.40	16.701
268.77	12.301
269.14	14.317
269.51	15.570
269.88	16.803
270.25	17.706
270.62	16.667
270.99	17.778
271.36	15.248
271.73	14.931
272.10	17.234
272.47	16.433
272.84	14.859
273.21	18.036
273.58	17.339
273.95	16.346
274.32	14.639
274.69	17.408
275.06	16.300
275.43	14.972
275.80	16.402
276.17	14.444
276.54	16.045
276.91	15.921
277.28	17.360
277.65	16.697
278.02	16.728
278.39	14.855
278.76	15.114
279.13	14.894
279.50	14.433
279.87	16.637
280.23	10.915
280.60	16.949
280.97	15.789
281.34	15.959
281.71	15.567
282.08	14.120
282.45	14.403
282.82	14.914
283.19	15.347
283.56	17.049
283.92	17.117
284.29	16.746
284.66	16.749
285.03	12.340
285.40	13.756
285.77	14.087
286.14	16.641
286.51	14.764
286.87	14.218
287.24	15.964
287.61	15.247
287.98	15.408
288.35	15.828
288.72	14.793
289.08	14.788
289.45	13.314
289.82	16.114
290.19	16.236
290.56	14.366
290.93	13.980
291.29	14.050
291.66	14.876
292.03	13.976
292.40	14.694
292.77	12.938
293.13	14.344
293.50	14.980
293.87	13.020
294.24	14.667
294.60	14.286
294.97	12.752
295.34	13.444
295.71	12.989
296.08	12.920
296.44	13.480
296.81	12.546
297.18	12.578
297.55	14.151
297.91	11.981
298.28	11.967
298.65	13.793
299.02	12.751
299.38	13.501
299.75	13.201
300.12	12.269
300.48	13.018
300.85	13.498
301.22	14.430
301.59	12.215
301.95	11.977
302.32	13.111
302.69	13.034
303.05	13.493
303.42	13.304
303.79	11.354
304.15	11.567
304.52	12.579
304.89	13.403
305.25	13.975
305.62	14.002
305.99	13.299
306.35	13.105
306.72	12.513
307.09	12.081
307.45	12.733
307.82	13.320
308.19	12.412
308.55	14.368
308.92	12.658
309.29	12.644
309.65	12.671
310.02	12.772
310.38	13.386
310.75	13.495
311.12	14.094
311.48	13.196
311.85	14.245
312.22	14.991
312.58	14.085
312.95	13.767
313.31	14.905
313.68	15.110
314.05	15.537
314.41	15.574
314.78	16.712
315.14	15.789
315.51	16.528
315.87	17.552
316.24	16.712
316.61	17.140
316.97	17.557
317.34	16.843
317.70	19.039
318.07	19.136
318.43	19.643
318.80	20.736
319.16	19.142
319.53	18.680
319.89	20.596
320.26	21.263
320.62	21.011
320.99	21.330
321.35	22.366
321.72	22.884
322.08	23.535
322.45	24.661
322.81	25.271
323.18	25.752
323.54	27.155
323.91	28.114
324.27	28.571
324.64	28.463
325.00	28.358
325.37	30.221
325.73	30.744
326.10	33.577
326.46	32.573
326.83	35.148
327.19	34.488
327.56	36.601
327.92	35.484
328.29	36.532
328.65	36.767
329.01	38.409
329.38	39.259
329.74	39.469
330.11	40.668
330.47	40.270
330.84	40.310
331.20	42.417
331.56	42.721
331.93	42.510
332.29	43.644
332.66	43.522
333.02	42.965
333.38	43.289
333.75	43.350
334.11	44.787
334.48	45.462
334.84	45.879
335.20	45.172
335.57	47.302
335.93	48.182
336.29	46.256
336.66	47.014
337.02	46.154
337.38	47.449
337.75	47.603
338.11	49.622
338.47	48.470
338.84	48.562
339.20	47.852
339.56	47.858
339.93	49.015
340.29	48.309
340.65	47.121
341.02	49.401
341.38	49.717
341.74	50.282
342.11	50.282
342.47	49.484
342.83	50.805
343.20	50.613
343.56	51.163
343.92	49.960
344.28	50.703
344.65	50.233
345.01	50.546
345.37	51.555
345.73	51.442
346.10	52.106
346.46	52.136
346.82	52.210
347.19	52.788
347.55	52.276
347.91	51.783
348.27	52.049
348.63	50.876
349.00	52.871
349.36	52.862
349.72	53.348
350.08	51.783
350.45	54.297
350.81	53.695
351.17	52.857
351.53	54.208
351.89	53.986
352.26	53.657
352.62	53.060
352.98	53.435
353.34	53.771
353.70	55.855
354.07	53.875
354.43	54.822
354.79	54.151
355.15	54.157
355.51	54.020
355.87	53.403
356.24	56.730
356.60	53.732
356.96	55.078
357.32	53.234
357.68	53.001
358.04	56.512
358.40	54.328
358.77	55.409
359.13	53.914
359.49	55.390
359.85	54.677
360.21	54.448
360.57	54.917
360.93	54.090
361.29	56.421
361.66	55.829
362.02	56.785
362.38	56.571
362.74	55.447
363.10	54.470
363.46	56.371
363.82	55.966
364.18	58.128
364.54	57.123
364.90	57.793
365.26	55.931
365.62	54.933
365.98	57.114
366.35	55.973
366.71	56.190
367.07	56.495
367.43	56.271
367.79	56.669
368.15	57.926
368.51	57.240
368.87	56.760
369.23	56.200
369.59	57.855
369.95	57.201
370.31	58.069
370.67	58.116
371.03	56.579
371.39	56.548
371.75	58.322
372.11	58.604
372.47	56.466
372.83	56.937
373.19	55.103
373.55	56.640
373.91	56.919
374.27	57.180
374.63	57.240
374.99	58.024
375.35	58.312
375.71	57.935
376.07	57.134
376.42	56.801
376.78	57.489
377.14	57.143
377.50	58.571
377.86	57.635
378.22	58.263
378.58	57.669
378.94	56.808
379.30	57.879
379.66	58.260
380.02	58.684
380.38	58.871
380.74	58.817
381.09	57.259
381.45	57.557
381.81	57.787
382.17	58.195
382.53	58.070
382.89	57.393
383.25	59.144
383.61	57.639
383.97	57.656
384.32	59.330
384.68	58.121
385.04	58.589
385.40	59.222
385.76	60.375
386.12	57.391
386.48	58.059
386.83	58.701
387.19	57.706
387.55	59.272
387.91	57.477
388.27	59.180
388.62	57.503
388.98	56.740
389.34	58.751
389.70	58.164
390.06	57.312
390.42	58.494
390.77	58.278
391.13	58.275
391.49	58.756
391.85	58.424
392.20	58.007
392.56	58.653
392.92	57.034
393.28	58.375
393.64	57.989
393.99	58.629
394.35	57.710
394.71	59.042
395.07	58.323
395.42	57.510
395.78	57.526
396.14	59.239
396.50	57.126
396.85	57.543
397.21	57.456
397.57	57.715
397.92	57.904
398.28	57.577
398.64	56.865
399.00	56.126
399.35	56.806
399.71	57.717
400.07	58.843
400.42	57.742
400.78	57.465
401.14	57.200
401.49	57.646
401.85	57.965
402.21	57.822
402.57	57.688
402.92	57.270
403.28	55.738
403.63	57.339
403.99	57.007
404.35	56.964
404.70	56.091
405.06	55.217
405.42	57.084
405.77	56.925
406.13	56.024
406.49	56.025
406.84	55.623
407.20	56.344
407.55	56.329
407.91	56.442
408.27	56.125
408.62	57.243
408.98	57.110
409.34	56.129
409.69	57.108
410.05	56.917
410.40	56.555
410.76	55.693
411.11	56.049
411.47	55.590
411.83	57.437
412.18	56.566
412.54	56.313
412.89	56.985
413.25	55.361
413.60	55.830
413.96	56.177
414.31	54.958
414.67	55.218
415.03	55.323
415.38	55.107
415.74	54.307
416.09	56.323
416.45	53.851
416.80	52.632
417.16	55.556
417.51	55.230
417.87	54.690
418.22	54.371
418.58	53.594
418.93	55.122
419.29	54.377
419.64	54.322
420.00	54.659
420.35	53.285
420.71	53.188
421.06	53.249
421.42	52.408
421.77	53.258
422.12	52.114
422.48	52.995
422.83	54.436
423.19	53.740
423.54	55.144
423.90	53.672
424.25	53.707
424.61	52.583
424.96	54.036
425.31	52.813
425.67	53.247
426.02	52.407
426.38	52.124
426.73	52.344
427.09	53.864
427.44	52.977
427.79	52.018
428.15	51.256
428.50	52.753
428.85	51.722
429.21	53.351
429.56	51.431
429.92	51.400
430.27	52.337
430.62	51.343
430.98	51.599
431.33	51.026
431.68	51.293
432.04	52.260
432.39	51.366
432.74	51.884
433.10	51.866
433.45	50.892
433.80	50.912
434.16	50.930
434.51	52.004
434.86	52.389
435.22	51.700
435.57	51.238
435.92	51.530
436.28	51.308
436.63	51.666
436.98	50.081
437.34	51.297
437.69	51.073
438.04	50.767
438.39	51.235
438.75	50.747
439.10	51.057
439.45	49.748
439.81	49.774
440.16	48.954
440.51	51.394
440.86	49.805
441.22	49.250
441.57	49.790
441.92	49.418
442.27	50.303
442.63	49.280
442.98	50.374
443.33	49.605
443.68	50.396
444.03	49.953
444.39	49.653
444.74	50.179
445.09	48.809
445.44	49.052
445.79	50.239
446.15	48.201
446.50	48.527
446.85	49.125
447.20	48.162
447.55	48.431
447.91	47.958
448.26	47.939
448.61	48.193
448.96	49.195
449.31	47.561
449.66	47.821
450.02	47.943
450.37	46.883
450.72	47.955
451.07	47.039
451.42	47.603
451.77	47.971
452.12	47.799
452.47	46.583
452.83	48.536
453.18	48.044
453.53	46.927
453.88	46.218
454.23	47.175
454.58	46.837
454.93	46.541
455.28	46.358
455.63	45.765
455.98	45.307
456.34	45.701
456.69	46.796
457.04	46.631
457.39	45.067
457.74	46.812
458.09	46.458
458.44	45.151
458.79	45.848
459.14	45.202
459.49	44.822
459.84	45.278
460.19	44.864
460.54	45.656
460.89	44.839
461.24	45.230
461.59	44.604
461.94	43.754
462.29	44.513
462.64	43.512
462.99	44.633
463.34	45.620
463.69	43.787
464.04	44.136
464.39	43.105
464.74	43.273
465.09	43.310
465.44	43.777
465.79	43.628
466.14	42.678
466.49	42.632
466.84	43.581
467.19	42.948
467.54	41.774
467.89	42.644
468.24	42.770
468.59	42.849
468.94	41.725
469.29	41.152
469.64	42.530
469.99	43.021
470.34	42.141
470.68	43.131
471.03	43.157
471.38	42.184
471.73	41.482
472.08	42.640
472.43	42.384
472.78	41.247
473.13	42.668
473.48	42.054
473.83	42.426
474.17	41.208
474.52	40.469
474.87	40.919
475.22	40.958
475.57	41.277
475.92	40.816
476.27	40.575
476.61	39.616
476.96	39.833
477.31	39.901
477.66	41.343
478.01	39.248
478.36	39.880
478.70	40.099
479.05	40.695
479.40	40.523
479.75	40.010
480.10	40.171
480.45	39.517
480.79	39.909
481.14	38.833
481.49	38.437
481.84	39.295
482.19	39.656
482.53	39.790
482.88	39.566
483.23	39.351
483.58	38.603
483.92	38.608
484.27	37.892
484.62	38.531
484.97	37.714
485.31	36.677
485.66	35.323
486.01	35.051
486.36	35.282
486.70	36.496
487.05	36.668
487.40	37.636
487.75	36.947
488.09	36.799
488.44	36.529
488.79	37.774
489.13	37.038
489.48	36.893
489.83	36.056
490.17	36.371
490.52	36.002
490.87	36.760
491.22	37.088
491.56	36.732
491.91	37.331
492.26	37.127
492.60	36.598
492.95	36.288
493.30	36.307
493.64	36.881
493.99	35.395
494.34	35.976
494.68	35.760
495.03	36.211
495.37	36.130
495.72	36.780
496.07	36.415
496.41	35.607
496.76	36.239
497.11	36.518
497.45	36.038
497.80	35.717
498.14	35.692
498.49	35.570
498.84	35.420
499.18	35.043
499.53	35.874
499.87	35.648
500.22	35.352
500.56	35.448
500.91	35.378
501.26	35.591
501.60	33.849
501.95	34.303
502.29	35.059
502.64	35.418
502.98	34.340
503.33	35.119
503.67	34.453
504.02	34.413
504.36	35.389
504.71	34.359
505.06	34.743
505.40	34.598
505.75	34.472
506.09	34.070
506.44	34.494
506.78	33.394
507.13	33.794
507.47	34.391
507.82	33.949
508.16	33.126
508.51	33.286
508.85	33.727
509.19	34.012
509.54	34.390
509.88	33.803
510.23	33.803
510.57	34.654
510.92	33.720
511.26	32.852
511.61	33.076
511.95	33.626
512.30	33.776
512.64	33.483
512.98	33.217
513.33	33.216
513.67	32.789
514.02	33.776
514.36	34.373
514.70	33.490
515.05	33.681
515.39	33.543
515.74	34.093
516.08	32.858
516.42	33.804
516.77	33.123
517.11	32.130
517.46	33.245
517.80	33.191
518.14	34.168
518.49	33.189
518.83	32.783
519.17	33.172
519.52	33.124
519.86	32.049
520.20	33.706
520.55	31.599
520.89	33.277
521.23	32.942
521.58	33.616
521.92	32.521
522.26	32.990
522.61	32.060
522.95	32.757
523.29	31.954
523.64	31.783
523.98	31.831
524.32	33.352
524.66	33.011
525.01	31.880
525.35	31.936
525.69	31.206
526.04	32.204
526.38	32.299
526.72	31.949
527.06	32.903
527.41	32.187
527.75	32.957
528.09	31.287
528.43	31.083
528.78	31.214
529.12	32.339
529.46	30.691
529.80	31.465
530.15	32.000
530.49	31.198
530.83	31.346
531.17	30.944
531.51	30.806
531.86	31.070
532.20	31.463
532.54	31.179
532.88	30.909
533.22	31.408
533.57	30.929
533.91	30.696
534.25	30.187
534.59	30.977
534.93	30.108
535.27	30.423
535.62	31.097
535.96	30.622
536.30	30.435
536.64	30.931
536.98	30.566
537.32	30.926
537.66	31.254
538.01	29.486
538.35	30.146
538.69	30.349
539.03	31.024
539.37	29.682
539.71	29.610
540.05	30.096
540.39	29.340
540.73	29.751
541.07	29.736
541.42	29.947
541.76	29.004
542.10	30.519
542.44	29.415
542.78	29.623
543.12	28.546
543.46	30.037
543.80	27.458
544.14	29.144
544.48	29.551
544.82	28.965
545.16	29.577
545.50	28.999
545.84	28.659
546.18	30.370
546.52	29.236
546.86	30.503
547.20	28.753
547.54	27.591
547.88	28.993
548.22	28.480
548.56	28.789
548.90	28.418
549.24	29.362
549.58	29.022
549.92	28.699
550.26	29.320
550.60	28.462
550.94	29.237
551.28	28.119
551.62	29.515
551.96	29.061
552.30	29.063
552.64	27.816
552.98	27.324
553.32	29.132
553.66	29.196
554.00	28.247
554.34	27.477
554.68	27.566
555.02	28.647
555.36	29.389
555.69	27.162
556.03	27.364
556.37	28.098
556.71	28.155
557.05	28.754
557.39	28.003
557.73	27.741
558.07	27.682
558.41	27.508
558.75	28.600
559.08	27.975
559.42	27.846
559.76	28.630
560.10	27.127
560.44	27.573
560.78	28.250
561.12	27.340
561.45	27.251
561.79	27.228
562.13	28.651
562.47	26.819
562.81	27.911
563.15	27.462
563.48	27.595
563.82	27.690
564.16	27.196
564.50	26.281
564.84	26.549
565.17	27.000
565.51	25.892
565.85	26.128
566.19	26.613
566.52	26.741
566.86	26.995
567.20	25.938
567.54	26.075
567.88	26.453
568.21	26.235
568.55	25.899
568.89	26.146
569.23	25.180
569.56	24.345
569.90	24.947
570.24	24.182
570.57	24.118
570.91	23.699
571.25	23.257
571.59	23.796
571.92	23.108
572.26	23.319
572.60	23.178
572.93	22.822
573.27	23.630
573.61	23.187
573.95	22.748
574.28	22.588
574.62	22.738
574.96	22.100
575.29	22.252
575.63	22.430
575.97	22.707
576.30	22.403
576.64	22.477
576.98	22.323
577.31	22.492
577.65	22.472
577.98	22.044
578.32	21.603
578.66	21.937
578.99	21.913
579.33	22.143
579.67	22.257
580.00	22.342
580.34	22.120
580.67	22.132
581.01	21.939
581.35	21.644
581.68	21.313
582.02	21.580
582.35	21.736
582.69	21.707
583.02	21.959
583.36	22.222
583.70	21.836
584.03	21.766
584.37	22.217
584.70	21.369
585.04	22.041
585.37	21.454
585.71	21.532
586.04	21.708
586.38	21.565
586.72	21.735
587.05	21.745
587.39	21.790
587.72	21.938
588.06	21.301
588.39	21.309
588.73	21.534
589.06	21.783
589.40	22.280
589.73	22.301
590.07	22.281
590.40	22.076
590.73	21.881
591.07	22.748
591.40	22.473
591.74	22.417
592.07	22.777
592.41	22.279
592.74	21.335
593.08	21.720
593.41	22.485
593.75	21.379
594.08	21.902
594.41	21.859
594.75	21.853
595.08	22.140
595.42	22.143
595.75	22.118
596.09	21.721
596.42	21.856
596.75	22.501
597.09	23.030
597.42	22.169
597.75	22.148
598.09	22.421
598.42	22.396
598.76	21.399
599.09	21.146
599.42	20.919
599.76	20.733
600.09	21.355
600.42	21.355
600.76	21.037
601.09	21.208
601.42	21.078
601.76	21.586
602.09	21.086
602.42	21.083
602.76	21.513
603.09	21.256
603.42	21.351
603.76	21.177
604.09	21.753
604.42	21.394
604.76	20.738
605.09	21.340
605.42	21.491
605.75	21.462
606.09	21.202
606.42	20.941
606.75	21.289
607.09	20.392
607.42	21.773
607.75	21.727
608.08	21.350
608.42	21.040
608.75	22.305
609.08	21.859
609.41	21.703
609.75	21.473
610.08	22.164
610.41	20.858
610.74	21.345
611.07	21.137
611.41	22.242
611.74	21.940
612.07	22.020
612.40	22.243
612.73	22.298
613.07	22.494
613.40	21.655
613.73	21.955
614.06	21.982
614.39	20.797
614.72	20.281
615.06	21.752
615.39	21.701
615.72	22.512
616.05	21.758
616.38	22.301
616.71	22.414
617.05	21.459
617.38	21.830
617.71	21.814
618.04	21.479
618.37	21.694
618.70	22.738
619.03	22.820
619.36	22.380
619.69	22.742
620.03	21.846
620.36	22.761
620.69	21.777
621.02	22.375
621.35	23.585
621.68	23.933
622.01	22.420
622.34	22.106
622.67	23.230
623.00	21.120
623.33	22.893
623.66	22.438
623.99	22.120
624.32	24.042
624.65	21.815
624.99	22.302
625.32	22.861
625.65	23.803
625.98	22.576
626.31	22.466
626.64	23.077
626.97	21.905
627.30	22.475
627.63	23.556
627.96	23.198
628.29	24.125
628.62	23.426
628.95	23.839
629.28	23.280
629.61	23.232
629.94	23.096
630.26	23.220
630.59	23.230
630.92	23.896
631.25	24.508
631.58	23.540
631.91	24.180
632.24	25.264
632.57	23.340
632.90	24.473
633.23	25.408
633.56	25.408
633.89	24.174
634.22	24.324
634.55	25.678
634.88	23.918
635.20	26.265
635.53	24.181
635.86	24.160
636.19	24.178
636.52	25.844
636.85	24.413
637.18	23.493
637.51	24.516
637.83	25.249
638.16	26.152
638.49	24.061
638.82	26.156
639.15	23.597
639.48	24.249
639.81	24.365
640.13	24.971
640.46	23.879
640.79	23.652
641.12	24.596
641.45	24.592
641.77	27.728
642.10	23.753
642.43	26.330
642.76	25.745
643.09	26.438
643.41	25.770
643.74	24.000
644.07	24.828
644.40	24.611
644.73	25.399
645.05	24.376
645.38	28.633
645.71	26.686
646.04	28.121
646.36	23.796
646.69	26.534
647.02	26.911
647.35	26.260
647.67	27.053
648.00	27.389
648.33	24.324
648.66	25.678
648.98	24.626
649.31	24.493
649.64	27.092
649.96	24.271
650.29	24.478
650.62	26.733
650.94	23.273
651.27	23.653
651.60	25.292
651.92	25.380
652.25	25.904
652.58	25.309
652.90	22.820
653.23	25.352
653.56	24.964
653.88	24.438
654.21	23.099
654.54	25.578
654.86	25.779
655.19	21.832
655.52	20.750
655.84	17.581
656.17	20.137
656.49	28.385
656.82	30.576
657.15	24.020
657.47	18.175
657.80	13.401
658.13	10.788
658.45	14.613
658.78	17.914
659.10	17.681
659.43	17.534
659.75	17.795
660.08	18.711
660.41	20.430
660.73	21.323
661.06	21.880
661.38	23.604
661.71	23.793
662.03	26.279
662.36	27.728
662.68	25.516
663.01	25.841
663.33	25.898
663.66	27.656
663.98	27.885
664.31	26.079
664.63	24.085
664.96	26.679
665.28	23.230
665.61	26.748
665.93	25.000
666.26	25.448
666.58	26.015
666.91	26.916
667.23	25.143
667.56	26.824
667.88	25.400
668.21	24.023
668.53	24.131
668.86	26.523
669.18	25.458
669.50	26.243
669.83	25.400
670.15	25.787
670.48	27.579
670.80	25.048
671.13	25.142
671.45	26.181
671.77	26.177
672.10	24.833
672.42	23.625
672.75	22.734
673.07	22.687
673.39	21.418
673.72	25.000
674.04	24.828
674.37	24.508
674.69	25.573
675.01	24.952
675.34	27.290
675.66	24.157
675.98	26.119
676.31	25.391
676.63	27.947
676.95	25.287
677.28	23.387
677.60	22.441
677.92	28.215
678.25	26.325
678.57	22.598
678.89	25.427
679.22	23.519
679.54	23.419
679.86	22.203
680.18	23.383
680.51	22.484
680.83	23.241
681.15	24.655
681.48	25.561
681.80	25.216
682.12	24.476
682.44	23.706
682.77	24.645
683.09	25.000
683.41	26.550
683.73	22.011
684.06	23.616
684.38	22.004
684.70	24.417
685.02	26.334
685.34	22.130
685.67	22.240
685.99	22.239
686.31	21.657
686.63	21.327
686.96	20.820
687.28	23.616
687.60	21.380
687.92	20.579
688.24	24.875
688.56	22.414
688.89	22.868
689.21	24.462
689.53	20.588
689.85	21.105
690.17	24.074
690.49	25.100
690.82	21.980
691.14	23.887
691.46	23.136
691.78	25.414
692.10	22.202
692.42	20.893
692.74	22.686
693.06	21.667
693.39	25.237
693.71	23.496
694.03	22.491
694.35	21.524
694.67	23.409
694.99	23.830
695.31	24.945
695.63	23.377
695.95	23.188
696.27	26.374
696.59	25.442
696.91	25.225
697.23	25.714
697.56	21.181
697.88	21.780
698.20	21.092
698.52	23.295
698.84	23.077
699.16	23.878
699.48	21.339
699.80	22.979
700.12	23.799
700.44	24.194
700.76	24.466
701.08	23.002
701.40	24.352
701.72	23.134
702.04	24.332
702.36	22.513
702.68	24.939
703.00	22.494
703.32	20.690
703.64	21.271
703.96	24.344
704.28	23.833
704.60	25.063
704.91	23.469
705.23	24.658
705.55	26.184
705.87	26.970
706.19	26.380
706.51	23.193
706.83	23.343
707.15	19.048
707.47	22.664
707.79	22.707
708.11	17.585
708.43	21.935
708.74	19.866
709.06	19.722
709.38	23.239
709.70	24.318
710.02	22.222
710.34	23.404
710.66	19.553
710.98	23.770
711.29	21.154
711.61	24.294
711.93	21.937
712.25	22.162
712.57	26.549
712.89	25.000
713.20	24.852
713.52	27.457
713.84	25.070
714.16	25.000
714.48	21.392
714.80	23.896
715.11	24.672
715.43	20.159
715.75	22.368
716.07	19.337
716.39	25.137
716.70	25.904
717.02	24.262
717.34	26.132
717.66	23.154
717.97	21.575
718.29	22.680
718.61	23.026
718.93	24.595
719.24	25.466
719.56	25.153
719.88	21.922
720.20	21.613
720.51	24.534
720.83	19.375
721.15	21.053
721.46	15.411
721.78	23.000
722.10	19.417
722.42	20.805
722.73	21.613
723.05	20.351
723.37	24.306
723.68	24.731
724.00	22.744
724.32	25.704
724.63	21.678
724.95	22.695
725.27	21.254
725.58	20.495
725.90	22.759
726.22	21.630
726.53	25.000
726.85	22.642
727.16	20.242
727.48	24.465
727.80	22.848
728.11	18.728
728.43	24.242
728.74	22.074
729.06	20.530
729.38	22.403
729.69	18.792
730.01	16.964
730.32	22.424
730.64	20.440
730.96	18.944
731.27	23.743
731.59	19.231
731.90	19.481
732.22	21.354
732.53	17.403
732.85	20.000
733.16	21.701
733.48	20.122
733.80	19.499
734.11	18.803
734.43	17.027
734.74	21.013
735.06	20.854
735.37	20.000
735.69	21.892
736.00	21.751
736.32	22.642
736.63	22.500
736.95	17.816
737.26	18.788
737.58	20.303
737.89	19.412
738.21	14.373
738.52	22.295
738.83	21.160
739.15	19.504
739.46	21.769
739.78	18.405
740.09	18.052
740.41	26.239
740.72	19.667
741.04	22.654
741.35	24.561
741.66	19.216
741.98	23.770
742.29	23.013
742.61	20.614
742.92	25.000
743.23	23.466
743.55	20.155
743.86	18.800
744.18	16.116
744.49	20.253
744.80	28.807
745.12	20.253
745.43	27.236
745.74	20.690
746.06	23.305
746.37	27.848
746.68	25.203
747.00	24.167
747.31	23.176
747.62	26.538
747.94	18.623
748.25	19.277
748.56	19.592
748.88	19.658
749.19	21.983
749.50	19.048
749.82	20.080
750.13	22.420
750.44	19.333
750.75	20.308
751.07	20.923
751.38	19.558
751.69	19.808
752.01	20.712
752.32	21.895
752.63	22.109
752.94	15.917
753.26	18.587
753.57	15.556
753.88	20.225
754.19	19.936
754.51	18.328
754.82	19.614
755.13	23.607
755.44	23.208
755.75	21.711
756.07	20.299
756.38	17.925
756.69	22.892
757.00	14.127
757.31	18.579
757.63	17.647
757.94	15.962
758.25	20.542
758.56	16.558
758.87	20.909
759.18	18.667
759.50	20.397
759.81	15.966
760.12	17.520
760.43	16.927
760.74	17.488
761.05	18.500
761.36	16.627
761.67	19.289
761.99	20.270
762.30	18.598
762.61	17.492
762.92	18.284
763.23	19.476
763.54	22.302
763.85	19.244
764.16	22.559
764.47	18.310
764.78	18.530
765.10	17.302
765.41	23.590
765.72	14.550
766.03	20.056
766.34	17.868
766.65	19.164
766.96	18.327
767.27	19.816
767.58	22.388
767.89	25.481
768.20	22.535
768.51	22.222
768.82	16.466
769.13	21.591
769.44	15.000
769.75	18.773
770.06	19.231
770.37	19.685
770.68	14.468
770.99	13.360
771.30	22.593
771.61	19.011
771.92	17.407
772.23	20.243
772.54	18.056
772.85	21.659
773.16	20.952
773.47	14.815
773.78	15.676
774.09	24.432
774.39	27.000
774.70	20.765
775.01	17.683
775.32	12.353
775.63	20.859
775.94	19.108
776.25	18.710
776.56	19.231
776.87	26.531
777.18	27.586
777.48	20.979
777.79	25.000
778.10	18.382
778.41	16.667
778.72	24.828
779.03	22.840
779.34	17.576
779.65	17.098
779.95	16.667
780.26	19.318
780.57	18.065
780.88	22.464
781.19	24.516
781.50	25.882
781.80	24.194
782.11	21.693
782.42	10.606
782.73	11.976
783.04	20.112
783.34	15.152
783.65	18.301
783.96	15.528
784.27	20.238
784.57	18.543
784.88	26.429
785.19	15.748
785.50	15.748
785.81	24.060
786.11	17.692
786.42	5.036
786.73	15.108
787.04	24.060
787.34	22.951
787.65	28.800
787.96	20.896
788.26	21.678
788.57	20.979
788.88	23.026
789.19	26.144
789.49	13.014
789.80	25.532
790.11	21.260
790.41	16.406
790.72	20.339
791.03	23.301
791.33	23.478
791.64	14.912
791.95	15.179
792.25	23.810
792.56	22.321
792.87	8.333
793.17	23.214
793.48	15.625
793.79	14.458
794.09	17.431
794.40	7.339
794.70	17.007
795.01	9.091
795.32	19.178
795.62	18.310
795.93	12.879
796.23	19.672
796.54	16.071
796.85	13.830
797.15	10.870
797.46	16.438
797.76	13.750
798.07	18.478
798.37	11.340
798.68	12.987
798.99	17.241
799.29	14.607
799.60	13.830
799.90	21.687
800.21	29.231
800.51	8.955
800.82	5.882
801.12	-4.110
801.43	-7.353
801.73	8.475
802.04	22.727
802.34	8.333
802.65	8.475
802.95	22.388
803.26	11.864
803.56	2.740
803.87	14.286
804.17	24.658
804.48	-10.526
804.78	6.944
805.09	8.621
805.39	18.919
805.70	-11.268
806.00	23.171
806.30	20.482
806.61	15.068
806.91	25.962
807.22	17.778
807.52	8.046
807.83	11.111
808.13	21.687
808.43	12.360
808.74	20.000
809.04	10.294
809.35	16.000
809.65	11.429
809.95	21.918
810.26	5.263
810.56	22.414
810.86	20.588
811.17	14.035
811.47	1.639
811.77	2.222
812.08	8.475
812.38	21.667
812.69	6.897
812.99	11.321
813.29	7.692
813.59	34.000
813.90	29.825
814.20	12.727
814.50	11.268
814.81	12.821
815.11	14.754
815.41	22.388
815.72	6.897
816.02	5.357
816.32	28.889
816.62	13.636
816.93	0.000
817.23	5.556
817.53	21.277
817.84	21.429
818.14	14.706
818.44	28.571
818.74	6.667
819.04	-17.949
819.35	-2.857
819.65	3.846
819.95	28.302
820.25	-2.222
820.56	2.381
820.86	21.875
821.16	0.000
821.46	18.605
821.76	18.000
822.07	28.571
822.37	6.522
822.67	17.021
822.97	-2.703
823.27	0.000
823.57	20.408
823.88	13.333
824.18	20.000
824.48	-6.667
824.78	-28.000
825.08	18.182
825.38	15.556
825.69	17.021
825.99	33.333
826.29	-37.143
826.59	-5.128
826.89	16.279
827.19	-2.000
827.49	11.765
827.79	4.167
828.09	10.811
828.39	20.000
828.70	24.390
829.00	23.256
829.30	-10.714
829.60	14.706
829.90	21.739
830.20	34.286
830.50	-3.448
830.80	-16.667
831.10	3.846
831.40	35.294
831.70	-9.524
832.00	12.903
832.30	-88.235
832.60	8.333
832.90	-76.923
833.20	-31.579
833.50	-20.000
833.80	-31.579
834.10	-66.667
834.40	13.889
834.70	12.500
835.00	-2.857
835.30	0.000
835.60	0.000
835.90	-4.000
836.20	-68.182
836.50	20.000
836.80	0.000
837.10	-18.519
837.40	0.000
837.70	-68.750
838.00	-17.857
838.30	0.000
838.60	34.483
838.90	64.286
839.19	-39.130
839.49	-41.667
839.79	34.783
840.09	-68.750
840.39	5.000
840.69	41.935
840.99	25.000
841.29	-13.333
841.59	-21.053
841.88	48.718
842.18	-7.692
842.48	-50.000
842.78	-5.000
843.08	33.333
843.38	-12.903
843.68	-61.111
843.97	11.765
844.27	0.000
844.57	21.053
844.87	-50.000
845.17	0.000
845.47	42.857
845.76	-19.048
846.06	-66.667
846.36	-47.059
846.66	11.538
846.96	-26.667
847.25	0.000
847.55	39.130
847.85	40.000
848.15	29.412
848.44	-45.455
848.74	-4.762
849.04	-20.833
849.34	-68.750
849.63	34.783
849.93	300.000
850.23	-20.000
850.53	61.538
850.82	-9.091
851.12	59.091
851.42	-54.545
851.71	46.154
852.01	-25.000
852.31	-7.692
852.61	0.000
852.90	-33.333
853.20	16.667
853.50	-100.000
853.79	-38.095
854.09	-27.273
854.39	-41.667
854.68	35.484
854.98	-23.077
855.28	-11.111
855.57	14.286
855.87	12.000
856.17	13.636
856.46	18.519
856.76	0.000
857.05	4.348
857.35	4.167
857.65	15.385
857.94	33.333
858.24	22.222
858.53	4.348
858.83	17.647
859.13	-17.647
859.42	47.059
859.72	28.571
860.01	-40.000
860.31	-11.111
860.60	40.000
860.90	-40.000
861.20	22.222
861.49	0.000
861.79	36.667
862.08	0.000
862.38	34.375
862.67	5.882
862.97	0.000
863.26	-44.444
863.56	0.000
863.85	-9.091
864.15	44.444
864.44	-200.000
864.74	-50.000
865.03	-68.750
865.33	-30.000
865.62	-3.226
865.92	45.455
866.21	13.043
866.51	57.143
866.80	-260.000
867.10	-33.333
867.39	-75.000
867.69	1200.000
867.98	28.571
868.27	23.529
868.57	-1600.000
868.86	-50.000
869.16	47.619
869.45	29.167
869.75	63.636
870.04	-14.286
870.33	8.333
870.63	-242.857
870.92	50.000
871.22	-175.000
871.51	-9.091
871.80	-600.000
872.10	-700.000
>>>>>End Processed Spectral Data<<<<<
