SpectraSuite Data File
++++++++++++++++++++++++++++++++++++
Date: Thu May 14 16:10:05 PDT 2015
User: schluterlab
Dark Spectrum Present: Yes
Reference Spectrum Present: Yes
Number of Sampled Component Spectra: 1
Spectrometers: USB2E3373
Integration Time (usec): 3000 (USB2E3373)
Spectra Averaged: 3 (USB2E3373)
Boxcar Smoothing: 0 (USB2E3373)
Correct for Electrical Dark: No (USB2E3373)
Strobe/Lamp Enabled: No (USB2E3373)
Correct for Detector Non-linearity: No (USB2E3373)
Correct for Stray Light: No (USB2E3373)
Number of Pixels in Processed Spectrum: 2048
>>>>>Begin Processed Spectral Data<<<<<
178.53	0.000
178.91	171.429
179.29	-1800.000
179.67	-1600.000
180.04	214.286
180.42	130.000
180.80	300.000
181.18	-1000.000
181.56	-800.000
181.94	75.000
182.31	-250.000
182.69	500.000
183.07	-400.000
183.45	475.000
183.83	-166.667
184.20	-166.667
184.58	1100.000
184.96	-325.000
185.34	-33.333
185.72	-180.000
186.09	211.111
186.47	800.000
186.85	400.000
187.23	-77.778
187.61	-900.000
187.98	260.000
188.36	225.000
188.74	-300.000
189.12	-366.667
189.49	-68.750
189.87	-212.500
190.25	-77.778
190.63	-80.000
191.00	-177.778
191.38	0.000
191.76	-450.000
192.14	-266.667
192.51	500.000
192.89	33.333
193.27	0.000
193.65	-42.857
194.02	-1200.000
194.40	-185.714
194.78	200.000
195.15	0.000
195.53	-127.273
195.91	0.000
196.29	-25.000
196.66	-46.154
197.04	-1500.000
197.42	-100.000
197.79	-500.000
198.17	-137.500
198.55	-171.429
198.92	-77.778
199.30	-175.000
199.68	-109.091
200.05	-42.857
200.43	-800.000
200.81	300.000
201.18	0.000
201.56	177.778
201.94	0.000
202.31	300.000
202.69	-155.556
203.07	700.000
203.44	-133.333
203.82	-350.000
204.19	-83.333
204.57	-183.333
204.95	-137.500
205.32	-1500.000
205.70	225.000
206.08	-183.333
206.45	33.333
206.83	380.000
207.20	-83.333
207.58	-460.000
207.96	-350.000
208.33	-133.333
208.71	108.333
209.08	-66.667
209.46	0.000
209.84	283.333
210.21	350.000
210.59	400.000
210.96	600.000
211.34	-175.000
211.71	-87.500
212.09	-1200.000
212.46	0.000
212.84	1050.000
213.22	-380.000
213.59	-250.000
213.97	-90.000
214.34	-566.667
214.72	250.000
215.09	-575.000
215.47	0.000
215.84	128.571
216.22	1000.000
216.59	-300.000
216.97	-180.000
217.34	-275.000
217.72	-125.000
218.09	-300.000
218.47	-675.000
218.84	0.000
219.22	80.000
219.59	-41.176
219.97	-10.000
220.34	750.000
220.72	-144.444
221.09	53.846
221.47	-33.333
221.84	-30.000
222.22	-142.857
222.59	0.000
222.97	-237.500
223.34	-360.000
223.72	-1600.000
224.09	-350.000
224.46	-600.000
224.84	-180.000
225.21	-200.000
225.59	-325.000
225.96	-325.000
226.34	-3.846
226.71	316.667
227.08	-750.000
227.46	-66.667
227.83	-400.000
228.21	-57.895
228.58	225.000
228.95	400.000
229.33	8.333
229.70	-60.000
230.08	31.579
230.45	270.000
230.82	-366.667
231.20	-85.714
231.57	8.333
231.95	-90.909
232.32	-36.364
232.69	90.000
233.07	-225.000
233.44	5.882
233.81	-170.000
234.19	-5.556
234.56	-36.364
234.93	20.690
235.31	-5.263
235.68	-38.889
236.05	-40.000
236.43	30.769
236.80	-16.000
237.17	-11.111
237.55	12.121
237.92	-180.000
238.29	-9.677
238.67	-13.636
239.04	13.889
239.41	-4.762
239.79	0.000
240.16	1.852
240.53	8.696
240.91	1.961
241.28	8.197
241.65	26.866
242.02	20.270
242.40	10.769
242.77	9.333
243.14	0.000
243.51	5.263
243.89	16.667
244.26	15.842
244.63	17.647
245.00	21.495
245.38	18.421
245.75	12.389
246.12	20.635
246.49	11.628
246.87	17.143
247.24	23.841
247.61	21.053
247.98	16.107
248.36	19.136
248.73	22.086
249.10	18.579
249.47	22.886
249.84	20.942
250.22	20.207
250.59	16.111
250.96	25.000
251.33	22.959
251.70	21.795
252.08	19.583
252.45	25.000
252.82	19.835
253.19	21.484
253.56	21.293
253.94	18.077
254.31	23.485
254.68	27.273
255.05	29.642
255.42	21.769
255.79	20.388
256.16	21.192
256.54	18.874
256.91	28.525
257.28	20.656
257.65	13.376
258.02	24.779
258.39	25.356
258.76	25.076
259.14	26.149
259.51	24.496
259.88	20.113
260.25	24.167
260.62	26.027
260.99	24.863
261.36	27.614
261.73	21.751
262.10	23.901
262.47	25.737
262.85	25.253
263.22	24.416
263.59	22.368
263.96	24.552
264.33	21.995
264.70	22.963
265.07	24.344
265.44	25.850
265.81	22.685
266.18	25.850
266.55	23.884
266.92	22.323
267.29	25.821
267.66	23.725
268.03	24.891
268.40	24.426
268.77	21.868
269.14	22.247
269.51	26.974
269.88	24.385
270.25	25.956
270.62	24.473
270.99	27.677
271.36	24.752
271.73	23.379
272.10	27.655
272.47	23.046
272.84	27.510
273.21	23.447
273.58	23.589
273.95	22.692
274.32	24.525
274.69	22.437
275.06	23.260
275.43	21.257
275.80	26.984
276.17	24.444
276.54	23.507
276.91	22.719
277.28	22.785
277.65	23.878
278.02	24.081
278.39	25.725
278.76	24.956
279.13	21.986
279.50	22.680
279.87	22.719
280.23	19.894
280.60	23.220
280.97	23.684
281.34	22.920
281.71	25.888
282.08	23.754
282.45	23.732
282.82	22.292
283.19	19.063
283.56	21.311
283.92	23.874
284.29	25.276
284.66	24.631
285.03	23.077
285.40	21.329
285.77	23.529
286.14	24.275
286.51	22.831
286.87	22.591
287.24	23.795
287.61	22.422
287.98	20.997
288.35	23.817
288.72	21.154
289.08	22.255
289.45	22.189
289.82	21.687
290.19	21.839
290.56	20.141
290.93	20.542
291.29	21.350
291.66	20.110
292.03	19.539
292.40	21.497
292.77	21.294
293.13	19.080
293.50	19.054
293.87	19.732
294.24	20.267
294.60	19.216
294.97	20.268
295.34	20.615
295.71	18.411
296.08	18.992
296.44	18.750
296.81	17.905
297.18	19.427
297.55	18.160
297.91	19.336
298.28	16.588
298.65	18.549
299.02	18.418
299.38	18.192
299.75	17.640
300.12	16.782
300.48	17.627
300.85	17.323
301.22	19.016
301.59	17.009
301.95	17.853
302.32	17.556
302.69	17.306
303.05	17.845
303.42	17.295
303.79	17.708
304.15	17.666
304.52	17.019
304.89	17.382
305.25	17.909
305.62	16.301
305.99	17.216
306.35	16.835
306.72	17.890
307.09	15.431
307.45	16.770
307.82	17.558
308.19	17.760
308.55	16.008
308.92	15.969
309.29	17.337
309.65	15.984
310.02	16.337
310.38	14.862
310.75	16.117
311.12	17.258
311.48	15.836
311.85	16.049
312.22	15.370
312.58	16.526
312.95	15.201
313.31	16.531
313.68	16.209
314.05	17.525
314.41	17.031
314.78	15.622
315.14	15.971
315.51	15.512
315.87	16.832
316.24	16.804
316.61	17.229
316.97	15.294
317.34	14.638
317.70	15.022
318.07	16.049
318.43	16.156
318.80	16.722
319.16	16.309
319.53	15.938
319.89	15.688
320.26	16.726
320.62	15.071
320.99	15.882
321.35	16.636
321.72	16.465
322.08	15.059
322.45	17.073
322.81	16.065
323.18	14.248
323.54	15.862
323.91	16.815
324.27	16.007
324.64	17.380
325.00	15.589
325.37	15.643
325.73	16.777
326.10	17.032
326.46	17.345
326.83	17.694
327.19	17.087
327.56	16.443
327.92	15.736
328.29	16.210
328.65	15.494
329.01	16.328
329.38	15.670
329.74	17.637
330.11	16.010
330.47	16.596
330.84	17.485
331.20	16.417
331.56	17.158
331.93	16.485
332.29	17.203
332.66	17.193
333.02	15.494
333.38	15.268
333.75	16.077
334.11	16.514
334.48	16.997
334.84	16.737
335.20	16.205
335.57	17.285
335.93	16.860
336.29	16.805
336.66	16.569
337.02	17.726
337.38	16.582
337.75	15.950
338.11	15.812
338.47	16.873
338.84	16.667
339.20	16.007
339.56	15.815
339.93	16.174
340.29	16.908
340.65	14.842
341.02	15.403
341.38	17.300
341.74	15.577
342.11	16.331
342.47	15.647
342.83	16.425
343.20	15.699
343.56	16.680
343.92	15.933
344.28	16.172
344.65	17.132
345.01	15.601
345.37	16.174
345.73	14.731
346.10	16.459
346.46	15.348
346.82	15.206
347.19	15.966
347.55	16.540
347.91	16.122
348.27	15.326
348.63	16.679
349.00	15.958
349.36	16.134
349.72	15.699
350.08	15.825
350.45	15.437
350.81	15.686
351.17	15.714
351.53	15.542
351.89	15.793
352.26	16.493
352.62	15.373
352.98	14.275
353.34	14.862
353.70	14.638
354.07	14.903
354.43	15.262
354.79	15.707
355.15	14.937
355.51	16.374
355.87	16.305
356.24	15.894
356.60	14.782
356.96	15.938
357.32	15.688
357.68	15.154
358.04	15.045
358.40	15.075
358.77	14.620
359.13	15.362
359.49	14.424
359.85	15.446
360.21	15.352
360.57	14.788
360.93	14.316
361.29	15.579
361.66	14.772
362.02	16.214
362.38	14.758
362.74	14.735
363.10	15.681
363.46	15.305
363.82	14.489
364.18	14.708
364.54	14.869
364.90	15.652
365.26	15.310
365.62	15.733
365.98	14.840
366.35	15.168
366.71	15.170
367.07	15.968
367.43	15.430
367.79	15.063
368.15	15.318
368.51	15.968
368.87	15.937
369.23	15.200
369.59	14.754
369.95	15.619
370.31	15.057
370.67	14.856
371.03	14.751
371.39	14.238
371.75	15.199
372.11	14.973
372.47	14.353
372.83	15.183
373.19	14.810
373.55	14.566
373.91	13.429
374.27	15.201
374.63	15.223
374.99	14.920
375.35	15.455
375.71	15.355
376.07	14.590
376.42	14.861
376.78	14.481
377.14	14.722
377.50	14.231
377.86	15.579
378.22	14.551
378.58	14.744
378.94	13.791
379.30	15.407
379.66	14.874
380.02	14.657
380.38	15.035
380.74	14.310
381.09	14.576
381.45	14.943
381.81	14.344
382.17	14.905
382.53	14.386
382.89	14.898
383.25	15.240
383.61	14.178
383.97	15.312
384.32	14.952
384.68	13.921
385.04	14.459
385.40	14.437
385.76	15.709
386.12	14.363
386.48	14.706
386.83	15.018
387.19	14.137
387.55	14.143
387.91	14.269
388.27	14.550
388.62	14.032
388.98	14.157
389.34	14.437
389.70	13.829
390.06	13.973
390.42	14.518
390.77	14.810
391.13	13.967
391.49	15.580
391.85	13.636
392.20	14.650
392.56	15.475
392.92	14.558
393.28	14.538
393.64	14.078
393.99	14.352
394.35	14.428
394.71	14.850
395.07	14.371
395.42	13.821
395.78	15.356
396.14	15.092
396.50	14.489
396.85	14.132
397.21	14.320
397.57	14.900
397.92	14.662
398.28	14.394
398.64	13.444
399.00	14.764
399.35	14.346
399.71	14.293
400.07	14.935
400.42	14.901
400.78	13.947
401.14	13.773
401.49	14.667
401.85	14.477
402.21	14.890
402.57	14.437
402.92	14.421
403.28	14.227
403.63	14.200
403.99	13.895
404.35	14.213
404.70	13.768
405.06	14.457
405.42	14.169
405.77	15.213
406.13	14.641
406.49	14.865
406.84	14.183
407.20	14.421
407.55	15.082
407.91	14.833
408.27	13.722
408.62	15.009
408.98	14.626
409.34	13.372
409.69	15.451
410.05	14.713
410.40	14.443
410.76	14.694
411.11	14.319
411.47	15.049
411.83	14.403
412.18	14.940
412.54	14.701
412.89	14.668
413.25	15.406
413.60	14.877
413.96	14.627
414.31	14.504
414.67	15.146
415.03	14.954
415.38	15.322
415.74	14.844
416.09	14.189
416.45	15.216
416.80	14.565
417.16	14.304
417.51	15.380
417.87	15.451
418.22	15.389
418.58	14.622
418.93	15.192
419.29	14.550
419.64	15.066
420.00	15.668
420.35	15.104
420.71	13.957
421.06	14.319
421.42	14.622
421.77	14.109
422.12	14.429
422.48	14.183
422.83	14.348
423.19	14.589
423.54	14.491
423.90	13.915
424.25	14.987
424.61	14.466
424.96	14.827
425.31	14.650
425.67	14.707
426.02	15.495
426.38	14.007
426.73	14.342
427.09	15.917
427.44	14.364
427.79	14.760
428.15	14.669
428.50	14.831
428.85	14.524
429.21	14.947
429.56	14.265
429.92	14.496
430.27	15.084
430.62	14.607
430.98	15.593
431.33	14.809
431.68	13.697
432.04	14.779
432.39	15.533
432.74	14.498
433.10	15.251
433.45	13.768
433.80	15.343
434.16	14.824
434.51	15.416
434.86	14.495
435.22	14.931
435.57	15.684
435.92	14.969
436.28	15.017
436.63	14.582
436.98	14.224
437.34	15.502
437.69	14.640
438.04	14.648
438.39	14.934
438.75	14.942
439.10	16.173
439.45	15.539
439.81	14.802
440.16	14.692
440.51	14.883
440.86	14.675
441.22	14.898
441.57	15.776
441.92	15.713
442.27	15.909
442.63	15.450
442.98	15.848
443.33	15.150
443.68	16.056
444.03	15.522
444.39	15.626
444.74	15.722
445.09	15.053
445.44	14.805
445.79	15.996
446.15	16.033
446.50	15.401
446.85	15.759
447.20	15.377
447.55	15.795
447.91	14.660
448.26	15.433
448.61	15.143
448.96	15.826
449.31	15.589
449.66	14.978
450.02	15.928
450.37	15.557
450.72	14.747
451.07	16.230
451.42	14.847
451.77	15.342
452.12	15.688
452.47	15.389
452.83	15.653
453.18	15.995
453.53	15.508
453.88	15.461
454.23	15.706
454.58	15.902
454.93	15.352
455.28	16.376
455.63	15.748
455.98	16.592
456.34	15.901
456.69	15.520
457.04	15.426
457.39	16.630
457.74	16.107
458.09	15.486
458.44	16.379
458.79	16.245
459.14	15.627
459.49	16.412
459.84	16.317
460.19	15.158
460.54	16.014
460.89	16.517
461.24	15.977
461.59	16.657
461.94	15.174
462.29	16.461
462.64	16.174
462.99	15.631
463.34	15.769
463.69	15.885
464.04	16.287
464.39	16.143
464.74	16.135
465.09	15.917
465.44	16.094
465.79	16.341
466.14	16.050
466.49	16.263
466.84	16.639
467.19	17.052
467.54	16.216
467.89	15.517
468.24	17.008
468.59	15.924
468.94	16.317
469.29	15.537
469.64	15.512
469.99	16.444
470.34	15.965
470.68	17.225
471.03	16.961
471.38	16.678
471.73	17.425
472.08	17.005
472.43	16.616
472.78	17.569
473.13	15.487
473.48	17.402
473.83	16.831
474.17	16.530
474.52	16.657
474.87	16.667
475.22	17.803
475.57	16.355
475.92	16.775
476.27	17.306
476.61	16.044
476.96	16.215
477.31	17.871
477.66	17.366
478.01	16.523
478.36	16.999
478.70	16.355
479.05	17.025
479.40	16.930
479.75	16.955
480.10	16.959
480.45	16.819
480.79	16.327
481.14	16.360
481.49	16.493
481.84	17.406
482.19	17.419
482.53	17.053
482.88	17.767
483.23	17.608
483.58	16.725
483.92	16.711
484.27	16.892
484.62	17.120
484.97	16.757
485.31	16.227
485.66	15.933
486.01	15.623
486.36	15.674
486.70	15.928
487.05	16.105
487.40	15.951
487.75	16.539
488.09	16.314
488.44	16.122
488.79	16.695
489.13	16.980
489.48	16.583
489.83	16.177
490.17	16.768
490.52	17.652
490.87	17.174
491.22	17.114
491.56	17.193
491.91	17.837
492.26	17.135
492.60	17.403
492.95	17.025
493.30	17.571
493.64	17.696
493.99	17.719
494.34	17.465
494.68	17.045
495.03	17.357
495.37	18.065
495.72	17.506
496.07	17.923
496.41	17.160
496.76	17.598
497.11	17.665
497.45	17.695
497.80	17.903
498.14	18.413
498.49	17.601
498.84	17.687
499.18	17.274
499.53	18.072
499.87	17.626
500.22	17.587
500.56	17.904
500.91	18.261
501.26	18.273
501.60	17.145
501.95	18.281
502.29	18.166
502.64	18.102
502.98	17.731
503.33	17.408
503.67	17.662
504.02	18.082
504.36	18.007
504.71	18.328
505.06	18.372
505.40	17.916
505.75	18.852
506.09	18.462
506.44	18.709
506.78	18.578
507.13	18.165
507.47	19.090
507.82	18.419
508.16	18.929
508.51	17.815
508.85	18.186
509.19	19.233
509.54	19.020
509.88	18.261
510.23	18.747
510.57	18.946
510.92	18.723
511.26	18.134
511.61	17.769
511.95	18.594
512.30	18.365
512.64	18.491
512.98	18.609
513.33	19.052
513.67	18.307
514.02	18.651
514.36	19.437
514.70	18.490
515.05	18.874
515.39	18.950
515.74	19.671
516.08	18.648
516.42	19.152
516.77	19.348
517.11	18.618
517.46	20.255
517.80	19.508
518.14	19.532
518.49	19.469
518.83	19.319
519.17	18.955
519.52	19.444
519.86	19.588
520.20	19.595
520.55	19.934
520.89	19.426
521.23	20.268
521.58	20.056
521.92	19.717
522.26	19.359
522.61	19.502
522.95	21.050
523.29	19.655
523.64	20.235
523.98	20.821
524.32	20.974
524.66	19.693
525.01	19.083
525.35	20.103
525.69	20.070
526.04	19.862
526.38	20.747
526.72	19.666
527.06	20.352
527.41	20.175
527.75	20.606
528.09	20.720
528.43	19.893
528.78	20.231
529.12	19.954
529.46	19.730
529.80	19.565
530.15	20.058
530.49	20.285
530.83	20.425
531.17	20.131
531.51	20.337
531.86	20.733
532.20	20.366
532.54	20.227
532.88	20.727
533.22	19.859
533.57	20.254
533.91	20.202
534.25	19.898
534.59	20.000
534.93	19.694
535.27	19.211
535.62	20.637
535.96	20.337
536.30	20.212
536.64	20.721
536.98	21.648
537.32	20.556
537.66	21.210
538.01	19.698
538.35	19.549
538.69	20.673
539.03	19.559
539.37	20.318
539.71	21.562
540.05	20.863
540.39	20.416
540.73	19.065
541.07	20.785
541.42	19.728
541.76	19.039
542.10	20.024
542.44	20.585
542.78	20.864
543.12	20.918
543.46	20.147
543.80	20.144
544.14	20.287
544.48	20.154
544.82	20.826
545.16	19.857
545.50	20.312
545.84	19.963
546.18	21.358
546.52	19.682
546.86	20.377
547.20	20.674
547.54	19.975
547.88	20.916
548.22	20.468
548.56	20.421
548.90	20.119
549.24	20.182
549.58	20.505
549.92	21.173
550.26	21.294
550.60	20.740
550.94	20.375
551.28	20.264
551.62	21.294
551.96	20.194
552.30	21.287
552.64	21.282
552.98	20.462
553.32	21.093
553.66	21.029
554.00	20.681
554.34	20.463
554.68	21.627
555.02	20.959
555.36	21.499
555.69	20.564
556.03	20.050
556.37	21.151
556.71	20.672
557.05	19.936
557.39	20.836
557.73	21.004
558.07	20.662
558.41	21.728
558.75	21.231
559.08	20.738
559.42	20.027
559.76	21.913
560.10	21.567
560.44	21.702
560.78	21.188
561.12	20.628
561.45	21.959
561.79	21.123
562.13	20.518
562.47	20.469
562.81	21.203
563.15	20.581
563.48	20.758
563.82	20.435
564.16	19.927
564.50	20.560
564.84	21.062
565.17	20.412
565.51	19.908
565.85	20.843
566.19	20.795
566.52	20.714
566.86	20.770
567.20	20.065
567.54	20.234
567.88	20.082
568.21	19.664
568.55	19.904
568.89	19.246
569.23	19.814
569.56	19.148
569.90	18.746
570.24	18.449
570.57	18.185
570.91	18.065
571.25	17.674
571.59	18.007
571.92	17.617
572.26	17.284
572.60	17.718
572.93	17.478
573.27	17.983
573.61	17.972
573.95	17.650
574.28	17.449
574.62	17.485
574.96	17.137
575.29	17.030
575.63	17.163
575.97	17.317
576.30	17.345
576.64	17.347
576.98	17.335
577.31	17.433
577.65	17.334
577.98	16.717
578.32	16.768
578.66	17.000
578.99	16.895
579.33	16.830
579.67	17.384
580.00	16.948
580.34	16.972
580.67	16.946
581.01	16.876
581.35	16.832
581.68	17.001
582.02	16.726
582.35	17.034
582.69	17.037
583.02	16.782
583.36	16.841
583.70	16.837
584.03	16.943
584.37	16.983
584.70	16.870
585.04	16.950
585.37	16.814
585.71	16.872
586.04	17.019
586.38	17.131
586.72	16.871
587.05	16.833
587.39	17.028
587.72	17.368
588.06	17.481
588.39	17.177
588.73	17.381
589.06	17.269
589.40	17.271
589.73	17.834
590.07	18.203
590.40	18.458
590.73	18.098
591.07	18.541
591.40	18.118
591.74	18.323
592.07	18.961
592.41	18.218
592.74	18.317
593.08	17.357
593.41	17.644
593.75	17.471
594.08	17.964
594.41	17.724
594.75	17.801
595.08	17.665
595.42	17.045
595.75	18.243
596.09	18.468
596.42	17.736
596.75	19.143
597.09	19.071
597.42	18.196
597.75	18.463
598.09	18.294
598.42	18.094
598.76	17.616
599.09	18.227
599.42	17.901
599.76	17.035
600.09	18.385
600.42	17.951
600.76	17.900
601.09	17.624
601.42	18.057
601.76	18.000
602.09	17.405
602.42	18.103
602.76	18.413
603.09	17.731
603.42	17.522
603.76	17.618
604.09	18.630
604.42	18.275
604.76	18.113
605.09	18.229
605.42	18.780
605.75	17.769
606.09	17.059
606.42	18.023
606.75	18.291
607.09	17.358
607.42	18.651
607.75	18.288
608.08	18.350
608.42	17.936
608.75	19.030
609.08	18.336
609.41	19.012
609.75	18.438
610.08	18.382
610.41	17.884
610.74	18.235
611.07	18.472
611.41	18.744
611.74	19.446
612.07	19.308
612.40	18.441
612.73	19.756
613.07	19.315
613.40	19.394
613.73	18.970
614.06	18.989
614.39	19.728
614.72	18.632
615.06	18.864
615.39	18.946
615.72	18.246
616.05	19.330
616.38	19.122
616.71	20.063
617.05	18.584
617.38	19.797
617.71	19.600
618.04	19.644
618.37	19.508
618.70	20.984
619.03	19.833
619.36	19.852
619.69	20.564
620.03	21.155
620.36	20.123
620.69	20.543
621.02	21.129
621.35	21.480
621.68	22.270
622.01	21.566
622.34	20.642
622.67	19.794
623.00	19.906
623.33	20.902
623.66	20.882
623.99	19.618
624.32	21.248
624.65	20.849
624.99	20.156
625.32	21.293
625.65	20.499
625.98	19.864
626.31	22.254
626.64	20.659
626.97	21.080
627.30	20.425
627.63	21.155
627.96	22.748
628.29	22.257
628.62	21.327
628.95	22.261
629.28	21.835
629.61	22.138
629.94	21.088
630.26	21.102
630.59	22.539
630.92	21.299
631.25	23.345
631.58	22.976
631.91	22.774
632.24	24.015
632.57	22.770
632.90	23.671
633.23	23.571
633.56	22.959
633.89	22.727
634.22	24.844
634.55	23.904
634.88	23.918
635.20	24.973
635.53	24.181
635.86	23.402
636.19	25.239
636.52	24.367
636.85	23.289
637.18	24.220
637.51	24.086
637.83	24.917
638.16	25.230
638.49	23.005
638.82	24.464
639.15	22.566
639.48	25.404
639.81	22.286
640.13	24.264
640.46	23.394
640.79	23.529
641.12	24.969
641.45	24.718
641.77	26.187
642.10	26.115
642.43	25.000
642.76	25.610
643.09	25.753
643.41	25.910
643.74	25.655
644.07	25.655
644.40	24.894
644.73	24.528
645.05	24.229
645.38	24.317
645.71	25.806
646.04	26.255
646.36	25.693
646.69	26.074
647.02	26.453
647.35	25.496
647.67	27.536
648.00	23.885
648.33	25.976
648.66	23.538
648.98	24.354
649.31	25.575
649.64	27.490
649.96	22.944
650.29	23.366
650.62	24.894
650.94	25.676
651.27	22.305
651.60	23.684
651.92	23.860
652.25	23.734
652.58	23.246
652.90	24.273
653.23	24.085
653.56	24.394
653.88	25.702
654.21	25.493
654.54	23.555
654.86	23.371
655.19	21.581
655.52	19.713
655.84	16.842
656.17	19.298
656.49	26.611
656.82	28.727
657.15	21.966
657.47	16.368
657.80	12.231
658.13	9.592
658.45	12.296
658.78	15.335
659.10	14.778
659.43	15.350
659.75	14.957
660.08	16.190
660.41	18.693
660.73	19.612
661.06	20.705
661.38	24.880
661.71	26.379
662.03	26.455
662.36	27.370
662.68	25.141
663.01	28.319
663.33	25.520
663.66	27.656
663.98	25.962
664.31	28.893
664.63	24.855
664.96	28.131
665.28	26.316
665.61	26.399
665.93	24.821
666.26	25.269
666.58	23.432
666.91	26.916
667.23	26.667
667.56	29.191
667.88	27.400
668.21	24.219
668.53	22.973
668.86	25.737
669.18	26.069
669.50	26.640
669.83	24.600
670.15	24.213
670.48	25.992
670.80	25.048
671.13	26.087
671.45	27.165
671.77	25.047
672.10	24.333
672.42	23.139
672.75	23.656
673.07	23.284
673.39	23.267
673.72	23.490
674.04	26.552
674.37	23.614
674.69	26.984
675.01	25.333
675.34	24.237
675.66	23.970
675.98	26.493
676.31	25.000
676.63	26.046
676.95	26.054
677.28	27.218
677.60	21.260
677.92	24.760
678.25	23.949
678.57	23.665
678.89	25.256
679.22	22.300
679.54	22.564
679.86	23.390
680.18	23.549
680.51	23.113
680.83	22.586
681.15	22.586
681.48	25.043
681.80	25.907
682.12	26.049
682.44	24.040
682.77	25.177
683.09	22.538
683.41	27.326
683.73	24.478
684.06	24.539
684.38	22.898
684.70	23.339
685.02	23.752
685.34	22.296
685.67	21.767
685.99	23.006
686.31	20.785
686.63	23.539
686.96	20.662
687.28	22.476
687.60	22.896
687.92	24.277
688.24	21.870
688.56	22.414
688.89	22.323
689.21	24.853
689.53	21.765
689.85	23.669
690.17	23.889
690.49	22.709
690.82	24.158
691.14	21.255
691.46	24.857
691.78	25.046
692.10	24.037
692.42	21.786
692.74	23.412
693.06	20.000
693.39	24.478
693.71	21.429
694.03	23.606
694.35	22.667
694.67	24.641
694.99	25.106
695.31	24.503
695.63	24.675
695.95	21.739
696.27	25.714
696.59	26.327
696.91	21.622
697.23	22.637
697.56	21.589
697.88	22.348
698.20	21.657
698.52	27.083
698.84	24.740
699.16	25.306
699.48	23.013
699.80	22.553
700.12	24.454
700.44	25.346
700.76	24.228
701.08	26.634
701.40	26.425
701.72	22.139
702.04	24.599
702.36	25.654
702.68	23.472
703.00	24.939
703.32	21.182
703.64	24.450
703.96	25.298
704.28	23.833
704.60	26.835
704.91	24.235
705.23	26.849
705.55	24.513
705.87	22.121
706.19	29.448
706.51	24.398
706.83	26.225
707.15	24.074
707.47	23.131
707.79	23.144
708.11	17.373
708.43	21.290
708.74	19.866
709.06	22.970
709.38	24.413
709.70	24.318
710.02	26.098
710.34	22.606
710.66	25.140
710.98	21.311
711.29	23.077
711.61	25.424
711.93	25.071
712.25	23.514
712.57	25.369
712.89	26.176
713.20	26.331
713.52	26.301
713.84	21.727
714.16	25.263
714.48	22.423
714.80	22.338
715.11	20.997
715.43	19.894
715.75	26.579
716.07	22.652
716.39	25.956
716.70	24.096
717.02	21.639
717.34	23.345
717.66	25.168
717.97	17.123
718.29	23.711
718.61	22.697
718.93	23.948
719.24	21.739
719.56	23.620
719.88	26.727
720.20	24.194
720.51	22.671
720.83	21.562
721.15	24.013
721.46	20.205
721.78	22.000
722.10	21.036
722.42	20.805
722.73	19.355
723.05	24.211
723.37	26.042
723.68	28.315
724.00	28.159
724.32	21.831
724.63	18.881
724.95	21.986
725.27	20.906
725.58	22.261
725.90	25.172
726.22	22.884
726.53	23.052
726.85	22.327
727.16	23.867
727.48	22.630
727.80	24.172
728.11	22.615
728.43	19.529
728.74	20.401
729.06	21.523
729.38	22.078
729.69	24.832
730.01	20.833
730.32	20.303
730.64	21.069
730.96	18.634
731.27	20.950
731.59	21.978
731.90	19.740
732.22	20.312
732.53	18.785
732.85	20.857
733.16	21.701
733.48	23.780
733.80	22.841
734.11	21.083
734.43	23.243
734.74	22.785
735.06	20.603
735.37	21.622
735.69	19.730
736.00	22.316
736.32	19.677
736.63	20.833
736.95	19.828
737.26	20.606
737.58	18.182
737.89	19.412
738.21	16.820
738.52	20.000
738.83	25.256
739.15	21.277
739.46	24.490
739.78	23.926
740.09	23.782
740.41	23.032
740.72	21.667
741.04	19.094
741.35	22.105
741.66	22.353
741.98	22.131
742.29	22.594
742.61	21.491
742.92	18.077
743.23	21.300
743.55	21.705
743.86	20.800
744.18	21.488
744.49	21.941
744.80	22.222
745.12	21.941
745.43	23.171
745.74	24.138
746.06	27.119
746.37	21.519
746.68	26.423
747.00	22.083
747.31	23.176
747.62	25.385
747.94	23.887
748.25	27.309
748.56	19.184
748.88	26.923
749.19	23.707
749.50	20.346
749.82	28.112
750.13	25.623
750.44	20.333
750.75	20.615
751.07	22.769
751.38	21.136
751.69	22.364
752.01	20.065
752.32	18.954
752.63	22.109
752.94	22.491
753.26	20.074
753.57	18.519
753.88	20.974
754.19	23.473
754.51	23.794
754.82	22.186
755.13	25.902
755.44	22.526
755.75	25.658
756.07	22.985
756.38	21.069
756.69	21.386
757.00	21.053
757.31	19.672
757.63	15.857
757.94	20.657
758.25	19.639
758.56	16.993
758.87	20.227
759.18	20.267
759.50	20.680
759.81	22.129
760.12	21.294
760.43	15.104
760.74	19.704
761.05	15.750
761.36	17.831
761.67	19.797
761.99	19.730
762.30	21.037
762.61	17.492
762.92	22.015
763.23	21.723
763.54	19.424
763.85	17.526
764.16	21.212
764.47	19.718
764.78	20.447
765.10	17.595
765.41	22.051
765.72	15.079
766.03	17.797
766.34	16.301
766.65	16.028
766.96	20.319
767.27	20.737
767.58	19.900
767.89	30.769
768.20	21.127
768.51	17.593
768.82	24.096
769.13	21.591
769.44	18.846
769.75	20.217
770.06	21.154
770.37	26.378
770.68	17.872
770.99	14.575
771.30	22.593
771.61	22.053
771.92	15.556
772.23	21.457
772.54	15.278
772.85	22.120
773.16	23.333
773.47	14.815
773.78	17.838
774.09	23.295
774.39	22.000
774.70	20.219
775.01	17.073
775.32	21.176
775.63	19.018
775.94	19.108
776.25	20.000
776.56	20.513
776.87	23.129
777.18	17.241
777.48	16.783
777.79	19.595
778.10	14.706
778.41	27.778
778.72	28.966
779.03	24.074
779.34	21.212
779.65	19.689
779.95	21.111
780.26	18.182
780.57	13.548
780.88	27.536
781.19	25.161
781.50	24.706
781.80	24.194
782.11	22.222
782.42	15.657
782.73	17.365
783.04	16.760
783.34	15.758
783.65	13.725
783.96	16.149
784.27	15.476
784.57	19.205
784.88	22.143
785.19	21.260
785.50	22.835
785.81	27.068
786.11	16.923
786.42	13.669
786.73	15.108
787.04	24.060
787.34	14.754
787.65	22.400
787.96	14.179
788.26	21.678
788.57	23.776
788.88	17.763
789.19	15.686
789.49	16.438
789.80	19.149
790.11	28.346
790.41	17.969
790.72	11.864
791.03	5.825
791.33	13.043
791.64	21.053
791.95	13.393
792.25	12.381
792.56	15.179
792.87	16.667
793.17	17.857
793.48	14.583
793.79	0.000
794.09	19.266
794.40	12.844
794.70	19.048
795.01	11.039
795.32	15.753
795.62	21.127
795.93	21.212
796.23	13.934
796.54	4.464
796.85	18.085
797.15	22.826
797.46	6.849
797.76	0.000
798.07	9.783
798.37	13.402
798.68	11.688
798.99	14.943
799.29	19.101
799.60	22.340
799.90	24.096
800.21	9.231
800.51	14.925
800.82	4.412
801.12	6.849
801.43	5.882
801.73	10.169
802.04	19.697
802.34	10.000
802.65	25.424
802.95	20.896
803.26	-5.085
803.56	4.110
803.87	21.429
804.17	24.658
804.48	0.000
804.78	11.111
805.09	-12.069
805.39	17.568
805.70	9.859
806.00	23.171
806.30	15.663
806.61	4.110
806.91	18.269
807.22	10.000
807.52	3.448
807.83	25.000
808.13	13.253
808.43	10.112
808.74	10.000
809.04	-1.471
809.35	5.333
809.65	24.286
809.95	23.288
810.26	14.035
810.56	3.448
810.86	22.059
811.17	8.772
811.47	0.000
811.77	-8.889
812.08	10.169
812.38	8.333
812.69	12.069
812.99	-1.887
813.29	-23.077
813.59	16.000
813.90	21.053
814.20	12.727
814.50	25.352
814.81	19.231
815.11	22.951
815.41	14.925
815.72	13.793
816.02	23.214
816.32	13.333
816.62	27.273
816.93	4.444
817.23	25.926
817.53	2.128
817.84	9.524
818.14	-23.529
818.44	18.367
818.74	13.333
819.04	-2.564
819.35	-28.571
819.65	-30.769
819.95	16.981
820.25	33.333
820.56	11.905
820.86	28.125
821.16	-12.821
821.46	-9.302
821.76	-2.000
822.07	26.786
822.37	17.391
822.67	-4.255
822.97	-10.811
823.27	-7.500
823.57	24.490
823.88	15.556
824.18	-7.500
824.48	0.000
824.78	-36.000
825.08	33.333
825.38	26.667
825.69	8.511
825.99	-11.111
826.29	-17.143
826.59	-7.692
826.89	-20.930
827.19	-10.000
827.49	23.529
827.79	2.083
828.09	-21.622
828.39	0.000
828.70	4.878
829.00	-6.977
829.30	-14.286
829.60	35.294
829.90	2.174
830.20	-28.571
830.50	-27.586
830.80	-77.778
831.10	-7.692
831.40	-20.588
831.70	-19.048
832.00	25.806
832.30	-76.471
832.60	-20.833
832.90	-46.154
833.20	5.263
833.50	-10.000
833.80	-36.842
834.10	-47.619
834.40	0.000
834.70	28.125
835.00	-34.286
835.30	-11.765
835.60	-3.333
835.90	-20.000
836.20	-45.455
836.50	8.000
836.80	-33.333
837.10	-37.037
837.40	-18.519
837.70	-112.500
838.00	35.714
838.30	-39.130
838.60	24.138
838.90	-35.714
839.19	-56.522
839.49	-125.000
839.79	0.000
840.09	-56.250
840.39	-5.000
840.69	12.903
840.99	-7.143
841.29	-40.000
841.59	-68.421
841.88	12.821
842.18	-15.385
842.48	-100.000
842.78	-15.000
843.08	-3.333
843.38	3.226
843.68	-27.778
843.97	-17.647
844.27	-25.000
844.57	-52.632
844.87	-60.000
845.17	-26.667
845.47	33.333
845.76	-47.619
846.06	-144.444
846.36	-70.588
846.66	0.000
846.96	-86.667
847.25	-58.824
847.55	17.391
847.85	-40.000
848.15	-23.529
848.44	-109.091
848.74	-4.762
849.04	-50.000
849.34	-56.250
849.63	8.696
849.93	650.000
850.23	-46.667
850.53	26.923
850.82	-109.091
851.12	31.818
851.42	-63.636
851.71	-15.385
852.01	-35.000
852.31	-7.692
852.61	-57.895
852.90	-41.667
853.20	-66.667
853.50	-266.667
853.79	-47.619
854.09	-54.545
854.39	-166.667
854.68	12.903
854.98	-3.846
855.28	0.000
855.57	-46.429
855.87	24.000
856.17	-36.364
856.46	-7.407
856.76	0.000
857.05	-65.217
857.35	-41.667
857.65	-100.000
857.94	-19.048
858.24	-37.037
858.53	4.348
858.83	-11.765
859.13	-23.529
859.42	-5.882
859.72	0.000
860.01	-15.000
860.31	-55.556
860.60	-70.000
860.90	33.333
861.20	-5.556
861.49	-23.077
861.79	-23.333
862.08	-100.000
862.38	-15.625
862.67	5.882
862.97	-31.250
863.26	-77.778
863.56	-130.000
863.85	-63.636
864.15	0.000
864.44	-300.000
864.74	-64.286
865.03	18.750
865.33	-130.000
865.62	-16.129
865.92	13.636
866.21	17.391
866.51	-28.571
866.80	-280.000
867.10	-33.333
867.39	-58.333
867.69	1700.000
867.98	-71.429
868.27	-23.529
868.57	-1400.000
868.86	-140.000
869.16	14.286
869.45	4.167
869.75	-18.182
870.04	-100.000
870.33	-100.000
870.63	-271.429
870.92	-150.000
871.22	-275.000
871.51	-172.727
871.80	-600.000
872.10	-300.000
>>>>>End Processed Spectral Data<<<<<
