SpectraSuite Data File
++++++++++++++++++++++++++++++++++++
Date: Thu May 14 16:10:19 PDT 2015
User: schluterlab
Dark Spectrum Present: Yes
Reference Spectrum Present: Yes
Number of Sampled Component Spectra: 1
Spectrometers: USB2E3373
Integration Time (usec): 3000 (USB2E3373)
Spectra Averaged: 3 (USB2E3373)
Boxcar Smoothing: 0 (USB2E3373)
Correct for Electrical Dark: No (USB2E3373)
Strobe/Lamp Enabled: No (USB2E3373)
Correct for Detector Non-linearity: No (USB2E3373)
Correct for Stray Light: No (USB2E3373)
Number of Pixels in Processed Spectrum: 2048
>>>>>Begin Processed Spectral Data<<<<<
178.53	0.000
178.91	228.571
179.29	-1900.000
179.67	-1000.000
180.04	150.000
180.42	90.000
180.80	500.000
181.18	-500.000
181.56	-500.000
181.94	250.000
182.31	-250.000
182.69	633.333
183.07	-200.000
183.45	250.000
183.83	-50.000
184.20	-33.333
184.58	900.000
184.96	-450.000
185.34	-100.000
185.72	-60.000
186.09	266.667
186.47	800.000
186.85	600.000
187.23	-244.444
187.61	-1900.000
187.98	240.000
188.36	425.000
188.74	-325.000
189.12	-466.667
189.49	-18.750
189.87	-50.000
190.25	-66.667
190.63	-120.000
191.00	-100.000
191.38	0.000
191.76	-375.000
192.14	-150.000
192.51	-50.000
192.89	-33.333
193.27	0.000
193.65	-142.857
194.02	-1700.000
194.40	-100.000
194.78	157.143
195.15	0.000
195.53	18.182
195.91	0.000
196.29	-225.000
196.66	-30.769
197.04	-1600.000
197.42	-228.571
197.79	-550.000
198.17	-150.000
198.55	-171.429
198.92	-33.333
199.30	-25.000
199.68	-81.818
200.05	-100.000
200.43	-550.000
200.81	157.143
201.18	0.000
201.56	222.222
201.94	0.000
202.31	633.333
202.69	-188.889
203.07	200.000
203.44	-33.333
203.82	-150.000
204.19	-16.667
204.57	-183.333
204.95	-225.000
205.32	-1600.000
205.70	150.000
206.08	-200.000
206.45	-250.000
206.83	440.000
207.20	-66.667
207.58	-260.000
207.96	-233.333
208.33	66.667
208.71	116.667
209.08	100.000
209.46	0.000
209.84	383.333
210.21	600.000
210.59	500.000
210.96	466.667
211.34	-275.000
211.71	-125.000
212.09	-500.000
212.46	0.000
212.84	1050.000
213.22	-140.000
213.59	-300.000
213.97	-100.000
214.34	-233.333
214.72	266.667
215.09	-125.000
215.47	0.000
215.84	-0.000
216.22	700.000
216.59	-120.000
216.97	-180.000
217.34	-75.000
217.72	0.000
218.09	-250.000
218.47	-350.000
218.84	0.000
219.22	300.000
219.59	17.647
219.97	0.000
220.34	750.000
220.72	-88.889
221.09	-46.154
221.47	-266.667
221.84	-180.000
222.22	-228.571
222.59	0.000
222.97	-137.500
223.34	-340.000
223.72	-1100.000
224.09	-75.000
224.46	-350.000
224.84	-160.000
225.21	-185.714
225.59	-200.000
225.96	-525.000
226.34	-11.538
226.71	300.000
227.08	-400.000
227.46	-33.333
227.83	-175.000
228.21	-42.105
228.58	187.500
228.95	1350.000
229.33	-41.667
229.70	10.000
230.08	57.895
230.45	100.000
230.82	-300.000
231.20	0.000
231.57	66.667
231.95	-18.182
232.32	27.273
232.69	0.000
233.07	-200.000
233.44	-47.059
233.81	-110.000
234.19	-11.111
234.56	27.273
234.93	-17.241
235.31	-21.053
235.68	-55.556
236.05	-65.000
236.43	42.308
236.80	44.000
237.17	-11.111
237.55	-3.030
237.92	-10.000
238.29	25.806
238.67	0.000
239.04	22.222
239.41	21.429
239.79	28.261
240.16	29.630
240.53	19.565
240.91	3.922
241.28	21.311
241.65	35.821
242.02	48.649
242.40	27.692
242.77	32.000
243.14	13.415
243.51	28.947
243.89	24.359
244.26	42.574
244.63	39.216
245.00	37.383
245.38	35.088
245.75	24.779
246.12	34.127
246.49	34.884
246.87	38.571
247.24	42.384
247.61	43.421
247.98	34.228
248.36	35.802
248.73	40.491
249.10	33.880
249.47	40.299
249.84	44.503
250.22	33.679
250.59	44.444
250.96	42.727
251.33	39.796
251.70	40.598
252.08	45.417
252.45	42.623
252.82	40.496
253.19	37.500
253.56	41.825
253.94	38.077
254.31	43.182
254.68	45.105
255.05	44.300
255.42	41.837
255.79	40.129
256.16	40.397
256.54	41.060
256.91	40.000
257.28	41.311
257.65	39.809
258.02	39.823
258.39	41.595
258.76	43.731
259.14	47.701
259.51	44.092
259.88	40.227
260.25	40.556
260.62	45.205
260.99	40.710
261.36	43.432
261.73	41.910
262.10	43.407
262.47	44.504
262.85	44.697
263.22	41.299
263.59	40.263
263.96	41.432
264.33	44.501
264.70	42.963
265.07	44.869
265.44	45.805
265.81	43.519
266.18	41.497
266.55	39.955
266.92	41.686
267.29	43.545
267.66	45.898
268.03	41.703
268.40	43.633
268.77	42.825
269.14	42.952
269.51	42.325
269.88	41.803
270.25	42.254
270.62	44.093
270.99	43.838
271.36	42.574
271.73	41.650
272.10	44.689
272.47	43.086
272.84	41.365
273.21	40.882
273.58	41.532
273.95	41.346
274.32	40.114
274.69	39.458
275.06	41.392
275.43	39.741
275.80	40.035
276.17	39.074
276.54	42.537
276.91	41.324
277.28	42.134
277.65	38.779
278.02	41.176
278.39	42.754
278.76	43.234
279.13	43.440
279.50	40.893
279.87	40.787
280.23	37.852
280.60	40.169
280.97	41.776
281.34	42.105
281.71	39.932
282.08	39.701
282.45	39.280
282.82	40.188
283.19	39.257
283.56	38.361
283.92	41.441
284.29	39.652
284.66	40.558
285.03	37.821
285.40	38.485
285.77	39.783
286.14	40.153
286.51	40.030
286.87	39.494
287.24	39.157
287.61	38.565
287.98	37.160
288.35	39.349
288.72	38.166
289.08	38.360
289.45	37.870
289.82	37.952
290.19	37.931
290.56	37.183
290.93	36.662
291.29	38.154
291.66	34.848
292.03	35.142
292.40	37.551
292.77	34.232
293.13	35.995
293.50	33.771
293.87	33.154
294.24	37.333
294.60	35.398
294.97	32.752
295.34	33.419
295.71	32.787
296.08	32.041
296.44	33.333
296.81	32.278
297.18	32.628
297.55	31.014
297.91	34.045
298.28	32.227
298.65	31.986
299.02	31.877
299.38	33.410
299.75	29.907
300.12	30.787
300.48	33.410
300.85	31.046
301.22	32.438
301.59	31.507
301.95	30.847
302.32	30.667
302.69	29.573
303.05	30.794
303.42	30.155
303.79	29.583
304.15	29.022
304.52	30.233
304.89	29.529
305.25	29.917
305.62	30.617
305.99	30.000
306.35	29.335
306.72	30.610
307.09	29.036
307.45	29.814
307.82	29.667
308.19	29.566
308.55	28.737
308.92	29.211
309.29	30.364
309.65	29.435
310.02	29.703
310.38	29.626
310.75	29.417
311.12	29.243
311.48	30.499
311.85	29.725
312.22	30.645
312.58	28.732
312.95	29.159
313.31	29.901
313.68	30.220
314.05	30.985
314.41	29.781
314.78	28.792
315.14	28.947
315.51	29.455
315.87	30.333
316.24	31.781
316.61	29.396
316.97	28.507
317.34	29.806
317.70	30.306
318.07	28.924
318.43	29.677
318.80	30.017
319.16	29.871
319.53	28.106
319.89	29.097
320.26	30.338
320.62	30.496
320.99	29.732
321.35	30.776
321.72	30.140
322.08	29.216
322.45	29.810
322.81	30.415
323.18	30.796
323.54	31.207
323.91	31.584
324.27	31.497
324.64	31.486
325.00	30.348
325.37	30.303
325.73	30.744
326.10	31.387
326.46	31.678
326.83	32.506
327.19	31.575
327.56	31.858
327.92	31.157
328.29	31.371
328.65	29.816
329.01	31.726
329.38	31.340
329.74	32.106
330.11	32.106
330.47	31.845
330.84	31.352
331.20	31.500
331.56	32.062
331.93	30.962
332.29	32.034
332.66	31.063
333.02	29.983
333.38	31.711
333.75	30.640
334.11	31.359
334.48	30.363
334.84	32.795
335.20	30.898
335.57	31.788
335.93	30.826
336.29	30.449
336.66	31.119
337.02	30.518
337.38	31.973
337.75	29.421
338.11	32.128
338.47	30.769
338.84	30.626
339.20	30.076
339.56	30.560
339.93	30.952
340.29	29.549
340.65	30.008
341.02	30.726
341.38	31.043
341.74	30.831
342.11	29.525
342.47	29.468
342.83	31.884
343.20	30.908
343.56	30.553
343.92	29.063
344.28	29.922
344.65	30.543
345.01	30.187
345.37	30.093
345.73	28.995
346.10	31.591
346.46	30.301
346.82	30.262
347.19	30.252
347.55	31.487
347.91	29.421
348.27	30.121
348.63	30.617
349.00	29.903
349.36	30.112
349.72	28.943
350.08	29.346
350.45	28.973
350.81	29.336
351.17	29.699
351.53	30.705
351.89	30.828
352.26	29.030
352.62	30.224
352.98	30.076
353.34	29.276
353.70	30.740
354.07	29.806
354.43	30.068
354.79	28.721
355.15	30.464
355.51	29.459
355.87	29.768
356.24	30.570
356.60	29.268
356.96	29.281
357.32	29.814
357.68	30.381
358.04	29.192
358.40	30.224
358.77	29.532
359.13	28.434
359.49	28.848
359.85	30.094
360.21	29.340
360.57	28.715
360.93	28.773
361.29	29.474
361.66	30.196
362.02	30.619
362.38	29.515
362.74	29.539
363.10	30.536
363.46	29.986
363.82	30.682
364.18	30.260
364.54	30.360
364.90	30.903
365.26	30.000
365.62	30.467
365.98	30.497
366.35	30.067
366.71	30.680
367.07	30.920
367.43	29.613
367.79	29.662
368.15	30.769
368.51	29.635
368.87	30.699
369.23	30.600
369.59	31.831
369.95	30.629
370.31	31.263
370.67	29.367
371.03	30.332
371.39	30.087
371.75	31.293
372.11	30.014
372.47	30.941
372.83	30.759
373.19	31.354
373.55	31.369
373.91	30.811
374.27	31.565
374.63	31.664
374.99	30.172
375.35	31.364
375.71	31.935
376.07	30.923
376.42	31.423
376.78	31.635
377.14	31.628
377.50	31.752
377.86	31.589
378.22	30.838
378.58	31.867
378.94	31.866
379.30	31.517
379.66	32.216
380.02	31.160
380.38	32.604
380.74	33.014
381.09	32.346
381.45	32.102
381.81	33.138
382.17	32.542
382.53	33.099
382.89	32.449
383.25	33.294
383.61	31.713
383.97	33.746
384.32	34.091
384.68	32.657
385.04	33.545
385.40	34.237
385.76	34.115
386.12	33.094
386.48	32.941
386.83	34.267
387.19	33.893
387.55	33.216
387.91	32.991
388.27	33.834
388.62	32.761
388.98	34.010
389.34	34.826
389.70	34.108
390.06	34.636
390.42	34.157
390.77	34.798
391.13	34.272
391.49	34.722
391.85	33.758
392.20	35.350
392.56	34.554
392.92	34.896
393.28	35.158
393.64	35.084
393.99	36.026
394.35	36.157
394.71	36.347
395.07	35.090
395.42	36.208
395.78	36.380
396.14	36.185
396.50	35.214
396.85	36.196
397.21	35.621
397.57	36.042
397.92	36.082
398.28	35.470
398.64	35.584
399.00	35.916
399.35	37.435
399.71	36.141
400.07	36.721
400.42	36.496
400.78	37.326
401.14	36.938
401.49	38.260
401.85	38.023
402.21	37.949
402.57	38.674
402.92	37.175
403.28	36.066
403.63	37.232
403.99	38.183
404.35	37.408
404.70	37.280
405.06	37.609
405.42	38.700
405.77	38.441
406.13	39.168
406.49	38.514
406.84	38.615
407.20	39.128
407.55	38.159
407.91	38.718
408.27	39.399
408.62	39.500
408.98	38.944
409.34	38.592
409.69	39.740
410.05	40.387
410.40	40.197
410.76	39.596
411.11	39.977
411.47	39.496
411.83	41.035
412.18	39.398
412.54	39.953
412.89	39.406
413.25	39.786
413.60	39.632
413.96	40.268
414.31	40.623
414.67	41.443
415.03	40.369
415.38	41.929
415.74	41.051
416.09	40.345
416.45	40.075
416.80	40.453
417.16	41.252
417.51	41.220
417.87	40.956
418.22	41.557
418.58	41.016
418.93	41.676
419.29	42.355
419.64	40.636
420.00	41.246
420.35	42.448
420.71	41.700
421.06	42.093
421.42	41.915
421.77	40.711
422.12	41.755
422.48	42.601
422.83	42.826
423.19	42.865
423.54	43.363
423.90	42.518
424.25	42.507
424.61	42.652
424.96	43.053
425.31	43.153
425.67	42.673
426.02	43.553
426.38	42.595
426.73	41.071
427.09	44.348
427.44	42.654
427.79	42.952
428.15	43.379
428.50	43.146
428.85	43.054
429.21	44.096
429.56	42.349
429.92	43.538
430.27	43.181
430.62	43.478
430.98	42.646
431.33	42.864
431.68	44.588
432.04	43.169
432.39	42.903
432.74	44.007
433.10	45.160
433.45	42.531
433.80	42.704
434.16	43.595
434.51	44.810
434.86	45.331
435.22	44.261
435.57	44.870
435.92	44.296
436.28	44.824
436.63	44.839
436.98	43.532
437.34	44.194
437.69	43.864
438.04	44.421
438.39	44.630
438.75	45.324
439.10	44.609
439.45	43.991
439.81	44.294
440.16	44.129
440.51	44.705
440.86	43.913
441.22	43.837
441.57	44.235
441.92	45.635
442.27	45.404
442.63	44.660
442.98	45.464
443.33	43.872
443.68	44.945
444.03	45.061
444.39	45.123
444.74	45.023
445.09	45.008
445.44	45.311
445.79	44.588
446.15	44.810
446.50	45.168
446.85	44.942
447.20	44.874
447.55	45.607
447.91	44.660
448.26	45.190
448.61	44.952
448.96	45.386
449.31	44.645
449.66	44.118
450.02	44.093
450.37	45.125
450.72	44.241
451.07	43.451
451.42	45.523
451.77	44.191
452.12	46.106
452.47	44.742
452.83	45.270
453.18	44.775
453.53	44.170
453.88	44.727
454.23	45.989
454.58	44.864
454.93	44.782
455.28	45.695
455.63	44.514
455.98	45.866
456.34	44.287
456.69	45.679
457.04	45.272
457.39	44.900
457.74	46.812
458.09	44.756
458.44	46.013
458.79	45.178
459.14	44.678
459.49	44.822
459.84	45.593
460.19	43.587
460.54	46.053
460.89	44.680
461.24	44.138
461.59	44.217
461.94	44.267
462.29	45.521
462.64	44.719
462.99	44.884
463.34	45.036
463.69	44.021
464.04	45.192
464.39	44.899
464.74	43.786
465.09	45.444
465.44	44.796
465.79	45.214
466.14	44.242
466.49	45.211
466.84	44.904
467.19	43.931
467.54	45.476
467.89	44.023
468.24	43.878
468.59	44.065
468.94	44.231
469.29	44.091
469.64	43.229
469.99	44.997
470.34	43.750
470.68	44.634
471.03	45.580
471.38	43.623
471.73	44.863
472.08	44.924
472.43	45.756
472.78	44.773
473.13	44.753
473.48	44.592
473.83	46.024
474.17	44.021
474.52	45.941
474.87	44.241
475.22	44.169
475.57	43.873
475.92	44.251
476.27	44.409
476.61	44.496
476.96	44.317
477.31	44.554
477.66	45.488
478.01	44.637
478.36	44.068
478.70	44.532
479.05	45.399
479.40	44.965
479.75	45.341
480.10	44.434
480.45	44.667
480.79	45.850
481.14	44.301
481.49	44.616
481.84	45.039
482.19	44.516
482.53	45.081
482.88	44.351
483.23	44.820
483.58	43.712
483.92	44.238
484.27	44.073
484.62	44.307
484.97	44.090
485.31	43.365
485.66	42.047
486.01	41.884
486.36	42.875
486.70	44.669
487.05	45.206
487.40	44.230
487.75	43.486
488.09	44.012
488.44	43.249
488.79	43.744
489.13	44.243
489.48	43.146
489.83	43.340
490.17	42.446
490.52	43.021
490.87	44.247
491.22	43.154
491.56	43.003
491.91	44.309
492.26	43.531
492.60	44.119
492.95	43.440
493.30	42.851
493.64	43.495
493.99	43.816
494.34	41.986
494.68	42.570
495.03	43.700
495.37	43.719
495.72	43.084
496.07	42.682
496.41	42.385
496.76	44.454
497.11	42.887
497.45	42.555
497.80	42.692
498.14	42.086
498.49	44.026
498.84	41.910
499.18	43.095
499.53	43.991
499.87	42.462
500.22	41.897
500.56	42.825
500.91	43.112
501.26	44.227
501.60	42.201
501.95	42.597
502.29	43.308
502.64	42.763
502.98	41.846
503.33	41.814
503.67	42.608
504.02	43.082
504.36	42.315
504.71	42.582
505.06	42.156
505.40	42.322
505.75	43.124
506.09	42.311
506.44	43.268
506.78	42.982
507.13	42.185
507.47	42.776
507.82	42.756
508.16	42.113
508.51	42.569
508.85	42.938
509.19	42.823
509.54	43.324
509.88	43.079
510.23	42.885
510.57	43.016
510.92	42.719
511.26	42.328
511.61	41.429
511.95	42.557
512.30	43.279
512.64	42.179
512.98	43.022
513.33	42.994
513.67	42.529
514.02	43.587
514.36	43.223
514.70	43.021
515.05	42.961
515.39	42.940
515.74	42.312
516.08	44.163
516.42	42.857
516.77	43.060
517.11	42.393
517.46	44.008
517.80	43.399
518.14	43.961
518.49	42.679
518.83	41.990
519.17	40.711
519.52	42.505
519.86	42.344
520.20	43.078
520.55	42.881
520.89	42.793
521.23	43.495
521.58	43.333
521.92	43.343
522.26	42.841
522.61	42.419
522.95	43.253
523.29	43.276
523.64	43.554
523.98	43.468
524.32	43.897
524.66	43.483
525.01	42.978
525.35	42.964
525.69	42.923
526.04	42.939
526.38	43.161
526.72	42.907
527.06	43.343
527.41	42.624
527.75	43.884
528.09	43.270
528.43	42.984
528.78	41.908
529.12	42.833
529.46	43.002
529.80	42.391
530.15	43.884
530.49	42.467
530.83	42.857
531.17	43.608
531.51	41.998
531.86	42.849
532.20	43.476
532.54	43.028
532.88	43.758
533.22	42.428
533.57	41.662
533.91	42.144
534.25	42.736
534.59	42.759
534.93	42.105
535.27	42.423
535.62	42.752
535.96	43.173
536.30	42.479
536.64	42.402
536.98	42.620
537.32	43.457
537.66	43.731
538.01	41.692
538.35	41.900
538.69	41.346
539.03	42.612
539.37	43.110
539.71	42.102
540.05	42.506
540.39	41.687
540.73	42.502
541.07	42.673
541.42	41.051
541.76	41.637
542.10	42.340
542.44	41.535
542.78	41.606
543.12	41.836
543.46	40.965
543.80	41.307
544.14	42.490
544.48	42.080
544.82	40.575
545.16	41.682
545.50	41.402
545.84	41.029
546.18	42.160
546.52	40.955
546.86	40.818
547.20	41.476
547.54	40.637
547.88	40.325
548.22	40.643
548.56	40.784
548.90	42.209
549.24	40.851
549.58	40.820
549.92	40.306
550.26	40.388
550.60	39.885
550.94	39.780
551.28	41.122
551.62	42.385
551.96	39.417
552.30	41.555
552.64	39.764
552.98	40.799
553.32	41.093
553.66	41.543
554.00	39.786
554.34	39.640
554.68	39.057
555.02	39.882
555.36	40.894
555.69	40.102
556.03	39.155
556.37	40.300
556.71	40.900
557.05	41.278
557.39	39.018
557.73	39.564
558.07	39.272
558.41	40.266
558.75	40.433
559.08	40.292
559.42	39.232
559.76	40.570
560.10	38.915
560.44	39.314
560.78	39.750
561.12	38.300
561.45	39.294
561.79	39.133
562.13	39.310
562.47	38.286
562.81	38.228
563.15	38.826
563.48	39.030
563.82	37.969
564.16	38.583
564.50	38.558
564.84	38.171
565.17	38.941
565.51	37.284
565.85	39.727
566.19	37.673
566.52	38.151
566.86	38.540
567.20	37.847
567.54	39.246
567.88	39.246
568.21	39.081
568.55	38.321
568.89	39.128
569.23	37.220
569.56	37.827
569.90	38.026
570.24	38.111
570.57	36.786
570.91	36.987
571.25	37.402
571.59	38.074
571.92	37.447
572.26	37.057
572.60	37.374
572.93	36.961
573.27	36.724
573.61	36.210
573.95	36.902
574.28	36.417
574.62	36.517
574.96	35.421
575.29	36.021
575.63	35.897
575.97	35.952
576.30	35.184
576.64	35.958
576.98	35.945
577.31	36.575
577.65	36.422
577.98	35.768
578.32	35.613
578.66	36.091
578.99	35.798
579.33	36.438
579.67	35.449
580.00	35.806
580.34	35.362
580.67	35.503
581.01	34.660
581.35	35.204
581.68	35.705
582.02	35.326
582.35	36.238
582.69	35.614
583.02	35.339
583.36	35.695
583.70	36.219
584.03	35.589
584.37	35.794
584.70	35.648
585.04	34.922
585.37	35.064
585.71	35.383
586.04	34.346
586.38	35.074
586.72	35.197
587.05	35.073
587.39	34.804
587.72	35.072
588.06	35.227
588.39	34.902
588.73	35.185
589.06	35.130
589.40	35.556
589.73	34.961
590.07	35.444
590.40	35.159
590.73	34.924
591.07	35.294
591.40	34.798
591.74	33.863
592.07	34.917
592.41	34.582
592.74	34.398
593.08	35.064
593.41	34.850
593.75	33.966
594.08	34.777
594.41	35.032
594.75	34.175
595.08	34.051
595.42	34.643
595.75	34.808
596.09	34.531
596.42	34.647
596.75	35.044
597.09	34.343
597.42	34.883
597.75	33.869
598.09	34.048
598.42	33.575
598.76	33.703
599.09	33.642
599.42	33.289
599.76	32.948
600.09	33.767
600.42	33.667
600.76	33.388
601.09	32.791
601.42	33.436
601.76	33.172
602.09	33.989
602.42	32.752
602.76	33.026
603.09	34.104
603.42	33.309
603.76	33.051
604.09	33.605
604.42	33.651
604.76	32.763
605.09	33.506
605.42	34.051
605.75	33.154
606.09	32.960
606.42	32.652
606.75	32.871
607.09	32.258
607.42	32.678
607.75	33.411
608.08	32.597
608.42	32.850
608.75	32.629
609.08	32.555
609.41	33.304
609.75	32.723
610.08	32.894
610.41	32.795
610.74	33.025
611.07	33.437
611.41	33.004
611.74	33.303
612.07	32.258
612.40	32.319
612.73	32.518
613.07	33.839
613.40	32.387
613.73	32.403
614.06	33.023
614.39	31.535
614.72	32.314
615.06	32.243
615.39	31.706
615.72	32.133
616.05	31.909
616.38	32.492
616.71	31.452
617.05	32.002
617.38	32.424
617.71	32.397
618.04	31.301
618.37	32.240
618.70	33.314
619.03	31.481
619.36	31.874
619.69	31.646
620.03	32.706
620.36	31.350
620.69	32.079
621.02	32.677
621.35	31.858
621.68	32.466
622.01	31.601
622.34	31.450
622.67	30.997
623.00	30.229
623.33	32.050
623.66	33.333
623.99	31.205
624.32	32.749
624.65	30.631
624.99	32.705
625.32	32.789
625.65	31.760
625.98	30.169
626.31	31.184
626.64	31.795
626.97	30.983
627.30	30.752
627.63	31.358
627.96	32.057
628.29	31.907
628.62	30.730
628.95	32.165
629.28	30.756
629.61	32.660
629.94	30.628
630.26	30.763
630.59	30.570
630.92	30.303
631.25	31.753
631.58	32.863
631.91	32.052
632.24	33.141
632.57	29.507
632.90	31.194
633.23	30.408
633.56	31.020
633.89	29.545
634.22	31.081
634.55	30.167
634.88	30.195
635.20	30.678
635.53	31.977
635.86	32.936
636.19	32.556
636.52	30.591
636.85	30.133
637.18	31.393
637.51	29.355
637.83	31.118
638.16	31.106
638.49	28.638
638.82	31.229
639.15	31.501
639.48	30.716
639.81	29.908
640.13	31.331
640.46	28.970
640.79	28.676
641.12	29.565
641.45	28.733
641.77	32.221
642.10	30.052
642.43	32.048
642.76	30.488
643.09	30.548
643.41	29.832
643.74	30.897
644.07	31.172
644.40	29.986
644.73	31.640
645.05	30.837
645.38	32.230
645.71	29.765
646.04	30.560
646.36	28.613
646.69	31.135
647.02	31.193
647.35	31.756
647.67	31.079
648.00	29.936
648.33	29.429
648.66	29.387
648.98	28.571
649.31	30.582
649.64	30.677
649.96	30.902
650.29	27.121
650.62	29.986
650.94	28.679
651.27	27.096
651.60	29.825
651.92	29.939
652.25	29.812
652.58	28.748
652.90	28.343
653.23	30.000
653.56	28.816
653.88	31.320
654.21	26.620
654.54	30.058
654.86	30.028
655.19	27.604
655.52	29.848
655.84	29.182
656.17	35.550
656.49	49.911
656.82	55.332
657.15	42.972
657.47	32.355
657.80	24.097
658.13	18.726
658.45	24.427
658.78	29.264
659.10	29.227
659.43	27.917
659.75	27.483
660.08	27.395
660.41	26.964
660.73	25.086
661.06	26.579
661.38	26.794
661.71	25.862
662.03	29.101
662.36	29.875
662.68	27.955
663.01	28.319
663.33	31.758
663.66	30.952
663.98	30.000
664.31	27.955
664.63	27.553
664.96	27.223
665.28	27.405
665.61	29.021
665.93	26.071
666.26	26.344
666.58	26.568
666.91	29.533
667.23	25.714
667.56	27.613
667.88	29.200
668.21	28.125
668.53	26.641
668.86	29.470
669.18	28.310
669.50	26.044
669.83	26.200
670.15	27.362
670.48	26.587
670.80	25.048
671.13	27.410
671.45	28.346
671.77	28.060
672.10	26.667
672.42	26.861
672.75	27.650
673.07	27.164
673.39	26.194
673.72	28.691
674.04	29.828
674.37	27.191
674.69	31.217
675.01	27.238
675.34	27.481
675.66	26.404
675.98	29.291
676.31	27.148
676.63	29.278
676.95	28.544
677.28	29.234
677.60	25.591
677.92	29.559
678.25	29.250
678.57	27.580
678.89	29.863
679.22	26.829
679.54	25.470
679.86	25.932
680.18	25.871
680.51	27.201
680.83	27.987
681.15	26.897
681.48	29.188
681.80	27.979
682.12	26.399
682.44	26.377
682.77	25.000
683.09	27.841
683.41	28.682
683.73	25.237
684.06	26.568
684.38	24.687
684.70	28.725
685.02	27.194
685.34	25.624
685.67	25.552
685.99	26.227
686.31	26.017
686.63	27.330
686.96	28.233
687.28	26.710
687.60	25.926
687.92	25.241
688.24	27.546
688.56	25.000
688.89	25.590
689.21	27.006
689.53	25.098
689.85	25.247
690.17	26.111
690.49	26.892
690.82	25.941
691.14	25.709
691.46	27.342
691.78	29.098
692.10	26.239
692.42	24.286
692.74	26.679
693.06	24.815
693.39	25.237
693.71	26.316
694.03	26.022
694.35	26.476
694.67	26.489
694.99	25.745
695.31	26.932
695.63	25.541
695.95	25.259
696.27	26.374
696.59	27.212
696.91	24.550
697.23	27.253
697.56	25.866
697.88	28.030
698.20	25.989
698.52	27.462
698.84	25.364
699.16	26.735
699.48	27.197
699.80	24.043
700.12	25.546
700.44	27.650
700.76	24.466
701.08	27.119
701.40	25.648
701.72	24.876
702.04	26.203
702.36	23.037
702.68	24.205
703.00	22.983
703.32	26.355
703.64	27.139
703.96	25.537
704.28	25.061
704.60	27.595
704.91	24.235
705.23	24.110
705.55	22.563
705.87	25.455
706.19	26.380
706.51	20.783
706.83	22.767
707.15	25.132
707.47	24.065
707.79	24.891
708.11	22.458
708.43	23.226
708.74	23.438
709.06	24.826
709.38	27.700
709.70	25.806
710.02	22.739
710.34	28.723
710.66	24.302
710.98	26.230
711.29	22.527
711.61	27.119
711.93	26.211
712.25	24.865
712.57	30.678
712.89	25.882
713.20	23.669
713.52	25.723
713.84	23.955
714.16	24.737
714.48	23.454
714.80	24.935
715.11	24.409
715.43	23.077
715.75	24.737
716.07	25.967
716.39	25.137
716.70	21.084
717.02	20.984
717.34	25.436
717.66	27.852
717.97	21.233
718.29	21.306
718.61	21.711
718.93	23.625
719.24	23.292
719.56	25.767
719.88	23.423
720.20	27.419
720.51	25.466
720.83	23.438
721.15	22.368
721.46	23.288
721.78	23.333
722.10	22.006
722.42	24.161
722.73	21.613
723.05	24.561
723.37	20.139
723.68	26.882
724.00	24.910
724.32	18.310
724.63	20.979
724.95	26.241
725.27	21.254
725.58	22.261
725.90	25.517
726.22	24.138
726.53	26.948
726.85	21.384
727.16	21.148
727.48	22.630
727.80	23.179
728.11	21.201
728.43	26.599
728.74	23.411
729.06	25.828
729.38	22.078
729.69	21.477
730.01	24.107
730.32	17.879
730.64	22.013
730.96	20.186
731.27	25.698
731.59	23.901
731.90	20.000
732.22	23.437
732.53	23.481
732.85	22.571
733.16	24.633
733.48	19.512
733.80	23.120
734.11	23.647
734.43	22.162
734.74	22.532
735.06	22.613
735.37	25.405
735.69	20.541
736.00	22.316
736.32	22.642
736.63	20.833
736.95	20.690
737.26	21.818
737.58	25.455
737.89	24.412
738.21	21.101
738.52	20.328
738.83	21.843
739.15	22.340
739.46	22.789
739.78	23.006
740.09	21.777
740.41	24.490
740.72	22.000
741.04	20.065
741.35	20.351
741.66	20.784
741.98	25.410
742.29	20.921
742.61	24.561
742.92	25.000
743.23	22.744
743.55	22.868
743.86	22.000
744.18	19.835
744.49	20.675
744.80	25.103
745.12	24.895
745.43	23.577
745.74	19.828
746.06	21.610
746.37	27.426
746.68	23.171
747.00	22.083
747.31	22.747
747.62	17.692
747.94	23.077
748.25	17.269
748.56	22.449
748.88	20.085
749.19	21.552
749.50	17.749
749.82	22.490
750.13	27.402
750.44	21.667
750.75	26.154
751.07	23.077
751.38	23.975
751.69	20.767
752.01	21.359
752.32	23.529
752.63	24.490
752.94	19.031
753.26	18.959
753.57	21.481
753.88	22.472
754.19	19.293
754.51	21.543
754.82	23.473
755.13	23.934
755.44	20.137
755.75	20.066
756.07	23.881
756.38	22.013
756.69	24.398
757.00	19.391
757.31	22.951
757.63	21.739
757.94	21.362
758.25	22.573
758.56	20.697
758.87	23.182
759.18	20.000
759.50	26.629
759.81	23.249
760.12	22.372
760.43	21.615
760.74	22.167
761.05	22.750
761.36	19.036
761.67	23.350
761.99	22.162
762.30	21.037
762.61	18.812
762.92	19.030
763.23	23.221
763.54	21.583
763.85	20.962
764.16	20.202
764.47	22.535
764.78	23.642
765.10	17.889
765.41	22.308
765.72	23.280
766.03	22.316
766.34	18.495
766.65	20.209
766.96	24.701
767.27	23.041
767.58	21.393
767.89	23.558
768.20	15.493
768.51	18.519
768.82	20.884
769.13	21.212
769.44	18.846
769.75	22.744
770.06	20.000
770.37	21.654
770.68	18.298
770.99	18.623
771.30	21.481
771.61	22.814
771.92	20.370
772.23	26.316
772.54	14.352
772.85	20.737
773.16	22.857
773.47	14.815
773.78	15.676
774.09	22.159
774.39	21.000
774.70	16.393
775.01	12.805
775.32	15.294
775.63	13.497
775.94	15.924
776.25	16.774
776.56	15.385
776.87	19.728
777.18	16.552
777.48	18.182
777.79	16.892
778.10	14.706
778.41	15.972
778.72	17.931
779.03	19.136
779.34	18.182
779.65	14.508
779.95	24.444
780.26	17.045
780.57	15.484
780.88	21.739
781.19	25.161
781.50	21.765
781.80	17.742
782.11	19.577
782.42	17.172
782.73	15.569
783.04	20.670
783.34	14.545
783.65	13.725
783.96	15.528
784.27	20.238
784.57	21.192
784.88	16.429
785.19	20.472
785.50	14.173
785.81	19.549
786.11	20.000
786.42	12.950
786.73	17.266
787.04	15.789
787.34	13.115
787.65	19.200
787.96	14.925
788.26	21.678
788.57	24.476
788.88	20.395
789.19	28.105
789.49	17.808
789.80	21.277
790.11	18.110
790.41	17.969
790.72	18.644
791.03	8.738
791.33	11.304
791.64	14.912
791.95	10.714
792.25	24.762
792.56	19.643
792.87	7.292
793.17	19.643
793.48	-1.042
793.79	-1.205
794.09	5.505
794.40	11.009
794.70	20.408
795.01	12.987
795.32	14.384
795.62	17.606
795.93	8.333
796.23	18.033
796.54	15.179
796.85	15.957
797.15	13.043
797.46	0.000
797.76	3.750
798.07	9.783
798.37	0.000
798.68	9.091
798.99	9.195
799.29	15.730
799.60	21.277
799.90	6.024
800.21	15.385
800.51	11.940
800.82	2.941
801.12	9.589
801.43	-2.941
801.73	-5.085
802.04	16.667
802.34	8.333
802.65	-8.475
802.95	7.463
803.26	-5.085
803.56	9.589
803.87	-2.857
804.17	13.699
804.48	-3.509
804.78	13.889
805.09	-3.448
805.39	16.216
805.70	23.944
806.00	13.415
806.30	14.458
806.61	15.068
806.91	15.385
807.22	1.111
807.52	6.897
807.83	33.333
808.13	16.867
808.43	6.742
808.74	6.250
809.04	-10.294
809.35	10.667
809.65	1.429
809.95	2.740
810.26	-29.825
810.56	-5.172
810.86	5.882
811.17	0.000
811.47	-16.393
811.77	-4.444
812.08	0.000
812.38	5.000
812.69	29.310
812.99	1.887
813.29	-20.513
813.59	14.000
813.90	1.754
814.20	3.636
814.50	25.352
814.81	21.795
815.11	4.918
815.41	5.970
815.72	10.345
816.02	8.929
816.32	13.333
816.62	4.545
816.93	-26.667
817.23	20.370
817.53	14.894
817.84	30.952
818.14	-11.765
818.44	-16.327
818.74	-6.667
819.04	-12.821
819.35	-28.571
819.65	-61.538
819.95	-1.887
820.25	4.444
820.56	-14.286
820.86	-15.625
821.16	12.821
821.46	-4.651
821.76	-18.000
822.07	7.143
822.37	-6.522
822.67	6.383
822.97	-21.622
823.27	-22.500
823.57	2.041
823.88	4.444
824.18	-2.500
824.48	-6.667
824.78	-20.000
825.08	0.000
825.38	24.444
825.69	17.021
825.99	13.889
826.29	-37.143
826.59	0.000
826.89	9.302
827.19	6.000
827.49	5.882
827.79	20.833
828.09	-27.027
828.39	-36.667
828.70	0.000
829.00	-20.930
829.30	-46.429
829.60	11.765
829.90	-8.696
830.20	-8.571
830.50	-10.345
830.80	-55.556
831.10	-38.462
831.40	-20.588
831.70	-9.524
832.00	0.000
832.30	-88.235
832.60	-12.500
832.90	-76.923
833.20	-26.316
833.50	-55.000
833.80	-26.316
834.10	-85.714
834.40	2.778
834.70	3.125
835.00	-20.000
835.30	8.824
835.60	-10.000
835.90	-40.000
836.20	-68.182
836.50	-24.000
836.80	-27.273
837.10	-14.815
837.40	-11.111
837.70	-81.250
838.00	-7.143
838.30	-73.913
838.60	-27.586
838.90	-42.857
839.19	-56.522
839.49	-108.333
839.79	-4.348
840.09	-18.750
840.39	-35.000
840.69	16.129
840.99	-7.143
841.29	20.000
841.59	0.000
841.88	23.077
842.18	-15.385
842.48	-100.000
842.78	-25.000
843.08	-40.000
843.38	-6.452
843.68	-77.778
843.97	20.588
844.27	-87.500
844.57	-47.368
844.87	-130.000
845.17	-80.000
845.47	9.524
845.76	-95.238
846.06	-100.000
846.36	-111.765
846.66	-30.769
846.96	-86.667
847.25	-88.235
847.55	0.000
847.85	-10.000
848.15	23.529
848.44	-9.091
848.74	-14.286
849.04	-37.500
849.34	-125.000
849.63	-13.043
849.93	1250.000
850.23	-60.000
850.53	15.385
850.82	-54.545
851.12	9.091
851.42	-118.182
851.71	-30.769
852.01	-25.000
852.31	-53.846
852.61	-63.158
852.90	-91.667
853.20	-50.000
853.50	-200.000
853.79	-9.524
854.09	-50.000
854.39	-125.000
854.68	-9.677
854.98	-26.923
855.28	-11.111
855.57	-7.143
855.87	0.000
856.17	-27.273
856.46	7.407
856.76	-38.889
857.05	-26.087
857.35	-8.333
857.65	-100.000
857.94	14.286
858.24	11.111
858.53	-4.348
858.83	23.529
859.13	-47.059
859.42	17.647
859.72	42.857
860.01	-65.000
860.31	-188.889
860.60	-90.000
860.90	-20.000
861.20	-38.889
861.49	-23.077
861.79	3.333
862.08	-100.000
862.38	25.000
862.67	11.765
862.97	-87.500
863.26	-188.889
863.56	-140.000
863.85	-109.091
864.15	11.111
864.44	-200.000
864.74	-57.143
865.03	-37.500
865.33	-120.000
865.62	-12.903
865.92	9.091
866.21	39.130
866.51	-71.429
866.80	-160.000
867.10	0.000
867.39	-158.333
867.69	1400.000
867.98	-228.571
868.27	-35.294
868.57	-1300.000
868.86	-90.000
869.16	-9.524
869.45	-8.333
869.75	-9.091
870.04	-157.143
870.33	-75.000
870.63	-228.571
870.92	-75.000
871.22	-212.500
871.51	-100.000
871.80	-866.667
872.10	-800.000
>>>>>End Processed Spectral Data<<<<<
