SpectraSuite Data File
++++++++++++++++++++++++++++++++++++
Date: Thu May 14 16:09:01 PDT 2015
User: schluterlab
Dark Spectrum Present: Yes
Reference Spectrum Present: Yes
Number of Sampled Component Spectra: 1
Spectrometers: USB2E3373
Integration Time (usec): 3000 (USB2E3373)
Spectra Averaged: 3 (USB2E3373)
Boxcar Smoothing: 0 (USB2E3373)
Correct for Electrical Dark: No (USB2E3373)
Strobe/Lamp Enabled: No (USB2E3373)
Correct for Detector Non-linearity: No (USB2E3373)
Correct for Stray Light: No (USB2E3373)
Number of Pixels in Processed Spectrum: 2048
>>>>>Begin Processed Spectral Data<<<<<
178.53	0.000
178.91	128.571
179.29	-2100.000
179.67	-1300.000
180.04	157.143
180.42	130.000
180.80	340.000
181.18	-1200.000
181.56	0.000
181.94	275.000
182.31	-175.000
182.69	500.000
183.07	-650.000
183.45	575.000
183.83	-150.000
184.20	-133.333
184.58	1300.000
184.96	-375.000
185.34	-111.111
185.72	-140.000
186.09	322.222
186.47	1100.000
186.85	320.000
187.23	-155.556
187.61	-1000.000
187.98	160.000
188.36	575.000
188.74	-450.000
189.12	-533.333
189.49	-62.500
189.87	-175.000
190.25	-77.778
190.63	-60.000
191.00	-188.889
191.38	0.000
191.76	-275.000
192.14	-200.000
192.51	950.000
192.89	-16.667
193.27	0.000
193.65	-185.714
194.02	-2100.000
194.40	-157.143
194.78	200.000
195.15	0.000
195.53	-63.636
195.91	0.000
196.29	-325.000
196.66	-53.846
197.04	-1700.000
197.42	-200.000
197.79	-650.000
198.17	-150.000
198.55	-185.714
198.92	-100.000
199.30	-175.000
199.68	-136.364
200.05	-57.143
200.43	-900.000
200.81	157.143
201.18	0.000
201.56	188.889
201.94	0.000
202.31	700.000
202.69	-77.778
203.07	500.000
203.44	-144.444
203.82	-200.000
204.19	-125.000
204.57	-300.000
204.95	-150.000
205.32	-1100.000
205.70	250.000
206.08	-200.000
206.45	-100.000
206.83	320.000
207.20	-116.667
207.58	-340.000
207.96	-350.000
208.33	-100.000
208.71	75.000
209.08	-133.333
209.46	0.000
209.84	350.000
210.21	1000.000
210.59	500.000
210.96	633.333
211.34	-125.000
211.71	-75.000
212.09	-1700.000
212.46	0.000
212.84	900.000
213.22	-380.000
213.59	-300.000
213.97	-110.000
214.34	-733.333
214.72	316.667
215.09	-500.000
215.47	0.000
215.84	185.714
216.22	1350.000
216.59	-240.000
216.97	-200.000
217.34	-200.000
217.72	-137.500
218.09	-200.000
218.47	-575.000
218.84	0.000
219.22	100.000
219.59	-70.588
219.97	-110.000
220.34	750.000
220.72	-166.667
221.09	-7.692
221.47	-266.667
221.84	-120.000
222.22	-171.429
222.59	0.000
222.97	-37.500
223.34	-360.000
223.72	-2000.000
224.09	-450.000
224.46	-450.000
224.84	-300.000
225.21	-185.714
225.59	-350.000
225.96	-350.000
226.34	-15.385
226.71	266.667
227.08	-650.000
227.46	0.000
227.83	-425.000
228.21	-36.842
228.58	212.500
228.95	700.000
229.33	8.333
229.70	-140.000
230.08	-10.526
230.45	170.000
230.82	-400.000
231.20	-71.429
231.57	-66.667
231.95	-81.818
232.32	-109.091
232.69	-30.000
233.07	-200.000
233.44	-123.529
233.81	-120.000
234.19	-16.667
234.56	-9.091
234.93	-3.448
235.31	-47.368
235.68	-27.778
236.05	-55.000
236.43	26.923
236.80	20.000
237.17	-29.630
237.55	-36.364
237.92	-110.000
238.29	-35.484
238.67	-13.636
239.04	-22.222
239.41	-7.143
239.79	-34.783
240.16	-25.926
240.53	-19.565
240.91	-23.529
241.28	-14.754
241.65	-2.985
242.02	-5.405
242.40	-33.846
242.77	-14.667
243.14	-18.293
243.51	-14.474
243.89	-6.410
244.26	0.990
244.63	1.961
245.00	6.542
245.38	-6.140
245.75	-14.159
246.12	-3.968
246.49	-7.752
246.87	-2.143
247.24	9.272
247.61	-0.658
247.98	-2.685
248.36	-1.852
248.73	0.613
249.10	-1.093
249.47	2.488
249.84	5.759
250.22	2.591
250.59	1.111
250.96	5.909
251.33	-0.510
251.70	3.846
252.08	4.167
252.45	7.377
252.82	0.000
253.19	3.906
253.56	5.323
253.94	-0.385
254.31	2.652
254.68	4.196
255.05	5.863
255.42	3.741
255.79	2.265
256.16	3.311
256.54	0.662
256.91	5.902
257.28	4.590
257.65	4.777
258.02	1.180
258.39	7.407
258.76	7.645
259.14	7.184
259.51	4.035
259.88	3.399
260.25	6.389
260.62	4.110
260.99	6.831
261.36	5.898
261.73	3.714
262.10	3.297
262.47	5.898
262.85	7.071
263.22	2.078
263.59	1.316
263.96	4.604
264.33	1.790
264.70	5.432
265.07	5.489
265.44	7.256
265.81	4.398
266.18	6.576
266.55	4.688
266.92	4.328
267.29	5.470
267.66	4.213
268.03	5.022
268.40	5.428
268.77	3.189
269.14	1.762
269.51	5.702
269.88	6.557
270.25	6.841
270.62	5.274
270.99	6.667
271.36	5.941
271.73	4.912
272.10	6.212
272.47	5.411
272.84	5.422
273.21	4.609
273.58	5.645
273.95	4.423
274.32	5.323
274.69	2.708
275.06	4.396
275.43	3.142
275.80	4.586
276.17	3.333
276.54	4.851
276.91	3.936
277.28	5.606
277.65	5.206
278.02	5.882
278.39	5.616
278.76	4.569
279.13	3.546
279.50	4.467
279.87	6.619
280.23	2.641
280.60	4.746
280.97	5.428
281.34	4.075
281.71	6.091
282.08	4.817
282.45	3.110
282.82	4.396
283.19	4.362
283.56	5.082
283.92	5.556
284.29	6.635
284.66	5.255
285.03	4.327
285.40	7.573
285.77	6.192
286.14	6.107
286.51	4.871
286.87	4.423
287.24	6.175
287.61	4.335
287.98	4.381
288.35	3.994
288.72	5.030
289.08	6.149
289.45	5.030
289.82	5.271
290.19	6.897
290.56	5.634
290.93	3.424
291.29	5.372
291.66	6.336
292.03	3.799
292.40	7.075
292.77	3.774
293.13	4.871
293.50	3.942
293.87	3.221
294.24	6.400
294.60	6.068
294.97	3.893
295.34	4.994
295.71	4.288
296.08	5.168
296.44	5.147
296.81	5.116
297.18	4.234
297.55	3.892
297.91	3.796
298.28	4.384
298.65	5.232
299.02	4.723
299.38	4.691
299.75	4.556
300.12	2.894
300.48	3.917
300.85	5.174
301.22	4.810
301.59	4.909
301.95	3.842
302.32	6.778
302.69	3.286
303.05	5.767
303.42	5.876
303.79	4.479
304.15	4.837
304.52	4.334
304.89	4.398
305.25	4.658
305.62	3.971
305.99	5.773
306.35	5.141
306.72	4.343
307.09	4.162
307.45	4.969
307.82	4.743
308.19	3.935
308.55	5.593
308.92	5.063
309.29	5.077
309.65	6.043
310.02	3.762
310.38	5.217
310.75	5.340
311.12	4.794
311.48	4.594
311.85	5.223
312.22	4.934
312.58	5.070
312.95	5.354
313.31	5.330
313.68	6.960
314.05	5.872
314.41	6.102
314.78	4.905
315.14	5.989
315.51	5.633
315.87	6.751
316.24	6.301
316.61	6.572
316.97	5.882
317.34	5.556
317.70	7.162
318.07	5.291
318.43	6.888
318.80	6.856
319.16	7.210
319.53	5.398
319.89	6.047
320.26	6.584
320.62	5.851
320.99	6.741
321.35	6.285
321.72	7.349
322.08	6.583
322.45	7.407
322.81	6.859
323.18	6.726
323.54	6.724
323.91	7.918
324.27	7.143
324.64	6.465
325.00	7.794
325.37	7.944
325.73	7.025
326.10	7.461
326.46	7.003
326.83	7.286
327.19	6.299
327.56	7.984
327.92	6.688
328.29	7.258
328.65	6.868
329.01	8.799
329.38	7.835
329.74	7.620
330.11	7.877
330.47	6.908
330.84	7.407
331.20	8.083
331.56	6.153
331.93	7.866
332.29	7.119
332.66	6.977
333.02	5.946
333.38	7.634
333.75	8.081
334.11	8.590
334.48	8.333
334.84	7.986
335.20	6.801
335.57	6.661
335.93	7.934
336.29	6.739
336.66	7.485
337.02	7.023
337.38	9.099
337.75	6.694
338.11	7.653
338.47	7.527
338.84	7.445
339.20	6.403
339.56	7.578
339.93	7.882
340.29	8.132
340.65	7.543
341.02	7.901
341.38	7.922
341.74	6.780
342.11	7.401
342.47	6.116
342.83	7.327
343.20	7.277
343.56	7.378
343.92	7.206
344.28	7.578
344.65	8.992
345.01	7.644
345.37	8.009
345.73	7.482
346.10	8.112
346.46	7.199
346.82	7.566
347.19	8.327
347.55	8.725
347.91	7.652
348.27	6.753
348.63	8.835
349.00	7.830
349.36	7.955
349.72	7.515
350.08	8.321
350.45	7.681
350.81	7.089
351.17	7.744
351.53	7.885
351.89	8.884
352.26	7.537
352.62	7.537
352.98	7.252
353.34	7.170
353.70	7.627
354.07	8.271
354.43	7.365
354.79	8.227
355.15	8.609
355.51	7.602
355.87	7.779
356.24	7.985
356.60	8.130
356.96	7.635
357.32	8.253
357.68	7.980
358.04	7.710
358.40	7.985
358.77	7.895
359.13	7.090
359.49	6.840
359.85	8.267
360.21	7.819
360.57	8.040
360.93	7.687
361.29	8.491
361.66	8.182
362.02	8.490
362.38	8.995
362.74	8.170
363.10	8.803
363.46	8.310
363.82	7.528
364.18	7.882
364.54	7.815
364.90	8.094
365.26	7.655
365.62	9.333
365.98	8.441
366.35	8.792
366.71	8.231
367.07	8.728
367.43	9.258
367.79	9.224
368.15	9.365
368.51	8.796
368.87	8.230
369.23	8.933
369.59	8.743
369.95	9.331
370.31	10.128
370.67	8.872
371.03	8.795
371.39	8.529
371.75	8.184
372.11	9.824
372.47	9.411
372.83	8.181
373.19	9.540
373.55	8.537
373.91	8.248
374.27	9.767
374.63	9.811
374.99	9.615
375.35	9.935
375.71	9.290
376.07	8.780
376.42	9.572
376.78	10.131
377.14	9.669
377.50	9.551
377.86	10.406
378.22	10.240
378.58	9.869
378.94	9.859
379.30	10.252
379.66	10.288
380.02	10.560
380.38	10.484
380.74	10.423
381.09	10.453
381.45	10.114
381.81	11.417
382.17	11.164
382.53	10.175
382.89	10.497
383.25	10.023
383.61	10.475
383.97	10.306
384.32	11.124
384.68	11.079
385.04	11.163
385.40	10.961
385.76	11.841
386.12	10.592
386.48	11.471
386.83	11.502
387.19	11.124
387.55	11.150
387.91	10.902
388.27	11.894
388.62	11.512
388.98	11.055
389.34	10.961
389.70	11.912
390.06	11.901
390.42	11.566
390.77	12.402
391.13	11.092
391.49	12.198
391.85	11.939
392.20	12.100
392.56	12.758
392.92	11.887
393.28	12.769
393.64	12.011
393.99	12.435
394.35	12.675
394.71	12.754
395.07	11.737
395.42	11.536
395.78	13.528
396.14	12.597
396.50	12.055
396.85	12.343
397.21	12.308
397.57	12.014
397.92	12.600
398.28	12.276
398.64	12.872
399.00	12.408
399.35	12.827
399.71	13.152
400.07	12.465
400.42	12.631
400.78	12.326
401.14	12.920
401.49	13.474
401.85	13.314
402.21	13.499
402.57	12.911
402.92	13.357
403.28	12.061
403.63	12.589
403.99	13.480
404.35	13.530
404.70	13.088
405.06	13.098
405.42	13.700
405.77	13.359
406.13	13.506
406.49	13.514
406.84	13.906
407.20	13.807
407.55	13.810
407.91	14.079
408.27	13.486
408.62	13.613
408.98	13.987
409.34	13.079
409.69	13.844
410.05	14.068
410.40	14.037
410.76	14.021
411.11	14.261
411.47	13.698
411.83	13.992
412.18	14.337
412.54	13.693
412.89	13.970
413.25	14.673
413.60	14.130
413.96	14.452
414.31	14.448
414.67	14.192
415.03	14.154
415.38	13.871
415.74	14.050
416.09	13.819
416.45	14.590
416.80	13.341
417.16	14.559
417.51	14.508
417.87	14.715
418.22	15.030
418.58	14.622
418.93	14.843
419.29	13.440
419.64	13.445
420.00	13.947
420.35	14.374
420.71	14.474
421.06	13.974
421.42	14.392
421.77	14.486
422.12	14.165
422.48	14.286
422.83	14.786
423.19	14.695
423.54	14.325
423.90	13.915
424.25	14.720
424.61	14.294
424.96	14.388
425.31	14.650
425.67	13.956
426.02	14.222
426.38	14.294
426.73	14.118
427.09	15.513
427.44	14.200
427.79	14.096
428.15	14.612
428.50	14.045
428.85	13.720
429.21	14.734
429.56	13.870
429.92	14.251
430.27	14.265
430.62	14.021
430.98	13.970
431.33	14.565
431.68	14.511
432.04	14.931
432.39	14.033
432.74	14.155
433.10	15.197
433.45	13.712
433.80	14.324
434.16	14.928
434.51	14.080
434.86	14.604
435.22	14.240
435.57	14.800
435.92	14.914
436.28	14.733
436.63	14.746
436.98	14.868
437.34	14.262
437.69	14.805
438.04	14.120
438.39	14.474
438.75	14.499
439.10	15.011
439.45	14.925
439.81	14.237
440.16	13.780
440.51	14.939
440.86	13.452
441.22	15.113
441.57	15.094
441.92	15.228
442.27	14.495
442.63	14.257
442.98	14.728
443.33	14.150
443.68	14.916
444.03	14.817
444.39	14.517
444.74	13.885
445.09	14.648
445.44	14.700
445.79	14.464
446.15	15.416
446.50	14.315
446.85	15.126
447.20	14.265
447.55	15.429
447.91	14.346
448.26	14.905
448.61	14.187
448.96	14.861
449.31	14.157
449.66	14.542
450.02	14.715
450.37	14.971
450.72	13.940
451.07	14.636
451.42	14.962
451.77	14.341
452.12	15.124
452.47	13.607
452.83	14.977
453.18	15.003
453.53	13.728
453.88	14.467
454.23	15.028
454.58	14.684
454.93	13.410
455.28	15.172
455.63	14.611
455.98	14.972
456.34	14.959
456.69	14.286
457.04	14.421
457.39	14.579
457.74	14.541
458.09	14.058
458.44	14.709
458.79	13.925
459.14	14.211
459.49	14.318
459.84	14.586
460.19	14.270
460.54	14.935
460.89	14.823
461.24	14.598
461.59	14.942
461.94	13.577
462.29	14.222
462.64	14.001
462.99	14.501
463.34	14.471
463.69	13.716
464.04	15.008
464.39	14.686
464.74	14.310
465.09	13.899
465.44	14.431
465.79	14.648
466.14	13.653
466.49	13.526
466.84	13.829
467.19	13.699
467.54	13.925
467.89	14.080
468.24	14.404
468.59	14.071
468.94	13.578
469.29	13.617
469.64	13.732
469.99	13.512
470.34	14.542
470.68	13.260
471.03	14.276
471.38	14.127
471.73	13.199
472.08	14.848
472.43	14.449
472.78	14.547
473.13	14.033
473.48	14.743
473.83	14.916
474.17	14.420
474.52	14.552
474.87	14.341
475.22	14.366
475.57	13.707
475.92	13.987
476.27	14.058
476.61	13.396
476.96	13.139
477.31	13.911
477.66	14.376
478.01	14.591
478.36	13.858
478.70	13.793
479.05	14.059
479.40	14.215
479.75	14.073
480.10	13.785
480.45	14.129
480.79	13.696
481.14	13.787
481.49	13.812
481.84	13.795
482.19	13.763
482.53	13.774
482.88	14.267
483.23	13.917
483.58	13.537
483.92	13.121
484.27	13.844
484.62	13.078
484.97	14.114
485.31	13.059
485.66	12.449
486.01	11.819
486.36	11.970
486.70	12.765
487.05	13.372
487.40	13.350
487.75	13.715
488.09	13.356
488.44	13.317
488.79	13.592
489.13	13.179
489.48	13.204
489.83	12.998
490.17	12.677
490.52	13.054
490.87	13.283
491.22	13.215
491.56	13.567
491.91	13.040
492.26	12.938
492.60	13.293
492.95	13.646
493.30	13.895
493.64	13.403
493.99	13.421
494.34	12.674
494.68	13.276
495.03	13.789
495.37	13.937
495.72	13.016
496.07	13.278
496.41	12.913
496.76	13.178
497.11	13.503
497.45	13.423
497.80	13.194
498.14	13.832
498.49	12.868
498.84	13.711
499.18	12.596
499.53	13.812
499.87	13.275
500.22	12.778
500.56	13.090
500.91	13.089
501.26	13.864
501.60	12.285
501.95	13.113
502.29	13.295
502.64	13.293
502.98	12.770
503.33	12.570
503.67	12.516
504.02	13.266
504.36	13.315
504.71	12.678
505.06	13.051
505.40	12.980
505.75	12.705
506.09	13.490
506.44	13.231
506.78	13.807
507.13	13.647
507.47	12.601
507.82	13.447
508.16	13.241
508.51	12.143
508.85	12.990
509.19	12.790
509.54	13.208
509.88	13.065
510.23	13.016
510.57	12.566
510.92	12.675
511.26	12.073
511.61	12.844
511.95	12.982
512.30	13.245
512.64	12.744
512.98	13.057
513.33	12.601
513.67	13.310
514.02	13.081
514.36	13.708
514.70	12.552
515.05	13.921
515.39	13.648
515.74	13.468
516.08	13.682
516.42	13.972
516.77	12.881
517.11	12.739
517.46	13.521
517.80	13.736
518.14	13.166
518.49	13.612
518.83	13.465
519.17	13.193
519.52	13.260
519.86	13.464
520.20	12.726
520.55	12.760
520.89	13.401
521.23	13.568
521.58	12.655
521.92	13.428
522.26	12.829
522.61	12.616
522.95	12.572
523.29	13.161
523.64	13.397
523.98	13.577
524.32	13.868
524.66	12.635
525.01	13.194
525.35	12.407
525.69	12.819
526.04	12.514
526.38	13.276
526.72	12.860
527.06	12.962
527.41	13.003
527.75	13.480
528.09	13.046
528.43	12.670
528.78	12.890
529.12	13.188
529.46	12.366
529.80	13.272
530.15	12.290
530.49	12.574
530.83	13.223
531.17	12.724
531.51	11.974
531.86	12.200
532.20	13.902
532.54	12.507
532.88	12.909
533.22	12.434
533.57	12.060
533.91	12.682
534.25	12.493
534.59	12.299
534.93	11.715
535.27	13.183
535.62	12.678
535.96	12.144
536.30	11.927
536.64	12.793
536.98	12.608
537.32	12.716
537.66	12.851
538.01	12.145
538.35	12.363
538.69	12.740
539.03	12.508
539.37	11.896
539.71	10.991
540.05	12.530
540.39	11.919
540.73	12.690
541.07	12.324
541.42	12.109
541.76	12.159
542.10	11.821
542.44	11.693
542.78	11.192
543.12	12.396
543.46	12.759
543.80	11.331
544.14	11.969
544.48	12.352
544.82	12.089
545.16	12.403
545.50	11.744
545.84	11.758
546.18	12.531
546.52	12.102
546.86	11.887
547.20	12.277
547.54	12.547
547.88	11.634
548.22	11.053
548.56	11.937
548.90	11.940
549.24	12.219
549.58	11.924
549.92	12.309
550.26	12.104
550.60	12.317
550.94	12.872
551.28	12.541
551.62	12.399
551.96	12.816
552.30	12.747
552.64	12.197
552.98	12.414
553.32	12.154
553.66	12.090
554.00	11.917
554.34	12.098
554.68	12.266
555.02	11.301
555.36	12.360
555.69	11.723
556.03	11.917
556.37	12.516
556.71	12.238
557.05	13.099
557.39	11.745
557.73	11.691
558.07	11.589
558.41	11.163
558.75	12.103
559.08	12.248
559.42	11.523
559.76	12.347
560.10	11.721
560.44	12.005
560.78	11.375
561.12	12.315
561.45	11.375
561.79	12.637
562.13	11.830
562.47	10.974
562.81	11.582
563.15	12.184
563.48	11.249
563.82	12.273
564.16	11.690
564.50	12.217
564.84	11.917
565.17	11.941
565.51	11.220
565.85	11.580
566.19	10.945
566.52	10.884
566.86	11.998
567.20	11.147
567.54	10.621
567.88	11.060
568.21	11.265
568.55	10.743
568.89	10.576
569.23	10.858
569.56	10.395
569.90	10.086
570.24	9.949
570.57	9.910
570.91	9.584
571.25	9.951
571.59	10.214
571.92	9.835
572.26	10.005
572.60	9.610
572.93	9.880
573.27	9.862
573.61	10.005
573.95	9.711
574.28	9.624
574.62	9.413
574.96	9.131
575.29	9.275
575.63	9.587
575.97	9.557
576.30	9.376
576.64	9.902
576.98	9.294
577.31	9.615
577.65	9.472
577.98	9.243
578.32	9.027
578.66	9.103
578.99	9.236
579.33	9.315
579.67	9.474
580.00	9.103
580.34	9.359
580.67	9.113
581.01	9.109
581.35	8.942
581.68	8.784
582.02	8.811
582.35	9.076
582.69	8.963
583.02	9.082
583.36	9.550
583.70	9.271
584.03	9.311
584.37	9.380
584.70	8.998
585.04	9.044
585.37	8.970
585.71	8.803
586.04	9.093
586.38	9.053
586.72	8.799
587.05	9.107
587.39	9.299
587.72	8.971
588.06	9.478
588.39	9.186
588.73	9.153
589.06	9.199
589.40	8.851
589.73	9.415
590.07	9.682
590.40	9.500
590.73	9.473
591.07	9.717
591.40	9.565
591.74	9.340
592.07	9.825
592.41	9.345
592.74	8.981
593.08	9.459
593.41	9.157
593.75	8.649
594.08	8.846
594.41	9.295
594.75	9.233
595.08	8.816
595.42	8.669
595.75	9.235
596.09	9.590
596.42	9.244
596.75	9.572
597.09	9.455
597.42	8.860
597.75	9.761
598.09	9.921
598.42	9.771
598.76	8.827
599.09	9.185
599.42	9.085
599.76	8.617
600.09	8.942
600.42	9.076
600.76	8.785
601.09	8.994
601.42	8.582
601.76	8.828
602.09	9.078
602.42	9.124
602.76	8.561
603.09	9.214
603.42	9.140
603.76	8.421
604.09	9.475
604.42	8.917
604.76	8.752
605.09	8.975
605.42	9.330
605.75	8.808
606.09	8.996
606.42	9.157
606.75	8.658
607.09	8.410
607.42	9.326
607.75	9.105
608.08	8.998
608.42	8.827
608.75	9.287
609.08	8.998
609.41	8.910
609.75	9.241
610.08	9.191
610.41	9.006
610.74	8.655
611.07	9.503
611.41	9.686
611.74	9.007
612.07	9.350
612.40	9.078
612.73	10.073
613.07	9.389
613.40	9.528
613.73	9.533
614.06	9.028
614.39	9.038
614.72	9.267
615.06	9.192
615.39	8.845
615.72	8.863
616.05	8.791
616.38	9.183
616.71	9.352
617.05	8.679
617.38	9.524
617.71	9.071
618.04	9.012
618.37	9.399
618.70	9.502
619.03	9.140
619.36	8.878
619.69	8.840
620.03	10.295
620.36	8.957
620.69	8.945
621.02	9.580
621.35	9.869
621.68	9.255
622.01	8.754
622.34	8.996
622.67	10.034
623.00	7.895
623.33	9.688
623.66	9.014
623.99	9.019
624.32	10.786
624.65	9.588
624.99	8.778
625.32	9.863
625.65	9.845
625.98	9.017
626.31	10.631
626.64	10.110
626.97	8.627
627.30	8.884
627.63	9.152
627.96	10.135
628.29	10.350
628.62	9.740
628.95	10.429
629.28	9.771
629.61	10.943
629.94	9.038
630.26	8.644
630.59	8.290
630.92	9.784
631.25	10.555
631.58	11.394
631.91	9.653
632.24	9.894
632.57	9.108
632.90	9.829
633.23	10.816
633.56	9.898
633.89	10.021
634.22	10.083
634.55	10.543
634.88	9.416
635.20	10.226
635.53	11.638
635.86	11.484
636.19	10.498
636.52	10.549
636.85	9.602
637.18	10.707
637.51	10.000
637.83	12.292
638.16	11.751
638.49	7.864
638.82	9.808
639.15	9.278
639.48	9.815
639.81	9.931
640.13	10.836
640.46	10.182
640.79	9.436
641.12	10.062
641.45	9.285
641.77	11.425
642.10	10.105
642.43	10.904
642.76	11.518
643.09	11.370
643.41	6.723
643.74	10.897
644.07	10.621
644.40	11.740
644.73	11.176
645.05	11.601
645.38	11.223
645.71	10.704
646.04	11.191
646.36	9.489
646.69	11.350
647.02	10.550
647.35	11.756
647.67	11.272
648.00	11.306
648.33	11.712
648.66	12.126
648.98	10.884
649.31	10.419
649.64	10.890
649.96	11.406
650.29	8.762
650.62	10.608
650.94	11.862
651.27	9.731
651.60	9.649
651.92	9.726
652.25	11.867
652.58	10.041
652.90	8.721
653.23	11.127
653.56	9.986
653.88	10.534
654.21	10.141
654.54	9.249
654.86	11.331
655.19	10.038
655.52	9.178
655.84	6.786
656.17	7.711
656.49	10.916
656.82	12.361
657.15	10.160
657.47	7.718
657.80	5.768
658.13	4.648
658.45	6.311
658.78	7.521
659.10	7.190
659.43	7.510
659.75	7.134
660.08	7.675
660.41	8.189
660.73	8.324
661.06	8.957
661.38	9.729
661.71	9.138
662.03	8.818
662.36	9.660
662.68	9.568
663.01	9.558
663.33	12.287
663.66	14.652
663.98	10.962
664.31	9.568
664.63	11.175
664.96	9.256
665.28	8.893
665.61	11.538
665.93	9.643
666.26	12.903
666.58	10.332
666.91	11.963
667.23	12.571
667.56	10.454
667.88	8.200
668.21	6.836
668.53	8.687
668.86	11.198
669.18	10.387
669.50	9.742
669.83	9.200
670.15	11.417
670.48	10.119
670.80	9.369
671.13	8.129
671.45	10.039
671.77	10.923
672.10	7.500
672.42	8.414
672.75	8.141
673.07	9.701
673.39	7.858
673.72	10.906
674.04	10.690
674.37	10.555
674.69	8.466
675.01	9.905
675.34	9.160
675.66	9.363
675.98	10.261
676.31	8.203
676.63	12.738
676.95	11.111
677.28	9.476
677.60	7.087
677.92	10.365
678.25	10.055
678.57	11.566
678.89	8.191
679.22	6.446
679.54	9.744
679.86	8.305
680.18	7.629
680.51	10.220
680.83	9.820
681.15	10.172
681.48	10.708
681.80	10.190
682.12	9.266
682.44	9.349
682.77	9.752
683.09	9.848
683.41	8.915
683.73	9.488
684.06	9.594
684.38	6.798
684.70	9.336
685.02	9.122
685.34	7.155
685.67	6.782
685.99	7.669
686.31	7.703
686.63	7.425
686.96	9.779
687.28	9.609
687.60	7.239
687.92	6.592
688.24	8.013
688.56	6.552
688.89	7.985
689.21	10.176
689.53	9.216
689.85	8.284
690.17	10.370
690.49	10.159
690.82	9.307
691.14	6.680
691.46	9.560
691.78	9.945
692.10	6.972
692.42	5.357
692.74	7.985
693.06	7.778
693.39	9.677
693.71	8.459
694.03	9.108
694.35	8.381
694.67	11.088
694.99	7.234
695.31	7.506
695.63	6.494
695.95	7.453
696.27	6.154
696.59	11.726
696.91	9.009
697.23	8.571
697.56	7.128
697.88	6.818
698.20	7.910
698.52	13.068
698.84	6.029
699.16	9.592
699.48	8.787
699.80	5.957
700.12	10.262
700.44	7.143
700.76	9.976
701.08	10.412
701.40	10.622
701.72	10.697
702.04	8.556
702.36	7.068
702.68	7.824
703.00	7.579
703.32	7.635
703.64	8.802
703.96	9.785
704.28	8.108
704.60	10.633
704.91	8.163
705.23	9.589
705.55	10.585
705.87	8.485
706.19	10.429
706.51	7.530
706.83	5.764
707.15	5.820
707.47	4.907
707.79	5.677
708.11	4.873
708.43	4.731
708.74	5.357
709.06	5.568
709.38	8.451
709.70	9.181
710.02	5.943
710.34	7.181
710.66	8.659
710.98	8.470
711.29	4.121
711.61	7.345
711.93	6.838
712.25	8.108
712.57	10.914
712.89	7.941
713.20	7.101
713.52	11.561
713.84	7.799
714.16	7.632
714.48	7.216
714.80	8.052
715.11	6.299
715.43	8.488
715.75	8.421
716.07	7.459
716.39	8.470
716.70	6.024
717.02	4.918
717.34	5.923
717.66	7.718
717.97	5.822
718.29	2.062
718.61	5.592
718.93	10.032
719.24	6.522
719.56	8.282
719.88	6.907
720.20	7.419
720.51	6.522
720.83	7.500
721.15	6.250
721.46	3.767
721.78	3.667
722.10	4.207
722.42	4.362
722.73	6.452
723.05	6.316
723.37	9.722
723.68	9.677
724.00	8.664
724.32	6.690
724.63	6.993
724.95	7.447
725.27	5.923
725.58	8.834
725.90	9.655
726.22	7.837
726.53	7.143
726.85	11.006
727.16	8.459
727.48	11.927
727.80	8.940
728.11	4.240
728.43	8.418
728.74	6.020
729.06	7.285
729.38	6.494
729.69	3.356
730.01	3.571
730.32	4.242
730.64	4.403
730.96	2.795
731.27	9.497
731.59	3.297
731.90	2.597
732.22	7.292
732.53	2.210
732.85	4.857
733.16	2.346
733.48	4.573
733.80	5.571
734.11	4.843
734.43	4.865
734.74	8.354
735.06	5.528
735.37	5.405
735.69	6.216
736.00	5.932
736.32	6.199
736.63	7.500
736.95	7.184
737.26	5.758
737.58	2.727
737.89	7.353
738.21	2.446
738.52	6.557
738.83	9.556
739.15	4.610
739.46	7.143
739.78	7.362
740.09	2.006
740.41	7.580
740.72	2.667
741.04	8.414
741.35	7.018
741.66	5.098
741.98	8.197
742.29	7.113
742.61	7.456
742.92	3.846
743.23	9.025
743.55	6.589
743.86	8.000
744.18	0.413
744.49	2.954
744.80	4.938
745.12	7.173
745.43	10.163
745.74	6.034
746.06	3.814
746.37	10.549
746.68	8.130
747.00	6.667
747.31	6.438
747.62	1.154
747.94	4.049
748.25	6.426
748.56	3.673
748.88	2.137
749.19	9.483
749.50	5.628
749.82	6.827
750.13	7.473
750.44	5.667
750.75	5.231
751.07	4.615
751.38	7.256
751.69	4.473
752.01	6.149
752.32	2.941
752.63	5.442
752.94	4.844
753.26	2.230
753.57	3.704
753.88	5.618
754.19	5.788
754.51	2.251
754.82	7.395
755.13	10.820
755.44	4.778
755.75	3.618
756.07	8.657
756.38	6.604
756.69	6.325
757.00	6.371
757.31	4.918
757.63	3.581
757.94	6.338
758.25	6.546
758.56	5.447
758.87	8.864
759.18	6.400
759.50	7.932
759.81	5.882
760.12	7.547
760.43	2.344
760.74	6.650
761.05	3.750
761.36	4.578
761.67	3.553
761.99	6.486
762.30	5.488
762.61	3.300
762.92	4.478
763.23	5.993
763.54	8.273
763.85	3.436
764.16	6.734
764.47	1.761
764.78	4.792
765.10	4.692
765.41	6.154
765.72	3.175
766.03	5.085
766.34	2.194
766.65	1.394
766.96	0.000
767.27	1.382
767.58	-3.980
767.89	14.904
768.20	9.390
768.51	1.852
768.82	1.205
769.13	2.273
769.44	-3.462
769.75	6.859
770.06	5.000
770.37	5.512
770.68	0.426
770.99	0.810
771.30	8.889
771.61	2.662
771.92	2.593
772.23	8.907
772.54	-1.389
772.85	8.295
773.16	5.714
773.47	0.529
773.78	-3.784
774.09	-2.841
774.39	10.000
774.70	8.197
775.01	6.098
775.32	2.941
775.63	4.908
775.94	-5.732
776.25	7.742
776.56	8.974
776.87	2.721
777.18	2.759
777.48	2.098
777.79	-1.351
778.10	2.941
778.41	3.472
778.72	1.379
779.03	1.852
779.34	4.848
779.65	-0.518
779.95	0.556
780.26	6.250
780.57	10.323
780.88	-4.348
781.19	7.097
781.50	4.706
781.80	5.914
782.11	1.587
782.42	1.515
782.73	-0.599
783.04	3.352
783.34	-4.848
783.65	-1.307
783.96	-6.832
784.27	0.595
784.57	2.649
784.88	2.143
785.19	0.787
785.50	-2.362
785.81	1.504
786.11	3.077
786.42	-5.755
786.73	-4.317
787.04	3.008
787.34	-9.016
787.65	-7.200
787.96	-2.239
788.26	2.098
788.57	5.594
788.88	-4.605
789.19	7.190
789.49	2.055
789.80	2.837
790.11	-2.362
790.41	0.000
790.72	0.000
791.03	-16.505
791.33	-2.609
791.64	4.386
791.95	-6.250
792.25	-3.810
792.56	-2.679
792.87	-10.417
793.17	-4.464
793.48	-4.167
793.79	-20.482
794.09	-4.587
794.40	-2.752
794.70	2.041
795.01	1.299
795.32	-2.740
795.62	-1.408
795.93	0.000
796.23	2.459
796.54	-0.893
796.85	0.000
797.15	-7.609
797.46	-10.959
797.76	-6.250
798.07	-1.087
798.37	-10.309
798.68	-20.779
798.99	0.000
799.29	-3.371
799.60	-1.064
799.90	-7.229
800.21	-1.538
800.51	4.478
800.82	-17.647
801.12	-20.548
801.43	-23.529
801.73	-35.593
802.04	-4.545
802.34	-16.667
802.65	-18.644
802.95	-7.463
803.26	-18.644
803.56	-16.438
803.87	0.000
804.17	1.370
804.48	-21.053
804.78	2.778
805.09	-12.069
805.39	-5.405
805.70	-5.634
806.00	2.439
806.30	2.410
806.61	-8.219
806.91	0.000
807.22	4.444
807.52	-4.598
807.83	-2.778
808.13	-2.410
808.43	-2.247
808.74	-6.250
809.04	-19.118
809.35	-5.333
809.65	-11.429
809.95	-2.740
810.26	-35.088
810.56	-15.517
810.86	4.412
811.17	-24.561
811.47	-32.787
811.77	-46.667
812.08	-10.169
812.38	-13.333
812.69	-5.172
812.99	-22.642
813.29	-46.154
813.59	-2.000
813.90	-5.263
814.20	-14.545
814.50	8.451
814.81	-6.410
815.11	6.557
815.41	-10.448
815.72	-17.241
816.02	-14.286
816.32	-6.667
816.62	-27.273
816.93	-26.667
817.23	-7.407
817.53	-14.894
817.84	-7.143
818.14	-44.118
818.44	-28.571
818.74	-33.333
819.04	-33.333
819.35	-45.714
819.65	-84.615
819.95	-18.868
820.25	-8.889
820.56	-19.048
820.86	-25.000
821.16	-43.590
821.46	-25.581
821.76	-36.000
822.07	-5.357
822.37	-28.261
822.67	-10.638
822.97	-35.135
823.27	-50.000
823.57	-14.286
823.88	2.222
824.18	12.500
824.48	-40.000
824.78	-8.000
825.08	-27.273
825.38	4.444
825.69	-17.021
825.99	-13.889
826.29	-31.429
826.59	-38.462
826.89	-53.488
827.19	-14.000
827.49	-20.588
827.79	-22.917
828.09	-27.027
828.39	-60.000
828.70	-19.512
829.00	-11.628
829.30	-53.571
829.60	-8.824
829.90	-10.870
830.20	-40.000
830.50	-68.966
830.80	-111.111
831.10	-46.154
831.40	-11.765
831.70	-19.048
832.00	9.677
832.30	-111.765
832.60	-25.000
832.90	-123.077
833.20	-68.421
833.50	-10.000
833.80	-68.421
834.10	-100.000
834.40	-16.667
834.70	9.375
835.00	-37.143
835.30	-44.118
835.60	-33.333
835.90	-28.000
836.20	-140.909
836.50	-32.000
836.80	-33.333
837.10	-55.556
837.40	-29.630
837.70	-93.750
838.00	-10.714
838.30	-65.217
838.60	0.000
838.90	-100.000
839.19	-86.957
839.49	-225.000
839.79	-69.565
840.09	-81.250
840.39	-75.000
840.69	-12.903
840.99	-42.857
841.29	-113.333
841.59	-105.263
841.88	-12.821
842.18	-57.692
842.48	-140.000
842.78	-50.000
843.08	-20.000
843.38	0.000
843.68	-105.556
843.97	-23.529
844.27	-68.750
844.57	-84.211
844.87	-210.000
845.17	-106.667
845.47	-38.095
845.76	-23.810
846.06	-166.667
846.36	-117.647
846.66	-26.923
846.96	-93.333
847.25	-82.353
847.55	-26.087
847.85	-35.000
848.15	-41.176
848.44	-145.455
848.74	-9.524
849.04	-33.333
849.34	-56.250
849.63	-56.522
849.93	1200.000
850.23	-46.667
850.53	15.385
850.82	-45.455
851.12	9.091
851.42	-118.182
851.71	-84.615
852.01	-45.000
852.31	-38.462
852.61	-36.842
852.90	-33.333
853.20	-11.111
853.50	-100.000
853.79	-95.238
854.09	-104.545
854.39	-175.000
854.68	-22.581
854.98	-69.231
855.28	-50.000
855.57	-53.571
855.87	-28.000
856.17	-40.909
856.46	-25.926
856.76	-88.889
857.05	-21.739
857.35	-20.833
857.65	-123.077
857.94	-9.524
858.24	-3.704
858.53	-26.087
858.83	-123.529
859.13	-47.059
859.42	-29.412
859.72	0.000
860.01	-55.000
860.31	-166.667
860.60	-100.000
860.90	-73.333
861.20	-77.778
861.49	7.692
861.79	-40.000
862.08	-123.077
862.38	-3.125
862.67	-52.941
862.97	-56.250
863.26	-188.889
863.56	-100.000
863.85	-127.273
864.15	38.889
864.44	-300.000
864.74	-85.714
865.03	-43.750
865.33	-210.000
865.62	-32.258
865.92	13.636
866.21	-39.130
866.51	-71.429
866.80	-340.000
867.10	-100.000
867.39	-66.667
867.69	1700.000
867.98	-42.857
868.27	-64.706
868.57	-3300.000
868.86	-140.000
869.16	-100.000
869.45	-29.167
869.75	-72.727
870.04	-300.000
870.33	-141.667
870.63	-385.714
870.92	-375.000
871.22	-87.500
871.51	-54.545
871.80	-666.667
872.10	-550.000
>>>>>End Processed Spectral Data<<<<<
