SpectraSuite Data File
++++++++++++++++++++++++++++++++++++
Date: Thu May 14 16:07:22 PDT 2015
User: schluterlab
Dark Spectrum Present: Yes
Reference Spectrum Present: Yes
Number of Sampled Component Spectra: 1
Spectrometers: USB2E3373
Integration Time (usec): 3000 (USB2E3373)
Spectra Averaged: 3 (USB2E3373)
Boxcar Smoothing: 0 (USB2E3373)
Correct for Electrical Dark: No (USB2E3373)
Strobe/Lamp Enabled: No (USB2E3373)
Correct for Detector Non-linearity: No (USB2E3373)
Correct for Stray Light: No (USB2E3373)
Number of Pixels in Processed Spectrum: 2048
>>>>>Begin Processed Spectral Data<<<<<
178.53	0.000
178.91	185.714
179.29	-2100.000
179.67	-2000.000
180.04	185.714
180.42	130.000
180.80	420.000
181.18	-1600.000
181.56	200.000
181.94	475.000
182.31	-450.000
182.69	566.667
183.07	-600.000
183.45	350.000
183.83	-200.000
184.20	-333.333
184.58	600.000
184.96	-575.000
185.34	-155.556
185.72	-140.000
186.09	311.111
186.47	1250.000
186.85	580.000
187.23	-166.667
187.61	-1800.000
187.98	460.000
188.36	475.000
188.74	-500.000
189.12	-300.000
189.49	6.250
189.87	-225.000
190.25	11.111
190.63	-120.000
191.00	-211.111
191.38	0.000
191.76	-200.000
192.14	-266.667
192.51	650.000
192.89	-100.000
193.27	0.000
193.65	-285.714
194.02	-2500.000
194.40	-214.286
194.78	257.143
195.15	0.000
195.53	-136.364
195.91	0.000
196.29	-150.000
196.66	-61.538
197.04	-2500.000
197.42	-185.714
197.79	-750.000
198.17	-112.500
198.55	-242.857
198.92	-144.444
199.30	-125.000
199.68	-54.545
200.05	-50.000
200.43	-750.000
200.81	142.857
201.18	0.000
201.56	200.000
201.94	0.000
202.31	666.667
202.69	-222.222
203.07	300.000
203.44	-100.000
203.82	-375.000
204.19	-116.667
204.57	-316.667
204.95	-87.500
205.32	-1000.000
205.70	325.000
206.08	-100.000
206.45	-233.333
206.83	520.000
207.20	-216.667
207.58	-280.000
207.96	-283.333
208.33	-150.000
208.71	108.333
209.08	-133.333
209.46	0.000
209.84	166.667
210.21	750.000
210.59	950.000
210.96	466.667
211.34	-250.000
211.71	-187.500
212.09	-2000.000
212.46	0.000
212.84	750.000
213.22	-340.000
213.59	-350.000
213.97	-50.000
214.34	-133.333
214.72	116.667
215.09	-350.000
215.47	0.000
215.84	71.429
216.22	600.000
216.59	-280.000
216.97	-280.000
217.34	-325.000
217.72	-112.500
218.09	-300.000
218.47	-375.000
218.84	0.000
219.22	440.000
219.59	-17.647
219.97	-35.000
220.34	550.000
220.72	-111.111
221.09	-84.615
221.47	-200.000
221.84	-70.000
222.22	-328.571
222.59	0.000
222.97	-125.000
223.34	-440.000
223.72	-1200.000
224.09	-400.000
224.46	-225.000
224.84	-160.000
225.21	-171.429
225.59	-600.000
225.96	-325.000
226.34	-30.769
226.71	516.667
227.08	-700.000
227.46	-53.333
227.83	-425.000
228.21	-89.474
228.58	262.500
228.95	1000.000
229.33	-33.333
229.70	-70.000
230.08	26.316
230.45	200.000
230.82	-566.667
231.20	-28.571
231.57	-100.000
231.95	-136.364
232.32	-72.727
232.69	-30.000
233.07	-150.000
233.44	-82.353
233.81	-110.000
234.19	5.556
234.56	-9.091
234.93	6.897
235.31	-57.895
235.68	-55.556
236.05	-35.000
236.43	-7.692
236.80	24.000
237.17	25.926
237.55	6.061
237.92	-60.000
238.29	16.129
238.67	-6.818
239.04	33.333
239.41	4.762
239.79	-6.522
240.16	0.000
240.53	4.348
240.91	3.922
241.28	18.033
241.65	44.776
242.02	31.081
242.40	16.923
242.77	22.667
243.14	13.415
243.51	10.526
243.89	14.103
244.26	31.683
244.63	31.373
245.00	21.495
245.38	28.947
245.75	21.239
246.12	26.190
246.49	23.256
246.87	23.571
247.24	26.490
247.61	30.263
247.98	32.215
248.36	29.012
248.73	28.221
249.10	32.787
249.47	34.328
249.84	41.361
250.22	33.161
250.59	35.000
250.96	29.545
251.33	33.673
251.70	32.479
252.08	33.750
252.45	32.787
252.82	36.364
253.19	32.812
253.56	35.741
253.94	35.000
254.31	34.848
254.68	35.315
255.05	31.270
255.42	32.653
255.79	34.304
256.16	36.424
256.54	34.437
256.91	34.754
257.28	38.033
257.65	33.439
258.02	33.333
258.39	35.613
258.76	39.144
259.14	39.943
259.51	34.582
259.88	37.677
260.25	37.222
260.62	36.712
260.99	38.525
261.36	39.142
261.73	36.074
262.10	37.912
262.47	39.946
262.85	41.667
263.22	38.961
263.59	35.789
263.96	41.176
264.33	37.340
264.70	39.506
265.07	39.141
265.44	41.950
265.81	36.111
266.18	38.322
266.55	39.732
266.92	36.902
267.29	35.667
267.66	37.472
268.03	38.210
268.40	38.413
268.77	37.585
269.14	37.225
269.51	37.939
269.88	37.705
270.25	35.614
270.62	37.342
270.99	35.152
271.36	38.416
271.73	36.542
272.10	40.281
272.47	39.679
272.84	38.153
273.21	36.273
273.58	38.911
273.95	36.538
274.32	32.890
274.69	35.397
275.06	36.813
275.43	33.826
275.80	37.037
276.17	35.741
276.54	36.754
276.91	35.599
277.28	36.347
277.65	38.600
278.02	36.581
278.39	36.775
278.76	38.137
279.13	37.943
279.50	34.880
279.87	38.283
280.23	33.099
280.60	35.254
280.97	37.500
281.34	35.993
281.71	37.394
282.08	37.043
282.45	34.697
282.82	33.595
283.19	35.541
283.56	33.443
283.92	36.787
284.29	36.335
284.66	36.617
285.03	32.692
285.40	34.930
285.77	36.842
286.14	37.099
286.51	32.725
286.87	34.123
287.24	35.843
287.61	33.333
287.98	34.139
288.35	35.059
288.72	32.988
289.08	34.846
289.45	30.769
289.82	33.584
290.19	31.897
290.56	33.521
290.93	31.954
291.29	30.716
291.66	32.369
292.03	32.022
292.40	32.789
292.77	32.210
293.13	30.176
293.50	30.486
293.87	31.275
294.24	30.000
294.60	30.594
294.97	29.530
295.34	29.706
295.71	27.238
296.08	29.716
296.44	29.779
296.81	28.867
297.18	29.265
297.55	28.066
297.91	28.233
298.28	28.199
298.65	27.824
299.02	27.391
299.38	27.117
299.75	27.336
300.12	26.736
300.48	28.226
300.85	26.659
301.22	26.846
301.59	26.598
301.95	27.910
302.32	28.222
302.69	26.396
303.05	26.768
303.42	27.605
303.79	26.875
304.15	27.655
304.52	24.841
304.89	25.759
305.25	25.466
305.62	25.705
305.99	25.361
306.35	25.302
306.72	27.198
307.09	24.162
307.45	26.190
307.82	24.924
308.19	26.438
308.55	25.844
308.92	25.609
309.29	25.096
309.65	25.146
310.02	25.149
310.38	25.591
310.75	26.408
311.12	25.695
311.48	25.513
311.85	24.881
312.22	25.712
312.58	24.789
312.95	23.518
313.31	25.565
313.68	24.817
314.05	25.113
314.41	25.501
314.78	24.523
315.14	24.319
315.51	25.023
315.87	23.672
316.24	24.110
316.61	24.512
316.97	25.068
317.34	23.545
317.70	26.026
318.07	23.986
318.43	24.575
318.80	25.251
319.16	23.433
319.53	22.279
319.89	24.102
320.26	23.932
320.62	23.936
320.99	24.377
321.35	23.845
321.72	25.023
322.08	23.625
322.45	24.210
322.81	25.000
323.18	24.159
323.54	24.914
323.91	24.288
324.27	25.129
324.64	24.769
325.00	24.046
325.37	24.816
325.73	24.463
326.10	24.250
326.46	24.837
326.83	25.701
327.19	23.858
327.56	25.375
327.92	24.390
328.29	24.113
328.65	23.534
329.01	24.958
329.38	24.347
329.74	26.027
330.11	24.486
330.47	23.589
330.84	24.720
331.20	23.750
331.56	24.090
331.93	23.682
332.29	23.051
332.66	24.917
333.02	23.618
333.38	24.581
333.75	24.327
334.11	24.604
334.48	24.835
334.84	23.534
335.20	23.929
335.57	25.801
335.93	24.793
336.29	23.461
336.66	25.147
337.02	22.910
337.38	23.639
337.75	24.380
338.11	23.886
338.47	23.573
338.84	23.858
339.20	23.336
339.56	23.147
339.93	24.056
340.29	22.866
340.65	23.195
341.02	22.905
341.38	24.414
341.74	23.164
342.11	23.572
342.47	23.431
342.83	24.557
343.20	23.467
343.56	23.176
343.92	23.379
344.28	22.422
344.65	23.876
345.01	23.869
345.37	22.862
345.73	22.058
346.10	23.557
346.46	23.180
346.82	23.296
347.19	22.078
347.55	22.610
347.91	22.660
348.27	23.520
348.63	23.305
349.00	22.595
349.36	22.602
349.72	22.098
350.08	23.997
350.45	23.042
350.81	22.323
351.17	22.331
351.53	22.517
351.89	22.779
352.26	22.463
352.62	22.687
352.98	22.824
353.34	22.629
353.70	22.342
354.07	22.429
354.43	20.957
354.79	21.840
355.15	21.560
355.51	23.173
355.87	21.167
356.24	23.650
356.60	21.729
356.96	21.720
357.32	21.413
357.68	21.303
358.04	21.257
358.40	21.866
358.77	22.295
359.13	20.901
359.49	20.967
359.85	20.740
360.21	22.310
360.57	21.321
360.93	21.721
361.29	21.754
361.66	22.085
362.02	22.825
362.38	20.731
362.74	22.067
363.10	21.389
363.46	22.230
363.82	21.307
364.18	21.323
364.54	21.093
364.90	22.341
365.26	21.862
365.62	22.133
365.98	22.056
366.35	21.477
366.71	22.653
367.07	22.395
367.43	20.880
367.79	22.296
368.15	22.676
368.51	22.530
368.87	21.032
369.23	21.400
369.59	20.833
369.95	20.419
370.31	21.540
370.67	21.114
371.03	20.983
371.39	20.484
371.75	20.977
372.11	21.206
372.47	21.124
372.83	20.877
373.19	21.214
373.55	21.409
373.91	20.791
374.27	21.151
374.63	21.583
374.99	21.021
375.35	21.623
375.71	21.484
376.07	20.852
376.42	21.096
376.78	21.193
377.14	20.711
377.50	21.316
377.86	21.121
378.22	20.419
378.58	20.927
378.94	21.244
379.30	20.621
379.66	21.105
380.02	20.716
380.38	21.486
380.74	20.282
381.09	21.080
381.45	21.420
381.81	21.253
382.17	21.200
382.53	20.760
382.89	21.332
383.25	20.692
383.61	20.602
383.97	21.025
384.32	21.651
384.68	19.838
385.04	21.284
385.40	21.744
385.76	21.395
386.12	20.766
386.48	21.176
386.83	21.156
387.19	20.510
387.55	19.718
387.91	20.034
388.27	20.785
388.62	20.619
388.98	20.305
389.34	20.035
389.70	20.860
390.06	21.137
390.42	20.723
390.77	20.891
391.13	20.070
391.49	21.014
391.85	19.939
392.20	20.878
392.56	20.555
392.92	21.101
393.28	20.619
393.64	19.665
393.99	21.441
394.35	20.210
394.71	20.778
395.07	20.479
395.42	21.245
395.78	21.085
396.14	20.321
396.50	20.487
396.85	20.871
397.21	20.296
397.57	21.084
397.92	20.619
398.28	20.369
398.64	20.080
399.00	19.791
399.35	20.890
399.71	19.239
400.07	20.270
400.42	20.664
400.78	20.833
401.14	20.034
401.49	21.603
401.85	20.349
402.21	20.336
402.57	20.423
402.92	20.863
403.28	20.375
403.63	20.346
403.99	20.131
404.35	20.637
404.70	20.057
405.06	20.978
405.42	20.433
405.77	20.556
406.13	20.962
406.49	20.552
406.84	20.609
407.20	20.850
407.55	20.533
407.91	19.925
408.27	19.906
408.62	20.535
408.98	20.488
409.34	19.589
409.69	20.952
410.05	20.340
410.40	20.534
410.76	20.415
411.11	21.216
411.47	21.437
411.83	20.635
412.18	20.843
412.54	20.747
412.89	20.722
413.25	21.219
413.60	20.103
413.96	20.862
414.31	19.547
414.67	20.513
415.03	20.554
415.38	21.059
415.74	20.525
416.09	21.160
416.45	20.413
416.80	20.012
417.16	20.370
417.51	20.423
417.87	20.478
418.22	21.078
418.58	19.827
418.93	20.489
419.29	20.530
419.64	19.688
420.00	20.178
420.35	21.056
420.71	20.563
421.06	19.781
421.42	20.183
421.77	20.032
422.12	20.243
422.48	20.891
422.83	20.975
423.19	20.796
423.54	20.741
423.90	20.320
424.25	21.173
424.61	19.862
424.96	20.703
425.31	21.072
425.67	20.344
426.02	20.697
426.38	20.379
426.73	20.033
427.09	21.972
427.44	20.972
427.79	20.619
428.15	21.005
428.50	20.506
428.85	20.666
429.21	21.809
429.56	19.941
429.92	20.295
430.27	20.675
430.62	20.518
430.98	20.462
431.33	20.479
431.68	20.402
432.04	20.315
432.39	21.264
432.74	20.605
433.10	20.714
433.45	20.903
433.80	21.406
434.16	21.023
434.51	21.377
434.86	20.087
435.22	20.723
435.57	21.226
435.92	20.701
436.28	21.274
436.63	21.518
436.98	20.451
437.34	21.082
437.69	20.748
438.04	20.095
438.39	20.563
438.75	20.310
439.10	21.459
439.45	20.738
439.81	20.508
440.16	20.751
440.51	20.513
440.86	21.401
441.22	20.472
441.57	21.331
441.92	20.757
442.27	21.212
442.63	21.113
442.98	21.238
443.33	20.936
443.68	21.853
444.03	21.496
444.39	20.943
444.74	20.878
445.09	20.527
445.44	21.391
445.79	20.738
446.15	20.966
446.50	20.775
446.85	22.276
447.20	21.712
447.55	21.444
447.91	20.209
448.26	21.406
448.61	21.307
448.96	20.762
449.31	20.573
449.66	20.370
450.02	20.570
450.37	20.938
450.72	20.183
451.07	20.615
451.42	20.855
451.77	21.401
452.12	21.670
452.47	20.083
452.83	20.608
453.18	20.665
453.53	21.022
453.88	21.369
454.23	21.243
454.58	20.720
454.93	20.934
455.28	21.072
455.63	21.092
455.98	22.067
456.34	21.025
456.69	20.752
457.04	21.572
457.39	21.286
457.74	21.924
458.09	21.197
458.44	21.983
458.79	21.300
459.14	21.814
459.49	21.845
459.84	22.193
460.19	21.099
460.54	21.181
460.89	22.234
461.24	21.034
461.59	22.745
461.94	20.764
462.29	21.333
462.64	20.338
462.99	21.908
463.34	21.609
463.69	21.043
464.04	21.623
464.39	21.188
464.74	21.608
465.09	21.453
465.44	21.513
465.79	21.470
466.14	20.479
466.49	21.316
466.84	21.212
467.19	21.965
467.54	21.798
467.89	21.207
468.24	20.942
468.59	20.556
468.94	21.154
469.29	21.056
469.64	20.915
469.99	20.969
470.34	21.906
470.68	21.599
471.03	21.873
471.38	21.517
471.73	20.871
472.08	21.701
472.43	21.373
472.78	21.222
473.13	21.492
473.48	21.692
473.83	21.532
474.17	21.864
474.52	21.948
474.87	21.539
475.22	21.746
475.57	21.391
475.92	21.453
476.27	21.938
476.61	21.807
476.96	21.429
477.31	21.683
477.66	22.560
478.01	21.556
478.36	21.635
478.70	21.527
479.05	22.137
479.40	21.718
479.75	21.662
480.10	21.127
480.45	21.513
480.79	21.633
481.14	21.461
481.49	21.627
481.84	21.976
482.19	21.935
482.53	22.256
482.88	22.419
483.23	21.787
483.58	22.140
483.92	21.986
484.27	21.804
484.62	21.700
484.97	21.345
485.31	21.119
485.66	20.443
486.01	20.572
486.36	21.154
486.70	21.757
487.05	22.405
487.40	21.802
487.75	22.341
488.09	21.668
488.44	21.794
488.79	22.125
489.13	21.796
489.48	21.126
489.83	21.207
490.17	21.183
490.52	21.593
490.87	22.039
491.22	22.357
491.56	22.014
491.91	22.024
492.26	22.285
492.60	21.688
492.95	22.466
493.30	22.546
493.64	22.339
493.99	21.886
494.34	21.690
494.68	21.927
495.03	21.982
495.37	21.660
495.72	21.859
496.07	21.472
496.41	21.879
496.76	22.102
497.11	21.953
497.45	22.098
497.80	22.301
498.14	22.086
498.49	21.967
498.84	21.801
499.18	21.817
499.53	21.928
499.87	21.978
500.22	21.416
500.56	22.042
500.91	22.105
501.26	22.636
501.60	21.255
501.95	21.971
502.29	21.457
502.64	22.431
502.98	21.700
503.33	21.382
503.67	20.846
504.02	21.629
504.36	22.609
504.71	22.278
505.06	22.374
505.40	22.029
505.75	21.721
506.09	22.376
506.44	22.470
506.78	22.844
507.13	22.084
507.47	22.312
507.82	21.828
508.16	21.941
508.51	22.316
508.85	23.004
509.19	22.359
509.54	22.959
509.88	22.098
510.23	22.924
510.57	22.765
510.92	22.496
511.26	21.789
511.61	22.453
511.95	21.913
512.30	22.009
512.64	22.489
512.98	22.761
513.33	22.278
513.67	22.591
514.02	22.586
514.36	22.916
514.70	22.187
515.05	22.315
515.39	23.517
515.74	23.489
516.08	22.874
516.42	22.920
516.77	23.028
517.11	21.712
517.46	22.906
517.80	23.196
518.14	22.742
518.49	23.156
518.83	23.097
519.17	22.563
519.52	23.270
519.86	23.442
520.20	23.110
520.55	23.220
520.89	23.198
521.23	23.060
521.58	23.446
521.92	23.909
522.26	22.566
522.61	23.553
522.95	21.972
523.29	23.046
523.64	23.038
523.98	23.902
524.32	24.527
524.66	23.164
525.01	23.160
525.35	22.631
525.69	23.202
526.04	23.192
526.38	23.103
526.72	23.991
527.06	23.636
527.41	23.090
527.75	22.862
528.09	23.436
528.43	22.913
528.78	22.543
529.12	23.394
529.46	22.990
529.80	23.684
530.15	24.000
530.49	23.843
530.83	23.140
531.17	22.939
531.51	23.285
531.86	23.077
532.20	24.451
532.54	22.920
532.88	23.636
533.22	23.335
533.57	22.966
533.91	23.793
534.25	23.968
534.59	23.621
534.93	23.316
535.27	23.437
535.62	23.479
535.96	22.777
536.30	23.208
536.64	23.604
536.98	23.616
537.32	23.457
537.66	23.955
538.01	23.625
538.35	23.143
538.69	23.017
539.03	22.992
539.37	23.439
539.71	23.303
540.05	22.602
540.39	22.066
540.73	22.769
541.07	23.053
541.42	22.918
541.76	22.835
542.10	22.738
542.44	22.716
542.78	22.749
543.12	23.838
543.46	22.589
543.80	22.482
544.14	22.442
544.48	22.991
544.82	23.399
545.16	24.210
545.50	22.768
545.84	22.841
546.18	23.889
546.52	24.204
546.86	23.270
547.20	23.092
547.54	23.283
547.88	22.725
548.22	22.632
548.56	22.879
548.90	23.045
549.24	23.283
549.58	23.533
549.92	23.151
550.26	23.689
550.60	23.548
550.94	23.803
551.28	23.762
551.62	23.248
551.96	22.848
552.30	24.283
552.64	23.460
552.98	23.019
553.32	22.958
553.66	22.637
554.00	24.086
554.34	23.295
554.68	23.241
555.02	23.325
555.36	23.077
555.69	23.190
556.03	22.951
556.37	23.717
556.71	23.145
557.05	22.875
557.39	23.424
557.73	23.250
558.07	23.576
558.41	23.987
558.75	23.665
559.08	23.312
559.42	23.182
559.76	23.474
560.10	23.510
560.44	23.351
560.78	22.938
561.12	24.384
561.45	24.088
561.79	24.359
562.13	23.413
562.47	22.750
562.81	23.101
563.15	23.548
563.48	23.679
563.82	23.277
564.16	23.016
564.50	22.467
564.84	23.540
565.17	23.059
565.51	23.245
565.85	22.090
566.19	23.157
566.52	23.640
566.86	22.581
567.20	22.784
567.54	22.305
567.88	23.802
568.21	23.073
568.55	23.118
568.89	23.286
569.23	22.983
569.56	22.157
569.90	22.523
570.24	22.496
570.57	22.514
570.91	21.831
571.25	21.984
571.59	22.043
571.92	21.748
572.26	21.943
572.60	21.813
572.93	22.099
573.27	22.225
573.61	21.943
573.95	21.729
574.28	21.514
574.62	21.919
574.96	21.703
575.29	21.150
575.63	21.899
575.97	21.964
576.30	21.441
576.64	21.976
576.98	21.754
577.31	21.923
577.65	21.667
577.98	21.235
578.32	21.346
578.66	21.334
578.99	20.909
579.33	21.565
579.67	21.487
580.00	21.645
580.34	21.510
580.67	21.602
581.01	21.592
581.35	21.625
581.68	20.994
582.02	21.173
582.35	21.901
582.69	21.690
583.02	21.211
583.36	21.462
583.70	21.563
584.03	21.454
584.37	21.674
584.70	21.516
585.04	21.251
585.37	21.321
585.71	21.338
586.04	21.422
586.38	21.216
586.72	21.334
587.05	21.054
587.39	21.516
587.72	21.770
588.06	21.615
588.39	21.359
588.73	21.772
589.06	21.529
589.40	22.588
589.73	21.305
590.07	22.381
590.40	22.312
590.73	21.951
591.07	22.189
591.40	22.006
591.74	22.218
592.07	22.127
592.41	22.319
592.74	22.151
593.08	21.783
593.41	21.872
593.75	21.638
594.08	22.054
594.41	21.538
594.75	21.754
595.08	21.904
595.42	21.623
595.75	21.537
596.09	21.755
596.42	21.892
596.75	21.883
597.09	22.303
597.42	21.732
597.75	21.717
598.09	21.508
598.42	22.115
598.76	21.742
599.09	21.752
599.42	20.818
599.76	21.261
600.09	21.955
600.42	21.154
600.76	22.325
601.09	21.739
601.42	20.975
601.76	21.345
602.09	21.801
602.42	21.556
602.76	21.697
603.09	22.247
603.42	22.363
603.76	21.776
604.09	22.143
604.42	21.505
604.76	21.613
605.09	22.178
605.42	22.408
605.75	21.654
606.09	21.389
606.42	21.087
606.75	21.064
607.09	20.661
607.42	22.042
607.75	21.884
608.08	21.389
608.42	21.322
608.75	22.015
609.08	22.071
609.41	21.659
609.75	21.250
610.08	21.416
610.41	21.708
610.74	21.471
611.07	21.803
611.41	22.601
611.74	22.125
612.07	22.300
612.40	22.576
612.73	22.152
613.07	22.103
613.40	22.040
613.73	22.051
614.06	21.884
614.39	21.914
614.72	21.494
615.06	21.896
615.39	21.073
615.72	22.464
616.05	22.292
616.38	22.654
616.71	22.623
617.05	21.832
617.38	23.167
617.71	23.164
618.04	22.288
618.37	22.787
618.70	21.946
619.03	22.939
619.36	23.428
619.69	22.165
620.03	22.850
620.36	22.454
620.69	22.147
621.02	22.638
621.35	24.165
621.68	23.717
622.01	22.989
622.34	22.385
622.67	23.230
623.00	21.930
623.33	23.159
623.66	22.503
623.99	22.581
624.32	23.392
624.65	22.587
624.99	23.927
625.32	22.208
625.65	22.994
625.98	21.492
626.31	22.325
626.64	22.051
626.97	22.806
627.30	22.399
627.63	22.206
627.96	24.099
628.29	23.035
628.62	23.174
628.95	23.926
629.28	22.770
629.61	24.495
629.94	23.682
630.26	22.203
630.59	23.316
630.92	22.078
631.25	23.166
631.58	25.612
631.91	23.055
632.24	24.592
632.57	23.340
632.90	23.270
633.23	24.592
633.56	24.184
633.89	23.450
634.22	23.493
634.55	23.486
634.88	24.675
635.20	24.865
635.53	23.503
635.86	24.160
636.19	23.012
636.52	23.945
636.85	24.106
637.18	23.909
637.51	23.118
637.83	23.367
638.16	23.733
638.49	24.413
638.82	23.337
639.15	24.399
639.48	25.058
639.81	23.557
640.13	23.910
640.46	22.303
640.79	21.936
641.12	25.217
641.45	23.087
641.77	26.701
642.10	24.803
642.43	25.266
642.76	24.390
643.09	23.562
643.41	22.409
643.74	24.138
644.07	26.483
644.40	25.035
644.73	25.254
645.05	25.551
645.38	25.899
645.71	24.487
646.04	26.542
646.36	23.358
646.69	26.687
647.02	26.147
647.35	26.107
647.67	24.477
648.00	24.045
648.33	26.126
648.66	24.536
648.98	23.946
649.31	25.575
649.64	24.834
649.96	23.607
650.29	21.975
650.62	23.479
650.94	23.874
651.27	23.802
651.60	23.246
651.92	23.404
652.25	25.470
652.58	23.246
652.90	23.110
653.23	24.225
653.56	23.538
653.88	24.157
654.21	23.239
654.54	23.555
654.86	22.096
655.19	23.839
655.52	22.905
655.84	21.360
656.17	24.922
656.49	34.785
656.82	37.821
657.15	29.588
657.47	22.331
657.80	16.421
658.13	12.891
658.45	16.971
658.78	21.000
659.10	20.094
659.43	20.078
659.75	19.538
660.08	19.328
660.41	20.596
660.73	20.296
661.06	22.026
661.38	23.604
661.71	22.759
662.03	24.691
662.36	25.760
662.68	23.452
663.01	23.540
663.33	23.629
663.66	25.824
663.98	25.385
664.31	25.516
664.63	22.929
664.96	25.771
665.28	23.593
665.61	24.476
665.93	23.393
666.26	24.194
666.58	25.646
666.91	25.607
667.23	24.190
667.56	23.866
667.88	28.600
668.21	21.094
668.53	25.097
668.86	23.772
669.18	24.236
669.50	24.056
669.83	23.800
670.15	25.591
670.48	24.802
670.80	26.386
671.13	24.386
671.45	21.457
671.77	22.599
672.10	22.667
672.42	23.301
672.75	23.349
673.07	23.582
673.39	22.342
673.72	23.490
674.04	24.310
674.37	23.435
674.69	26.102
675.01	22.476
675.34	21.183
675.66	22.285
675.98	26.493
676.31	25.781
676.63	26.996
676.95	25.287
677.28	20.161
677.60	21.063
677.92	22.649
678.25	25.229
678.57	24.911
678.89	25.597
679.22	21.429
679.54	24.615
679.86	20.847
680.18	22.720
680.51	24.057
680.83	23.568
681.15	23.448
681.48	24.525
681.80	24.698
682.12	20.979
682.44	23.038
682.77	25.000
683.09	23.674
683.41	24.031
683.73	22.770
684.06	22.878
684.38	22.182
684.70	24.057
685.02	23.752
685.34	22.130
685.67	21.767
685.99	22.546
686.31	22.093
686.63	22.749
686.96	22.240
687.28	21.987
687.60	20.202
687.92	21.865
688.24	24.374
688.56	22.069
688.89	23.956
689.21	23.483
689.53	21.961
689.85	21.105
690.17	20.926
690.49	23.307
690.82	22.772
691.14	23.077
691.46	21.606
691.78	24.309
692.10	21.468
692.42	20.179
692.74	23.412
693.06	21.296
693.39	23.909
693.71	23.496
694.03	22.119
694.35	21.333
694.67	20.945
694.99	23.404
695.31	22.958
695.63	24.026
695.95	23.602
696.27	23.736
696.59	25.000
696.91	20.270
697.23	24.396
697.56	22.200
697.88	21.970
698.20	22.411
698.52	24.242
698.84	23.701
699.16	24.082
699.48	21.757
699.80	23.830
700.12	22.271
700.44	21.889
700.76	23.515
701.08	24.697
701.40	24.611
701.72	24.378
702.04	23.529
702.36	23.822
702.68	22.005
703.00	20.049
703.32	22.906
703.64	21.760
703.96	25.776
704.28	20.885
704.60	23.797
704.91	22.194
705.23	24.384
705.55	19.220
705.87	23.030
706.19	22.699
706.51	23.795
706.83	22.767
707.15	19.048
707.47	20.093
707.79	19.651
708.11	19.492
708.43	19.785
708.74	19.866
709.06	19.490
709.38	23.239
709.70	21.340
710.02	22.222
710.34	27.128
710.66	20.112
710.98	19.672
711.29	22.253
711.61	24.294
711.93	24.501
712.25	23.784
712.57	25.664
712.89	26.176
713.20	21.598
713.52	25.723
713.84	21.727
714.16	21.579
714.48	20.876
714.80	24.416
715.11	23.885
715.43	19.363
715.75	21.053
716.07	19.613
716.39	20.492
716.70	21.988
717.02	22.295
717.34	22.300
717.66	20.470
717.97	17.466
718.29	21.306
718.61	22.697
718.93	23.625
719.24	18.944
719.56	20.859
719.88	20.721
720.20	20.968
720.51	22.050
720.83	17.812
721.15	20.724
721.46	18.836
721.78	22.000
722.10	20.712
722.42	19.463
722.73	20.645
723.05	24.211
723.37	21.528
723.68	22.222
724.00	19.134
724.32	19.718
724.63	19.231
724.95	21.631
725.27	20.906
725.58	18.728
725.90	23.448
726.22	18.495
726.53	23.052
726.85	23.270
727.16	19.940
727.48	23.242
727.80	24.503
728.11	19.435
728.43	19.865
728.74	22.074
729.06	19.868
729.38	19.156
729.69	22.819
730.01	23.512
730.32	20.606
730.64	22.327
730.96	19.255
731.27	24.022
731.59	18.407
731.90	15.844
732.22	19.792
732.53	20.166
732.85	20.286
733.16	18.182
733.48	18.293
733.80	18.942
734.11	19.373
734.43	22.162
734.74	25.570
735.06	22.111
735.37	18.649
735.69	18.649
736.00	22.881
736.32	26.415
736.63	20.278
736.95	20.115
737.26	21.515
737.58	18.182
737.89	21.471
738.21	16.208
738.52	19.016
738.83	21.502
739.15	21.631
739.46	22.109
739.78	22.393
740.09	20.057
740.41	19.534
740.72	17.333
741.04	18.770
741.35	20.351
741.66	20.784
741.98	18.443
742.29	20.921
742.61	20.614
742.92	18.077
743.23	22.744
743.55	20.930
743.86	15.600
744.18	15.289
744.49	18.143
744.80	18.519
745.12	24.473
745.43	24.797
745.74	19.397
746.06	18.644
746.37	24.473
746.68	21.138
747.00	22.500
747.31	19.742
747.62	23.077
747.94	24.291
748.25	19.679
748.56	17.143
748.88	20.513
749.19	25.431
749.50	20.346
749.82	19.679
750.13	21.708
750.44	15.333
750.75	20.308
751.07	21.538
751.38	21.136
751.69	20.128
752.01	22.006
752.32	18.954
752.63	19.388
752.94	20.069
753.26	17.100
753.57	16.296
753.88	19.101
754.19	20.900
754.51	20.257
754.82	21.222
755.13	23.279
755.44	19.454
755.75	20.066
756.07	25.672
756.38	17.610
756.69	23.494
757.00	19.668
757.31	16.120
757.63	18.159
757.94	19.484
758.25	19.639
758.56	20.697
758.87	21.364
759.18	20.267
759.50	18.414
759.81	22.689
760.12	21.294
760.43	19.531
760.74	22.906
761.05	18.750
761.36	19.277
761.67	18.782
761.99	20.000
762.30	17.378
762.61	18.482
762.92	22.761
763.23	24.345
763.54	19.424
763.85	19.244
764.16	20.875
764.47	23.592
764.78	21.406
765.10	18.768
765.41	20.769
765.72	19.312
766.03	21.186
766.34	16.928
766.65	14.983
766.96	17.530
767.27	17.972
767.58	18.905
767.89	23.077
768.20	17.840
768.51	18.056
768.82	20.884
769.13	21.212
769.44	13.846
769.75	19.495
770.06	22.308
770.37	24.016
770.68	18.723
770.99	14.170
771.30	22.963
771.61	21.673
771.92	20.370
772.23	20.648
772.54	16.204
772.85	19.355
773.16	20.000
773.47	19.577
773.78	15.676
774.09	18.750
774.39	21.000
774.70	26.230
775.01	15.244
775.32	9.412
775.63	14.724
775.94	15.287
776.25	22.581
776.56	16.026
776.87	19.728
777.18	12.414
777.48	23.077
777.79	16.892
778.10	11.029
778.41	15.278
778.72	19.310
779.03	14.198
779.34	16.364
779.65	12.953
779.95	19.444
780.26	17.045
780.57	16.129
780.88	25.362
781.19	18.065
781.50	20.000
781.80	14.516
782.11	15.873
782.42	15.657
782.73	12.575
783.04	21.788
783.34	15.152
783.65	13.072
783.96	14.286
784.27	12.500
784.57	11.921
784.88	23.571
785.19	22.835
785.50	14.173
785.81	21.053
786.11	13.846
786.42	5.755
786.73	12.230
787.04	17.293
787.34	18.033
787.65	17.600
787.96	17.164
788.26	16.084
788.57	19.580
788.88	17.105
789.19	17.647
789.49	14.384
789.80	14.184
790.11	25.197
790.41	14.062
790.72	18.644
791.03	-1.942
791.33	15.652
791.64	14.035
791.95	1.786
792.25	15.238
792.56	12.500
792.87	18.750
793.17	8.036
793.48	12.500
793.79	8.434
794.09	11.009
794.40	15.596
794.70	16.327
795.01	13.636
795.32	10.274
795.62	12.676
795.93	11.364
796.23	19.672
796.54	8.036
796.85	10.638
797.15	7.609
797.46	-5.479
797.76	10.000
798.07	6.522
798.37	12.371
798.68	1.299
798.99	13.793
799.29	10.112
799.60	10.638
799.90	9.639
800.21	4.615
800.51	5.970
800.82	7.353
801.12	-17.808
801.43	0.000
801.73	-5.085
802.04	6.061
802.34	-3.333
802.65	3.390
802.95	0.000
803.26	10.169
803.56	8.219
803.87	8.571
804.17	6.849
804.48	8.772
804.78	2.778
805.09	-17.241
805.39	9.459
805.70	1.408
806.00	6.098
806.30	0.000
806.61	-5.479
806.91	5.769
807.22	7.778
807.52	6.897
807.83	9.722
808.13	13.253
808.43	11.236
808.74	12.500
809.04	-5.882
809.35	1.333
809.65	4.286
809.95	9.589
810.26	-21.053
810.56	0.000
810.86	10.294
811.17	-3.509
811.47	-3.279
811.77	-22.222
812.08	-10.169
812.38	8.333
812.69	15.517
812.99	-9.434
813.29	-15.385
813.59	8.000
813.90	22.807
814.20	-3.636
814.50	11.268
814.81	15.385
815.11	18.033
815.41	11.940
815.72	13.793
816.02	-1.786
816.32	6.667
816.62	-6.818
816.93	4.444
817.23	1.852
817.53	-12.766
817.84	11.905
818.14	-11.765
818.44	-12.245
818.74	-20.000
819.04	-12.821
819.35	-5.714
819.65	-34.615
819.95	-1.887
820.25	6.667
820.56	4.762
820.86	0.000
821.16	-10.256
821.46	-18.605
821.76	-2.000
822.07	5.357
822.37	-10.870
822.67	-38.298
822.97	-27.027
823.27	-15.000
823.57	8.163
823.88	-6.667
824.18	0.000
824.48	-33.333
824.78	-12.000
825.08	-30.303
825.38	11.111
825.69	12.766
825.99	-30.556
826.29	-20.000
826.59	-5.128
826.89	-30.233
827.19	-20.000
827.49	-29.412
827.79	-4.167
828.09	-32.432
828.39	-33.333
828.70	-26.829
829.00	-2.326
829.30	-3.571
829.60	-2.941
829.90	-6.522
830.20	-34.286
830.50	-41.379
830.80	-55.556
831.10	-53.846
831.40	-32.353
831.70	-33.333
832.00	32.258
832.30	-105.882
832.60	-12.500
832.90	-69.231
833.20	-31.579
833.50	-60.000
833.80	-84.211
834.10	-119.048
834.40	0.000
834.70	0.000
835.00	-42.857
835.30	-17.647
835.60	-23.333
835.90	-4.000
836.20	-90.909
836.50	-24.000
836.80	-57.576
837.10	-48.148
837.40	-37.037
837.70	-150.000
838.00	-21.429
838.30	-39.130
838.60	6.897
838.90	-35.714
839.19	-73.913
839.49	-191.667
839.79	-26.087
840.09	-75.000
840.39	-50.000
840.69	12.903
840.99	-17.857
841.29	6.667
841.59	-31.579
841.88	-15.385
842.18	-11.538
842.48	-140.000
842.78	-15.000
843.08	-33.333
843.38	-19.355
843.68	-77.778
843.97	-2.941
844.27	-106.250
844.57	-42.105
844.87	-140.000
845.17	-33.333
845.47	-4.762
845.76	-23.810
846.06	-211.111
846.36	-76.471
846.66	-11.538
846.96	-60.000
847.25	-29.412
847.55	-13.043
847.85	-55.000
848.15	-41.176
848.44	-154.545
848.74	-80.952
849.04	-45.833
849.34	-50.000
849.63	4.348
849.93	1100.000
850.23	-93.333
850.53	-23.077
850.82	-145.455
851.12	-63.636
851.42	-181.818
851.71	-23.077
852.01	-75.000
852.31	-84.615
852.61	-47.368
852.90	-108.333
853.20	-22.222
853.50	-233.333
853.79	-61.905
854.09	-59.091
854.39	-116.667
854.68	-58.065
854.98	-61.538
855.28	-44.444
855.57	-17.857
855.87	-60.000
856.17	-59.091
856.46	0.000
856.76	-50.000
857.05	-73.913
857.35	-75.000
857.65	-61.538
857.94	-38.095
858.24	-3.704
858.53	13.043
858.83	-52.941
859.13	-64.706
859.42	-35.294
859.72	-42.857
860.01	-25.000
860.31	-133.333
860.60	-80.000
860.90	-33.333
861.20	-94.444
861.49	-100.000
861.79	-30.000
862.08	-161.538
862.38	6.250
862.67	-35.294
862.97	-68.750
863.26	-211.111
863.56	-40.000
863.85	-118.182
864.15	-33.333
864.44	-366.667
864.74	-64.286
865.03	-75.000
865.33	-260.000
865.62	-32.258
865.92	-27.273
866.21	-34.783
866.51	-21.429
866.80	-300.000
867.10	-108.333
867.39	-116.667
867.69	3100.000
867.98	-114.286
868.27	-41.176
868.57	-2000.000
868.86	-160.000
869.16	-61.905
869.45	-8.333
869.75	-100.000
870.04	-285.714
870.33	-116.667
870.63	-300.000
870.92	-150.000
871.22	-150.000
871.51	-72.727
871.80	-733.333
872.10	-750.000
>>>>>End Processed Spectral Data<<<<<
