SpectraSuite Data File
++++++++++++++++++++++++++++++++++++
Date: Thu May 14 16:12:04 PDT 2015
User: schluterlab
Dark Spectrum Present: Yes
Reference Spectrum Present: Yes
Number of Sampled Component Spectra: 1
Spectrometers: USB2E3373
Integration Time (usec): 3000 (USB2E3373)
Spectra Averaged: 3 (USB2E3373)
Boxcar Smoothing: 0 (USB2E3373)
Correct for Electrical Dark: No (USB2E3373)
Strobe/Lamp Enabled: No (USB2E3373)
Correct for Detector Non-linearity: No (USB2E3373)
Correct for Stray Light: No (USB2E3373)
Number of Pixels in Processed Spectrum: 2048
>>>>>Begin Processed Spectral Data<<<<<
178.53	0.000
178.91	185.714
179.29	-2200.000
179.67	-500.000
180.04	164.286
180.42	70.000
180.80	200.000
181.18	-1700.000
181.56	-1000.000
181.94	225.000
182.31	-275.000
182.69	233.333
183.07	-650.000
183.45	275.000
183.83	-100.000
184.20	-100.000
184.58	500.000
184.96	-175.000
185.34	-88.889
185.72	-60.000
186.09	233.333
186.47	650.000
186.85	420.000
187.23	-133.333
187.61	-600.000
187.98	40.000
188.36	225.000
188.74	-400.000
189.12	-66.667
189.49	12.500
189.87	0.000
190.25	55.556
190.63	-20.000
191.00	33.333
191.38	0.000
191.76	-175.000
192.14	-33.333
192.51	650.000
192.89	16.667
193.27	0.000
193.65	-114.286
194.02	-1800.000
194.40	-85.714
194.78	271.429
195.15	0.000
195.53	27.273
195.91	0.000
196.29	25.000
196.66	30.769
197.04	-600.000
197.42	-71.429
197.79	-650.000
198.17	-100.000
198.55	-71.429
198.92	33.333
199.30	-62.500
199.68	-18.182
200.05	-35.714
200.43	-950.000
200.81	314.286
201.18	0.000
201.56	144.444
201.94	0.000
202.31	500.000
202.69	-166.667
203.07	1200.000
203.44	-144.444
203.82	-300.000
204.19	-25.000
204.57	-66.667
204.95	-125.000
205.32	-800.000
205.70	225.000
206.08	-33.333
206.45	16.667
206.83	260.000
207.20	-183.333
207.58	-80.000
207.96	-133.333
208.33	16.667
208.71	133.333
209.08	-133.333
209.46	0.000
209.84	233.333
210.21	550.000
210.59	350.000
210.96	433.333
211.34	25.000
211.71	-100.000
212.09	-600.000
212.46	0.000
212.84	450.000
213.22	-180.000
213.59	-25.000
213.97	20.000
214.34	66.667
214.72	266.667
215.09	-375.000
215.47	0.000
215.84	-42.857
216.22	850.000
216.59	-40.000
216.97	-40.000
217.34	-50.000
217.72	-87.500
218.09	-275.000
218.47	-400.000
218.84	0.000
219.22	20.000
219.59	-5.882
219.97	-25.000
220.34	600.000
220.72	0.000
221.09	46.154
221.47	-33.333
221.84	-70.000
222.22	-214.286
222.59	0.000
222.97	-25.000
223.34	20.000
223.72	-400.000
224.09	-300.000
224.46	-275.000
224.84	20.000
225.21	-185.714
225.59	-450.000
225.96	-275.000
226.34	7.692
226.71	200.000
227.08	-550.000
227.46	-46.667
227.83	-275.000
228.21	-57.895
228.58	175.000
228.95	800.000
229.33	-33.333
229.70	-60.000
230.08	26.316
230.45	200.000
230.82	-233.333
231.20	-7.143
231.57	-66.667
231.95	-36.364
232.32	-45.455
232.69	5.000
233.07	-250.000
233.44	-58.824
233.81	-150.000
234.19	50.000
234.56	-36.364
234.93	10.345
235.31	-36.842
235.68	-5.556
236.05	-65.000
236.43	38.462
236.80	-20.000
237.17	-14.815
237.55	0.000
237.92	-130.000
238.29	0.000
238.67	-20.455
239.04	-8.333
239.41	-28.571
239.79	-15.217
240.16	-20.370
240.53	-21.739
240.91	-5.882
241.28	1.639
241.65	5.970
242.02	4.054
242.40	-18.462
242.77	-8.000
243.14	-14.634
243.51	-15.789
243.89	-3.846
244.26	14.851
244.63	0.000
245.00	-5.607
245.38	-3.509
245.75	-17.699
246.12	0.794
246.49	-5.426
246.87	5.000
247.24	3.311
247.61	3.947
247.98	-6.711
248.36	0.000
248.73	-1.840
249.10	4.372
249.47	8.955
249.84	0.524
250.22	-1.036
250.59	4.444
250.96	3.182
251.33	-2.551
251.70	3.419
252.08	5.000
252.45	0.820
252.82	-0.826
253.19	-1.563
253.56	2.281
253.94	2.308
254.31	-0.379
254.68	1.399
255.05	3.583
255.42	-0.340
255.79	0.324
256.16	1.987
256.54	0.993
256.91	-0.328
257.28	0.328
257.65	-2.229
258.02	0.000
258.39	1.140
258.76	5.505
259.14	3.448
259.51	3.458
259.88	-0.850
260.25	1.667
260.62	4.384
260.99	5.191
261.36	4.021
261.73	1.326
262.10	0.824
262.47	0.804
262.85	6.313
263.22	1.299
263.59	1.579
263.96	4.348
264.33	1.535
264.70	2.469
265.07	5.012
265.44	6.803
265.81	0.694
266.18	3.175
266.55	5.357
266.92	1.595
267.29	3.939
267.66	3.326
268.03	2.183
268.40	2.505
268.77	0.228
269.14	1.322
269.51	2.851
269.88	5.123
270.25	3.622
270.62	3.165
270.99	5.455
271.36	4.752
271.73	3.929
272.10	4.609
272.47	2.806
272.84	3.815
273.21	3.006
273.58	3.427
273.95	2.692
274.32	2.091
274.69	1.934
275.06	5.128
275.43	2.588
275.80	3.351
276.17	2.593
276.54	2.239
276.91	1.610
277.28	3.255
277.65	3.232
278.02	3.125
278.39	2.174
278.76	0.000
279.13	3.546
279.50	3.093
279.87	4.114
280.23	-0.352
280.60	3.559
280.97	3.618
281.34	1.188
281.71	3.892
282.08	2.159
282.45	2.782
282.82	2.355
283.19	1.292
283.56	1.311
283.92	5.105
284.29	5.529
284.66	4.926
285.03	2.244
285.40	4.946
285.77	3.560
286.14	3.053
286.51	3.805
286.87	3.633
287.24	2.861
287.61	3.438
287.98	1.057
288.35	2.515
288.72	2.959
289.08	2.782
289.45	3.254
289.82	2.861
290.19	3.017
290.56	2.676
290.93	3.566
291.29	3.168
291.66	3.306
292.03	3.528
292.40	5.170
292.77	2.022
293.13	3.383
293.50	2.760
293.87	1.611
294.24	5.200
294.60	4.172
294.97	1.611
295.34	4.866
295.71	3.026
296.08	3.359
296.44	3.431
296.81	3.532
297.18	4.110
297.55	3.774
297.91	4.270
298.28	3.910
298.65	3.567
299.02	2.597
299.38	4.805
299.75	5.023
300.12	3.356
300.48	4.263
300.85	5.062
301.22	4.810
301.59	4.795
301.95	4.859
302.32	5.333
302.69	3.505
303.05	4.353
303.42	6.098
303.79	5.104
304.15	5.468
304.52	4.545
304.89	4.921
305.25	5.694
305.62	4.911
305.99	5.670
306.35	6.250
306.72	5.998
307.09	6.294
307.45	6.832
307.82	5.045
308.19	6.458
308.55	6.847
308.92	7.303
309.29	6.992
309.65	6.920
310.02	7.723
310.38	7.776
310.75	7.767
311.12	8.725
311.48	8.407
311.85	7.123
312.22	8.539
312.58	9.014
312.95	8.126
313.31	10.569
313.68	10.531
314.05	11.292
314.41	11.020
314.78	10.808
315.14	11.887
315.51	12.281
315.87	13.231
316.24	12.420
316.61	14.032
316.97	12.670
317.34	12.698
317.70	13.450
318.07	14.815
318.43	14.711
318.80	16.054
319.16	14.850
319.53	13.967
319.89	14.987
320.26	15.925
320.62	15.869
320.99	15.882
321.35	16.543
321.72	17.674
322.08	16.501
322.45	17.977
322.81	16.877
323.18	17.611
323.54	17.931
323.91	19.662
324.27	18.417
324.64	19.647
325.00	18.823
325.37	19.820
325.73	19.917
326.10	20.438
326.46	21.417
326.83	21.457
327.19	20.630
327.56	21.502
327.92	20.692
328.29	20.081
328.65	19.849
329.01	20.897
329.38	20.725
329.74	21.575
330.11	21.832
330.47	21.483
330.84	21.619
331.20	21.417
331.56	21.317
331.93	21.674
332.29	21.780
332.66	21.678
333.02	21.524
333.38	20.218
333.75	21.549
334.11	21.435
334.48	20.627
334.84	21.580
335.20	20.739
335.57	20.742
335.93	21.653
336.29	20.799
336.66	20.101
337.02	20.652
337.38	21.684
337.75	21.157
338.11	21.699
338.47	21.588
338.84	20.051
339.20	20.051
339.56	20.428
339.93	21.018
340.29	20.853
340.65	20.114
341.02	21.389
341.38	22.231
341.74	20.662
342.11	20.998
342.47	19.619
342.83	20.853
343.20	21.504
343.56	21.091
343.92	20.977
344.28	21.172
344.65	20.853
345.01	20.983
345.37	19.984
345.73	19.564
346.10	19.891
346.46	19.066
346.82	20.150
347.19	20.474
347.55	20.106
347.91	18.871
348.27	20.182
348.63	20.792
349.00	20.060
349.36	20.074
349.72	19.717
350.08	19.614
350.45	18.403
350.81	19.005
351.17	19.248
351.53	19.484
351.89	19.818
352.26	19.254
352.62	19.925
352.98	19.313
353.34	18.223
353.70	19.414
354.07	19.076
354.43	19.590
354.79	19.297
355.15	18.985
355.51	20.395
355.87	19.147
356.24	20.456
356.60	19.217
356.96	18.606
357.32	18.364
357.68	18.814
358.04	18.937
358.40	17.463
358.77	18.860
359.13	19.276
359.49	17.918
359.85	19.434
360.21	19.727
360.57	17.875
360.93	18.547
361.29	19.860
361.66	18.972
362.02	20.390
362.38	20.028
362.74	19.274
363.10	19.739
363.46	18.767
363.82	18.679
364.18	19.775
364.54	19.364
364.90	19.197
365.26	18.759
365.62	19.200
365.98	19.129
366.35	19.664
366.71	18.503
367.07	19.621
367.43	18.647
367.79	19.774
368.15	19.465
368.51	19.756
368.87	19.334
369.23	18.267
369.59	19.536
369.95	19.743
370.31	19.446
370.67	18.845
371.03	19.183
371.39	18.603
371.75	18.982
372.11	18.835
372.47	19.228
372.83	19.764
373.19	19.213
373.55	18.631
373.91	17.928
374.27	19.664
374.63	19.892
374.99	19.231
375.35	19.221
375.71	19.548
376.07	19.561
376.42	19.332
376.78	19.142
377.14	19.089
377.50	19.165
377.86	19.273
378.22	18.922
378.58	20.273
378.94	18.486
379.30	19.274
379.66	19.459
380.02	19.158
380.38	19.124
380.74	19.549
381.09	19.222
381.45	18.807
381.81	19.204
382.17	19.893
382.53	18.655
382.89	19.695
383.25	19.871
383.61	17.940
383.97	19.317
384.32	19.438
384.68	17.981
385.04	18.508
385.40	19.564
385.76	19.168
386.12	18.552
386.48	19.588
386.83	20.322
387.19	19.293
387.55	19.484
387.91	18.208
388.27	19.630
388.62	18.843
388.98	18.387
389.34	19.446
389.70	19.117
390.06	19.124
390.42	19.217
390.77	19.627
391.13	18.486
391.49	19.444
391.85	18.182
392.20	18.683
392.56	19.019
392.92	19.684
393.28	19.569
393.64	19.385
393.99	19.640
394.35	19.685
394.71	19.701
395.07	18.743
395.42	18.789
395.78	19.317
396.14	18.360
396.50	18.646
396.85	18.247
397.21	18.994
397.57	18.846
397.92	19.416
398.28	19.011
398.64	18.879
399.00	18.429
399.35	18.429
399.71	18.424
400.07	18.866
400.42	18.393
400.78	18.519
401.14	19.408
401.49	18.761
401.85	18.721
402.21	18.888
402.57	19.601
402.92	18.676
403.28	18.618
403.63	18.258
403.99	18.587
404.35	17.851
404.70	18.187
405.06	18.696
405.42	18.384
405.77	18.539
406.13	17.396
406.49	18.356
406.84	18.172
407.20	17.831
407.55	17.262
407.91	17.788
408.27	18.375
408.62	18.790
408.98	17.818
409.34	16.950
409.69	17.985
410.05	18.523
410.40	19.316
410.76	17.555
411.11	18.352
411.47	17.629
411.83	18.871
412.18	18.072
412.54	17.724
412.89	18.626
413.25	17.720
413.60	17.404
413.96	17.716
414.31	17.224
414.67	17.889
415.03	17.846
415.38	17.402
415.74	18.448
416.09	18.260
416.45	17.470
416.80	17.442
417.16	18.263
417.51	17.310
417.87	17.167
418.22	18.084
418.58	17.906
418.93	17.986
419.29	18.064
419.64	17.407
420.00	17.270
420.35	18.024
420.71	17.863
421.06	17.136
421.42	18.062
421.77	17.824
422.12	17.759
422.48	17.409
422.83	18.620
423.19	17.666
423.54	17.644
423.90	17.394
424.25	17.707
424.61	16.590
424.96	17.353
425.31	17.410
425.67	17.499
426.02	17.100
426.38	17.968
426.73	17.801
427.09	17.993
427.44	17.531
427.79	17.247
428.15	16.838
428.50	17.472
428.85	16.762
429.21	17.553
429.56	17.325
429.92	18.133
430.27	17.253
430.62	18.466
430.98	18.151
431.33	17.155
431.68	17.098
432.04	17.674
432.39	17.675
432.74	17.123
433.10	18.172
433.45	16.555
433.80	17.328
434.16	18.285
434.51	18.088
434.86	17.644
435.22	18.278
435.57	17.689
435.92	18.420
436.28	17.691
436.63	17.750
436.98	17.552
437.34	17.700
437.69	17.556
438.04	17.345
438.39	17.117
438.75	16.989
439.10	17.548
439.45	17.719
439.81	18.023
440.16	17.694
440.51	17.559
440.86	17.788
441.22	18.060
441.57	17.925
441.92	18.914
442.27	18.232
442.63	18.182
442.98	18.303
443.33	17.570
443.68	18.335
444.03	18.862
444.39	18.308
444.74	18.019
445.09	18.652
445.44	17.808
445.79	18.391
446.15	18.243
446.50	17.984
446.85	18.531
447.20	18.859
447.55	18.724
447.91	17.696
448.26	18.288
448.61	18.385
448.96	18.616
449.31	17.869
449.66	17.865
450.02	18.354
450.37	18.966
450.72	17.707
451.07	17.882
451.42	18.429
451.77	17.621
452.12	18.792
452.47	18.004
452.83	18.694
453.18	18.681
453.53	17.346
453.88	18.664
454.23	18.475
454.58	18.514
454.93	16.808
455.28	18.242
455.63	18.420
455.98	17.989
456.34	18.021
456.69	18.225
457.04	18.085
457.39	18.071
457.74	19.128
458.09	17.463
458.44	18.534
458.79	18.618
459.14	18.144
459.49	18.563
459.84	17.629
460.19	17.490
460.54	18.228
460.89	18.052
461.24	17.644
461.59	17.764
461.94	17.570
462.29	18.589
462.64	17.139
462.99	17.577
463.34	18.105
463.69	17.878
464.04	17.399
464.39	17.825
464.74	17.788
465.09	17.532
465.44	18.240
465.79	18.244
466.14	17.613
466.49	17.474
466.84	17.796
467.19	17.630
467.54	17.450
467.89	17.816
468.24	17.673
468.59	16.966
468.94	16.958
469.29	17.696
469.64	17.483
469.99	17.846
470.34	17.946
470.68	19.002
471.03	18.140
471.38	17.462
471.73	17.295
472.08	17.132
472.43	16.797
472.78	16.625
473.13	17.889
473.48	17.825
473.83	17.818
474.17	17.233
474.52	17.498
474.87	17.940
475.22	17.972
475.57	16.874
475.92	16.924
476.27	17.465
476.61	17.394
476.96	17.205
477.31	17.822
477.66	17.943
478.01	16.980
478.36	17.348
478.70	17.783
479.05	17.996
479.40	17.374
479.75	17.675
480.10	16.627
480.45	17.411
480.79	17.143
481.14	16.682
481.49	16.901
481.84	18.407
482.19	17.505
482.53	17.272
482.88	17.191
483.23	17.519
483.58	17.380
483.92	16.002
484.27	16.850
484.62	16.625
484.97	16.991
485.31	17.001
485.66	16.581
486.01	16.436
486.36	16.577
486.70	17.036
487.05	17.036
487.40	16.926
487.75	16.947
488.09	17.019
488.44	16.369
488.79	16.931
489.13	16.872
489.48	16.621
489.83	16.298
490.17	16.444
490.52	16.667
490.87	16.497
491.22	16.898
491.56	16.041
491.91	16.485
492.26	16.530
492.60	16.572
492.95	16.060
493.30	16.584
493.64	16.382
493.99	15.833
494.34	15.592
494.68	16.702
495.03	16.123
495.37	16.423
495.72	16.735
496.07	16.564
496.41	16.431
496.76	16.472
497.11	16.433
497.45	16.444
497.80	16.793
498.14	16.327
498.49	16.039
498.84	17.048
499.18	16.374
499.53	16.726
499.87	15.736
500.22	15.583
500.56	15.834
500.91	16.247
501.26	15.818
501.60	16.350
501.95	15.545
502.29	16.191
502.64	15.829
502.98	15.315
503.33	15.594
503.67	14.959
504.02	15.412
504.36	16.175
504.71	16.445
505.06	16.098
505.40	15.265
505.75	15.938
506.09	16.206
506.44	15.831
506.78	15.826
507.13	16.229
507.47	15.964
507.82	16.098
508.16	15.583
508.51	15.002
508.85	15.541
509.19	15.159
509.54	16.090
509.88	15.347
510.23	15.590
510.57	16.288
510.92	15.288
511.26	16.162
511.61	15.065
511.95	15.617
512.30	15.657
512.64	15.242
512.98	15.558
513.33	15.978
513.67	15.757
514.02	15.789
514.36	15.038
514.70	15.417
515.05	16.371
515.39	15.906
515.74	16.490
516.08	14.844
516.42	16.222
516.77	16.036
517.11	15.317
517.46	16.119
517.80	16.515
518.14	16.431
518.49	15.998
518.83	15.274
519.17	15.240
519.52	15.618
519.86	15.206
520.20	15.602
520.55	15.663
520.89	16.160
521.23	15.913
521.58	15.763
521.92	15.694
522.26	15.407
522.61	15.799
522.95	15.340
523.29	15.172
523.64	15.471
523.98	15.459
524.32	15.759
524.66	15.367
525.01	15.459
525.35	14.360
525.69	15.777
526.04	15.212
526.38	15.805
526.72	16.263
527.06	15.601
527.41	15.452
527.75	16.033
528.09	15.584
528.43	15.216
528.78	15.202
529.12	15.023
529.46	15.346
529.80	14.874
530.15	15.362
530.49	14.828
530.83	15.112
531.17	14.994
531.51	15.042
531.86	15.805
532.20	16.037
532.54	15.320
532.88	15.212
533.22	14.673
533.57	14.657
533.91	15.825
534.25	14.867
534.59	15.460
534.93	14.431
535.27	14.028
535.62	15.122
535.96	15.049
536.30	14.747
536.64	14.895
536.98	15.129
537.32	15.247
537.66	14.410
538.01	14.683
538.35	14.373
538.69	14.483
539.03	15.021
539.37	14.605
539.71	14.775
540.05	14.688
540.39	13.998
540.73	14.693
541.07	14.776
541.42	14.235
541.76	14.591
542.10	13.872
542.44	14.251
542.78	14.903
543.12	14.362
543.46	14.103
543.80	13.909
544.14	13.585
544.48	15.012
544.82	14.363
545.16	14.073
545.50	13.960
545.84	14.207
546.18	15.432
546.52	14.522
546.86	14.654
547.20	14.567
547.54	13.983
547.88	13.080
548.22	13.684
548.56	13.926
548.90	13.731
549.24	14.711
549.58	13.691
549.92	14.031
550.26	14.822
550.60	13.720
550.94	14.036
551.28	14.257
551.62	14.151
551.96	13.981
552.30	14.085
552.64	13.503
552.98	13.475
553.32	13.248
553.66	14.212
554.00	14.565
554.34	13.900
554.68	13.299
555.02	13.732
555.36	14.333
555.69	13.261
556.03	12.547
556.37	13.579
556.71	13.633
557.05	14.058
557.39	12.940
557.73	14.069
558.07	12.781
558.41	13.953
558.75	12.576
559.08	13.709
559.42	13.100
559.76	14.722
560.10	12.994
560.44	13.654
560.78	13.250
561.12	13.424
561.45	13.990
561.79	13.126
562.13	13.863
562.47	12.639
562.81	12.848
563.15	13.131
563.48	14.046
563.82	12.696
564.16	12.598
564.50	12.217
564.84	12.920
565.17	13.353
565.51	12.601
565.85	13.302
566.19	12.673
566.52	12.346
566.86	12.620
567.20	12.724
567.54	12.905
567.88	12.640
568.21	12.846
568.55	12.086
568.89	12.937
569.23	13.012
569.56	12.153
569.90	12.402
570.24	12.985
570.57	12.251
570.91	12.094
571.25	12.207
571.59	12.246
571.92	12.260
572.26	12.282
572.60	11.684
572.93	12.218
573.27	12.194
573.61	12.043
573.95	12.163
574.28	11.750
574.62	11.710
574.96	11.535
575.29	11.324
575.63	11.527
575.97	12.024
576.30	11.794
576.64	11.477
576.98	11.344
577.31	11.717
577.65	11.948
577.98	11.691
578.32	11.197
578.66	11.798
578.99	11.591
579.33	12.028
579.67	11.333
580.00	11.823
580.34	11.802
580.67	11.584
581.01	11.878
581.35	11.611
581.68	11.393
582.02	11.515
582.35	11.690
582.69	11.563
583.02	11.381
583.36	11.399
583.70	11.588
584.03	11.207
584.37	11.306
584.70	11.222
585.04	10.881
585.37	11.091
585.71	11.219
586.04	11.052
586.38	11.560
586.72	11.181
587.05	10.924
587.39	11.319
587.72	11.627
588.06	11.364
588.39	11.153
588.73	11.190
589.06	11.258
589.40	11.678
589.73	11.407
590.07	10.975
590.40	11.663
590.73	11.311
591.07	11.318
591.40	11.081
591.74	10.890
592.07	11.084
592.41	10.686
592.74	11.289
593.08	11.656
593.41	11.694
593.75	10.948
594.08	11.088
594.41	11.058
594.75	10.960
595.08	10.700
595.42	10.942
595.75	11.108
596.09	10.979
596.42	10.820
596.75	11.308
597.09	11.030
597.42	10.807
597.75	11.015
598.09	11.190
598.42	11.057
598.76	10.394
599.09	10.644
599.42	11.163
599.76	10.631
600.09	10.811
600.42	10.711
600.76	10.733
601.09	10.488
601.42	10.264
601.76	10.793
602.09	10.686
602.42	10.578
602.76	10.332
603.09	10.646
603.42	10.477
603.76	10.395
604.09	11.427
604.42	10.679
604.76	10.084
605.09	10.810
605.42	11.045
605.75	11.000
606.09	10.414
606.42	10.106
606.75	10.345
607.09	10.061
607.42	9.981
607.75	10.238
608.08	9.471
608.42	10.480
608.75	10.489
609.08	10.229
609.41	9.925
609.75	10.223
610.08	10.642
610.41	10.068
610.74	10.462
611.07	9.636
611.41	10.404
611.74	11.085
612.07	10.472
612.40	9.838
612.73	10.611
613.07	10.513
613.40	10.731
613.73	10.063
614.06	9.961
614.39	10.010
614.72	9.898
615.06	9.528
615.39	10.295
615.72	10.095
616.05	9.811
616.38	9.990
616.71	10.920
617.05	9.531
617.38	10.326
617.71	10.583
618.04	10.038
618.37	10.710
618.70	10.577
619.03	9.259
619.36	10.296
619.69	10.506
620.03	9.981
620.36	10.245
620.69	10.117
621.02	9.843
621.35	9.797
621.68	10.774
622.01	9.609
622.34	9.344
622.67	10.584
623.00	9.042
623.33	9.887
623.66	9.857
623.99	9.546
624.32	10.266
624.65	10.360
624.99	8.973
625.32	10.124
625.65	9.305
625.98	9.220
626.31	10.843
626.64	10.623
626.97	8.927
627.30	9.339
627.63	9.677
627.96	10.736
628.29	10.117
628.62	9.908
628.95	9.378
629.28	8.836
629.61	10.269
629.94	10.377
630.26	9.915
630.59	9.499
630.92	9.091
631.25	10.376
631.58	10.169
631.91	9.653
632.24	9.990
632.57	9.393
632.90	9.328
633.23	8.776
633.56	10.510
633.89	8.368
634.22	8.836
634.55	10.543
634.88	9.740
635.20	9.903
635.53	10.734
635.86	8.884
636.19	11.029
636.52	10.759
636.85	9.806
637.18	9.459
637.51	8.925
637.83	10.853
638.16	8.410
638.49	9.742
638.82	10.259
639.15	10.195
639.48	12.009
639.81	9.815
640.13	9.423
640.46	8.242
640.79	8.578
641.12	10.807
641.45	10.414
641.77	11.553
642.10	9.449
642.43	11.569
642.76	10.298
643.09	9.041
643.41	8.543
643.74	8.276
644.07	11.172
644.40	8.062
644.73	8.999
645.05	9.838
645.38	10.216
645.71	8.504
646.04	11.908
646.36	7.737
646.69	8.436
647.02	11.774
647.35	10.534
647.67	10.467
648.00	9.713
648.33	8.408
648.66	7.275
648.98	8.163
649.31	9.878
649.64	9.827
649.96	9.549
650.29	7.789
650.62	9.618
650.94	8.108
651.27	8.084
651.60	8.333
651.92	7.143
652.25	8.683
652.58	9.354
652.90	8.576
653.23	10.563
653.56	8.987
653.88	11.376
654.21	8.451
654.54	8.382
654.86	10.907
655.19	9.034
655.52	8.699
655.84	8.035
656.17	9.729
656.49	13.819
656.82	15.475
657.15	12.120
657.47	9.236
657.80	6.667
658.13	5.250
658.45	6.870
658.78	8.576
659.10	8.337
659.43	8.318
659.75	7.904
660.08	7.619
660.41	8.023
660.73	7.298
661.06	6.902
661.38	9.569
661.71	7.759
662.03	8.289
662.36	10.197
662.68	8.255
663.01	9.558
663.33	9.074
663.66	10.623
663.98	10.000
664.31	10.882
664.63	7.514
664.96	7.985
665.28	7.441
665.61	9.965
665.93	7.679
666.26	8.065
666.58	7.749
666.91	8.411
667.23	9.333
667.56	9.073
667.88	9.000
668.21	8.398
668.53	6.564
668.86	8.251
669.18	8.350
669.50	8.946
669.83	7.800
670.15	7.874
670.48	10.714
670.80	6.310
671.13	8.318
671.45	8.465
671.77	9.981
672.10	7.667
672.42	8.091
672.75	9.217
673.07	7.761
673.39	6.934
673.72	8.725
674.04	7.414
674.37	7.156
674.69	7.937
675.01	8.000
675.34	6.107
675.66	7.303
675.98	7.836
676.31	7.031
676.63	9.886
676.95	7.280
677.28	7.661
677.60	7.283
677.92	8.637
678.25	8.592
678.57	8.007
678.89	7.167
679.22	6.446
679.54	8.376
679.86	7.119
680.18	8.126
680.51	8.176
680.83	8.020
681.15	7.759
681.48	8.808
681.80	8.463
682.12	9.790
682.44	7.346
682.77	7.270
683.09	8.144
683.41	7.558
683.73	7.780
684.06	7.565
684.38	6.440
684.70	7.181
685.02	9.122
685.34	5.824
685.67	7.729
685.99	7.822
686.31	6.250
686.63	7.109
686.96	7.729
687.28	8.306
687.60	7.239
687.92	8.842
688.24	8.848
688.56	5.517
688.89	8.348
689.21	7.045
689.53	6.275
689.85	6.706
690.17	7.593
690.49	7.570
690.82	7.921
691.14	6.275
691.46	5.927
691.78	8.287
692.10	6.606
692.42	6.607
692.74	8.348
693.06	6.481
693.39	7.970
693.71	8.459
694.03	7.063
694.35	8.190
694.67	8.214
694.99	8.085
695.31	6.402
695.63	7.576
695.95	7.039
696.27	5.275
696.59	8.628
696.91	9.009
697.23	9.451
697.56	7.128
697.88	7.008
698.20	6.591
698.52	9.659
698.84	7.069
699.16	7.551
699.48	8.996
699.80	6.596
700.12	7.860
700.44	8.065
700.76	7.126
701.08	9.201
701.40	8.031
701.72	8.209
702.04	8.021
702.36	6.545
702.68	7.824
703.00	6.112
703.32	7.389
703.64	7.335
703.96	8.592
704.28	7.617
704.60	7.089
704.91	7.143
705.23	6.027
705.55	5.571
705.87	6.364
706.19	10.429
706.51	3.916
706.83	6.628
707.15	2.910
707.47	5.374
707.79	8.515
708.11	4.025
708.43	6.667
708.74	6.473
709.06	7.193
709.38	7.512
709.70	8.685
710.02	6.718
710.34	7.181
710.66	1.676
710.98	6.284
711.29	5.495
711.61	6.497
711.93	7.977
712.25	5.405
712.57	7.670
712.89	8.824
713.20	7.396
713.52	8.671
713.84	6.964
714.16	9.737
714.48	8.505
714.80	9.610
715.11	7.087
715.43	7.162
715.75	7.105
716.07	6.354
716.39	9.563
716.70	4.518
717.02	8.197
717.34	3.833
717.66	2.349
717.97	7.534
718.29	4.467
718.61	3.289
718.93	7.767
719.24	5.590
719.56	5.521
719.88	7.808
720.20	4.194
720.51	4.658
720.83	6.250
721.15	6.908
721.46	1.370
721.78	5.333
722.10	5.502
722.42	1.342
722.73	7.097
723.05	4.912
723.37	3.819
723.68	7.885
724.00	8.303
724.32	7.746
724.63	8.392
724.95	8.156
725.27	5.575
725.58	6.360
725.90	9.310
726.22	10.031
726.53	6.494
726.85	6.289
727.16	3.021
727.48	7.645
727.80	4.636
728.11	3.887
728.43	4.714
728.74	1.338
729.06	5.629
729.38	8.766
729.69	3.356
730.01	5.655
730.32	5.758
730.64	5.975
730.96	5.280
731.27	8.101
731.59	7.692
731.90	3.896
732.22	5.990
732.53	3.315
732.85	6.286
733.16	4.399
733.48	2.134
733.80	6.128
734.11	5.698
734.43	6.486
734.74	6.076
735.06	4.774
735.37	4.324
735.69	6.216
736.00	7.062
736.32	5.930
736.63	6.944
736.95	8.908
737.26	5.758
737.58	2.727
737.89	10.000
738.21	4.587
738.52	3.607
738.83	10.922
739.15	4.255
739.46	3.741
739.78	3.681
740.09	5.158
740.41	7.872
740.72	5.667
741.04	8.414
741.35	7.368
741.66	8.627
741.98	4.918
742.29	1.255
742.61	5.702
742.92	7.308
743.23	6.859
743.55	3.101
743.86	0.400
744.18	2.479
744.49	1.688
744.80	3.292
745.12	5.907
745.43	8.943
745.74	3.448
746.06	3.390
746.37	4.641
746.68	2.846
747.00	2.083
747.31	5.150
747.62	7.308
747.94	4.453
748.25	3.614
748.56	0.816
748.88	3.846
749.19	5.603
749.50	-0.433
749.82	9.639
750.13	5.694
750.44	3.333
750.75	4.000
751.07	6.769
751.38	5.363
751.69	4.153
752.01	3.560
752.32	4.902
752.63	4.082
752.94	2.422
753.26	2.230
753.57	4.444
753.88	3.745
754.19	2.894
754.51	3.215
754.82	8.682
755.13	8.197
755.44	8.532
755.75	6.250
756.07	5.672
756.38	2.830
756.69	9.940
757.00	3.878
757.31	5.738
757.63	3.325
757.94	5.634
758.25	7.223
758.56	4.357
758.87	5.682
759.18	4.267
759.50	5.666
759.81	6.443
760.12	6.469
760.43	6.250
760.74	4.926
761.05	4.250
761.36	3.614
761.67	4.315
761.99	6.216
762.30	5.183
762.61	0.990
762.92	0.000
763.23	7.491
763.54	5.396
763.85	5.498
764.16	5.387
764.47	7.042
764.78	6.709
765.10	7.038
765.41	6.667
765.72	1.587
766.03	5.932
766.34	4.702
766.65	-1.045
766.96	5.976
767.27	8.295
767.58	1.493
767.89	11.058
768.20	3.286
768.51	2.315
768.82	4.418
769.13	5.303
769.44	-2.308
769.75	3.971
770.06	4.231
770.37	5.906
770.68	2.128
770.99	-0.810
771.30	8.519
771.61	5.323
771.92	2.963
772.23	6.478
772.54	-0.463
772.85	7.373
773.16	6.667
773.47	8.466
773.78	-1.081
774.09	3.977
774.39	7.000
774.70	5.464
775.01	1.829
775.32	-1.176
775.63	6.135
775.94	3.185
776.25	7.097
776.56	4.487
776.87	5.442
777.18	2.069
777.48	-1.399
777.79	-0.676
778.10	-0.735
778.41	8.333
778.72	4.138
779.03	2.469
779.34	4.242
779.65	3.109
779.95	6.667
780.26	3.409
780.57	0.645
780.88	4.348
781.19	6.452
781.50	1.176
781.80	6.452
782.11	3.704
782.42	2.525
782.73	1.198
783.04	1.676
783.34	0.606
783.65	-6.536
783.96	1.863
784.27	7.738
784.57	6.623
784.88	-0.714
785.19	2.362
785.50	3.150
785.81	6.767
786.11	1.538
786.42	0.719
786.73	0.000
787.04	6.767
787.34	4.098
787.65	1.600
787.96	8.209
788.26	13.986
788.57	8.392
788.88	3.289
789.19	7.190
789.49	-0.685
789.80	-1.418
790.11	-0.787
790.41	0.781
790.72	5.932
791.03	-13.592
791.33	4.348
791.64	2.632
791.95	6.250
792.25	3.810
792.56	0.893
792.87	-6.250
793.17	1.786
793.48	-3.125
793.79	-9.639
794.09	6.422
794.40	-0.917
794.70	2.041
795.01	-1.948
795.32	-0.685
795.62	4.930
795.93	3.788
796.23	4.098
796.54	-1.786
796.85	6.383
797.15	2.174
797.46	-6.849
797.76	1.250
798.07	-3.261
798.37	0.000
798.68	-5.195
798.99	-1.149
799.29	-2.247
799.60	2.128
799.90	-13.253
800.21	-12.308
800.51	-2.985
800.82	-1.471
801.12	-19.178
801.43	-17.647
801.73	-25.424
802.04	-1.515
802.34	-8.333
802.65	-5.085
802.95	0.000
803.26	-6.780
803.56	-19.178
803.87	-7.143
804.17	4.110
804.48	-28.070
804.78	-4.167
805.09	-18.966
805.39	14.865
805.70	-15.493
806.00	3.659
806.30	2.410
806.61	-24.658
806.91	6.731
807.22	-5.556
807.52	-11.494
807.83	-6.944
808.13	4.819
808.43	-6.742
808.74	3.750
809.04	-1.471
809.35	-1.333
809.65	-12.857
809.95	5.479
810.26	-14.035
810.56	-10.345
810.86	0.000
811.17	-5.263
811.47	-14.754
811.77	-11.111
812.08	-5.085
812.38	-5.000
812.69	-17.241
812.99	-18.868
813.29	-51.282
813.59	-8.000
813.90	-5.263
814.20	-16.364
814.50	7.042
814.81	6.410
815.11	-1.639
815.41	1.493
815.72	18.966
816.02	-1.786
816.32	4.444
816.62	15.909
816.93	-8.889
817.23	0.000
817.53	-8.511
817.84	-4.762
818.14	-5.882
818.44	2.041
818.74	2.222
819.04	-41.026
819.35	-25.714
819.65	-57.692
819.95	-9.434
820.25	8.889
820.56	-30.952
820.86	-6.250
821.16	-30.769
821.46	-16.279
821.76	-8.000
822.07	-26.786
822.37	-4.348
822.67	-17.021
822.97	-32.432
823.27	-22.500
823.57	-8.163
823.88	2.222
824.18	-20.000
824.48	-33.333
824.78	-84.000
825.08	0.000
825.38	-4.444
825.69	-14.894
825.99	-13.889
826.29	-57.143
826.59	-25.641
826.89	-27.907
827.19	-8.000
827.49	-8.824
827.79	-2.083
828.09	-24.324
828.39	-26.667
828.70	-24.390
829.00	-2.326
829.30	-39.286
829.60	8.824
829.90	-8.696
830.20	-17.143
830.50	-37.931
830.80	-22.222
831.10	-42.308
831.40	-26.471
831.70	0.000
832.00	22.581
832.30	-82.353
832.60	-29.167
832.90	-92.308
833.20	-31.579
833.50	-45.000
833.80	-15.789
834.10	-90.476
834.40	-2.778
834.70	25.000
835.00	-57.143
835.30	-14.706
835.60	-23.333
835.90	8.000
836.20	-54.545
836.50	-12.000
836.80	-30.303
837.10	-40.741
837.40	3.704
837.70	-100.000
838.00	-7.143
838.30	-47.826
838.60	3.448
838.90	-28.571
839.19	-56.522
839.49	-183.333
839.79	-34.783
840.09	-62.500
840.39	-55.000
840.69	35.484
840.99	-28.571
841.29	-6.667
841.59	-57.895
841.88	35.897
842.18	-30.769
842.48	-220.000
842.78	-80.000
843.08	-50.000
843.38	12.903
843.68	-72.222
843.97	23.529
844.27	-43.750
844.57	0.000
844.87	-40.000
845.17	-66.667
845.47	4.762
845.76	-61.905
846.06	-200.000
846.36	-105.882
846.66	-15.385
846.96	-100.000
847.25	-41.176
847.55	-4.348
847.85	-35.000
848.15	-5.882
848.44	-109.091
848.74	-19.048
849.04	-50.000
849.34	-18.750
849.63	8.696
849.93	950.000
850.23	-53.333
850.53	15.385
850.82	27.273
851.12	22.727
851.42	-54.545
851.71	23.077
852.01	-90.000
852.31	-38.462
852.61	-26.316
852.90	-66.667
853.20	-33.333
853.50	-88.889
853.79	-23.810
854.09	-31.818
854.39	-175.000
854.68	-6.452
854.98	-46.154
855.28	-44.444
855.57	-25.000
855.87	4.000
856.17	-36.364
856.46	-18.519
856.76	-72.222
857.05	-56.522
857.35	-37.500
857.65	-107.692
857.94	4.762
858.24	7.407
858.53	-30.435
858.83	-5.882
859.13	-58.824
859.42	-47.059
859.72	-14.286
860.01	-65.000
860.31	-100.000
860.60	-50.000
860.90	-40.000
861.20	-38.889
861.49	-7.692
861.79	-13.333
862.08	-100.000
862.38	-12.500
862.67	17.647
862.97	-31.250
863.26	-155.556
863.56	-90.000
863.85	-81.818
864.15	-11.111
864.44	-333.333
864.74	-85.714
865.03	-18.750
865.33	-90.000
865.62	-25.806
865.92	-4.545
866.21	-4.348
866.51	14.286
866.80	-300.000
867.10	-141.667
867.39	-191.667
867.69	1100.000
867.98	28.571
868.27	-23.529
868.57	-1500.000
868.86	-80.000
869.16	-28.571
869.45	-37.500
869.75	-27.273
870.04	-114.286
870.33	-33.333
870.63	-257.143
870.92	50.000
871.22	-200.000
871.51	-136.364
871.80	-866.667
872.10	-300.000
>>>>>End Processed Spectral Data<<<<<
