SpectraSuite Data File
++++++++++++++++++++++++++++++++++++
Date: Thu May 14 16:14:48 PDT 2015
User: schluterlab
Dark Spectrum Present: Yes
Reference Spectrum Present: Yes
Number of Sampled Component Spectra: 1
Spectrometers: USB2E3373
Integration Time (usec): 3000 (USB2E3373)
Spectra Averaged: 3 (USB2E3373)
Boxcar Smoothing: 0 (USB2E3373)
Correct for Electrical Dark: No (USB2E3373)
Strobe/Lamp Enabled: No (USB2E3373)
Correct for Detector Non-linearity: No (USB2E3373)
Correct for Stray Light: No (USB2E3373)
Number of Pixels in Processed Spectrum: 2048
>>>>>Begin Processed Spectral Data<<<<<
178.53	0.000
178.91	100.000
179.29	-1200.000
179.67	-700.000
180.04	164.286
180.42	50.000
180.80	220.000
181.18	-700.000
181.56	400.000
181.94	300.000
182.31	-150.000
182.69	33.333
183.07	-350.000
183.45	325.000
183.83	-16.667
184.20	0.000
184.58	1100.000
184.96	-150.000
185.34	33.333
185.72	0.000
186.09	166.667
186.47	200.000
186.85	200.000
187.23	-133.333
187.61	-800.000
187.98	140.000
188.36	-0.000
188.74	-400.000
189.12	-100.000
189.49	0.000
189.87	-50.000
190.25	33.333
190.63	100.000
191.00	-144.444
191.38	0.000
191.76	-275.000
192.14	-16.667
192.51	400.000
192.89	50.000
193.27	0.000
193.65	0.000
194.02	-800.000
194.40	57.143
194.78	-0.000
195.15	0.000
195.53	45.455
195.91	0.000
196.29	175.000
196.66	7.692
197.04	-600.000
197.42	-85.714
197.79	-400.000
198.17	-25.000
198.55	-28.571
198.92	44.444
199.30	-125.000
199.68	18.182
200.05	50.000
200.43	-800.000
200.81	114.286
201.18	0.000
201.56	55.556
201.94	0.000
202.31	-0.000
202.69	-111.111
203.07	700.000
203.44	-44.444
203.82	0.000
204.19	-83.333
204.57	83.333
204.95	0.000
205.32	-500.000
205.70	75.000
206.08	66.667
206.45	83.333
206.83	240.000
207.20	16.667
207.58	-100.000
207.96	-166.667
208.33	16.667
208.71	41.667
209.08	16.667
209.46	0.000
209.84	116.667
210.21	-0.000
210.59	200.000
210.96	266.667
211.34	-75.000
211.71	-100.000
212.09	200.000
212.46	0.000
212.84	750.000
213.22	-120.000
213.59	-225.000
213.97	-10.000
214.34	33.333
214.72	183.333
215.09	-200.000
215.47	0.000
215.84	157.143
216.22	700.000
216.59	-100.000
216.97	-180.000
217.34	-125.000
217.72	25.000
218.09	-400.000
218.47	-275.000
218.84	0.000
219.22	140.000
219.59	-35.294
219.97	10.000
220.34	200.000
220.72	-55.556
221.09	92.308
221.47	-233.333
221.84	-20.000
222.22	-57.143
222.59	0.000
222.97	-37.500
223.34	-140.000
223.72	200.000
224.09	-125.000
224.46	-300.000
224.84	40.000
225.21	-71.429
225.59	-75.000
225.96	-50.000
226.34	-7.692
226.71	150.000
227.08	-100.000
227.46	-33.333
227.83	-125.000
228.21	-5.263
228.58	-25.000
228.95	250.000
229.33	100.000
229.70	-90.000
230.08	-5.263
230.45	90.000
230.82	-66.667
231.20	7.143
231.57	16.667
231.95	9.091
232.32	0.000
232.69	5.000
233.07	-75.000
233.44	5.882
233.81	-30.000
234.19	77.778
234.56	4.545
234.93	34.483
235.31	5.263
235.68	44.444
236.05	5.000
236.43	46.154
236.80	4.000
237.17	25.926
237.55	27.273
237.92	-60.000
238.29	0.000
238.67	20.455
239.04	38.889
239.41	21.429
239.79	30.435
240.16	18.519
240.53	34.783
240.91	25.490
241.28	32.787
241.65	32.836
242.02	41.892
242.40	30.769
242.77	29.333
243.14	29.268
243.51	15.789
243.89	28.205
244.26	32.673
244.63	30.392
245.00	36.449
245.38	19.298
245.75	17.699
246.12	23.810
246.49	32.558
246.87	37.143
247.24	37.086
247.61	35.526
247.98	29.530
248.36	29.012
248.73	23.926
249.10	37.158
249.47	35.323
249.84	34.555
250.22	26.425
250.59	33.333
250.96	34.545
251.33	26.020
251.70	29.487
252.08	30.000
252.45	35.656
252.82	32.645
253.19	29.688
253.56	35.741
253.94	28.462
254.31	35.985
254.68	39.161
255.05	33.876
255.42	30.952
255.79	32.039
256.16	28.477
256.54	33.444
256.91	35.082
257.28	32.787
257.65	30.892
258.02	29.204
258.39	33.048
258.76	38.226
259.14	35.920
259.51	33.718
259.88	31.445
260.25	33.611
260.62	31.507
260.99	33.607
261.36	34.316
261.73	33.687
262.10	35.165
262.47	32.440
262.85	36.364
263.22	33.247
263.59	31.842
263.96	34.271
264.33	33.760
264.70	37.037
265.07	33.413
265.44	35.374
265.81	34.259
266.18	34.014
266.55	34.598
266.92	30.979
267.29	34.354
267.66	34.146
268.03	33.188
268.40	32.150
268.77	30.068
269.14	33.700
269.51	32.456
269.88	33.811
270.25	31.791
270.62	35.865
270.99	36.364
271.36	32.475
271.73	32.220
272.10	34.669
272.47	33.467
272.84	31.124
273.21	33.066
273.58	35.081
273.95	31.154
274.32	30.989
274.69	30.948
275.06	32.967
275.43	31.608
275.80	32.275
276.17	29.444
276.54	33.022
276.91	32.916
277.28	31.284
277.65	33.214
278.02	36.213
278.39	31.884
278.76	32.337
279.13	32.979
279.50	32.131
279.87	30.411
280.23	29.577
280.60	31.356
280.97	32.072
281.34	31.070
281.71	33.164
282.08	31.728
282.45	29.460
282.82	29.670
283.19	30.372
283.56	30.820
283.92	33.784
284.29	32.859
284.66	32.348
285.03	28.526
285.40	31.530
285.77	29.257
286.14	30.840
286.51	32.420
286.87	30.174
287.24	30.422
287.61	29.895
287.98	27.946
288.35	30.769
288.72	30.769
289.08	31.040
289.45	29.438
289.82	28.313
290.19	30.460
290.56	29.859
290.93	28.388
291.29	28.099
291.66	27.686
292.03	26.052
292.40	28.707
292.77	25.337
293.13	28.146
293.50	25.887
293.87	24.832
294.24	28.800
294.60	25.411
294.97	25.369
295.34	27.657
295.71	25.725
296.08	25.840
296.44	26.961
296.81	25.579
297.18	24.408
297.55	24.057
297.91	25.741
298.28	25.000
298.65	24.138
299.02	23.377
299.38	24.256
299.75	24.650
300.12	23.380
300.48	23.157
300.85	23.172
301.22	23.937
301.59	23.174
301.95	24.859
302.32	24.333
302.69	23.768
303.05	23.504
303.42	24.058
303.79	23.021
304.15	23.554
304.52	23.467
304.89	24.084
305.25	22.567
305.62	24.869
305.99	23.299
306.35	23.992
306.72	22.544
307.09	23.147
307.45	22.464
307.82	22.402
308.19	22.099
308.55	24.397
308.92	23.759
309.29	23.180
309.65	22.612
310.02	23.663
310.38	23.031
310.75	25.243
311.12	24.353
311.48	24.633
311.85	24.311
312.22	24.478
312.58	23.662
312.95	23.709
313.31	23.848
313.68	24.542
314.05	24.481
314.41	25.956
314.78	24.342
315.14	25.227
315.51	25.485
315.87	26.913
316.24	26.484
316.61	26.021
316.97	24.615
317.34	25.926
317.70	26.638
318.07	26.279
318.43	27.126
318.80	27.759
319.16	25.665
319.53	27.421
319.89	25.942
320.26	28.381
320.62	27.216
320.99	28.070
321.35	27.726
321.72	27.628
322.08	28.133
322.45	28.275
322.81	28.159
323.18	28.850
323.54	28.966
323.91	28.381
324.27	29.174
324.64	30.059
325.00	27.363
325.37	29.894
325.73	29.917
326.10	29.440
326.46	31.107
326.83	30.745
327.19	29.843
327.56	31.383
327.92	29.583
328.29	29.839
328.65	29.816
329.01	30.457
329.38	31.171
329.74	30.137
330.11	30.137
330.47	30.160
330.84	32.644
331.20	30.750
331.56	31.369
331.93	31.883
332.29	32.288
332.66	31.395
333.02	31.072
333.38	31.040
333.75	31.818
334.11	31.860
334.48	31.601
334.84	31.776
335.20	30.982
335.57	31.197
335.93	31.818
336.29	30.616
336.66	31.203
337.02	30.184
337.38	32.228
337.75	31.405
338.11	30.782
338.47	31.431
338.84	31.810
339.20	29.992
339.56	30.148
339.93	30.296
340.29	29.871
340.65	30.089
341.02	29.848
341.38	31.043
341.74	30.670
342.11	31.376
342.47	31.533
342.83	31.481
343.20	30.253
343.56	31.596
343.92	30.504
344.28	31.094
344.65	31.240
345.01	31.357
345.37	31.260
345.73	29.306
346.10	30.967
346.46	31.250
346.82	30.112
347.19	31.474
347.55	30.880
347.91	30.609
348.27	31.108
348.63	31.150
349.00	30.723
349.36	31.822
349.72	30.506
350.08	31.798
350.45	31.407
350.81	30.015
351.17	29.925
351.53	31.539
351.89	31.283
352.26	30.299
352.62	30.896
352.98	30.687
353.34	30.172
353.70	31.664
354.07	30.775
354.43	29.613
354.79	31.264
355.15	30.611
355.51	31.798
355.87	30.516
356.24	31.635
356.60	30.229
356.96	31.134
357.32	30.929
357.68	30.454
358.04	30.090
358.40	31.119
358.77	31.506
359.13	30.059
359.49	31.673
359.85	30.674
360.21	31.133
360.57	31.084
360.93	31.241
361.29	31.158
361.66	31.789
362.02	32.568
362.38	31.694
362.74	32.263
363.10	32.393
363.46	31.925
363.82	31.534
364.18	31.949
364.54	32.296
364.90	31.505
365.26	32.276
365.62	32.200
365.98	32.403
366.35	31.879
366.71	33.537
367.07	31.664
367.43	31.648
367.79	32.714
368.15	32.508
368.51	32.273
368.87	32.462
369.23	32.200
369.59	32.719
369.95	33.739
370.31	32.613
370.67	32.737
371.03	32.410
371.39	33.177
371.75	33.769
372.11	33.469
372.47	33.311
372.83	33.966
373.19	33.356
373.55	32.927
373.91	32.175
374.27	32.277
374.63	33.153
374.99	33.621
375.35	34.091
375.71	33.355
376.07	33.764
376.42	34.005
376.78	33.934
377.14	32.626
377.50	34.219
377.86	33.313
378.22	34.491
378.58	34.304
378.94	34.448
379.30	33.861
379.66	33.862
380.02	34.564
380.38	33.986
380.74	34.873
381.09	34.669
381.45	34.602
381.81	35.012
382.17	34.561
382.53	33.977
382.89	34.142
383.25	34.877
383.61	33.218
383.97	34.040
384.32	34.988
384.68	35.151
385.04	34.876
385.40	35.710
385.76	35.932
386.12	35.069
386.48	35.412
386.83	36.591
387.19	34.994
387.55	34.742
387.91	35.217
388.27	35.450
388.62	35.052
388.98	34.913
389.34	35.298
389.70	36.084
390.06	36.530
390.42	35.482
390.77	36.183
391.13	34.742
391.49	36.775
391.85	36.303
392.20	35.765
392.56	35.735
392.92	35.442
393.28	35.987
393.64	35.475
393.99	35.735
394.35	37.383
394.71	36.467
395.07	35.150
395.42	35.123
395.78	37.477
396.14	36.958
396.50	36.283
396.85	36.136
397.21	36.450
397.57	36.572
397.92	36.598
398.28	36.230
398.64	35.355
399.00	35.916
399.35	35.812
399.71	36.739
400.07	36.440
400.42	37.078
400.78	36.400
401.14	35.686
401.49	36.725
401.85	36.453
402.21	36.385
402.57	37.031
402.92	37.530
403.28	35.714
403.63	36.516
403.99	35.629
404.35	35.986
404.70	36.261
405.06	35.924
405.42	36.417
405.77	36.914
406.13	36.683
406.49	36.824
406.84	36.731
407.20	36.389
407.55	36.584
407.91	37.398
408.27	36.690
408.62	36.766
408.98	37.261
409.34	35.601
409.69	38.257
410.05	35.932
410.40	38.109
410.76	36.287
411.11	37.347
411.47	36.732
411.83	37.566
412.18	36.928
412.54	36.870
412.89	37.136
413.25	36.343
413.60	37.392
413.96	37.413
414.31	36.487
414.67	36.613
415.03	36.431
415.38	36.381
415.74	37.202
416.09	36.706
416.45	35.567
416.80	35.924
417.16	36.973
417.51	35.679
417.87	36.910
418.22	36.886
418.58	36.617
418.93	37.194
419.29	36.313
419.64	36.315
420.00	36.261
420.35	36.665
420.71	35.554
421.06	36.400
421.42	37.557
421.77	35.380
422.12	36.469
422.48	36.303
422.83	36.364
423.19	35.809
423.54	37.168
423.90	35.947
424.25	36.373
424.61	34.902
424.96	36.409
425.31	35.987
425.67	36.500
426.02	36.746
426.38	35.362
426.73	36.551
427.09	37.313
427.44	35.281
427.79	36.374
428.15	34.932
428.50	35.506
428.85	35.476
429.21	36.543
429.56	34.748
429.92	35.971
430.27	36.627
430.62	35.564
430.98	35.268
431.33	35.924
431.68	35.680
432.04	36.008
432.39	35.351
432.74	35.559
433.10	35.046
433.45	33.946
433.80	35.032
434.16	35.486
434.51	36.177
434.86	35.505
435.22	36.504
435.57	35.613
435.92	34.836
436.28	35.779
436.63	36.046
436.98	34.246
437.34	35.682
437.69	34.893
438.04	35.219
438.39	35.210
438.75	35.418
439.10	35.148
439.45	34.377
439.81	34.802
440.16	34.906
440.51	34.894
440.86	34.742
441.22	34.620
441.57	35.744
441.92	35.209
442.27	35.354
442.63	34.377
442.98	35.699
443.33	35.402
443.68	34.737
444.03	34.995
444.39	34.350
444.74	34.814
445.09	34.465
445.44	34.615
445.79	34.291
446.15	34.995
446.50	34.470
446.85	33.949
447.20	34.768
447.55	35.042
447.91	34.084
448.26	35.095
448.61	34.219
448.96	34.335
449.31	34.199
449.66	34.368
450.02	34.230
450.37	34.310
450.72	33.961
451.07	32.916
451.42	33.333
451.77	33.296
452.12	34.255
452.47	33.512
452.83	34.572
453.18	33.392
453.53	33.659
453.88	33.683
454.23	33.220
454.58	33.140
454.93	33.677
455.28	34.618
455.63	33.258
455.98	33.352
456.34	32.686
456.69	32.863
457.04	33.511
457.39	33.315
457.74	34.116
458.09	32.949
458.44	32.759
458.79	32.749
459.14	32.774
459.49	32.937
459.84	32.529
460.19	31.760
460.54	33.560
460.89	33.457
461.24	32.701
461.59	32.429
461.94	32.173
462.29	32.027
462.64	32.287
462.99	32.392
463.34	32.252
463.69	31.594
464.04	33.018
464.39	32.567
464.74	32.212
465.09	31.488
465.44	31.706
465.79	32.522
466.14	32.308
466.49	32.474
466.84	31.240
467.19	31.214
467.54	31.316
467.89	30.862
468.24	32.133
468.59	30.631
468.94	31.177
469.29	29.814
469.64	30.960
469.99	30.402
470.34	30.631
470.68	31.716
471.03	29.797
471.38	30.804
471.73	30.299
472.08	30.393
472.43	29.982
472.78	29.786
473.13	30.341
473.48	30.755
473.83	30.412
474.17	30.012
474.52	30.126
474.87	29.679
475.22	30.986
475.57	29.335
475.92	29.368
476.27	30.245
476.61	29.751
476.96	29.249
477.31	29.109
477.66	29.958
478.01	29.741
478.36	29.013
478.70	30.246
479.05	30.215
479.40	30.257
479.75	28.915
480.10	28.565
480.45	29.490
480.79	29.841
481.14	28.171
481.49	29.396
481.84	30.070
482.19	29.505
482.53	29.908
482.88	29.508
483.23	28.679
483.58	28.210
483.92	27.837
484.27	28.408
484.62	28.960
484.97	29.277
485.31	28.124
485.66	28.409
486.01	28.292
486.36	29.251
486.70	29.753
487.05	30.151
487.40	29.185
487.75	28.524
488.09	28.092
488.44	27.774
488.79	27.791
489.13	27.697
489.48	27.379
489.83	26.841
490.17	27.217
490.52	26.806
490.87	26.904
491.22	26.256
491.56	27.389
491.91	27.693
492.26	26.655
492.60	27.066
492.95	26.591
493.30	26.266
493.64	26.632
493.99	27.061
494.34	26.263
494.68	26.638
495.03	26.916
495.37	26.365
495.72	26.304
496.07	26.731
496.41	25.997
496.76	26.480
497.11	26.667
497.45	25.896
497.80	25.988
498.14	25.034
498.49	25.919
498.84	25.137
499.18	26.136
499.53	25.874
499.87	26.110
500.22	25.200
500.56	25.641
500.91	25.858
501.26	25.727
501.60	25.055
501.95	25.054
502.29	26.240
502.64	25.273
502.98	24.849
503.33	24.795
503.67	24.902
504.02	25.175
504.36	25.022
504.71	24.897
505.06	24.784
505.40	23.903
505.75	24.362
506.09	24.494
506.44	24.791
506.78	25.046
507.13	24.481
507.47	24.633
507.82	24.384
508.16	23.709
508.51	24.426
508.85	24.043
509.19	24.301
509.54	25.312
509.88	24.381
510.23	24.284
510.57	24.698
510.92	24.577
511.26	23.617
511.61	23.225
511.95	23.475
512.30	23.929
512.64	23.038
512.98	23.862
513.33	24.093
513.67	23.151
514.02	23.097
514.36	23.427
514.70	23.073
515.05	22.471
515.39	23.150
515.74	23.224
516.08	22.821
516.42	24.333
516.77	23.396
517.11	22.795
517.46	22.959
517.80	23.250
518.14	23.667
518.49	23.807
518.83	22.938
519.17	22.079
519.52	23.270
519.86	22.439
520.20	23.003
520.55	22.508
520.89	22.185
521.23	21.831
521.58	22.316
521.92	22.096
522.26	22.165
522.61	22.396
522.95	21.511
523.29	21.494
523.64	21.244
523.98	22.076
524.32	23.095
524.66	22.709
525.01	22.933
525.35	21.884
525.69	21.752
526.04	21.470
526.38	22.184
526.72	22.664
527.06	22.522
527.41	22.566
527.75	22.031
528.09	21.251
528.43	21.314
528.78	20.116
529.12	21.789
529.46	21.529
529.80	21.281
530.15	22.377
530.49	21.234
530.83	22.845
531.17	21.147
531.51	21.239
531.86	21.695
532.20	21.524
532.54	21.364
532.88	21.273
533.22	21.214
533.57	21.466
533.91	21.549
534.25	21.538
534.59	22.069
534.93	21.619
535.27	21.972
535.62	22.172
535.96	21.848
536.30	21.387
536.64	21.321
536.98	21.341
537.32	21.605
537.66	21.709
538.01	20.483
538.35	21.498
538.69	21.034
539.03	21.950
539.37	21.025
539.71	21.502
540.05	21.763
540.39	19.988
540.73	20.401
541.07	20.540
541.42	20.910
541.76	20.047
542.10	20.205
542.44	20.158
542.78	21.715
543.12	20.620
543.46	20.391
543.80	20.264
544.14	20.826
544.48	21.572
544.82	21.185
545.16	20.274
545.50	20.252
545.84	19.841
546.18	21.358
546.52	20.701
546.86	20.440
547.20	20.420
547.54	20.100
547.88	20.494
548.22	20.468
548.56	20.480
548.90	20.597
549.24	20.851
549.58	20.379
549.92	19.579
550.26	20.647
550.60	20.102
550.94	20.181
551.28	19.736
551.62	20.081
551.96	19.871
552.30	19.949
552.64	20.535
552.98	20.150
553.32	19.936
553.66	19.614
554.00	19.987
554.34	19.884
554.68	18.980
555.02	19.908
555.36	20.973
555.69	19.475
556.03	19.546
556.37	20.213
556.71	19.277
557.05	19.489
557.39	19.509
557.73	21.004
558.07	19.669
558.41	20.332
558.75	19.337
559.08	19.068
559.42	19.479
559.76	18.657
560.10	19.357
560.44	19.525
560.78	20.375
561.12	19.889
561.45	19.465
561.79	20.085
562.13	18.854
562.47	18.927
562.81	19.177
563.15	19.192
563.48	19.577
563.82	19.347
564.16	19.503
564.50	19.487
564.84	18.879
565.17	20.353
565.51	18.700
565.85	19.893
566.19	19.124
566.52	19.661
566.86	20.487
567.20	19.195
567.54	19.278
567.88	19.572
568.21	20.306
568.55	19.952
568.89	20.154
569.23	20.701
569.56	21.024
569.90	20.813
570.24	20.708
570.57	20.526
570.91	20.974
571.25	20.683
571.59	21.208
571.92	20.949
572.26	20.752
572.60	20.939
572.93	20.568
573.27	20.680
573.61	20.593
573.95	21.025
574.28	21.374
574.62	20.578
574.96	20.622
575.29	20.401
575.63	20.813
575.97	20.359
576.30	20.084
576.64	20.353
576.98	20.683
577.31	20.806
577.65	21.007
577.98	20.953
578.32	20.886
578.66	20.995
578.99	20.459
579.33	20.409
579.67	19.900
580.00	19.847
580.34	20.375
580.67	20.344
581.01	20.402
581.35	20.651
581.68	20.958
582.02	20.651
582.35	21.161
582.69	20.937
583.02	20.968
583.36	20.148
583.70	20.109
584.03	19.462
584.37	20.513
584.70	20.220
585.04	20.228
585.37	19.885
585.71	20.431
586.04	20.586
586.38	19.986
586.72	19.880
587.05	19.749
587.39	19.721
587.72	20.694
588.06	19.923
588.39	19.866
588.73	19.762
589.06	19.949
589.40	19.637
589.73	19.505
590.07	19.463
590.40	19.709
590.73	19.406
591.07	19.993
591.40	19.012
591.74	19.515
592.07	19.407
592.41	18.927
592.74	19.773
593.08	20.064
593.41	19.773
593.75	19.483
594.08	19.933
594.41	19.647
594.75	19.130
595.08	19.179
595.42	19.968
595.75	19.600
596.09	19.722
596.42	19.348
596.75	19.027
597.09	20.040
597.42	19.229
597.75	18.934
598.09	19.048
598.42	19.702
598.76	18.686
599.09	19.224
599.42	19.209
599.76	19.181
600.09	19.419
600.42	19.086
600.76	19.122
601.09	18.852
601.42	18.675
601.76	18.897
602.09	19.014
602.42	19.375
602.76	19.446
603.09	18.869
603.42	19.328
603.76	19.168
604.09	19.482
604.42	19.009
604.76	18.341
605.09	18.428
605.42	18.900
605.75	18.923
606.09	18.925
606.42	18.935
606.75	19.228
607.09	18.702
607.42	18.882
607.75	19.265
608.08	18.311
608.42	18.501
608.75	18.864
609.08	17.615
609.41	18.483
609.75	18.304
610.08	18.250
610.41	18.649
610.74	18.277
611.07	18.073
611.41	17.937
611.74	18.661
612.07	18.700
612.40	18.013
612.73	18.337
613.07	18.484
613.40	18.720
613.73	17.766
614.06	18.204
614.39	18.270
614.72	18.632
615.06	17.565
615.39	17.400
615.72	17.915
616.05	18.018
616.38	18.668
616.71	17.921
617.05	17.359
617.38	18.406
617.71	17.927
618.04	18.133
618.37	17.541
618.70	17.590
619.03	16.607
619.36	17.201
619.69	16.528
620.03	17.765
620.36	17.117
620.69	17.027
621.02	17.782
621.35	17.344
621.68	17.498
622.01	17.438
622.34	15.760
622.67	17.869
623.00	16.734
623.33	17.850
623.66	17.445
623.99	16.853
624.32	17.674
624.65	16.281
624.99	17.295
625.32	18.354
625.65	17.667
625.98	17.017
626.31	16.797
626.64	17.070
626.97	16.354
627.30	15.869
627.63	16.729
627.96	17.192
628.29	15.953
628.62	14.945
628.95	15.074
629.28	16.653
629.61	17.172
629.94	16.151
630.26	16.525
630.59	16.408
630.92	16.017
631.25	16.905
631.58	15.537
631.91	15.745
632.24	16.234
632.57	15.844
632.90	15.346
633.23	15.102
633.56	14.694
633.89	14.463
634.22	16.008
634.55	15.449
634.88	15.043
635.20	16.577
635.53	15.254
635.86	14.951
636.19	15.801
636.52	16.034
636.85	14.402
637.18	15.904
637.51	13.333
637.83	14.950
638.16	16.475
638.49	14.085
638.82	16.347
639.15	14.891
639.48	16.513
639.81	15.473
640.13	15.077
640.46	14.303
640.79	14.093
641.12	15.528
641.45	14.304
641.77	15.404
642.10	12.992
642.43	15.426
642.76	13.957
643.09	14.932
643.41	14.706
643.74	15.034
644.07	16.414
644.40	14.569
644.73	14.804
645.05	14.097
645.38	14.532
645.71	15.689
646.04	15.782
646.36	12.701
646.69	13.804
647.02	12.997
647.35	14.504
647.67	14.654
648.00	13.376
648.33	14.715
648.66	14.979
648.98	14.966
649.31	14.885
649.64	14.741
649.96	15.650
650.29	12.239
650.62	14.851
650.94	13.213
651.27	13.772
651.60	13.012
651.92	13.678
652.25	14.906
652.58	14.856
652.90	12.791
653.23	15.634
653.56	14.836
653.88	16.713
654.21	13.944
654.54	12.861
654.86	16.289
655.19	14.178
655.52	18.436
655.84	19.931
656.17	24.769
656.49	34.454
656.82	37.168
657.15	27.822
657.47	20.355
657.80	14.682
658.13	11.186
658.45	14.531
658.78	16.956
659.10	15.925
659.43	16.308
659.75	15.525
660.08	14.174
660.41	13.978
660.73	13.455
661.06	13.950
661.38	12.600
661.71	13.276
662.03	13.933
662.36	15.027
662.68	12.946
663.01	14.336
663.33	13.422
663.66	12.821
663.98	14.038
664.31	14.447
664.63	11.753
664.96	13.067
665.28	12.341
665.61	15.385
665.93	15.179
666.26	14.516
666.58	11.624
666.91	13.271
667.23	12.000
667.56	12.032
667.88	12.400
668.21	11.523
668.53	11.969
668.86	13.949
669.18	14.664
669.50	13.519
669.83	12.400
670.15	11.614
670.48	15.873
670.80	10.707
671.13	12.287
671.45	13.976
671.77	15.631
672.10	13.333
672.42	13.754
672.75	14.132
673.07	15.224
673.39	14.022
673.72	13.926
674.04	14.655
674.37	15.206
674.69	13.933
675.01	13.143
675.34	10.878
675.66	12.734
675.98	14.366
676.31	12.500
676.63	12.928
676.95	16.475
677.28	12.500
677.60	12.205
677.92	14.395
678.25	15.356
678.57	14.413
678.89	14.676
679.22	11.847
679.54	14.017
679.86	12.712
680.18	13.101
680.51	15.094
680.83	14.730
681.15	13.621
681.48	15.717
681.80	15.717
682.12	12.587
682.44	13.189
682.77	14.362
683.09	15.341
683.41	12.209
683.73	14.801
684.06	13.653
684.38	13.238
684.70	12.208
685.02	14.802
685.34	13.644
685.67	14.353
685.99	13.344
686.31	14.244
686.63	13.428
686.96	13.722
687.28	15.147
687.60	12.795
687.92	14.952
688.24	14.357
688.56	11.207
688.89	14.156
689.21	15.460
689.53	11.961
689.85	14.004
690.17	14.074
690.49	12.948
690.82	13.465
691.14	12.753
691.46	14.723
691.78	16.390
692.10	14.495
692.42	11.607
692.74	12.886
693.06	10.926
693.39	16.698
693.71	13.910
694.03	13.941
694.35	13.524
694.67	16.222
694.99	11.277
695.31	12.362
695.63	12.121
695.95	12.008
696.27	11.868
696.59	13.717
696.91	12.162
697.23	16.264
697.56	12.220
697.88	14.773
698.20	15.254
698.52	16.856
698.84	14.553
699.16	14.490
699.48	12.762
699.80	13.404
700.12	13.755
700.44	14.747
700.76	12.589
701.08	13.317
701.40	13.990
701.72	12.935
702.04	11.765
702.36	9.162
702.68	12.958
703.00	11.247
703.32	13.793
703.64	11.980
703.96	15.036
704.28	13.759
704.60	12.911
704.91	13.010
705.23	12.329
705.55	12.813
705.87	14.545
706.19	13.190
706.51	8.434
706.83	11.816
707.15	11.640
707.47	14.486
707.79	14.410
708.11	11.864
708.43	12.258
708.74	11.830
709.06	12.993
709.38	15.962
709.70	16.873
710.02	12.920
710.34	15.691
710.66	12.849
710.98	11.475
711.29	12.637
711.61	12.147
711.93	13.105
712.25	13.243
712.57	15.634
712.89	11.471
713.20	11.538
713.52	14.740
713.84	12.813
714.16	15.000
714.48	11.082
714.80	12.208
715.11	12.336
715.43	14.854
715.75	14.474
716.07	14.088
716.39	11.749
716.70	13.554
717.02	15.410
717.34	9.756
717.66	13.087
717.97	9.589
718.29	9.278
718.61	11.842
718.93	13.592
719.24	14.286
719.56	8.589
719.88	11.411
720.20	12.903
720.51	11.801
720.83	14.062
721.15	11.842
721.46	11.986
721.78	12.333
722.10	10.356
722.42	8.725
722.73	10.968
723.05	15.088
723.37	14.583
723.68	14.337
724.00	12.635
724.32	10.211
724.63	10.140
724.95	12.766
725.27	13.937
725.58	9.541
725.90	16.897
726.22	13.793
726.53	12.662
726.85	11.635
727.16	14.804
727.48	13.150
727.80	12.583
728.11	7.067
728.43	11.785
728.74	11.706
729.06	13.245
729.38	14.286
729.69	14.094
730.01	12.500
730.32	15.152
730.64	11.635
730.96	13.354
731.27	18.994
731.59	13.736
731.90	13.506
732.22	14.323
732.53	13.260
732.85	17.714
733.16	13.783
733.48	12.195
733.80	11.978
734.11	11.966
734.43	15.405
734.74	20.506
735.06	14.322
735.37	15.946
735.69	13.784
736.00	16.102
736.32	12.668
736.63	13.333
736.95	15.517
737.26	17.879
737.58	10.606
737.89	14.412
738.21	10.703
738.52	12.787
738.83	14.334
739.15	12.057
739.46	14.286
739.78	16.258
740.09	10.602
740.41	17.201
740.72	15.333
741.04	13.916
741.35	14.386
741.66	13.333
741.98	17.213
742.29	9.623
742.61	16.667
742.92	16.154
743.23	15.884
743.55	14.341
743.86	7.600
744.18	3.719
744.49	9.283
744.80	12.757
745.12	11.392
745.43	13.821
745.74	10.776
746.06	11.017
746.37	20.675
746.68	9.756
747.00	15.833
747.31	11.588
747.62	15.000
747.94	11.741
748.25	9.639
748.56	12.245
748.88	5.983
749.19	15.517
749.50	12.121
749.82	14.056
750.13	16.726
750.44	11.667
750.75	13.846
751.07	13.846
751.38	13.880
751.69	15.335
752.01	13.269
752.32	15.033
752.63	14.966
752.94	12.457
753.26	12.639
753.57	11.111
753.88	8.614
754.19	13.183
754.51	13.505
754.82	16.399
755.13	16.721
755.44	19.113
755.75	11.513
756.07	13.134
756.38	13.836
756.69	17.169
757.00	11.080
757.31	14.754
757.63	14.322
757.94	15.493
758.25	17.156
758.56	18.083
758.87	14.773
759.18	17.067
759.50	12.181
759.81	15.406
760.12	13.208
760.43	16.406
760.74	16.502
761.05	16.500
761.36	14.699
761.67	13.198
761.99	15.135
762.30	15.244
762.61	12.211
762.92	11.940
763.23	16.854
763.54	12.590
763.85	15.464
764.16	9.428
764.47	12.324
764.78	15.655
765.10	16.129
765.41	16.923
765.72	13.228
766.03	13.842
766.34	13.166
766.65	13.937
766.96	10.359
767.27	14.747
767.58	12.438
767.89	14.423
768.20	15.962
768.51	9.722
768.82	12.048
769.13	12.500
769.44	8.462
769.75	14.440
770.06	14.615
770.37	19.291
770.68	8.085
770.99	12.551
771.30	17.407
771.61	12.548
771.92	13.333
772.23	15.789
772.54	12.500
772.85	18.433
773.16	14.762
773.47	8.466
773.78	9.730
774.09	17.045
774.39	18.000
774.70	13.115
775.01	10.366
775.32	7.059
775.63	15.337
775.94	9.554
776.25	12.258
776.56	12.179
776.87	11.565
777.18	11.724
777.48	10.490
777.79	11.486
778.10	7.353
778.41	15.278
778.72	17.931
779.03	18.519
779.34	13.333
779.65	18.135
779.95	17.222
780.26	10.795
780.57	12.903
780.88	17.391
781.19	12.903
781.50	18.824
781.80	17.742
782.11	13.228
782.42	16.667
782.73	13.772
783.04	12.849
783.34	11.515
783.65	4.575
783.96	11.801
784.27	10.119
784.57	13.907
784.88	10.000
785.19	11.024
785.50	15.748
785.81	14.286
786.11	9.231
786.42	12.950
786.73	11.511
787.04	22.556
787.34	15.574
787.65	19.200
787.96	14.179
788.26	10.490
788.57	14.685
788.88	13.158
789.19	22.222
789.49	12.329
789.80	15.603
790.11	11.024
790.41	11.719
790.72	9.322
791.03	6.796
791.33	4.348
791.64	3.509
791.95	4.464
792.25	7.619
792.56	13.393
792.87	14.583
793.17	0.893
793.48	11.458
793.79	-1.205
794.09	12.844
794.40	12.844
794.70	14.286
795.01	7.143
795.32	17.808
795.62	16.901
795.93	7.576
796.23	9.836
796.54	16.071
796.85	1.064
797.15	11.957
797.46	-1.370
797.76	2.500
798.07	9.783
798.37	1.031
798.68	12.987
798.99	6.897
799.29	3.371
799.60	12.766
799.90	12.048
800.21	-6.154
800.51	0.000
800.82	1.471
801.12	4.110
801.43	-16.176
801.73	6.780
802.04	-4.545
802.34	8.333
802.65	1.695
802.95	17.910
803.26	3.390
803.56	8.219
803.87	10.000
804.17	10.959
804.48	10.526
804.78	5.556
805.09	-20.690
805.39	8.108
805.70	1.408
806.00	19.512
806.30	12.048
806.61	5.479
806.91	7.692
807.22	3.333
807.52	-9.195
807.83	9.722
808.13	20.482
808.43	13.483
808.74	12.500
809.04	1.471
809.35	2.667
809.65	20.000
809.95	2.740
810.26	-5.263
810.56	8.621
810.86	13.235
811.17	-1.754
811.47	1.639
811.77	8.889
812.08	3.390
812.38	13.333
812.69	18.966
812.99	-9.434
813.29	-15.385
813.59	10.000
813.90	12.281
814.20	18.182
814.50	23.944
814.81	8.974
815.11	6.557
815.41	2.985
815.72	8.621
816.02	14.286
816.32	11.111
816.62	13.636
816.93	6.667
817.23	27.778
817.53	17.021
817.84	7.143
818.14	5.882
818.44	0.000
818.74	22.222
819.04	-7.692
819.35	-14.286
819.65	-30.769
819.95	5.660
820.25	11.111
820.56	7.143
820.86	-15.625
821.16	12.821
821.46	-11.628
821.76	-16.000
822.07	16.071
822.37	8.696
822.67	4.255
822.97	-10.811
823.27	-22.500
823.57	10.204
823.88	26.667
824.18	20.000
824.48	-16.667
824.78	-16.000
825.08	0.000
825.38	20.000
825.69	8.511
825.99	-13.889
826.29	-5.714
826.59	-7.692
826.89	-6.977
827.19	-2.000
827.49	14.706
827.79	14.583
828.09	8.108
828.39	-6.667
828.70	7.317
829.00	16.279
829.30	-14.286
829.60	0.000
829.90	13.043
830.20	-20.000
830.50	-10.345
830.80	-33.333
831.10	-38.462
831.40	-8.824
831.70	-38.095
832.00	-12.903
832.30	-64.706
832.60	-8.333
832.90	-69.231
833.20	-5.263
833.50	-20.000
833.80	-42.105
834.10	-100.000
834.40	5.556
834.70	43.750
835.00	-11.429
835.30	14.706
835.60	-53.333
835.90	-36.000
836.20	-77.273
836.50	-32.000
836.80	-33.333
837.10	7.407
837.40	7.407
837.70	-75.000
838.00	14.286
838.30	-39.130
838.60	-6.897
838.90	-7.143
839.19	-52.174
839.49	-125.000
839.79	-17.391
840.09	-37.500
840.39	-20.000
840.69	25.806
840.99	-17.857
841.29	0.000
841.59	0.000
841.88	12.821
842.18	-38.462
842.48	-110.000
842.78	-20.000
843.08	36.667
843.38	6.452
843.68	-16.667
843.97	-14.706
844.27	-18.750
844.57	-57.895
844.87	-100.000
845.17	-120.000
845.47	38.095
845.76	-23.810
846.06	-33.333
846.36	-23.529
846.66	-19.231
846.96	-26.667
847.25	-5.882
847.55	21.739
847.85	-45.000
848.15	29.412
848.44	-54.545
848.74	-4.762
849.04	0.000
849.34	0.000
849.63	-13.043
849.93	650.000
850.23	-33.333
850.53	26.923
850.82	0.000
851.12	50.000
851.42	-90.909
851.71	30.769
852.01	-20.000
852.31	15.385
852.61	-10.526
852.90	16.667
853.20	5.556
853.50	-188.889
853.79	-19.048
854.09	-40.909
854.39	-100.000
854.68	6.452
854.98	15.385
855.28	-38.889
855.57	-3.571
855.87	-12.000
856.17	-13.636
856.46	18.519
856.76	-16.667
857.05	-17.391
857.35	-54.167
857.65	-76.923
857.94	-33.333
858.24	7.407
858.53	13.043
858.83	23.529
859.13	0.000
859.42	0.000
859.72	57.143
860.01	-45.000
860.31	-88.889
860.60	-40.000
860.90	-33.333
861.20	-11.111
861.49	-23.077
861.79	6.667
862.08	-46.154
862.38	40.625
862.67	41.176
862.97	-31.250
863.26	-33.333
863.56	-10.000
863.85	-45.455
864.15	33.333
864.44	-33.333
864.74	-14.286
865.03	-43.750
865.33	-110.000
865.62	-6.452
865.92	9.091
866.21	43.478
866.51	21.429
866.80	-100.000
867.10	-33.333
867.39	-58.333
867.69	400.000
867.98	28.571
868.27	-5.882
868.57	-1800.000
868.86	-60.000
869.16	-4.762
869.45	25.000
869.75	27.273
870.04	-28.571
870.33	-16.667
870.63	-228.571
870.92	-50.000
871.22	-112.500
871.51	-154.545
871.80	-566.667
872.10	-250.000
>>>>>End Processed Spectral Data<<<<<
