SpectraSuite Data File
++++++++++++++++++++++++++++++++++++
Date: Thu May 14 16:10:17 PDT 2015
User: schluterlab
Dark Spectrum Present: Yes
Reference Spectrum Present: Yes
Number of Sampled Component Spectra: 1
Spectrometers: USB2E3373
Integration Time (usec): 3000 (USB2E3373)
Spectra Averaged: 3 (USB2E3373)
Boxcar Smoothing: 0 (USB2E3373)
Correct for Electrical Dark: No (USB2E3373)
Strobe/Lamp Enabled: No (USB2E3373)
Correct for Detector Non-linearity: No (USB2E3373)
Correct for Stray Light: No (USB2E3373)
Number of Pixels in Processed Spectrum: 2048
>>>>>Begin Processed Spectral Data<<<<<
178.53	0.000
178.91	200.000
179.29	-2100.000
179.67	-1200.000
180.04	214.286
180.42	190.000
180.80	440.000
181.18	-1400.000
181.56	-1000.000
181.94	250.000
182.31	-350.000
182.69	566.667
183.07	-500.000
183.45	525.000
183.83	-266.667
184.20	-233.333
184.58	700.000
184.96	-375.000
185.34	-200.000
185.72	-220.000
186.09	288.889
186.47	800.000
186.85	400.000
187.23	-233.333
187.61	-1200.000
187.98	320.000
188.36	325.000
188.74	-300.000
189.12	-400.000
189.49	-18.750
189.87	-150.000
190.25	-55.556
190.63	-100.000
191.00	-122.222
191.38	0.000
191.76	-450.000
192.14	0.000
192.51	500.000
192.89	-100.000
193.27	0.000
193.65	-128.571
194.02	-1900.000
194.40	-171.429
194.78	228.571
195.15	0.000
195.53	0.000
195.91	0.000
196.29	-125.000
196.66	7.692
197.04	-2600.000
197.42	-142.857
197.79	-500.000
198.17	-50.000
198.55	-114.286
198.92	-66.667
199.30	-100.000
199.68	-54.545
200.05	-21.429
200.43	-1150.000
200.81	300.000
201.18	0.000
201.56	211.111
201.94	0.000
202.31	300.000
202.69	-44.444
203.07	1000.000
203.44	-100.000
203.82	-400.000
204.19	-50.000
204.57	-233.333
204.95	-150.000
205.32	-900.000
205.70	150.000
206.08	-100.000
206.45	-66.667
206.83	400.000
207.20	-200.000
207.58	-220.000
207.96	-350.000
208.33	-183.333
208.71	141.667
209.08	-50.000
209.46	0.000
209.84	266.667
210.21	400.000
210.59	300.000
210.96	600.000
211.34	-175.000
211.71	-150.000
212.09	-1000.000
212.46	0.000
212.84	1100.000
213.22	-460.000
213.59	-250.000
213.97	-50.000
214.34	-100.000
214.72	333.333
215.09	-175.000
215.47	0.000
215.84	-0.000
216.22	1050.000
216.59	-260.000
216.97	-180.000
217.34	-300.000
217.72	37.500
218.09	-425.000
218.47	-325.000
218.84	0.000
219.22	180.000
219.59	-52.941
219.97	-20.000
220.34	750.000
220.72	-111.111
221.09	-46.154
221.47	-33.333
221.84	-120.000
222.22	-242.857
222.59	0.000
222.97	-112.500
223.34	-220.000
223.72	-1600.000
224.09	-300.000
224.46	-325.000
224.84	0.000
225.21	-185.714
225.59	-325.000
225.96	-250.000
226.34	-38.462
226.71	216.667
227.08	-400.000
227.46	13.333
227.83	-500.000
228.21	-31.579
228.58	175.000
228.95	1050.000
229.33	0.000
229.70	-100.000
230.08	10.526
230.45	150.000
230.82	-266.667
231.20	-35.714
231.57	-8.333
231.95	-54.545
232.32	-54.545
232.69	-30.000
233.07	-25.000
233.44	-47.059
233.81	-170.000
234.19	-22.222
234.56	-36.364
234.93	6.897
235.31	-31.579
235.68	-22.222
236.05	-20.000
236.43	30.769
236.80	48.000
237.17	25.926
237.55	0.000
237.92	-150.000
238.29	-12.903
238.67	-18.182
239.04	11.111
239.41	16.667
239.79	23.913
240.16	7.407
240.53	30.435
240.91	7.843
241.28	3.279
241.65	28.358
242.02	14.865
242.40	15.385
242.77	28.000
243.14	18.293
243.51	13.158
243.89	7.692
244.26	40.594
244.63	21.569
245.00	27.103
245.38	17.544
245.75	14.159
246.12	25.397
246.49	23.256
246.87	30.000
247.24	27.152
247.61	30.921
247.98	24.832
248.36	25.309
248.73	21.472
249.10	27.322
249.47	34.328
249.84	33.508
250.22	23.834
250.59	30.000
250.96	32.273
251.33	25.510
251.70	25.214
252.08	28.333
252.45	25.820
252.82	25.620
253.19	26.172
253.56	26.996
253.94	24.231
254.31	33.333
254.68	29.371
255.05	32.573
255.42	24.830
255.79	28.155
256.16	27.483
256.54	27.483
256.91	29.508
257.28	30.492
257.65	26.752
258.02	23.009
258.39	28.775
258.76	30.887
259.14	28.736
259.51	27.954
259.88	25.496
260.25	27.778
260.62	29.041
260.99	30.055
261.36	31.903
261.73	26.790
262.10	31.319
262.47	29.223
262.85	32.323
263.22	28.052
263.59	25.789
263.96	26.343
264.33	25.575
264.70	29.136
265.07	32.458
265.44	31.293
265.81	27.546
266.18	29.705
266.55	28.795
266.92	28.246
267.29	31.072
267.66	29.712
268.03	30.568
268.40	28.810
268.77	26.879
269.14	27.533
269.51	30.044
269.88	30.738
270.25	27.565
270.62	28.270
270.99	31.313
271.36	30.495
271.73	28.291
272.10	28.858
272.47	31.263
272.84	28.112
273.21	27.255
273.58	29.435
273.95	26.346
274.32	25.665
274.69	29.207
275.06	29.853
275.43	25.323
275.80	28.924
276.17	26.111
276.54	28.545
276.91	28.265
277.28	27.667
277.65	28.725
278.02	29.044
278.39	29.529
278.76	28.295
279.13	26.241
279.50	29.897
279.87	28.444
280.23	27.641
280.60	28.983
280.97	27.467
281.34	25.297
281.71	29.949
282.08	27.076
282.45	25.859
282.82	26.845
283.19	27.141
283.56	25.902
283.92	26.276
284.29	27.646
284.66	28.571
285.03	26.923
285.40	26.893
285.77	26.935
286.14	28.244
286.51	26.941
286.87	25.592
287.24	27.861
287.61	26.756
287.98	25.831
288.35	26.775
288.72	26.775
289.08	28.697
289.45	25.296
289.82	25.452
290.19	23.707
290.56	24.930
290.93	25.963
291.29	25.344
291.66	25.758
292.03	23.202
292.40	26.122
292.77	24.394
293.13	25.981
293.50	25.099
293.87	23.624
294.24	24.933
294.60	24.399
294.97	24.430
295.34	23.560
295.71	23.455
296.08	22.997
296.44	23.039
296.81	22.168
297.18	22.914
297.55	23.231
297.91	22.183
298.28	21.919
298.65	21.641
299.02	22.432
299.38	22.082
299.75	21.729
300.12	21.412
300.48	21.659
300.85	21.485
301.22	22.260
301.59	20.205
301.95	21.921
302.32	21.889
302.69	22.234
303.05	22.416
303.42	21.064
303.79	20.938
304.15	21.346
304.52	20.825
304.89	21.675
305.25	20.290
305.62	22.466
305.99	21.649
306.35	20.262
306.72	22.130
307.09	20.812
307.45	21.325
307.82	20.283
308.19	20.585
308.55	21.022
308.92	20.351
309.29	21.169
309.65	20.468
310.02	22.079
310.38	19.685
310.75	21.748
311.12	20.709
311.48	19.746
311.85	19.943
312.22	20.304
312.58	21.127
312.95	21.128
313.31	20.867
313.68	21.337
314.05	21.951
314.41	21.767
314.78	22.616
315.14	20.780
315.51	21.884
315.87	21.602
316.24	21.279
316.61	21.048
316.97	20.452
317.34	20.370
317.70	21.834
318.07	20.899
318.43	22.109
318.80	22.157
319.16	22.403
319.53	20.566
319.89	19.982
320.26	22.776
320.62	20.124
320.99	21.237
321.35	21.257
321.72	22.791
322.08	21.280
322.45	23.397
322.81	22.473
323.18	22.124
323.54	23.362
323.91	22.509
324.27	23.838
324.64	23.846
325.00	22.056
325.37	21.785
325.73	21.983
326.10	22.466
326.46	22.720
326.83	22.658
327.19	22.992
327.56	23.241
327.92	22.109
328.29	22.258
328.65	21.273
329.01	22.504
329.38	22.578
329.74	23.373
330.11	23.202
330.47	21.314
330.84	22.739
331.20	23.000
331.56	21.837
331.93	23.515
332.29	22.203
332.66	24.003
333.02	23.283
333.38	22.399
333.75	22.138
334.11	23.269
334.48	23.350
334.84	22.685
335.20	22.250
335.57	23.862
335.93	21.818
336.29	20.632
336.66	22.204
337.02	22.241
337.38	22.364
337.75	22.066
338.11	21.867
338.47	21.175
338.84	21.997
339.20	20.640
339.56	21.087
339.93	21.921
340.29	22.544
340.65	21.411
341.02	22.985
341.38	22.555
341.74	21.550
342.11	21.641
342.47	20.969
342.83	22.464
343.20	21.832
343.56	21.331
343.92	21.217
344.28	21.406
344.65	21.240
345.01	21.529
345.37	22.395
345.73	20.421
346.10	21.295
346.46	21.677
346.82	22.097
347.19	22.078
347.55	21.927
347.91	21.545
348.27	21.396
348.63	22.620
349.00	21.178
349.36	21.041
349.72	21.652
350.08	21.025
350.45	21.141
350.81	21.342
351.17	21.579
351.53	21.077
351.89	21.792
352.26	21.493
352.62	20.672
352.98	20.687
353.34	20.388
353.70	20.647
354.07	21.311
354.43	22.172
354.79	21.990
355.15	21.781
355.51	21.857
355.87	21.092
356.24	21.369
356.60	20.843
356.96	21.127
357.32	20.669
357.68	21.010
358.04	20.808
358.40	20.746
358.77	21.053
359.13	21.196
359.49	20.818
359.85	20.667
360.21	22.956
360.57	21.608
360.93	20.522
361.29	21.123
361.66	21.941
362.02	21.781
362.38	22.417
362.74	20.670
363.10	21.939
363.46	21.953
363.82	21.307
364.18	21.464
364.54	21.231
364.90	21.405
365.26	21.724
365.62	22.600
365.98	21.239
366.35	20.872
366.71	21.633
367.07	20.839
367.43	21.405
367.79	22.296
368.15	22.140
368.51	21.854
368.87	21.881
369.23	21.067
369.59	20.970
369.95	22.312
370.31	22.012
370.67	21.458
371.03	21.676
371.39	21.155
371.75	22.421
372.11	22.629
372.47	22.072
372.83	22.579
373.19	21.348
373.55	22.290
373.91	21.268
374.27	21.863
374.63	21.854
374.99	22.082
375.35	21.883
375.71	22.194
376.07	22.208
376.42	22.103
376.78	22.001
377.14	21.460
377.50	22.581
377.86	23.707
378.22	22.455
378.58	22.176
378.94	22.477
379.30	21.734
379.66	22.399
380.02	23.197
380.38	23.214
380.74	23.775
381.09	23.229
381.45	22.898
381.81	22.892
382.17	22.862
382.53	22.924
382.89	23.081
383.25	22.392
383.61	23.495
383.97	22.497
384.32	23.923
384.68	22.796
385.04	24.523
385.40	23.689
385.76	23.916
386.12	23.758
386.48	24.471
386.83	24.613
387.19	23.465
387.55	23.005
387.91	24.144
388.27	24.480
388.62	23.482
388.98	23.012
389.34	24.042
389.70	23.765
390.06	23.683
390.42	24.880
390.77	24.744
391.13	24.413
391.49	25.060
391.85	24.909
392.20	24.318
392.56	25.281
392.92	24.973
393.28	25.318
393.64	24.637
393.99	24.463
394.35	25.759
394.71	25.269
395.07	24.611
395.42	25.642
395.78	26.325
396.14	25.074
396.50	25.534
396.85	24.985
397.21	25.503
397.57	25.559
397.92	26.346
398.28	25.638
398.64	25.458
399.00	25.445
399.35	25.759
399.71	25.924
400.07	26.727
400.42	27.299
400.78	26.215
401.14	26.693
401.49	26.777
401.85	26.744
402.21	26.709
402.57	27.582
402.92	27.423
403.28	25.995
403.63	26.313
403.99	27.197
404.35	27.118
404.70	27.705
405.06	27.120
405.42	26.522
405.77	27.099
406.13	27.661
406.49	27.309
406.84	27.812
407.20	28.508
407.55	27.377
407.91	28.284
408.27	26.796
408.62	28.389
408.98	28.961
409.34	27.977
409.69	28.801
410.05	28.253
410.40	28.654
410.76	28.155
411.11	29.106
411.47	28.624
411.83	28.571
412.18	29.157
412.54	28.868
412.89	28.463
413.25	29.233
413.60	29.408
413.96	29.371
414.31	28.782
414.67	29.159
415.03	29.108
415.38	29.130
415.74	28.955
416.09	31.339
416.45	29.618
416.80	29.743
417.16	29.566
417.51	29.514
417.87	29.552
418.22	29.760
418.58	30.112
418.93	29.744
419.29	31.011
419.64	30.492
420.00	29.970
420.35	30.657
420.71	30.155
421.06	30.305
421.42	30.218
421.77	29.779
422.12	29.334
422.48	31.234
422.83	30.668
423.19	30.557
423.54	31.914
423.90	30.701
424.25	30.880
424.61	30.827
424.96	31.906
425.31	30.998
425.67	31.025
426.02	31.765
426.38	30.999
426.73	30.469
427.09	31.719
427.44	31.131
427.79	31.288
428.15	30.765
428.50	31.404
428.85	31.056
429.21	31.277
429.56	31.688
429.92	31.302
430.27	31.277
430.62	31.705
430.98	31.284
431.33	30.352
431.68	31.226
432.04	31.488
432.39	32.191
432.74	31.906
433.10	31.693
433.45	30.992
433.80	32.028
434.16	31.921
434.51	31.757
434.86	32.682
435.22	32.253
435.57	32.783
435.92	32.666
436.28	31.684
436.63	32.277
436.98	30.918
437.34	31.454
437.69	32.306
438.04	32.152
438.39	32.740
438.75	31.987
439.10	31.554
439.45	31.750
439.81	32.316
440.16	31.743
440.51	31.996
440.86	32.629
441.22	31.940
441.57	32.180
441.92	31.862
442.27	32.525
442.63	31.893
442.98	33.031
443.33	31.510
443.68	32.706
444.03	33.819
444.39	32.779
444.74	32.823
445.09	32.894
445.44	32.034
445.79	32.423
446.15	33.299
446.50	32.713
446.85	32.879
447.20	32.640
447.55	32.322
447.91	32.775
448.26	32.347
448.61	33.688
448.96	32.725
449.31	32.503
449.66	32.135
450.02	32.806
450.37	33.404
450.72	32.454
451.07	32.688
451.42	32.178
451.77	32.740
452.12	32.844
452.47	32.977
452.83	32.883
453.18	32.224
453.53	32.567
453.88	32.413
454.23	32.260
454.58	33.256
454.93	32.828
455.28	33.173
455.63	32.177
455.98	33.352
456.34	32.332
456.69	33.392
457.04	33.215
457.39	33.370
457.74	33.557
458.09	32.729
458.44	32.435
458.79	31.975
459.14	32.092
459.49	33.503
459.84	32.371
460.19	32.260
460.54	32.936
460.89	32.663
461.24	32.529
461.59	33.315
461.94	31.945
462.29	33.259
462.64	33.856
462.99	32.706
463.34	32.511
463.69	32.239
464.04	33.352
464.39	32.455
464.74	33.181
465.09	33.045
465.44	31.384
465.79	33.104
466.14	32.465
466.49	32.421
466.84	33.609
467.19	33.757
467.54	32.432
467.89	32.701
468.24	33.241
468.59	32.774
468.94	32.692
469.29	32.873
469.64	33.439
469.99	32.823
470.34	32.426
470.68	33.014
471.03	33.726
471.38	33.290
471.73	33.030
472.08	34.137
472.43	32.812
472.78	33.249
473.13	32.427
473.48	33.474
473.83	33.082
474.17	33.529
474.52	33.794
474.87	32.946
475.22	33.239
475.57	32.191
475.92	32.255
476.27	32.375
476.61	33.126
476.96	33.525
477.31	33.366
477.66	33.893
478.01	33.045
478.36	32.353
478.70	32.512
479.05	33.947
479.40	33.662
479.75	34.006
480.10	33.396
480.45	33.318
480.79	32.925
481.14	32.675
481.49	32.440
481.84	33.681
482.19	33.204
482.53	33.056
482.88	34.072
483.23	32.592
483.58	33.188
483.92	32.491
484.27	33.065
484.62	32.632
484.97	32.698
485.31	32.805
485.66	31.164
486.01	29.880
486.36	30.185
486.70	32.017
487.05	33.538
487.40	33.527
487.75	34.148
488.09	33.925
488.44	33.446
488.79	33.626
489.13	33.599
489.48	32.893
489.83	32.515
490.17	32.807
490.52	32.348
490.87	33.883
491.22	33.449
491.56	32.722
491.91	32.795
492.26	32.540
492.60	32.663
492.95	32.646
493.30	32.990
493.64	32.939
493.99	32.368
494.34	32.230
494.68	32.934
495.03	33.480
495.37	32.446
495.72	32.200
496.07	33.129
496.41	32.518
496.76	33.319
497.11	32.994
497.45	32.628
497.80	32.252
498.14	32.971
498.49	32.537
498.84	34.141
499.18	32.659
499.53	33.184
499.87	32.440
500.22	33.170
500.56	33.513
500.91	33.959
501.26	34.045
501.60	32.833
501.95	32.306
502.29	33.348
502.64	33.406
502.98	32.355
503.33	32.354
503.67	33.014
504.02	32.925
504.36	33.110
504.71	32.889
505.06	33.333
505.40	32.998
505.75	33.288
506.09	32.919
506.44	33.658
506.78	33.486
507.13	33.472
507.47	33.823
507.82	33.002
508.16	33.126
508.51	33.146
508.85	33.207
509.19	33.396
509.54	33.525
509.88	32.589
510.23	33.463
510.57	34.123
510.92	33.430
511.26	33.237
511.61	33.366
511.95	33.187
512.30	34.663
512.64	32.334
512.98	33.967
513.33	34.375
513.67	34.268
514.02	34.083
514.36	34.629
514.70	33.438
515.05	33.420
515.39	33.596
515.74	35.048
516.08	34.231
516.42	35.113
516.77	34.122
517.11	34.709
517.46	34.624
517.80	34.901
518.14	34.929
518.49	34.924
518.83	34.220
519.17	34.841
519.52	35.535
519.86	34.372
520.20	34.665
520.55	34.940
520.89	34.685
521.23	35.902
521.58	36.384
521.92	35.411
522.26	34.765
522.61	35.532
522.95	35.121
523.29	35.575
523.64	34.697
523.98	35.197
524.32	36.046
524.66	35.458
525.01	35.334
525.35	35.727
525.69	34.803
526.04	35.419
526.38	35.460
526.72	35.640
527.06	36.833
527.41	35.977
527.75	36.580
528.09	37.013
528.43	35.998
528.78	35.376
529.12	36.411
529.46	35.807
529.80	35.240
530.15	36.348
530.49	35.884
530.83	36.305
531.17	36.260
531.51	36.823
531.86	36.178
532.20	36.524
532.54	36.086
532.88	36.970
533.22	36.181
533.57	35.718
533.91	36.869
534.25	35.726
534.59	37.011
534.93	35.484
535.27	35.775
535.62	36.384
535.96	36.490
536.30	35.723
536.64	37.237
536.98	38.130
537.32	36.975
537.66	36.619
538.01	35.589
538.35	35.932
538.69	35.096
539.03	35.622
539.37	35.689
539.71	36.456
540.05	35.911
540.39	35.330
540.73	36.430
541.07	36.113
541.42	35.027
541.76	35.350
542.10	35.887
542.44	35.688
542.78	36.253
543.12	35.459
543.46	35.470
543.80	35.971
544.14	35.847
544.48	35.875
544.82	36.266
545.16	35.838
545.50	36.369
545.84	35.089
546.18	36.296
546.52	35.605
546.86	35.597
547.20	35.878
547.54	35.768
547.88	35.684
548.22	35.439
548.56	35.401
548.90	34.567
549.24	36.109
549.58	34.763
549.92	36.607
550.26	35.987
550.60	36.184
550.94	35.576
551.28	36.238
551.62	36.523
551.96	34.757
552.30	36.456
552.64	35.905
552.98	36.057
553.32	35.241
553.66	36.206
554.00	35.435
554.34	35.199
554.68	34.409
555.02	35.677
555.36	35.700
555.69	34.529
556.03	34.111
556.37	36.108
556.71	34.813
557.05	35.335
557.39	35.036
557.73	34.941
558.07	34.305
558.41	35.083
558.75	35.903
559.08	36.952
559.42	35.940
559.76	35.414
560.10	35.231
560.44	35.422
560.78	35.500
561.12	34.298
561.45	34.732
561.79	34.921
562.13	35.059
562.47	35.512
562.81	34.937
563.15	34.659
563.48	34.058
563.82	33.978
564.16	33.919
564.50	34.565
564.84	33.982
565.17	34.118
565.51	33.659
565.85	33.967
566.19	32.604
566.52	34.172
566.86	34.126
567.20	32.953
567.54	32.714
567.88	33.435
568.21	33.053
568.55	33.285
568.89	32.592
569.23	32.911
569.56	32.903
569.90	32.003
570.24	32.614
570.57	31.527
570.91	31.353
571.25	31.299
571.59	31.951
571.92	31.370
572.26	31.763
572.60	31.095
572.93	32.146
573.27	31.666
573.61	30.810
573.95	30.906
574.28	30.507
574.62	30.309
574.96	30.415
575.29	30.690
575.63	30.792
575.97	30.683
576.30	30.570
576.64	30.375
576.98	30.592
577.31	31.078
577.65	31.139
577.98	30.045
578.32	30.097
578.66	30.079
578.99	30.637
579.33	30.658
579.67	30.734
580.00	30.389
580.34	30.672
580.67	29.965
581.01	30.679
581.35	29.827
581.68	29.086
582.02	29.495
582.35	29.661
582.69	30.328
583.02	30.219
583.36	30.807
583.70	31.061
584.03	31.054
584.37	31.103
584.70	29.731
585.04	29.993
585.37	29.563
585.71	29.601
586.04	29.921
586.38	29.805
586.72	29.932
587.05	30.519
587.39	29.968
587.72	30.072
588.06	30.077
588.39	29.948
588.73	30.079
589.06	30.418
589.40	31.131
589.73	30.688
590.07	30.239
590.40	30.561
590.73	30.505
591.07	30.975
591.40	30.871
591.74	30.763
592.07	30.451
592.41	30.875
592.74	29.854
593.08	30.446
593.41	29.396
593.75	29.483
594.08	29.839
594.41	30.417
594.75	30.023
595.08	29.172
595.42	29.740
595.75	29.480
596.09	30.803
596.42	30.240
596.75	30.799
597.09	30.263
597.42	29.797
597.75	29.988
598.09	29.722
598.42	29.513
598.76	28.964
599.09	29.334
599.42	28.629
599.76	28.887
600.09	28.929
600.42	28.829
600.76	28.864
601.09	28.211
601.42	28.871
601.76	29.138
602.09	29.736
602.42	29.298
602.76	29.114
603.09	29.038
603.42	28.793
603.76	28.682
604.09	29.383
604.42	29.505
604.76	29.528
605.09	29.198
605.42	29.107
605.75	29.231
606.09	28.705
606.42	28.311
606.75	28.411
607.09	29.147
607.42	28.593
607.75	29.504
608.08	28.098
608.42	28.335
608.75	28.400
609.08	28.862
609.41	29.069
609.75	28.750
610.08	29.683
610.41	28.505
610.74	28.866
611.07	29.085
611.41	28.341
611.74	29.654
612.07	28.331
612.40	28.612
612.73	29.193
613.07	28.509
613.40	29.740
613.73	28.936
614.06	28.852
614.39	27.988
614.72	28.724
615.06	28.585
615.39	28.178
615.72	27.962
616.05	28.023
616.38	29.112
616.71	29.154
617.05	28.594
617.38	29.802
617.71	28.348
618.04	29.574
618.37	29.290
618.70	29.299
619.03	29.630
619.36	29.100
619.69	28.635
620.03	28.500
620.36	28.528
620.69	28.809
621.02	29.790
621.35	30.842
621.68	30.803
622.01	29.324
622.34	28.731
622.67	28.247
623.00	28.003
623.33	28.600
623.66	28.405
623.99	29.230
624.32	28.915
624.65	28.443
624.99	28.349
625.32	29.458
625.65	28.793
625.98	28.000
626.31	29.199
626.64	29.524
626.97	29.182
627.30	27.715
627.63	28.657
627.96	29.655
628.29	29.650
628.62	29.135
628.95	29.535
629.28	29.397
629.61	29.461
629.94	29.372
630.26	30.085
630.59	27.461
630.92	27.186
631.25	29.875
631.58	29.944
631.91	29.803
632.24	29.971
632.57	28.368
632.90	29.689
633.23	30.102
633.56	29.490
633.89	28.409
634.22	30.042
634.55	30.376
634.88	29.437
635.20	30.678
635.53	30.169
635.86	30.878
636.19	29.692
636.52	30.169
636.85	27.783
637.18	30.249
637.51	29.462
637.83	29.125
638.16	30.300
638.49	29.225
638.82	28.749
639.15	27.721
639.48	30.139
639.81	28.060
640.13	28.975
640.46	27.515
640.79	28.309
641.12	28.944
641.45	27.854
641.77	30.295
642.10	26.640
642.43	30.585
642.76	29.946
643.09	27.260
643.41	31.092
643.74	29.241
644.07	31.172
644.40	29.137
644.73	28.737
645.05	30.250
645.38	28.489
645.71	29.032
646.04	28.551
646.36	28.467
646.69	30.828
647.02	29.969
647.35	29.313
647.67	31.884
648.00	29.140
648.33	29.730
648.66	27.247
648.98	25.578
649.31	26.793
649.64	29.216
649.96	27.719
650.29	26.147
650.62	31.542
650.94	29.429
651.27	29.192
651.60	29.094
651.92	28.267
652.25	28.799
652.58	27.510
652.90	27.326
653.23	27.746
653.56	27.104
653.88	27.809
654.21	29.014
654.54	29.191
654.86	28.612
655.19	25.094
655.52	24.980
655.84	21.623
656.17	25.821
656.49	37.229
656.82	42.394
657.15	34.689
657.47	27.300
657.80	20.551
658.13	16.589
658.45	22.342
658.78	27.974
659.10	27.190
659.43	28.157
659.75	28.293
660.08	27.955
660.41	28.453
660.73	27.252
661.06	27.166
661.38	29.187
661.71	28.448
662.03	26.455
662.36	28.265
662.68	28.518
663.01	28.673
663.33	29.112
663.66	31.136
663.98	29.808
664.31	26.642
664.63	25.626
664.96	28.494
665.28	26.497
665.61	29.021
665.93	25.000
666.26	27.599
666.58	26.015
666.91	26.916
667.23	31.810
667.56	28.994
667.88	29.000
668.21	27.539
668.53	27.413
668.86	29.470
669.18	29.124
669.50	27.833
669.83	25.800
670.15	24.606
670.48	30.556
670.80	26.386
671.13	26.087
671.45	27.165
671.77	27.684
672.10	24.167
672.42	26.052
672.75	24.885
673.07	25.373
673.39	25.116
673.72	27.013
674.04	26.207
674.37	26.297
674.69	27.690
675.01	27.619
675.34	26.527
675.66	25.843
675.98	27.052
676.31	24.023
676.63	26.996
676.95	27.586
677.28	26.210
677.60	25.197
677.92	27.447
678.25	26.325
678.57	26.335
678.89	27.133
679.22	24.739
679.54	25.128
679.86	26.441
680.18	24.876
680.51	22.956
680.83	25.205
681.15	25.690
681.48	26.770
681.80	26.598
682.12	24.650
682.44	22.871
682.77	23.936
683.09	25.189
683.41	24.419
683.73	25.237
684.06	24.170
684.38	23.435
684.70	26.750
685.02	26.678
685.34	23.295
685.67	23.502
685.99	22.699
686.31	22.820
686.63	24.013
686.96	22.871
687.28	24.593
687.60	22.054
687.92	24.920
688.24	22.538
688.56	22.241
688.89	24.501
689.21	26.810
689.53	24.118
689.85	24.260
690.17	21.852
690.49	24.104
690.82	24.752
691.14	22.672
691.46	26.769
691.78	25.599
692.10	23.119
692.42	23.393
692.74	24.864
693.06	22.037
693.39	27.514
693.71	23.684
694.03	26.394
694.35	24.000
694.67	24.846
694.99	24.043
695.31	23.841
695.63	25.758
695.95	23.188
696.27	25.934
696.59	26.770
696.91	26.126
697.23	27.473
697.56	23.014
697.88	22.159
698.20	22.976
698.52	22.538
698.84	24.532
699.16	25.714
699.48	23.849
699.80	22.553
700.12	24.017
700.44	23.502
700.76	23.990
701.08	23.487
701.40	23.834
701.72	23.383
702.04	23.797
702.36	21.466
702.68	26.161
703.00	20.293
703.32	19.704
703.64	24.205
703.96	24.344
704.28	22.850
704.60	23.038
704.91	25.000
705.23	25.479
705.55	23.120
705.87	23.636
706.19	25.767
706.51	21.386
706.83	22.190
707.15	20.635
707.47	21.028
707.79	21.834
708.11	22.246
708.43	19.570
708.74	22.321
709.06	22.506
709.38	24.178
709.70	25.310
710.02	22.739
710.34	27.660
710.66	20.950
710.98	19.672
711.29	22.253
711.61	22.881
711.93	21.937
712.25	23.784
712.57	22.714
712.89	26.176
713.20	19.231
713.52	24.855
713.84	22.563
714.16	21.842
714.48	20.619
714.80	23.117
715.11	20.735
715.43	22.546
715.75	22.632
716.07	18.508
716.39	27.049
716.70	19.578
717.02	25.902
717.34	21.254
717.66	24.161
717.97	17.123
718.29	23.711
718.61	21.053
718.93	18.770
719.24	20.807
719.56	21.472
719.88	18.919
720.20	24.194
720.51	21.118
720.83	18.750
721.15	22.039
721.46	19.521
721.78	22.333
722.10	18.447
722.42	21.141
722.73	24.516
723.05	24.211
723.37	20.486
723.68	25.448
724.00	19.134
724.32	17.958
724.63	18.531
724.95	25.887
725.27	20.906
725.58	19.081
725.90	25.517
726.22	19.122
726.53	20.130
726.85	23.585
727.16	22.961
727.48	22.324
727.80	22.185
728.11	17.314
728.43	21.886
728.74	19.732
729.06	18.874
729.38	20.779
729.69	17.114
730.01	20.536
730.32	17.879
730.64	19.497
730.96	16.460
731.27	20.391
731.59	18.956
731.90	17.403
732.22	17.448
732.53	20.166
732.85	20.571
733.16	18.475
733.48	20.122
733.80	20.891
734.11	18.803
734.43	17.297
734.74	24.051
735.06	18.342
735.37	17.297
735.69	20.270
736.00	19.492
736.32	20.216
736.63	18.611
736.95	19.253
737.26	21.818
737.58	19.091
737.89	19.706
738.21	16.208
738.52	21.967
738.83	20.137
739.15	16.667
739.46	18.707
739.78	20.245
740.09	20.630
740.41	16.327
740.72	18.000
741.04	19.417
741.35	20.702
741.66	18.824
741.98	22.541
742.29	19.665
742.61	18.860
742.92	20.385
743.23	16.968
743.55	20.155
743.86	21.200
744.18	16.942
744.49	17.722
744.80	23.868
745.12	15.612
745.43	19.106
745.74	17.241
746.06	19.915
746.37	20.253
746.68	19.919
747.00	22.917
747.31	18.026
747.62	22.692
747.94	20.648
748.25	13.253
748.56	14.694
748.88	18.803
749.19	21.983
749.50	18.182
749.82	20.884
750.13	20.285
750.44	17.333
750.75	19.692
751.07	18.769
751.38	18.297
751.69	18.211
752.01	19.094
752.32	20.588
752.63	18.707
752.94	20.761
753.26	17.472
753.57	15.926
753.88	17.603
754.19	18.006
754.51	16.720
754.82	15.756
755.13	24.918
755.44	21.160
755.75	18.750
756.07	22.985
756.38	19.497
756.69	23.494
757.00	15.235
757.31	18.306
757.63	16.368
757.94	13.850
758.25	17.156
758.56	17.647
758.87	18.864
759.18	18.400
759.50	16.714
759.81	19.048
760.12	19.137
760.43	20.573
760.74	18.966
761.05	18.000
761.36	17.349
761.67	17.259
761.99	16.216
762.30	18.902
762.61	16.832
762.92	16.418
763.23	20.599
763.54	18.345
763.85	10.653
764.16	19.529
764.47	19.718
764.78	20.767
765.10	17.595
765.41	20.000
765.72	15.079
766.03	20.339
766.34	16.614
766.65	15.331
766.96	17.131
767.27	21.198
767.58	15.423
767.89	24.519
768.20	18.310
768.51	14.352
768.82	17.269
769.13	18.182
769.44	14.615
769.75	16.606
770.06	16.923
770.37	17.717
770.68	15.319
770.99	10.526
771.30	16.667
771.61	15.970
771.92	15.185
772.23	16.599
772.54	12.963
772.85	22.581
773.16	21.429
773.47	12.169
773.78	10.270
774.09	16.477
774.39	19.000
774.70	20.765
775.01	14.634
775.32	15.294
775.63	19.018
775.94	14.013
776.25	15.484
776.56	21.154
776.87	23.129
777.18	16.552
777.48	18.881
777.79	6.081
778.10	10.294
778.41	15.278
778.72	11.034
779.03	9.877
779.34	16.970
779.65	15.026
779.95	18.333
780.26	19.318
780.57	20.000
780.88	16.667
781.19	19.355
781.50	20.588
781.80	19.355
782.11	16.931
782.42	11.616
782.73	10.180
783.04	9.497
783.34	15.152
783.65	8.497
783.96	13.665
784.27	17.262
784.57	13.907
784.88	11.429
785.19	11.811
785.50	14.961
785.81	22.556
786.11	16.154
786.42	10.072
786.73	10.791
787.04	14.286
787.34	9.016
787.65	8.000
787.96	12.687
788.26	16.084
788.57	22.378
788.88	17.105
789.19	15.033
789.49	10.274
789.80	16.312
790.11	24.409
790.41	16.406
790.72	11.864
791.03	3.883
791.33	13.043
791.64	17.544
791.95	0.000
792.25	14.286
792.56	8.036
792.87	6.250
793.17	14.286
793.48	8.333
793.79	-13.253
794.09	2.752
794.40	0.917
794.70	8.163
795.01	12.987
795.32	15.068
795.62	16.197
795.93	10.606
796.23	7.377
796.54	5.357
796.85	3.191
797.15	5.435
797.46	4.110
797.76	10.000
798.07	13.043
798.37	3.093
798.68	0.000
798.99	9.195
799.29	13.483
799.60	9.574
799.90	12.048
800.21	4.615
800.51	-10.448
800.82	1.471
801.12	-6.849
801.43	-2.941
801.73	-13.559
802.04	4.545
802.34	-6.667
802.65	10.169
802.95	7.463
803.26	6.780
803.56	2.740
803.87	-4.286
804.17	15.068
804.48	-10.526
804.78	13.889
805.09	1.724
805.39	6.757
805.70	-5.634
806.00	4.878
806.30	6.024
806.61	5.479
806.91	10.577
807.22	8.889
807.52	8.046
807.83	5.556
808.13	12.048
808.43	20.225
808.74	-3.750
809.04	-5.882
809.35	10.667
809.65	8.571
809.95	10.959
810.26	-8.772
810.56	5.172
810.86	5.882
811.17	8.772
811.47	-13.115
811.77	-11.111
812.08	0.000
812.38	15.000
812.69	10.345
812.99	-13.208
813.29	-41.026
813.59	6.000
813.90	7.018
814.20	9.091
814.50	9.859
814.81	-2.564
815.11	0.000
815.41	10.448
815.72	5.172
816.02	8.929
816.32	2.222
816.62	6.818
816.93	-15.556
817.23	7.407
817.53	-4.255
817.84	-4.762
818.14	-5.882
818.44	4.082
818.74	-15.556
819.04	-25.641
819.35	-37.143
819.65	-34.615
819.95	1.887
820.25	-4.444
820.56	0.000
820.86	-12.500
821.16	-17.949
821.46	-9.302
821.76	-8.000
822.07	-5.357
822.37	-19.565
822.67	-12.766
822.97	-43.243
823.27	-25.000
823.57	-12.245
823.88	6.667
824.18	-7.500
824.48	-26.667
824.78	-20.000
825.08	-33.333
825.38	20.000
825.69	-2.128
825.99	0.000
826.29	-60.000
826.59	-15.385
826.89	-6.977
827.19	2.000
827.49	8.824
827.79	-12.500
828.09	-13.514
828.39	-13.333
828.70	-26.829
829.00	9.302
829.30	-39.286
829.60	11.765
829.90	-13.043
830.20	-14.286
830.50	-17.241
830.80	-44.444
831.10	-53.846
831.40	-11.765
831.70	-47.619
832.00	19.355
832.30	-105.882
832.60	-12.500
832.90	-38.462
833.20	-36.842
833.50	-105.000
833.80	-10.526
834.10	-71.429
834.40	-8.333
834.70	3.125
835.00	-25.714
835.30	0.000
835.60	-56.667
835.90	-16.000
836.20	-45.455
836.50	-12.000
836.80	-42.424
837.10	-33.333
837.40	-7.407
837.70	-75.000
838.00	7.143
838.30	-43.478
838.60	-27.586
838.90	-7.143
839.19	-56.522
839.49	-175.000
839.79	-17.391
840.09	-100.000
840.39	-55.000
840.69	-19.355
840.99	-21.429
841.29	-33.333
841.59	-52.632
841.88	-12.821
842.18	-38.462
842.48	-250.000
842.78	-50.000
843.08	-43.333
843.38	-9.677
843.68	-100.000
843.97	-14.706
844.27	-68.750
844.57	-36.842
844.87	-120.000
845.17	-40.000
845.47	-4.762
845.76	-57.143
846.06	-133.333
846.36	-76.471
846.66	-38.462
846.96	-80.000
847.25	-70.588
847.55	-8.696
847.85	-30.000
848.15	0.000
848.44	-81.818
848.74	-19.048
849.04	-12.500
849.34	-31.250
849.63	-17.391
849.93	700.000
850.23	-20.000
850.53	30.769
850.82	-127.273
851.12	22.727
851.42	-118.182
851.71	-46.154
852.01	-35.000
852.31	-69.231
852.61	-36.842
852.90	-50.000
853.20	-33.333
853.50	-44.444
853.79	-33.333
854.09	-45.455
854.39	-158.333
854.68	-25.806
854.98	-38.462
855.28	-27.778
855.57	-10.714
855.87	-12.000
856.17	-54.545
856.46	3.704
856.76	-61.111
857.05	0.000
857.35	-37.500
857.65	-76.923
857.94	14.286
858.24	7.407
858.53	-39.130
858.83	0.000
859.13	-88.235
859.42	-35.294
859.72	-14.286
860.01	-25.000
860.31	-133.333
860.60	-70.000
860.90	-6.667
861.20	5.556
861.49	-61.538
861.79	-46.667
862.08	-107.692
862.38	9.375
862.67	-5.882
862.97	-50.000
863.26	-88.889
863.56	-80.000
863.85	-145.455
864.15	-50.000
864.44	-333.333
864.74	-28.571
865.03	-12.500
865.33	-80.000
865.62	-41.935
865.92	-63.636
866.21	-30.435
866.51	-7.143
866.80	-240.000
867.10	-116.667
867.39	-116.667
867.69	1900.000
867.98	-14.286
868.27	-23.529
868.57	-1500.000
868.86	-250.000
869.16	-28.571
869.45	-16.667
869.75	-36.364
870.04	-228.571
870.33	-100.000
870.63	-200.000
870.92	-450.000
871.22	-275.000
871.51	-90.909
871.80	-933.333
872.10	-1100.000
>>>>>End Processed Spectral Data<<<<<
