SpectraSuite Data File
++++++++++++++++++++++++++++++++++++
Date: Thu May 14 16:11:40 PDT 2015
User: schluterlab
Dark Spectrum Present: Yes
Reference Spectrum Present: Yes
Number of Sampled Component Spectra: 1
Spectrometers: USB2E3373
Integration Time (usec): 3000 (USB2E3373)
Spectra Averaged: 3 (USB2E3373)
Boxcar Smoothing: 0 (USB2E3373)
Correct for Electrical Dark: No (USB2E3373)
Strobe/Lamp Enabled: No (USB2E3373)
Correct for Detector Non-linearity: No (USB2E3373)
Correct for Stray Light: No (USB2E3373)
Number of Pixels in Processed Spectrum: 2048
>>>>>Begin Processed Spectral Data<<<<<
178.53	0.000
178.91	42.857
179.29	-1400.000
179.67	-600.000
180.04	100.000
180.42	90.000
180.80	320.000
181.18	100.000
181.56	200.000
181.94	100.000
182.31	-125.000
182.69	433.333
183.07	-150.000
183.45	325.000
183.83	-83.333
184.20	-133.333
184.58	700.000
184.96	-225.000
185.34	-166.667
185.72	0.000
186.09	266.667
186.47	400.000
186.85	180.000
187.23	-133.333
187.61	-1700.000
187.98	140.000
188.36	475.000
188.74	-50.000
189.12	-266.667
189.49	-18.750
189.87	-125.000
190.25	88.889
190.63	-100.000
191.00	-33.333
191.38	0.000
191.76	-300.000
192.14	-116.667
192.51	400.000
192.89	50.000
193.27	0.000
193.65	-71.429
194.02	-1900.000
194.40	-42.857
194.78	-42.857
195.15	0.000
195.53	100.000
195.91	0.000
196.29	-200.000
196.66	-69.231
197.04	-900.000
197.42	-185.714
197.79	-150.000
198.17	25.000
198.55	-85.714
198.92	22.222
199.30	-75.000
199.68	45.455
200.05	-21.429
200.43	-200.000
200.81	185.714
201.18	0.000
201.56	233.333
201.94	0.000
202.31	633.333
202.69	-77.778
203.07	100.000
203.44	66.667
203.82	-175.000
204.19	0.000
204.57	-183.333
204.95	12.500
205.32	-1400.000
205.70	150.000
206.08	-16.667
206.45	-16.667
206.83	260.000
207.20	-33.333
207.58	-300.000
207.96	-166.667
208.33	-50.000
208.71	8.333
209.08	133.333
209.46	0.000
209.84	300.000
210.21	600.000
210.59	350.000
210.96	633.333
211.34	75.000
211.71	-100.000
212.09	-1100.000
212.46	0.000
212.84	950.000
213.22	-220.000
213.59	-100.000
213.97	-60.000
214.34	100.000
214.72	150.000
215.09	-275.000
215.47	0.000
215.84	57.143
216.22	800.000
216.59	-200.000
216.97	-300.000
217.34	-75.000
217.72	-87.500
218.09	-150.000
218.47	-225.000
218.84	0.000
219.22	300.000
219.59	-70.588
219.97	-5.000
220.34	450.000
220.72	-44.444
221.09	23.077
221.47	-66.667
221.84	-100.000
222.22	-200.000
222.59	0.000
222.97	-50.000
223.34	-220.000
223.72	-600.000
224.09	-200.000
224.46	-200.000
224.84	-80.000
225.21	-200.000
225.59	-125.000
225.96	-350.000
226.34	-3.846
226.71	166.667
227.08	-650.000
227.46	-33.333
227.83	-200.000
228.21	52.632
228.58	175.000
228.95	550.000
229.33	0.000
229.70	10.000
230.08	36.842
230.45	80.000
230.82	-266.667
231.20	-50.000
231.57	-16.667
231.95	-36.364
232.32	18.182
232.69	-20.000
233.07	-150.000
233.44	-5.882
233.81	10.000
234.19	22.222
234.56	27.273
234.93	31.034
235.31	-26.316
235.68	11.111
236.05	-60.000
236.43	50.000
236.80	20.000
237.17	-7.407
237.55	6.061
237.92	-10.000
238.29	16.129
238.67	-11.364
239.04	16.667
239.41	2.381
239.79	-6.522
240.16	7.407
240.53	17.391
240.91	-11.765
241.28	1.639
241.65	17.910
242.02	18.919
242.40	7.692
242.77	18.667
243.14	9.756
243.51	2.632
243.89	11.538
244.26	17.822
244.63	19.608
245.00	14.019
245.38	18.421
245.75	7.080
246.12	12.698
246.49	13.178
246.87	22.143
247.24	15.232
247.61	21.053
247.98	16.779
248.36	20.988
248.73	12.883
249.10	12.568
249.47	23.881
249.84	25.131
250.22	15.544
250.59	18.889
250.96	25.000
251.33	20.408
251.70	19.658
252.08	19.167
252.45	18.852
252.82	15.702
253.19	16.016
253.56	19.392
253.94	21.538
254.31	21.591
254.68	24.476
255.05	19.218
255.42	19.388
255.79	17.799
256.16	17.881
256.54	14.570
256.91	20.984
257.28	16.393
257.65	15.924
258.02	17.699
258.39	19.373
258.76	25.382
259.14	20.690
259.51	19.597
259.88	19.547
260.25	19.444
260.62	21.644
260.99	22.678
261.36	21.448
261.73	17.241
262.10	19.231
262.47	21.180
262.85	23.485
263.22	17.403
263.59	13.947
263.96	22.251
264.33	18.159
264.70	18.765
265.07	22.196
265.44	21.542
265.81	17.130
266.18	20.862
266.55	20.982
266.92	19.362
267.29	22.319
267.66	19.290
268.03	22.271
268.40	18.998
268.77	15.490
269.14	17.181
269.51	22.368
269.88	21.516
270.25	19.920
270.62	19.198
270.99	19.192
271.36	20.792
271.73	20.629
272.10	19.840
272.47	19.238
272.84	18.876
273.21	21.042
273.58	20.968
273.95	17.692
274.32	18.441
274.69	17.602
275.06	22.527
275.43	18.299
275.80	22.046
276.17	21.481
276.54	19.030
276.91	17.352
277.28	20.253
277.65	20.287
278.02	21.507
278.39	20.652
278.76	18.102
279.13	19.681
279.50	20.275
279.87	20.394
280.23	17.606
280.60	19.661
280.97	18.421
281.34	18.506
281.71	21.320
282.08	19.269
282.45	18.003
282.82	20.722
283.19	17.771
283.56	18.525
283.92	20.571
284.29	21.327
284.66	20.033
285.03	19.071
285.40	19.320
285.77	19.814
286.14	19.695
286.51	18.113
286.87	20.537
287.24	20.030
287.61	20.478
287.98	17.825
288.35	18.047
288.72	18.935
289.08	19.619
289.45	16.716
289.82	17.319
290.19	18.678
290.56	16.901
290.93	18.830
291.29	18.182
291.66	16.942
292.03	17.096
292.40	18.912
292.77	16.307
293.13	17.185
293.50	14.849
293.87	16.242
294.24	17.467
294.60	17.320
294.97	15.168
295.34	18.438
295.71	15.259
296.08	15.245
296.44	15.686
296.81	15.225
297.18	16.314
297.55	16.509
297.91	15.658
298.28	15.284
298.65	15.577
299.02	15.230
299.38	14.874
299.75	14.836
300.12	14.699
300.48	15.207
300.85	13.386
301.22	15.660
301.59	15.183
301.95	14.237
302.32	14.889
302.69	14.896
303.05	15.778
303.42	16.186
303.79	15.000
304.15	14.616
304.52	14.376
304.89	15.393
305.25	15.114
305.62	15.256
305.99	14.948
306.35	14.718
306.72	15.408
307.09	14.112
307.45	15.217
307.82	13.623
308.19	15.136
308.55	16.008
308.92	14.898
309.29	14.655
309.65	14.717
310.02	14.554
310.38	14.764
310.75	16.117
311.12	16.395
311.48	14.467
311.85	15.764
312.22	16.793
312.58	15.681
312.95	15.583
313.31	15.628
313.68	16.758
314.05	16.441
314.41	16.302
314.78	16.894
315.14	17.060
315.51	17.175
315.87	17.102
316.24	16.986
316.61	18.117
316.97	18.371
317.34	17.549
317.70	18.253
318.07	17.989
318.43	18.793
318.80	19.816
319.16	18.026
319.53	17.823
319.89	18.580
320.26	19.395
320.62	17.465
320.99	19.298
321.35	19.501
321.72	21.209
322.08	19.297
322.45	21.590
322.81	22.022
323.18	21.062
323.54	23.448
323.91	22.509
324.27	21.601
324.64	23.090
325.00	22.388
325.37	23.833
325.73	24.793
326.10	25.304
326.46	25.814
326.83	26.021
327.19	24.567
327.56	26.482
327.92	26.515
328.29	25.000
328.65	24.874
329.01	26.311
329.38	26.622
329.74	27.740
330.11	26.541
330.47	27.464
330.84	26.443
331.20	27.833
331.56	27.470
331.93	27.950
332.29	27.542
332.66	27.326
333.02	26.968
333.38	26.594
333.75	27.609
334.11	26.856
334.48	26.815
334.84	28.632
335.20	28.044
335.57	27.825
335.93	28.512
336.29	27.621
336.66	28.259
337.02	28.177
337.38	27.636
337.75	28.017
338.11	29.689
338.47	28.122
338.84	28.680
339.20	27.211
339.56	28.007
339.93	26.273
340.29	27.375
340.65	28.548
341.02	29.529
341.38	29.588
341.74	28.249
342.11	28.962
342.47	27.403
342.83	29.066
343.20	28.128
343.56	28.869
343.92	27.702
344.28	29.062
344.65	28.837
345.01	28.939
345.37	28.616
345.73	28.761
346.10	28.861
346.46	27.453
346.82	29.513
347.19	29.259
347.55	28.376
347.91	28.678
348.27	30.046
348.63	28.408
349.00	28.262
349.36	28.996
349.72	29.688
350.08	29.643
350.45	29.125
350.81	28.733
351.17	29.248
351.53	29.871
351.89	29.689
352.26	29.104
352.62	29.179
352.98	29.008
353.34	28.827
353.70	29.584
354.07	29.955
354.43	29.613
354.79	28.945
355.15	30.243
355.51	29.825
355.87	28.497
356.24	30.190
356.60	29.564
356.96	29.429
357.32	29.442
357.68	29.209
358.04	29.940
358.40	29.478
358.77	29.459
359.13	28.877
359.49	29.814
359.85	30.384
360.21	30.273
360.57	30.151
360.93	30.465
361.29	31.088
361.66	29.833
362.02	31.524
362.38	31.131
362.74	31.355
363.10	31.499
363.46	32.133
363.82	29.972
364.18	30.542
364.54	30.498
364.90	30.836
365.26	32.000
365.62	31.000
365.98	31.926
366.35	31.007
366.71	32.041
367.07	32.950
367.43	32.436
367.79	33.046
368.15	32.642
368.51	32.882
368.87	32.854
369.23	32.467
369.59	33.470
369.95	33.942
370.31	33.964
370.67	33.425
371.03	34.349
371.39	33.378
371.75	33.906
372.11	34.146
372.47	33.446
372.83	35.013
373.19	33.823
373.55	33.740
373.91	34.492
374.27	35.058
374.63	35.859
374.99	35.212
375.35	35.714
375.71	34.774
376.07	36.088
376.42	35.390
376.78	37.477
377.14	35.995
377.50	36.306
377.86	36.823
378.22	36.407
378.58	38.050
378.94	37.031
379.30	37.493
379.66	37.331
380.02	37.276
380.38	39.747
380.74	38.085
381.09	38.792
381.45	39.205
381.81	39.461
382.17	39.014
382.53	38.129
382.89	39.786
383.25	39.977
383.61	39.468
383.97	40.283
384.32	41.029
384.68	39.675
385.04	40.949
385.40	41.190
385.76	42.556
386.12	41.412
386.48	41.882
386.83	42.253
387.19	41.947
387.55	41.901
387.91	42.295
388.27	42.090
388.62	43.299
388.98	42.696
389.34	43.783
389.70	44.683
390.06	43.991
390.42	44.759
390.77	44.852
391.13	45.305
391.49	45.048
391.85	46.061
392.20	44.899
392.56	45.600
392.92	45.474
393.28	46.379
393.64	46.536
393.99	47.298
394.35	47.722
394.71	47.844
395.07	47.365
395.42	47.630
395.78	48.812
396.14	49.138
396.50	48.040
396.85	48.301
397.21	48.817
397.57	49.588
397.92	48.339
398.28	49.484
398.64	50.000
399.00	49.110
399.35	50.366
399.71	51.304
400.07	52.049
400.42	51.397
400.78	51.389
401.14	51.964
401.49	53.837
401.85	52.849
402.21	53.882
402.57	53.991
402.92	53.191
403.28	51.991
403.63	54.296
403.99	53.504
404.35	54.804
404.70	55.014
405.06	55.217
405.42	55.562
405.77	54.853
406.13	55.970
406.49	55.631
406.84	55.845
407.20	56.288
407.55	56.814
407.91	57.197
408.27	56.066
408.62	58.173
408.98	58.096
409.34	57.478
409.69	58.653
410.05	58.324
410.40	59.455
410.76	59.170
411.11	60.374
411.47	60.074
411.83	60.847
412.18	61.446
412.54	61.589
412.89	60.361
413.25	62.133
413.60	61.574
413.96	61.713
414.31	61.020
414.67	62.135
415.03	60.554
415.38	62.799
415.74	61.759
416.09	63.171
416.45	62.868
416.80	62.791
417.16	63.665
417.51	64.757
417.87	64.316
418.22	65.030
418.58	63.321
418.93	64.901
419.29	65.290
419.64	65.606
420.00	65.757
420.35	65.076
420.71	64.963
421.06	64.922
421.42	66.227
421.77	64.728
422.12	64.852
422.48	66.359
422.83	67.251
423.19	66.578
423.54	67.478
423.90	66.483
424.25	67.520
424.61	67.222
424.96	67.545
425.31	67.038
425.67	66.559
426.02	69.618
426.38	68.197
426.73	68.080
427.09	70.127
427.44	69.143
427.79	67.883
428.15	69.007
428.50	68.090
428.85	67.451
429.21	68.777
429.56	68.756
429.92	68.649
430.27	69.108
430.62	68.930
430.98	68.667
431.33	67.693
431.68	69.253
432.04	69.477
432.39	68.506
432.74	69.235
433.10	70.633
433.45	69.844
433.80	70.118
434.16	70.455
434.51	70.452
434.86	71.227
435.22	72.901
435.57	72.170
435.92	71.564
436.28	70.535
436.63	73.293
436.98	71.444
437.34	71.871
437.69	71.602
438.04	71.761
438.39	72.257
438.75	72.274
439.10	72.093
439.45	69.536
439.81	70.734
440.16	70.617
440.51	71.405
440.86	70.206
441.22	71.329
441.57	72.432
441.92	71.581
442.27	72.576
442.63	70.591
442.98	72.145
443.33	72.593
443.68	72.101
444.03	73.518
444.39	73.370
444.74	71.669
445.09	70.654
445.44	72.813
445.79	71.648
446.15	73.124
446.50	72.765
446.85	72.130
447.20	72.679
447.55	72.699
447.91	72.775
448.26	71.564
448.61	71.254
448.96	72.854
449.31	71.368
449.66	72.985
450.02	72.310
450.37	71.870
450.72	72.766
451.07	72.039
451.42	71.288
451.77	72.429
452.12	73.871
452.47	72.252
452.83	73.874
453.18	72.096
453.53	70.190
453.88	70.955
454.23	72.429
454.58	72.664
454.93	73.058
455.28	73.329
455.63	72.200
455.98	71.341
456.34	72.733
456.69	71.605
457.04	72.340
457.39	71.452
457.74	71.980
458.09	70.016
458.44	71.552
458.79	71.274
459.14	71.578
459.49	71.307
459.84	71.931
460.19	71.682
460.54	72.232
460.89	72.419
461.24	70.172
461.59	72.053
461.94	69.823
462.29	72.452
462.64	71.092
462.99	71.940
463.34	71.447
463.69	69.988
464.04	70.817
464.39	71.469
464.74	70.353
465.09	69.954
465.44	70.547
465.79	70.122
466.14	70.245
466.49	71.368
466.84	71.791
467.19	70.520
467.54	69.506
467.89	71.034
468.24	71.191
468.59	70.122
468.94	69.056
469.29	69.526
469.64	71.329
469.99	70.554
470.34	69.740
470.68	72.591
471.03	72.037
471.38	71.877
471.73	70.286
472.08	71.320
472.43	71.403
472.78	70.466
473.13	71.555
473.48	71.178
473.83	70.226
474.17	69.402
474.52	70.535
474.87	69.214
475.22	69.803
475.57	70.093
475.92	69.985
476.27	70.873
476.61	69.367
476.96	71.168
477.31	71.535
477.66	69.780
478.01	69.395
478.36	69.990
478.70	70.246
479.05	70.245
479.40	70.681
479.75	69.500
480.10	69.777
480.45	69.189
480.79	70.159
481.14	69.256
481.49	69.105
481.84	70.104
482.19	69.849
482.53	70.179
482.88	69.960
483.23	70.520
483.58	69.651
483.92	70.035
484.27	69.179
484.62	68.441
484.97	69.557
485.31	67.687
485.66	66.244
486.01	64.875
486.36	65.866
486.70	67.534
487.05	69.651
487.40	68.423
487.75	69.211
488.09	69.710
488.44	68.187
488.79	68.668
489.13	68.320
489.48	68.544
489.83	67.726
490.17	67.679
490.52	67.159
490.87	67.343
491.22	69.021
491.56	68.046
491.91	68.120
492.26	68.369
492.60	68.430
492.95	68.276
493.30	68.803
493.64	67.981
493.99	68.465
494.34	66.855
494.68	68.308
495.03	68.414
495.37	68.531
495.72	68.254
496.07	67.616
496.41	66.752
496.76	68.432
497.11	68.068
497.45	66.940
497.80	67.570
498.14	67.483
498.49	68.796
498.84	69.241
499.18	68.556
499.53	69.103
499.87	68.659
500.22	68.210
500.56	67.791
500.91	68.009
501.26	68.955
501.60	67.830
501.95	67.434
502.29	68.495
502.64	68.124
502.98	66.005
503.33	67.127
503.67	66.899
504.02	67.382
504.36	68.097
504.71	69.086
505.06	67.894
505.40	68.464
505.75	67.987
506.09	67.956
506.44	68.849
506.78	67.661
507.13	68.649
507.47	68.546
507.82	68.040
508.16	68.929
508.51	68.448
508.85	69.721
509.19	69.588
509.54	68.780
509.88	69.451
510.23	68.577
510.57	68.777
510.92	68.892
511.26	68.927
511.61	68.759
511.95	69.644
512.30	68.981
512.64	67.716
512.98	68.334
513.33	69.456
513.67	69.097
514.02	69.699
514.36	69.258
514.70	70.312
515.05	70.177
515.39	71.181
515.74	70.467
516.08	70.365
516.42	70.382
516.77	70.242
517.11	70.294
517.46	70.361
517.80	70.337
518.14	71.382
518.49	71.041
518.83	68.973
519.17	69.628
519.52	70.755
519.86	71.014
520.20	69.915
520.55	71.851
520.89	71.115
521.23	69.905
521.58	73.390
521.92	70.992
522.26	70.676
522.61	73.611
522.95	71.799
523.29	73.563
523.64	71.917
523.98	71.706
524.32	73.467
524.66	72.908
525.01	72.084
525.35	70.592
525.69	71.288
526.04	70.321
526.38	73.046
526.72	72.491
527.06	73.431
527.41	73.644
527.75	72.625
528.09	73.377
528.43	73.712
528.78	72.601
529.12	72.592
529.46	72.232
529.80	73.570
530.15	72.870
530.49	73.428
530.83	72.373
531.17	73.178
531.51	74.609
531.86	73.918
532.20	75.671
532.54	72.352
532.88	72.727
533.22	73.129
533.57	73.341
533.91	72.840
534.25	73.714
534.59	72.644
534.93	72.892
535.27	74.479
535.62	73.849
535.96	74.492
536.30	72.797
536.64	75.315
536.98	74.293
537.32	73.765
537.66	74.485
538.01	72.508
538.35	73.386
538.69	73.738
539.03	73.574
539.37	72.497
539.71	73.574
540.05	74.041
540.39	72.127
540.73	72.131
541.07	74.739
541.42	72.416
541.76	73.428
542.10	73.764
542.44	73.325
542.78	73.358
543.12	73.004
543.46	73.382
543.80	72.362
544.14	73.788
544.48	74.882
544.82	74.267
545.16	74.538
545.50	73.098
545.84	73.301
546.18	75.062
546.52	75.223
546.86	73.836
547.20	74.173
547.54	74.719
547.88	72.574
548.22	72.398
548.56	73.493
548.90	73.612
549.24	72.827
549.58	75.268
549.92	75.064
550.26	74.239
550.60	72.750
550.94	73.868
551.28	74.851
551.62	75.606
551.96	71.909
552.30	73.996
552.64	73.802
552.98	73.051
553.32	75.884
553.66	74.534
554.00	74.527
554.34	74.453
554.68	72.628
555.02	74.244
555.36	74.556
555.69	72.838
556.03	72.825
556.37	73.529
556.71	73.557
557.05	72.843
557.39	75.979
557.73	74.240
558.07	74.636
558.41	76.013
558.75	74.239
559.08	75.435
559.42	74.280
559.76	73.134
560.10	73.342
560.44	73.021
560.78	74.500
561.12	73.091
561.45	74.027
561.79	73.443
562.13	73.075
562.47	72.380
562.81	73.734
563.15	73.927
563.48	73.586
563.82	72.854
564.16	71.714
564.50	73.004
564.84	73.333
565.17	73.412
565.51	72.037
565.85	73.159
566.19	72.005
566.52	73.142
566.86	72.892
567.20	71.778
567.54	72.544
567.88	71.814
568.21	71.640
568.55	71.511
568.89	71.039
569.23	71.187
569.56	71.082
569.90	69.779
570.24	69.815
570.57	69.820
570.91	68.953
571.25	68.007
571.59	68.578
571.92	68.070
572.26	69.375
572.60	68.359
572.93	67.632
573.27	68.615
573.61	67.893
573.95	67.832
574.28	66.363
574.62	66.871
574.96	66.453
575.29	66.028
575.63	66.389
575.97	67.305
576.30	66.395
576.64	66.309
576.98	66.606
577.31	66.645
577.65	67.169
577.98	66.416
578.32	65.968
578.66	65.643
578.99	66.291
579.33	66.696
579.67	67.135
580.00	66.824
580.34	66.688
580.67	66.174
581.01	67.200
581.35	65.829
581.68	65.146
582.02	65.228
582.35	66.245
582.69	66.490
583.02	66.567
583.36	66.852
583.70	67.598
584.03	67.459
584.37	67.415
584.70	66.577
585.04	66.403
585.37	65.930
585.71	65.351
586.04	65.037
586.38	66.226
586.72	65.831
587.05	67.025
587.39	66.891
587.72	66.986
588.06	66.248
588.39	66.791
588.73	67.063
589.06	65.604
589.40	67.517
589.73	67.384
590.07	67.905
590.40	69.270
590.73	67.586
591.07	68.131
591.40	66.952
591.74	67.210
592.07	67.682
592.41	67.271
592.74	66.134
593.08	66.879
593.41	65.908
593.75	65.402
594.08	66.404
594.41	66.827
594.75	65.991
595.08	67.127
595.42	66.331
595.75	66.807
596.09	66.079
596.42	68.004
596.75	68.159
597.09	68.566
597.42	66.865
597.75	66.719
598.09	66.944
598.42	66.787
598.76	66.527
599.09	65.824
599.42	65.102
599.76	65.401
600.09	66.066
600.42	65.299
600.76	66.050
601.09	65.417
601.42	66.220
601.76	65.828
602.09	66.619
602.42	65.976
602.76	67.011
603.09	66.410
603.42	66.980
603.76	65.539
604.09	66.678
604.42	66.789
604.76	66.134
605.09	66.494
605.42	66.707
605.75	65.846
606.09	65.771
606.42	65.524
606.75	65.442
607.09	64.132
607.42	65.742
607.75	65.807
608.08	65.470
608.42	65.538
608.75	66.459
609.08	66.129
609.41	66.652
609.75	67.009
610.08	66.974
610.41	65.293
610.74	65.504
611.07	67.718
611.41	66.996
611.74	66.328
612.07	66.900
612.40	66.445
612.73	68.264
613.07	66.748
613.40	67.565
613.73	66.827
614.06	66.781
614.39	65.015
614.72	65.163
615.06	65.784
615.39	65.539
615.72	64.645
616.05	65.906
616.38	67.306
616.71	66.771
617.05	66.826
617.38	66.025
617.71	66.145
618.04	66.595
618.37	68.306
618.70	67.760
619.03	67.921
619.36	67.201
619.69	65.599
620.03	67.671
620.36	66.442
620.69	66.502
621.02	67.782
621.35	70.392
621.68	68.691
622.01	67.331
622.34	67.085
622.67	67.904
623.00	66.194
623.33	67.485
623.66	67.445
623.99	68.071
624.32	67.186
624.65	66.216
624.99	67.750
625.32	67.603
625.65	67.903
625.98	67.729
626.31	66.903
626.64	69.304
626.97	68.192
627.30	67.274
627.63	66.842
627.96	68.243
628.29	66.615
628.62	67.254
628.95	70.640
629.28	67.799
629.61	69.529
629.94	66.276
630.26	67.288
630.59	67.530
630.92	67.532
631.25	68.426
631.58	68.832
631.91	69.822
632.24	70.029
632.57	68.406
632.90	70.010
633.23	70.816
633.56	68.980
633.89	69.938
634.22	69.127
634.55	70.146
634.88	72.186
635.20	69.107
635.53	70.960
635.86	68.256
636.19	69.671
636.52	68.143
636.85	66.496
637.18	68.399
637.51	69.032
637.83	69.546
638.16	71.083
638.49	72.653
638.82	68.658
639.15	69.645
639.48	70.670
639.81	66.859
640.13	69.611
640.46	67.758
640.79	68.137
641.12	69.689
641.45	69.385
641.77	72.015
642.10	70.604
642.43	69.282
642.76	69.783
643.09	68.767
643.41	69.048
643.74	71.034
644.07	71.172
644.40	70.014
644.73	70.682
645.05	71.219
645.38	71.511
645.71	70.381
646.04	69.440
646.36	69.343
646.69	70.245
647.02	72.018
647.35	69.771
647.67	71.337
648.00	72.293
648.33	67.868
648.66	70.613
648.98	67.483
649.31	69.012
649.64	66.932
649.96	67.772
650.29	67.594
650.62	67.751
650.94	68.018
651.27	67.665
651.60	66.667
651.92	67.477
652.25	68.741
652.58	67.125
652.90	67.587
653.23	68.732
653.56	67.190
653.88	68.399
654.21	65.070
654.54	67.052
654.86	67.564
655.19	64.743
655.52	62.650
655.84	56.195
656.17	65.654
656.49	91.206
656.82	99.525
657.15	82.796
657.47	62.166
657.80	47.345
658.13	37.130
658.45	49.823
658.78	61.399
659.10	61.265
659.43	60.563
659.75	60.600
660.08	59.776
660.41	60.959
660.73	63.398
661.06	65.786
661.38	66.029
661.71	66.034
662.03	69.312
662.36	64.937
662.68	67.167
663.01	65.664
663.33	70.699
663.66	69.780
663.98	66.923
664.31	68.480
664.63	70.135
664.96	68.421
665.28	65.154
665.61	67.483
665.93	66.607
666.26	68.459
666.58	67.897
666.91	68.411
667.23	66.667
667.56	68.836
667.88	71.000
668.21	66.602
668.53	66.216
668.86	67.583
669.18	69.450
669.50	65.805
669.83	67.800
670.15	66.339
670.48	66.468
670.80	66.157
671.13	65.784
671.45	63.189
671.77	68.738
672.10	60.500
672.42	61.812
672.75	62.058
673.07	60.299
673.39	61.017
673.72	64.430
674.04	67.414
674.37	67.084
674.69	65.785
675.01	64.381
675.34	66.221
675.66	63.483
675.98	64.739
676.31	65.820
676.63	66.350
676.95	65.134
677.28	67.540
677.60	62.402
677.92	68.906
678.25	64.168
678.57	63.345
678.89	66.212
679.22	61.324
679.54	60.171
679.86	60.508
680.18	61.857
680.51	62.264
680.83	62.684
681.15	64.655
681.48	64.076
681.80	62.867
682.12	64.510
682.44	61.102
682.77	61.879
683.09	64.015
683.41	62.597
683.73	60.342
684.06	61.439
684.38	59.571
684.70	62.118
685.02	61.790
685.34	60.732
685.67	61.356
685.99	59.509
686.31	56.977
686.63	62.559
686.96	61.199
687.28	60.261
687.60	60.269
687.92	58.360
688.24	59.265
688.56	58.621
688.89	61.162
689.21	65.558
689.53	60.000
689.85	59.369
690.17	64.074
690.49	61.753
690.82	62.574
691.14	60.121
691.46	61.759
691.78	60.589
692.10	60.550
692.42	58.571
692.74	58.621
693.06	56.667
693.39	60.721
693.71	59.586
694.03	59.294
694.35	59.429
694.67	59.138
694.99	61.915
695.31	62.914
695.63	63.420
695.95	58.385
696.27	60.000
696.59	62.389
696.91	59.234
697.23	61.099
697.56	57.841
697.88	58.712
698.20	58.757
698.52	60.795
698.84	61.954
699.16	58.776
699.48	57.950
699.80	59.574
700.12	60.480
700.44	60.138
700.76	58.195
701.08	61.985
701.40	62.953
701.72	58.458
702.04	62.299
702.36	57.853
702.68	56.968
703.00	59.902
703.32	57.143
703.64	56.968
703.96	57.518
704.28	55.283
704.60	62.025
704.91	57.653
705.23	58.904
705.55	57.103
705.87	63.030
706.19	66.258
706.51	56.928
706.83	61.095
707.15	56.878
707.47	55.607
707.79	56.332
708.11	51.483
708.43	56.344
708.74	55.804
709.06	59.165
709.38	56.103
709.70	56.576
710.02	57.106
710.34	59.840
710.66	56.145
710.98	59.016
711.29	59.615
711.61	57.345
711.93	57.265
712.25	57.027
712.57	61.357
712.89	58.529
713.20	52.367
713.52	60.983
713.84	50.975
714.16	58.158
714.48	58.247
714.80	59.740
715.11	55.643
715.43	53.846
715.75	54.211
716.07	54.696
716.39	57.104
716.70	56.627
717.02	59.672
717.34	58.537
717.66	58.054
717.97	55.479
718.29	58.076
718.61	52.961
718.93	51.780
719.24	55.280
719.56	57.055
719.88	52.853
720.20	55.484
720.51	56.832
720.83	54.688
721.15	54.605
721.46	58.219
721.78	55.667
722.10	53.398
722.42	55.705
722.73	53.548
723.05	57.544
723.37	53.819
723.68	53.405
724.00	57.762
724.32	50.000
724.63	51.049
724.95	56.028
725.27	55.401
725.58	56.890
725.90	60.690
726.22	57.367
726.53	52.922
726.85	59.119
727.16	49.245
727.48	54.128
727.80	51.656
728.11	48.763
728.43	56.229
728.74	53.512
729.06	55.298
729.38	52.273
729.69	55.034
730.01	47.619
730.32	51.818
730.64	56.918
730.96	54.037
731.27	53.073
731.59	54.396
731.90	48.571
732.22	48.698
732.53	50.276
732.85	51.143
733.16	50.440
733.48	52.134
733.80	50.696
734.11	49.858
734.43	48.108
734.74	55.949
735.06	47.739
735.37	53.784
735.69	49.189
736.00	52.542
736.32	47.170
736.63	48.611
736.95	51.437
737.26	50.000
737.58	51.515
737.89	51.471
738.21	50.153
738.52	54.426
738.83	52.560
739.15	50.709
739.46	50.680
739.78	50.920
740.09	48.138
740.41	52.478
740.72	58.000
741.04	54.369
741.35	52.281
741.66	56.078
741.98	53.279
742.29	53.556
742.61	56.140
742.92	50.385
743.23	51.986
743.55	49.225
743.86	53.200
744.18	44.628
744.49	46.835
744.80	55.144
745.12	51.055
745.43	55.285
745.74	47.845
746.06	53.390
746.37	59.916
746.68	47.561
747.00	51.667
747.31	55.365
747.62	47.692
747.94	54.656
748.25	46.988
748.56	48.980
748.88	50.000
749.19	57.759
749.50	50.216
749.82	53.012
750.13	49.822
750.44	49.667
750.75	47.385
751.07	50.154
751.38	50.789
751.69	50.160
752.01	44.337
752.32	48.039
752.63	48.639
752.94	50.173
753.26	45.725
753.57	50.000
753.88	49.813
754.19	48.232
754.51	49.839
754.82	45.659
755.13	49.180
755.44	49.488
755.75	48.355
756.07	50.746
756.38	51.572
756.69	50.301
757.00	42.105
757.31	47.268
757.63	42.455
757.94	43.662
758.25	45.598
758.56	40.523
758.87	46.364
759.18	45.067
759.50	47.025
759.81	49.300
760.12	47.439
760.43	44.531
760.74	48.030
761.05	47.500
761.36	43.133
761.67	47.208
761.99	42.703
762.30	47.256
762.61	38.614
762.92	49.627
763.23	46.442
763.54	48.201
763.85	45.361
764.16	45.118
764.47	51.408
764.78	46.645
765.10	47.214
765.41	45.641
765.72	41.534
766.03	45.480
766.34	42.320
766.65	41.812
766.96	47.410
767.27	49.309
767.58	45.274
767.89	50.481
768.20	51.174
768.51	44.444
768.82	43.373
769.13	42.803
769.44	40.769
769.75	44.043
770.06	46.154
770.37	39.370
770.68	49.362
770.99	40.486
771.30	50.000
771.61	44.106
771.92	41.852
772.23	48.583
772.54	42.130
772.85	46.544
773.16	49.524
773.47	48.148
773.78	46.486
774.09	48.864
774.39	48.000
774.70	57.377
775.01	36.585
775.32	42.353
775.63	41.718
775.94	38.217
776.25	42.581
776.56	50.000
776.87	46.259
777.18	42.069
777.48	52.448
777.79	38.514
778.10	40.441
778.41	39.583
778.72	44.138
779.03	45.062
779.34	41.818
779.65	46.114
779.95	45.000
780.26	39.773
780.57	40.645
780.88	48.551
781.19	44.516
781.50	47.647
781.80	46.774
782.11	40.212
782.42	33.333
782.73	38.922
783.04	35.196
783.34	42.424
783.65	39.869
783.96	35.404
784.27	39.286
784.57	43.709
784.88	42.857
785.19	38.583
785.50	43.307
785.81	39.850
786.11	46.154
786.42	31.655
786.73	44.604
787.04	45.113
787.34	40.984
787.65	46.400
787.96	39.552
788.26	38.462
788.57	44.755
788.88	42.763
789.19	38.562
789.49	41.781
789.80	39.007
790.11	43.307
790.41	35.938
790.72	33.898
791.03	27.184
791.33	34.783
791.64	34.211
791.95	34.821
792.25	40.000
792.56	36.607
792.87	30.208
793.17	31.250
793.48	27.083
793.79	34.940
794.09	32.110
794.40	48.624
794.70	38.776
795.01	28.571
795.32	34.247
795.62	41.549
795.93	35.606
796.23	46.721
796.54	31.250
796.85	38.298
797.15	28.261
797.46	39.726
797.76	28.750
798.07	33.696
798.37	28.866
798.68	25.974
798.99	39.080
799.29	40.449
799.60	44.681
799.90	32.530
800.21	27.692
800.51	29.851
800.82	30.882
801.12	17.808
801.43	29.412
801.73	32.203
802.04	40.909
802.34	40.000
802.65	33.898
802.95	43.284
803.26	25.424
803.56	23.288
803.87	47.143
804.17	34.247
804.48	24.561
804.78	33.333
805.09	31.034
805.39	33.784
805.70	18.310
806.00	31.707
806.30	33.735
806.61	21.918
806.91	33.654
807.22	45.556
807.52	25.287
807.83	47.222
808.13	36.145
808.43	24.719
808.74	30.000
809.04	16.176
809.35	21.333
809.65	27.143
809.95	38.356
810.26	14.035
810.56	36.207
810.86	39.706
811.17	26.316
811.47	21.311
811.77	35.556
812.08	35.593
812.38	23.333
812.69	25.862
812.99	16.981
813.29	38.462
813.59	36.000
813.90	47.368
814.20	36.364
814.50	49.296
814.81	34.615
815.11	37.705
815.41	26.866
815.72	34.483
816.02	35.714
816.32	44.444
816.62	43.182
816.93	8.889
817.23	37.037
817.53	17.021
817.84	76.190
818.14	26.471
818.44	14.286
818.74	13.333
819.04	10.256
819.35	8.571
819.65	11.538
819.95	26.415
820.25	40.000
820.56	14.286
820.86	31.250
821.16	25.641
821.46	34.884
821.76	16.000
822.07	28.571
822.37	21.739
822.67	21.277
822.97	-13.514
823.27	35.000
823.57	22.449
823.88	24.444
824.18	35.000
824.48	30.000
824.78	16.000
825.08	45.455
825.38	46.667
825.69	51.064
825.99	19.444
826.29	-5.714
826.59	28.205
826.89	23.256
827.19	28.000
827.49	17.647
827.79	12.500
828.09	29.730
828.39	23.333
828.70	2.439
829.00	30.233
829.30	0.000
829.60	14.706
829.90	6.522
830.20	14.286
830.50	10.345
830.80	-11.111
831.10	11.538
831.40	20.588
831.70	14.286
832.00	29.032
832.30	-52.941
832.60	-37.500
832.90	-53.846
833.20	15.789
833.50	-20.000
833.80	-21.053
834.10	-4.762
834.40	27.778
834.70	40.625
835.00	-5.714
835.30	2.941
835.60	10.000
835.90	-16.000
836.20	-27.273
836.50	0.000
836.80	-6.061
837.10	-29.630
837.40	3.704
837.70	-37.500
838.00	0.000
838.30	8.696
838.60	-6.897
838.90	64.286
839.19	-43.478
839.49	-25.000
839.79	21.739
840.09	-31.250
840.39	0.000
840.69	19.355
840.99	-17.857
841.29	0.000
841.59	15.789
841.88	12.821
842.18	-50.000
842.48	-30.000
842.78	15.000
843.08	-6.667
843.38	3.226
843.68	-44.444
843.97	14.706
844.27	37.500
844.57	-21.053
844.87	-30.000
845.17	0.000
845.47	47.619
845.76	-28.571
846.06	-44.444
846.36	-47.059
846.66	3.846
846.96	-26.667
847.25	41.176
847.55	26.087
847.85	-15.000
848.15	5.882
848.44	27.273
848.74	9.524
849.04	8.333
849.34	-68.750
849.63	17.391
849.93	550.000
850.23	-20.000
850.53	19.231
850.82	36.364
851.12	13.636
851.42	-81.818
851.71	-53.846
852.01	-25.000
852.31	-23.077
852.61	-10.526
852.90	83.333
853.20	-61.111
853.50	-133.333
853.79	-42.857
854.09	-22.727
854.39	-25.000
854.68	29.032
854.98	-26.923
855.28	-11.111
855.57	10.714
855.87	20.000
856.17	0.000
856.46	-11.111
856.76	-5.556
857.05	-21.739
857.35	12.500
857.65	-30.769
857.94	-14.286
858.24	3.704
858.53	60.870
858.83	88.235
859.13	29.412
859.42	23.529
859.72	21.429
860.01	-25.000
860.31	-144.444
860.60	20.000
860.90	0.000
861.20	-16.667
861.49	-7.692
861.79	-3.333
862.08	-38.462
862.38	6.250
862.67	-11.765
862.97	18.750
863.26	-77.778
863.56	0.000
863.85	-9.091
864.15	-16.667
864.44	-300.000
864.74	0.000
865.03	-6.250
865.33	-130.000
865.62	-3.226
865.92	-13.636
866.21	0.000
866.51	-7.143
866.80	-100.000
867.10	-25.000
867.39	-66.667
867.69	800.000
867.98	-185.714
868.27	11.765
868.57	-1500.000
868.86	-110.000
869.16	4.762
869.45	20.833
869.75	-9.091
870.04	-114.286
870.33	-25.000
870.63	-171.429
870.92	-200.000
871.22	-175.000
871.51	-72.727
871.80	-400.000
872.10	-150.000
>>>>>End Processed Spectral Data<<<<<
