SpectraSuite Data File
++++++++++++++++++++++++++++++++++++
Date: Thu May 14 16:12:02 PDT 2015
User: schluterlab
Dark Spectrum Present: Yes
Reference Spectrum Present: Yes
Number of Sampled Component Spectra: 1
Spectrometers: USB2E3373
Integration Time (usec): 3000 (USB2E3373)
Spectra Averaged: 3 (USB2E3373)
Boxcar Smoothing: 0 (USB2E3373)
Correct for Electrical Dark: No (USB2E3373)
Strobe/Lamp Enabled: No (USB2E3373)
Correct for Detector Non-linearity: No (USB2E3373)
Correct for Stray Light: No (USB2E3373)
Number of Pixels in Processed Spectrum: 2048
>>>>>Begin Processed Spectral Data<<<<<
178.53	0.000
178.91	100.000
179.29	-1300.000
179.67	-300.000
180.04	107.143
180.42	150.000
180.80	140.000
181.18	-1000.000
181.56	800.000
181.94	50.000
182.31	-375.000
182.69	266.667
183.07	-150.000
183.45	150.000
183.83	-133.333
184.20	-133.333
184.58	1300.000
184.96	-300.000
185.34	-111.111
185.72	-100.000
186.09	155.556
186.47	700.000
186.85	280.000
187.23	-66.667
187.61	-1500.000
187.98	140.000
188.36	25.000
188.74	-275.000
189.12	-400.000
189.49	-31.250
189.87	-112.500
190.25	-22.222
190.63	-140.000
191.00	-144.444
191.38	0.000
191.76	-150.000
192.14	-133.333
192.51	650.000
192.89	16.667
193.27	0.000
193.65	28.571
194.02	-600.000
194.40	-200.000
194.78	171.429
195.15	0.000
195.53	-18.182
195.91	0.000
196.29	-75.000
196.66	-23.077
197.04	-700.000
197.42	-42.857
197.79	-650.000
198.17	-112.500
198.55	-71.429
198.92	-11.111
199.30	-175.000
199.68	27.273
200.05	-7.143
200.43	50.000
200.81	214.286
201.18	0.000
201.56	155.556
201.94	0.000
202.31	233.333
202.69	-100.000
203.07	100.000
203.44	-55.556
203.82	-175.000
204.19	25.000
204.57	-133.333
204.95	-112.500
205.32	-900.000
205.70	175.000
206.08	0.000
206.45	-83.333
206.83	360.000
207.20	-133.333
207.58	-160.000
207.96	-100.000
208.33	-116.667
208.71	91.667
209.08	-16.667
209.46	0.000
209.84	166.667
210.21	300.000
210.59	150.000
210.96	433.333
211.34	-50.000
211.71	-100.000
212.09	-700.000
212.46	0.000
212.84	700.000
213.22	-160.000
213.59	-50.000
213.97	30.000
214.34	-333.333
214.72	100.000
215.09	-400.000
215.47	0.000
215.84	-28.571
216.22	550.000
216.59	0.000
216.97	-60.000
217.34	-200.000
217.72	-50.000
218.09	-150.000
218.47	-475.000
218.84	0.000
219.22	400.000
219.59	5.882
219.97	-5.000
220.34	600.000
220.72	-166.667
221.09	38.462
221.47	-200.000
221.84	-90.000
222.22	-142.857
222.59	0.000
222.97	-75.000
223.34	-140.000
223.72	-1400.000
224.09	-300.000
224.46	-375.000
224.84	140.000
225.21	-114.286
225.59	-500.000
225.96	-100.000
226.34	34.615
226.71	416.667
227.08	-600.000
227.46	-20.000
227.83	-200.000
228.21	0.000
228.58	75.000
228.95	850.000
229.33	-16.667
229.70	-100.000
230.08	63.158
230.45	90.000
230.82	-166.667
231.20	28.571
231.57	58.333
231.95	-18.182
232.32	-54.545
232.69	-10.000
233.07	-200.000
233.44	-29.412
233.81	-80.000
234.19	-38.889
234.56	-18.182
234.93	17.241
235.31	5.263
235.68	-16.667
236.05	-25.000
236.43	3.846
236.80	32.000
237.17	-29.630
237.55	-12.121
237.92	-100.000
238.29	-6.452
238.67	-4.545
239.04	-8.333
239.41	-16.667
239.79	-2.174
240.16	7.407
240.53	15.217
240.91	-33.333
241.28	-6.557
241.65	8.955
242.02	14.865
242.40	-7.692
242.77	5.333
243.14	0.000
243.51	1.316
243.89	-15.385
244.26	13.861
244.63	4.902
245.00	7.477
245.38	7.895
245.75	-0.885
246.12	6.349
246.49	6.202
246.87	6.429
247.24	2.649
247.61	9.211
247.98	4.027
248.36	7.407
248.73	7.362
249.10	1.093
249.47	12.438
249.84	12.565
250.22	5.181
250.59	11.111
250.96	10.000
251.33	9.694
251.70	12.393
252.08	9.583
252.45	9.426
252.82	4.545
253.19	5.859
253.56	11.027
253.94	4.615
254.31	10.606
254.68	11.538
255.05	11.075
255.42	4.422
255.79	2.589
256.16	8.940
256.54	5.298
256.91	7.869
257.28	8.525
257.65	5.096
258.02	5.015
258.39	9.687
258.76	12.844
259.14	10.920
259.51	7.205
259.88	6.799
260.25	6.944
260.62	10.685
260.99	10.656
261.36	8.311
261.73	7.692
262.10	8.242
262.47	8.311
262.85	11.364
263.22	7.273
263.59	7.632
263.96	8.440
264.33	6.394
264.70	4.938
265.07	8.115
265.44	8.844
265.81	7.407
266.18	10.658
266.55	10.045
266.92	5.695
267.29	9.628
267.66	6.430
268.03	10.262
268.40	7.098
268.77	6.834
269.14	4.846
269.51	8.772
269.88	8.402
270.25	10.060
270.62	10.338
270.99	10.505
271.36	10.891
271.73	7.662
272.10	8.016
272.47	10.020
272.84	10.241
273.21	11.824
273.58	6.653
273.95	7.885
274.32	6.654
274.69	9.671
275.06	7.509
275.43	5.915
275.80	10.935
276.17	6.481
276.54	9.142
276.91	7.692
277.28	7.776
277.65	9.874
278.02	7.169
278.39	8.514
278.76	7.030
279.13	7.092
279.50	9.966
279.87	9.123
280.23	6.690
280.60	9.492
280.97	8.717
281.34	8.149
281.71	9.475
282.08	7.641
282.45	8.020
282.82	8.477
283.19	7.431
283.56	8.197
283.92	9.009
284.29	10.269
284.66	8.539
285.03	8.494
285.40	6.028
285.77	7.740
286.14	10.687
286.51	8.524
286.87	7.899
287.24	7.681
287.61	7.025
287.98	6.798
288.35	9.911
288.72	9.467
289.08	8.199
289.45	7.840
289.82	6.476
290.19	8.046
290.56	8.592
290.93	9.700
291.29	9.091
291.66	8.127
292.03	7.870
292.40	9.932
292.77	7.817
293.13	9.066
293.50	6.307
293.87	8.591
294.24	9.867
294.60	8.091
294.97	7.919
295.34	9.475
295.71	8.323
296.08	7.623
296.44	6.863
296.81	7.674
297.18	7.970
297.55	7.075
297.91	8.541
298.28	7.701
298.65	8.799
299.02	6.966
299.38	8.467
299.75	8.178
300.12	7.292
300.48	8.065
300.85	8.099
301.22	8.949
301.59	7.991
301.95	8.701
302.32	10.556
302.69	7.886
303.05	10.337
303.42	10.089
303.79	9.375
304.15	9.359
304.52	9.091
304.89	9.005
305.25	9.110
305.62	8.777
305.99	10.309
306.35	9.173
306.72	9.307
307.09	10.254
307.45	10.041
307.82	9.284
308.19	10.192
308.55	11.283
308.92	10.516
309.29	10.824
309.65	10.039
310.02	10.000
310.38	10.335
310.75	10.777
311.12	11.889
311.48	12.317
311.85	12.821
312.22	11.765
312.58	12.488
312.95	11.663
313.31	12.195
313.68	14.103
314.05	13.821
314.41	14.026
314.78	13.896
315.14	14.247
315.51	14.774
315.87	14.581
316.24	16.073
316.61	16.785
316.97	15.113
317.34	15.432
317.70	16.332
318.07	17.196
318.43	17.092
318.80	17.391
319.16	18.283
319.53	16.624
319.89	16.915
320.26	18.505
320.62	18.262
320.99	17.913
321.35	19.131
321.72	20.093
322.08	20.289
322.45	20.596
322.81	20.126
323.18	21.062
323.54	21.121
323.91	21.085
324.27	21.515
324.64	22.166
325.00	20.149
325.37	22.277
325.73	22.975
326.10	22.060
326.46	22.801
326.83	23.219
327.19	23.465
327.56	23.874
327.92	23.053
328.29	22.258
328.65	24.121
329.01	24.112
329.38	24.684
329.74	24.658
330.11	23.801
330.47	23.252
330.84	22.653
331.20	24.500
331.56	23.830
331.93	24.603
332.29	23.814
332.66	23.588
333.02	24.623
333.38	23.658
333.75	23.822
334.11	23.520
334.48	25.000
334.84	24.639
335.20	24.097
335.57	24.030
335.93	23.636
336.29	22.962
336.66	23.045
337.02	22.826
337.38	24.405
337.75	22.893
338.11	24.138
338.47	24.566
338.84	23.858
339.20	22.746
339.56	23.888
339.93	24.220
340.29	23.752
340.65	23.601
341.02	24.182
341.38	24.171
341.74	22.760
342.11	23.652
342.47	22.955
342.83	24.155
343.20	24.530
343.56	24.218
343.92	23.459
344.28	24.141
344.65	24.109
345.01	23.791
345.37	24.028
345.73	22.603
346.10	24.415
346.46	23.972
346.82	23.146
347.19	22.995
347.55	23.596
347.91	23.626
348.27	23.065
348.63	24.219
349.00	22.595
349.36	23.717
349.72	23.810
350.08	24.146
350.45	23.194
350.81	23.605
351.17	23.985
351.53	25.171
351.89	24.070
352.26	23.881
352.62	22.985
352.98	23.817
353.34	23.301
353.70	24.268
354.07	23.696
354.43	23.159
354.79	24.084
355.15	22.884
355.51	24.196
355.87	23.186
356.24	23.270
356.60	23.947
356.96	23.721
357.32	22.974
357.68	22.840
358.04	24.551
358.40	22.761
358.77	23.538
359.13	23.708
359.49	23.866
359.85	23.205
360.21	23.601
360.57	23.977
360.93	23.202
361.29	24.140
361.66	24.258
362.02	26.026
362.38	24.104
362.74	24.302
363.10	24.415
363.46	23.892
363.82	24.432
364.18	23.575
364.54	24.481
364.90	24.615
365.26	24.138
365.62	25.267
365.98	23.962
366.35	24.832
366.71	24.354
367.07	24.763
367.43	25.213
367.79	24.552
368.15	25.552
368.51	25.643
368.87	25.147
369.23	23.867
369.59	24.385
369.95	25.017
370.31	24.646
370.67	24.484
371.03	24.861
371.39	23.842
371.75	25.103
372.11	25.068
372.47	25.186
372.83	26.243
373.19	24.750
373.55	24.797
373.91	24.949
374.27	24.968
374.63	24.899
374.99	25.464
375.35	25.455
375.71	24.903
376.07	25.048
376.42	24.685
376.78	25.606
377.14	24.766
377.50	24.541
377.86	24.877
378.22	25.449
378.58	24.614
378.94	24.941
379.30	24.253
379.66	25.338
380.02	25.216
380.38	24.712
380.74	24.845
381.09	24.739
381.45	25.170
381.81	25.703
382.17	25.238
382.53	25.029
382.89	24.774
383.25	25.205
383.61	24.363
383.97	24.028
384.32	25.478
384.68	24.594
385.04	25.159
385.40	25.869
385.76	26.260
386.12	24.895
386.48	25.059
386.83	25.507
387.19	25.608
387.55	25.293
387.91	23.973
388.27	25.520
388.62	24.971
388.98	24.253
389.34	25.221
389.70	25.334
390.06	25.104
390.42	25.000
390.77	25.105
391.13	24.648
391.49	25.000
391.85	23.939
392.20	24.970
392.56	25.458
392.92	23.937
393.28	24.655
393.64	24.525
393.99	24.404
394.35	25.467
394.71	25.210
395.07	24.431
395.42	24.557
395.78	25.289
396.14	25.015
396.50	24.703
396.85	24.150
397.21	24.083
397.57	25.559
397.92	24.055
398.28	24.715
398.64	23.398
399.00	23.927
399.35	24.607
399.71	23.750
400.07	24.200
400.42	23.516
400.78	23.843
401.14	23.904
401.49	24.105
401.85	24.360
402.21	23.349
402.57	24.648
402.92	23.522
403.28	23.712
403.63	23.687
403.99	24.703
404.35	24.048
404.70	23.059
405.06	23.641
405.42	23.009
405.77	24.155
406.13	23.663
406.49	23.592
406.84	23.657
407.20	23.030
407.55	22.532
407.91	22.816
408.27	22.909
408.62	23.211
408.98	23.564
409.34	22.581
409.69	23.733
410.05	24.209
410.40	24.304
410.76	23.388
411.11	23.437
411.47	23.710
411.83	23.398
412.18	23.434
412.54	22.525
412.89	22.992
413.25	23.081
413.60	23.148
413.96	23.368
414.31	23.286
414.67	23.315
415.03	22.462
415.38	23.140
415.74	23.458
416.09	23.627
416.45	22.167
416.80	21.848
417.16	22.861
417.51	22.042
417.87	23.789
418.22	21.737
418.58	22.429
418.93	22.002
419.29	22.072
419.64	22.509
420.00	22.730
420.35	21.729
420.71	22.573
421.06	21.334
421.42	22.362
421.77	22.456
422.12	22.040
422.48	21.761
422.83	22.673
423.19	21.273
423.54	22.456
423.90	21.535
424.25	22.933
424.61	21.642
424.96	21.856
425.31	22.346
425.67	21.363
426.02	21.970
426.38	22.044
426.73	21.094
427.09	23.068
427.44	21.846
427.79	21.448
428.15	21.861
428.50	21.236
428.85	21.068
429.21	23.138
429.56	21.372
429.92	21.425
430.27	21.012
430.62	21.446
430.98	21.643
431.33	21.603
431.68	20.833
432.04	22.042
432.39	20.889
432.74	21.689
433.10	21.904
433.45	20.903
433.80	20.762
434.16	21.798
434.51	21.274
434.86	22.096
435.22	21.467
435.57	21.816
435.92	21.536
436.28	22.298
436.63	21.737
436.98	20.827
437.34	21.815
437.69	20.583
438.04	21.523
438.39	20.793
438.75	21.417
439.10	21.882
439.45	22.135
439.81	21.299
440.16	20.429
440.51	21.906
440.86	21.178
441.22	21.168
441.57	21.174
441.92	21.532
442.27	21.414
442.63	21.212
442.98	22.305
443.33	21.883
443.68	22.597
444.03	22.295
444.39	22.376
444.74	22.001
445.09	21.034
445.44	20.969
445.79	21.791
446.15	21.840
446.50	21.860
446.85	21.984
447.20	21.132
447.55	22.019
447.91	21.466
448.26	21.882
448.61	21.785
448.96	22.425
449.31	21.209
449.66	20.588
450.02	20.781
450.37	21.790
450.72	21.905
451.07	21.469
451.42	20.971
451.77	21.456
452.12	21.840
452.47	20.974
452.83	21.622
453.18	21.133
453.53	20.276
453.88	21.149
454.23	21.864
454.58	21.590
454.93	21.117
455.28	21.613
455.63	21.717
455.98	20.950
456.34	21.437
456.69	21.282
457.04	21.040
457.39	21.397
457.74	22.483
458.09	20.813
458.44	22.414
458.79	20.320
459.14	21.133
459.49	20.883
459.84	21.826
460.19	20.822
460.54	20.784
460.89	21.016
461.24	19.885
461.59	21.638
461.94	20.422
462.29	21.109
462.64	19.916
462.99	21.720
463.34	21.415
463.69	20.106
464.04	19.622
464.39	21.020
464.74	19.897
465.09	20.819
465.44	20.976
465.79	20.518
466.14	20.375
466.49	21.000
466.84	20.165
467.19	20.405
467.54	19.800
467.89	20.000
468.24	20.332
468.59	19.687
468.94	19.639
469.29	20.336
469.64	19.199
469.99	19.822
470.34	19.307
470.68	20.369
471.03	19.384
471.38	19.948
471.73	19.831
472.08	19.416
472.43	19.446
472.78	19.962
473.13	19.027
473.48	19.879
473.83	19.907
474.17	18.699
474.52	19.122
474.87	18.771
475.22	20.282
475.57	18.692
475.92	19.462
476.27	19.436
476.61	18.588
476.96	19.395
477.31	20.446
477.66	19.675
478.01	19.166
478.36	19.492
478.70	19.507
479.05	19.274
479.40	18.806
479.75	19.789
480.10	19.517
480.45	19.599
480.79	19.138
481.14	18.750
481.49	18.855
481.84	18.799
482.19	19.226
482.53	19.152
482.88	19.096
483.23	18.719
483.58	19.389
483.92	18.262
484.27	18.586
484.62	18.606
484.97	18.390
485.31	18.550
485.66	18.174
486.01	17.839
486.36	18.215
486.70	18.818
487.05	19.394
487.40	18.691
487.75	19.059
488.09	19.611
488.44	18.619
488.79	18.314
489.13	18.718
489.48	17.553
489.83	17.465
490.17	17.294
490.52	17.816
490.87	18.866
491.22	18.241
491.56	18.345
491.91	17.706
492.26	18.477
492.60	18.102
492.95	17.990
493.30	17.257
493.64	18.046
493.99	17.412
494.34	17.291
494.68	16.745
495.03	17.841
495.37	17.710
495.72	17.098
496.07	17.485
496.41	17.246
496.76	17.640
497.11	17.537
497.45	17.177
497.80	18.081
498.14	16.961
498.49	17.509
498.84	17.093
499.18	17.274
499.53	17.265
499.87	17.275
500.22	16.874
500.56	16.689
500.91	17.117
501.26	17.227
501.60	16.483
501.95	16.891
502.29	16.630
502.64	17.490
502.98	16.825
503.33	17.192
503.67	15.918
504.02	16.375
504.36	17.248
504.71	17.226
505.06	17.144
505.40	16.225
505.75	16.439
506.09	16.851
506.44	17.038
506.78	17.018
507.13	16.551
507.47	17.054
507.82	16.809
508.16	16.539
508.51	16.081
508.85	16.486
509.19	16.532
509.54	16.378
509.88	16.076
510.23	17.339
510.57	17.013
510.92	16.159
511.26	16.065
511.61	15.741
511.95	17.033
512.30	16.051
512.64	15.942
512.98	16.408
513.33	16.683
513.67	16.420
514.02	16.403
514.36	16.522
514.70	16.875
515.05	16.580
515.39	15.696
515.74	17.285
516.08	16.323
516.42	16.693
516.77	15.878
517.11	15.781
517.46	16.490
517.80	16.141
518.14	15.996
518.49	16.161
518.83	15.913
519.17	16.424
519.52	17.034
519.86	16.103
520.20	16.400
520.55	15.882
520.89	15.822
521.23	15.690
521.58	16.723
521.92	15.637
522.26	15.235
522.61	16.262
522.95	16.494
523.29	15.115
523.64	15.639
523.98	16.087
524.32	17.020
524.66	15.196
525.01	15.912
525.35	15.623
525.69	15.835
526.04	15.901
526.38	15.977
526.72	16.205
527.06	15.777
527.41	15.918
527.75	17.102
528.09	15.821
528.43	15.394
528.78	15.896
529.12	15.367
529.46	15.289
529.80	16.133
530.15	15.710
530.49	15.243
530.83	15.702
531.17	15.890
531.51	15.102
531.86	15.925
532.20	16.768
532.54	15.440
532.88	15.515
533.22	15.262
533.57	15.811
533.91	15.769
534.25	15.772
534.59	15.862
534.93	14.771
535.27	15.662
535.62	15.918
535.96	15.630
536.30	14.747
536.64	15.856
536.98	16.298
537.32	15.000
537.66	15.533
538.01	15.045
538.35	15.043
538.69	15.505
539.03	15.573
539.37	15.665
539.71	15.075
540.05	15.228
540.39	14.853
540.73	14.208
541.07	14.776
541.42	14.353
541.76	14.828
542.10	14.717
542.44	13.581
542.78	15.389
543.12	14.779
543.46	14.530
543.80	13.909
544.14	14.243
544.48	15.248
544.82	15.141
545.16	14.431
545.50	14.859
545.84	14.452
546.18	15.926
546.52	14.268
546.86	14.654
547.20	14.440
547.54	14.295
547.88	14.165
548.22	14.269
548.56	14.687
548.90	13.791
549.24	15.015
549.58	14.196
549.92	14.094
550.26	14.498
550.60	14.231
550.94	14.618
551.28	14.455
551.62	14.420
551.96	13.528
552.30	14.149
552.64	14.250
552.98	14.099
553.32	13.955
553.66	13.698
554.00	14.313
554.34	13.900
554.68	13.880
555.02	14.717
555.36	14.201
555.69	13.453
556.03	13.745
556.37	14.581
556.71	13.633
557.05	13.035
557.39	14.068
557.73	14.597
558.07	13.709
558.41	13.688
558.75	13.996
559.08	13.640
559.42	13.100
559.76	14.111
560.10	13.329
560.44	13.654
560.78	14.250
561.12	13.547
561.45	13.504
561.79	14.469
562.13	13.740
562.47	14.118
562.81	14.304
563.15	13.636
563.48	13.549
563.82	13.845
564.16	13.083
564.50	13.766
564.84	13.392
565.17	13.294
565.51	13.291
565.85	12.945
566.19	13.191
566.52	13.517
566.86	13.696
567.20	12.452
567.54	13.648
567.88	14.067
568.21	12.945
568.55	13.094
568.89	12.846
569.23	13.266
569.56	13.052
569.90	14.113
570.24	13.390
570.57	13.438
570.91	13.288
571.25	13.335
571.59	14.027
571.92	13.433
572.26	13.182
572.60	13.077
572.93	13.415
573.27	12.588
573.61	13.737
573.95	13.426
574.28	13.572
574.62	13.142
574.96	12.726
575.29	12.932
575.63	13.121
575.97	13.413
576.30	13.052
576.64	12.813
576.98	13.121
577.31	13.382
577.65	13.062
577.98	13.027
578.32	12.557
578.66	13.155
578.99	13.209
579.33	13.095
579.67	12.987
580.00	12.834
580.34	13.307
580.67	13.041
581.01	12.916
581.35	13.111
581.68	12.848
582.02	13.176
582.35	13.104
582.69	13.171
583.02	12.820
583.36	13.042
583.70	13.179
584.03	12.671
584.37	12.540
584.70	12.543
585.04	12.741
585.37	12.638
585.71	12.621
586.04	12.506
586.38	12.744
586.72	12.534
587.05	12.433
587.39	12.740
587.72	12.895
588.06	12.790
588.39	12.522
588.73	12.646
589.06	12.359
589.40	12.815
589.73	12.853
590.07	13.031
590.40	13.083
590.73	12.796
591.07	12.919
591.40	12.170
591.74	12.162
592.07	12.667
592.41	12.579
592.74	12.141
593.08	12.675
593.41	12.890
593.75	12.443
594.08	12.239
594.41	12.308
594.75	12.488
595.08	12.214
595.42	12.468
595.75	12.561
596.09	12.470
596.42	11.430
596.75	12.466
597.09	12.687
597.42	12.237
597.75	11.995
598.09	12.421
598.42	12.626
598.76	12.495
599.09	12.033
599.42	11.465
599.76	11.951
600.09	12.279
600.42	11.979
600.76	11.691
601.09	12.048
601.42	11.775
601.76	12.483
602.09	12.223
602.42	11.196
602.76	11.882
603.09	12.335
603.42	12.066
603.76	11.910
604.09	12.491
604.42	12.257
604.76	11.568
605.09	12.325
605.42	12.241
605.75	11.923
606.09	12.169
606.42	11.602
606.75	12.219
607.09	11.290
607.42	11.676
607.75	11.489
608.08	12.076
608.42	11.568
608.75	11.567
609.08	11.587
609.41	11.645
609.75	12.232
610.08	11.961
610.41	11.810
610.74	11.807
611.07	11.456
611.41	12.197
611.74	11.409
612.07	11.173
612.40	11.835
612.73	11.149
613.07	11.687
613.40	11.453
613.73	11.411
614.06	11.531
614.39	11.224
614.72	12.033
615.06	10.972
615.39	10.536
615.72	11.659
616.05	11.219
616.38	11.504
616.71	11.808
617.05	10.809
617.38	12.253
617.71	11.231
618.04	11.981
618.37	11.421
618.70	12.330
619.03	10.932
619.36	10.604
619.69	11.147
620.03	11.299
620.36	11.288
620.69	11.289
621.02	11.680
621.35	11.393
621.68	11.135
622.01	11.957
622.34	11.088
622.67	11.546
623.00	10.121
623.33	10.418
623.66	11.608
623.99	10.928
624.32	12.281
624.65	10.875
624.99	11.573
625.32	11.234
625.65	11.059
625.98	10.644
626.31	11.056
626.64	10.403
626.97	9.677
627.30	10.554
627.63	10.128
627.96	11.411
628.29	11.362
628.62	10.663
628.95	10.955
629.28	10.110
629.61	10.354
629.94	10.628
630.26	10.254
630.59	10.708
630.92	9.957
631.25	11.091
631.58	10.923
631.91	10.684
632.24	9.702
632.57	11.101
632.90	9.428
633.23	10.408
633.56	10.714
633.89	10.950
634.22	10.187
634.55	11.378
634.88	9.632
635.20	11.302
635.53	10.621
635.86	9.101
636.19	11.241
636.52	10.338
636.85	10.010
637.18	9.356
637.51	9.785
637.83	11.739
638.16	10.253
638.49	9.977
638.82	9.696
639.15	10.538
639.48	10.855
639.81	10.162
640.13	10.954
640.46	8.848
640.79	10.294
641.12	11.429
641.45	9.410
641.77	11.682
642.10	9.843
642.43	12.367
642.76	10.027
643.09	9.315
643.41	9.524
643.74	10.483
644.07	11.586
644.40	9.194
644.73	11.611
645.05	10.573
645.38	9.209
645.71	9.238
646.04	11.621
646.36	8.759
646.69	8.896
647.02	11.009
647.35	9.618
647.67	9.179
648.00	9.076
648.33	10.661
648.66	7.989
648.98	9.388
649.31	10.014
649.64	8.234
649.96	10.743
650.29	8.206
650.62	10.325
650.94	8.408
651.27	8.683
651.60	10.088
651.92	8.815
652.25	9.986
652.58	10.316
652.90	9.012
653.23	11.268
653.56	9.415
653.88	12.360
654.21	8.873
654.54	8.815
654.86	10.057
655.19	7.403
655.52	10.774
655.84	10.286
656.17	11.875
656.49	17.681
656.82	19.572
657.15	15.405
657.47	11.577
657.80	8.897
658.13	6.827
658.45	9.065
658.78	11.096
659.10	10.703
659.43	10.473
659.75	10.539
660.08	9.804
660.41	9.512
660.73	10.376
661.06	8.664
661.38	11.324
661.71	8.621
662.03	8.818
662.36	10.733
662.68	10.507
663.01	7.965
663.33	10.208
663.66	11.172
663.98	9.038
664.31	10.131
664.63	6.744
664.96	9.074
665.28	7.985
665.61	10.315
665.93	9.464
666.26	10.932
666.58	7.934
666.91	11.402
667.23	9.143
667.56	8.876
667.88	9.200
668.21	7.813
668.53	7.529
668.86	8.841
669.18	5.499
669.50	11.332
669.83	9.000
670.15	8.858
670.48	10.516
670.80	8.604
671.13	9.452
671.45	8.268
671.77	9.416
672.10	7.833
672.42	8.900
672.75	9.217
673.07	8.507
673.39	8.320
673.72	9.396
674.04	9.138
674.37	11.807
674.69	10.053
675.01	7.048
675.34	8.588
675.66	8.052
675.98	11.007
676.31	9.570
676.63	10.646
676.95	10.536
677.28	8.065
677.60	6.693
677.92	9.405
678.25	9.872
678.57	9.609
678.89	9.044
679.22	8.188
679.54	9.060
679.86	5.593
680.18	7.794
680.51	10.220
680.83	9.820
681.15	8.448
681.48	11.054
681.80	8.981
682.12	8.392
682.44	8.681
682.77	8.865
683.09	8.523
683.41	10.853
683.73	7.021
684.06	8.118
684.38	5.009
684.70	9.336
685.02	9.294
685.34	6.156
685.67	6.782
685.99	9.663
686.31	8.866
686.63	8.847
686.96	10.568
687.28	9.283
687.60	6.902
687.92	8.360
688.24	9.683
688.56	8.621
688.89	9.800
689.21	10.763
689.53	7.255
689.85	4.734
690.17	7.778
690.49	7.769
690.82	9.109
691.14	6.680
691.46	9.178
691.78	10.129
692.10	9.908
692.42	8.393
692.74	8.167
693.06	6.852
693.39	9.677
693.71	8.271
694.03	7.621
694.35	8.000
694.67	8.624
694.99	7.872
695.31	6.181
695.63	7.576
695.95	8.282
696.27	6.813
696.59	10.619
696.91	6.532
697.23	10.769
697.56	7.536
697.88	7.955
698.20	8.098
698.52	10.606
698.84	7.900
699.16	9.592
699.48	7.531
699.80	5.957
700.12	8.952
700.44	10.138
700.76	8.789
701.08	8.475
701.40	8.549
701.72	6.716
702.04	7.487
702.36	6.021
702.68	7.090
703.00	7.090
703.32	7.635
703.64	7.090
703.96	8.353
704.28	6.880
704.60	10.633
704.91	6.888
705.23	8.219
705.55	6.685
705.87	9.091
706.19	10.429
706.51	5.723
706.83	4.611
707.15	7.143
707.47	8.411
707.79	6.769
708.11	7.839
708.43	7.312
708.74	7.366
709.06	8.817
709.38	11.972
709.70	8.437
710.02	9.819
710.34	6.915
710.66	4.190
710.98	10.929
711.29	7.143
711.61	7.910
711.93	8.547
712.25	8.108
712.57	9.440
712.89	8.529
713.20	6.509
713.52	10.694
713.84	8.357
714.16	8.684
714.48	10.825
714.80	9.610
715.11	6.037
715.43	8.753
715.75	8.947
716.07	4.144
716.39	10.109
716.70	4.518
717.02	9.180
717.34	1.045
717.66	5.705
717.97	5.479
718.29	6.529
718.61	8.882
718.93	4.207
719.24	6.832
719.56	8.282
719.88	8.108
720.20	7.419
720.51	7.143
720.83	6.250
721.15	5.263
721.46	3.425
721.78	7.333
722.10	4.207
722.42	6.040
722.73	6.774
723.05	9.825
723.37	8.681
723.68	9.319
724.00	7.220
724.32	6.338
724.63	4.545
724.95	8.156
725.27	4.530
725.58	4.240
725.90	7.931
726.22	7.524
726.53	10.065
726.85	10.692
727.16	8.157
727.48	8.257
727.80	6.954
728.11	3.534
728.43	6.061
728.74	6.689
729.06	10.265
729.38	6.169
729.69	4.027
730.01	8.631
730.32	2.121
730.64	5.031
730.96	4.969
731.27	6.425
731.59	5.495
731.90	7.273
732.22	6.771
732.53	5.249
732.85	9.143
733.16	6.452
733.48	7.317
733.80	9.749
734.11	9.687
734.43	8.649
734.74	10.633
735.06	6.281
735.37	10.000
735.69	6.486
736.00	6.780
736.32	6.199
736.63	6.944
736.95	4.598
737.26	6.667
737.58	5.152
737.89	7.941
738.21	3.364
738.52	5.902
738.83	8.874
739.15	4.610
739.46	5.442
739.78	7.975
740.09	5.731
740.41	9.621
740.72	7.333
741.04	8.414
741.35	9.474
741.66	6.275
741.98	8.607
742.29	5.858
742.61	5.263
742.92	4.231
743.23	7.942
743.55	3.876
743.86	5.600
744.18	4.545
744.49	6.329
744.80	7.407
745.12	5.063
745.43	5.285
745.74	1.293
746.06	6.356
746.37	13.080
746.68	10.163
747.00	4.583
747.31	5.579
747.62	10.000
747.94	5.263
748.25	4.418
748.56	4.898
748.88	4.701
749.19	8.190
749.50	6.061
749.82	6.827
750.13	13.523
750.44	2.333
750.75	8.615
751.07	7.385
751.38	5.678
751.69	7.348
752.01	7.120
752.32	4.575
752.63	5.102
752.94	6.574
753.26	5.948
753.57	5.185
753.88	2.247
754.19	8.039
754.51	6.752
754.82	7.395
755.13	10.492
755.44	4.096
755.75	6.908
756.07	10.448
756.38	2.201
756.69	8.735
757.00	4.709
757.31	5.191
757.63	4.348
757.94	5.634
758.25	9.932
758.56	7.407
758.87	10.227
759.18	6.667
759.50	8.782
759.81	8.683
760.12	4.582
760.43	9.115
760.74	8.128
761.05	5.000
761.36	3.133
761.67	6.345
761.99	8.378
762.30	3.963
762.61	1.980
762.92	6.343
763.23	4.120
763.54	7.554
763.85	5.498
764.16	6.734
764.47	6.690
764.78	9.904
765.10	5.572
765.41	8.974
765.72	2.646
766.03	6.780
766.34	4.389
766.65	4.181
766.96	2.390
767.27	2.765
767.58	0.000
767.89	8.173
768.20	7.981
768.51	3.704
768.82	6.024
769.13	6.061
769.44	1.923
769.75	8.664
770.06	8.077
770.37	8.661
770.68	6.383
770.99	4.453
771.30	11.111
771.61	8.745
771.92	4.444
772.23	5.263
772.54	0.463
772.85	11.521
773.16	8.571
773.47	3.175
773.78	0.000
774.09	9.091
774.39	10.500
774.70	12.022
775.01	0.610
775.32	4.118
775.63	3.067
775.94	1.911
776.25	14.839
776.56	8.333
776.87	6.803
777.18	0.000
777.48	0.000
777.79	-0.676
778.10	-2.941
778.41	7.639
778.72	11.034
779.03	-0.617
779.34	7.879
779.65	9.845
779.95	12.222
780.26	8.523
780.57	9.677
780.88	9.420
781.19	10.323
781.50	8.824
781.80	6.452
782.11	5.291
782.42	-1.515
782.73	-2.395
783.04	0.559
783.34	1.818
783.65	0.000
783.96	4.348
784.27	2.976
784.57	1.987
784.88	3.571
785.19	2.362
785.50	1.575
785.81	6.015
786.11	3.077
786.42	4.317
786.73	3.597
787.04	13.534
787.34	4.098
787.65	6.400
787.96	6.716
788.26	9.790
788.57	11.888
788.88	5.263
789.19	7.843
789.49	-1.370
789.80	3.546
790.11	0.000
790.41	10.938
790.72	4.237
791.03	-6.796
791.33	1.739
791.64	3.509
791.95	3.571
792.25	-0.952
792.56	10.714
792.87	-1.042
793.17	13.393
793.48	1.042
793.79	-12.048
794.09	0.000
794.40	3.670
794.70	8.844
795.01	1.299
795.32	3.425
795.62	2.113
795.93	3.788
796.23	1.639
796.54	5.357
796.85	-7.447
797.15	-4.348
797.46	-16.438
797.76	-5.000
798.07	3.261
798.37	-4.124
798.68	-7.792
798.99	-3.448
799.29	-7.865
799.60	5.319
799.90	-1.205
800.21	-4.615
800.51	-11.940
800.82	-5.882
801.12	-24.658
801.43	0.000
801.73	-18.644
802.04	-1.515
802.34	-6.667
802.65	1.695
802.95	0.000
803.26	-6.780
803.56	-17.808
803.87	-1.429
804.17	-5.479
804.48	-14.035
804.78	-6.944
805.09	-20.690
805.39	0.000
805.70	-12.676
806.00	4.878
806.30	4.819
806.61	-6.849
806.91	0.962
807.22	0.000
807.52	-11.494
807.83	11.111
808.13	16.867
808.43	5.618
808.74	5.000
809.04	-8.824
809.35	-8.000
809.65	-2.857
809.95	-10.959
810.26	-40.351
810.56	-1.724
810.86	4.412
811.17	-5.263
811.47	-11.475
811.77	-28.889
812.08	-3.390
812.38	8.333
812.69	-3.448
812.99	1.887
813.29	-33.333
813.59	-2.000
813.90	3.509
814.20	-7.273
814.50	11.268
814.81	-6.410
815.11	3.279
815.41	4.478
815.72	6.897
816.02	5.357
816.32	20.000
816.62	-13.636
816.93	-13.333
817.23	-5.556
817.53	-2.128
817.84	4.762
818.14	-29.412
818.44	-30.612
818.74	-24.444
819.04	-30.769
819.35	-48.571
819.65	-65.385
819.95	-22.642
820.25	-4.444
820.56	-2.381
820.86	-18.750
821.16	-23.077
821.46	-48.837
821.76	-24.000
822.07	0.000
822.37	-21.739
822.67	-8.511
822.97	-29.730
823.27	-35.000
823.57	22.449
823.88	11.111
824.18	-22.500
824.48	-40.000
824.78	-68.000
825.08	-15.152
825.38	6.667
825.69	4.255
825.99	-13.889
826.29	-54.286
826.59	-12.821
826.89	-27.907
827.19	0.000
827.49	-38.235
827.79	0.000
828.09	-37.838
828.39	-16.667
828.70	-17.073
829.00	2.326
829.30	-17.857
829.60	-8.824
829.90	-4.348
830.20	-20.000
830.50	-55.172
830.80	-16.667
831.10	-30.769
831.40	-23.529
831.70	-19.048
832.00	6.452
832.30	-88.235
832.60	-33.333
832.90	-92.308
833.20	-68.421
833.50	-45.000
833.80	-42.105
834.10	-90.476
834.40	0.000
834.70	0.000
835.00	-25.714
835.30	-8.824
835.60	-6.667
835.90	-48.000
836.20	-40.909
836.50	-16.000
836.80	-18.182
837.10	-14.815
837.40	0.000
837.70	-137.500
838.00	-39.286
838.30	-69.565
838.60	-6.897
838.90	-64.286
839.19	-39.130
839.49	-58.333
839.79	-26.087
840.09	-87.500
840.39	-40.000
840.69	-25.806
840.99	-35.714
841.29	-33.333
841.59	-10.526
841.88	-2.564
842.18	-30.769
842.48	-20.000
842.78	-60.000
843.08	-30.000
843.38	3.226
843.68	-72.222
843.97	8.824
844.27	-37.500
844.57	-63.158
844.87	-150.000
845.17	-60.000
845.47	14.286
845.76	-47.619
846.06	-100.000
846.36	-58.824
846.66	-23.077
846.96	-73.333
847.25	-111.765
847.55	-8.696
847.85	-20.000
848.15	-5.882
848.44	-145.455
848.74	9.524
849.04	-62.500
849.34	-50.000
849.63	39.130
849.93	550.000
850.23	20.000
850.53	34.615
850.82	-54.545
851.12	22.727
851.42	-63.636
851.71	30.769
852.01	-80.000
852.31	-76.923
852.61	-47.368
852.90	-91.667
853.20	-22.222
853.50	-177.778
853.79	-85.714
854.09	-54.545
854.39	-58.333
854.68	-12.903
854.98	-61.538
855.28	27.778
855.57	-14.286
855.87	16.000
856.17	-27.273
856.46	-37.037
856.76	-38.889
857.05	-60.870
857.35	-33.333
857.65	-84.615
857.94	-28.571
858.24	-25.926
858.53	-13.043
858.83	-11.765
859.13	-52.941
859.42	-23.529
859.72	-100.000
860.01	-80.000
860.31	-144.444
860.60	-100.000
860.90	6.667
861.20	-22.222
861.49	-38.462
861.79	16.667
862.08	-46.154
862.38	3.125
862.67	17.647
862.97	6.250
863.26	-100.000
863.56	20.000
863.85	-81.818
864.15	27.778
864.44	-466.667
864.74	-107.143
865.03	-87.500
865.33	-120.000
865.62	-22.581
865.92	-27.273
866.21	-26.087
866.51	-64.286
866.80	-200.000
867.10	-66.667
867.39	-83.333
867.69	800.000
867.98	-157.143
868.27	0.000
868.57	-1600.000
868.86	-200.000
869.16	-23.810
869.45	0.000
869.75	36.364
870.04	-14.286
870.33	-33.333
870.63	-214.286
870.92	-300.000
871.22	-337.500
871.51	-118.182
871.80	-500.000
872.10	-600.000
>>>>>End Processed Spectral Data<<<<<
