SpectraSuite Data File
++++++++++++++++++++++++++++++++++++
Date: Thu May 14 16:09:14 PDT 2015
User: schluterlab
Dark Spectrum Present: Yes
Reference Spectrum Present: Yes
Number of Sampled Component Spectra: 1
Spectrometers: USB2E3373
Integration Time (usec): 3000 (USB2E3373)
Spectra Averaged: 3 (USB2E3373)
Boxcar Smoothing: 0 (USB2E3373)
Correct for Electrical Dark: No (USB2E3373)
Strobe/Lamp Enabled: No (USB2E3373)
Correct for Detector Non-linearity: No (USB2E3373)
Correct for Stray Light: No (USB2E3373)
Number of Pixels in Processed Spectrum: 2048
>>>>>Begin Processed Spectral Data<<<<<
178.53	0.000
178.91	200.000
179.29	-1600.000
179.67	-800.000
180.04	207.143
180.42	130.000
180.80	220.000
181.18	-900.000
181.56	-800.000
181.94	400.000
182.31	-300.000
182.69	100.000
183.07	-600.000
183.45	300.000
183.83	-283.333
184.20	-366.667
184.58	1600.000
184.96	-550.000
185.34	-222.222
185.72	0.000
186.09	55.556
186.47	400.000
186.85	540.000
187.23	-233.333
187.61	-2000.000
187.98	300.000
188.36	425.000
188.74	-275.000
189.12	-233.333
189.49	-31.250
189.87	-175.000
190.25	-200.000
190.63	-200.000
191.00	-277.778
191.38	0.000
191.76	-500.000
192.14	-333.333
192.51	650.000
192.89	-133.333
193.27	0.000
193.65	-114.286
194.02	-2200.000
194.40	-228.571
194.78	300.000
195.15	0.000
195.53	-90.909
195.91	0.000
196.29	-350.000
196.66	-115.385
197.04	-1800.000
197.42	-157.143
197.79	-700.000
198.17	-137.500
198.55	-214.286
198.92	-88.889
199.30	-125.000
199.68	-18.182
200.05	-85.714
200.43	-950.000
200.81	242.857
201.18	0.000
201.56	211.111
201.94	0.000
202.31	366.667
202.69	-233.333
203.07	1200.000
203.44	-100.000
203.82	-175.000
204.19	-33.333
204.57	-216.667
204.95	-150.000
205.32	-1400.000
205.70	400.000
206.08	-200.000
206.45	-133.333
206.83	520.000
207.20	-66.667
207.58	-260.000
207.96	-300.000
208.33	-66.667
208.71	108.333
209.08	-150.000
209.46	0.000
209.84	333.333
210.21	400.000
210.59	700.000
210.96	600.000
211.34	-175.000
211.71	-175.000
212.09	-700.000
212.46	0.000
212.84	1000.000
213.22	-380.000
213.59	-100.000
213.97	-70.000
214.34	-400.000
214.72	350.000
215.09	-200.000
215.47	0.000
215.84	328.571
216.22	950.000
216.59	-80.000
216.97	-180.000
217.34	-375.000
217.72	-87.500
218.09	-225.000
218.47	-300.000
218.84	0.000
219.22	180.000
219.59	-58.824
219.97	-25.000
220.34	750.000
220.72	-144.444
221.09	23.077
221.47	-466.667
221.84	-90.000
222.22	-257.143
222.59	0.000
222.97	-112.500
223.34	-280.000
223.72	-800.000
224.09	-50.000
224.46	-400.000
224.84	-60.000
225.21	-185.714
225.59	-400.000
225.96	-250.000
226.34	-15.385
226.71	366.667
227.08	-650.000
227.46	-80.000
227.83	-150.000
228.21	-52.632
228.58	175.000
228.95	800.000
229.33	-83.333
229.70	-50.000
230.08	26.316
230.45	140.000
230.82	-366.667
231.20	-71.429
231.57	-33.333
231.95	-45.455
232.32	-63.636
232.69	20.000
233.07	-175.000
233.44	-47.059
233.81	-80.000
234.19	-5.556
234.56	4.545
234.93	10.345
235.31	5.263
235.68	-105.556
236.05	-100.000
236.43	15.385
236.80	20.000
237.17	-14.815
237.55	-27.273
237.92	-110.000
238.29	-6.452
238.67	-13.636
239.04	-5.556
239.41	-26.190
239.79	-4.348
240.16	5.556
240.53	-10.870
240.91	-13.725
241.28	1.639
241.65	34.328
242.02	14.865
242.40	6.154
242.77	22.667
243.14	13.415
243.51	6.579
243.89	15.385
244.26	19.802
244.63	18.627
245.00	18.692
245.38	12.281
245.75	1.770
246.12	14.286
246.49	5.426
246.87	26.429
247.24	17.219
247.61	17.763
247.98	12.752
248.36	14.198
248.73	19.018
249.10	13.661
249.47	20.398
249.84	23.560
250.22	21.762
250.59	21.667
250.96	23.182
251.33	16.327
251.70	20.940
252.08	20.833
252.45	20.492
252.82	17.769
253.19	21.875
253.56	20.532
253.94	19.231
254.31	20.833
254.68	23.077
255.05	23.453
255.42	15.646
255.79	18.770
256.16	21.854
256.54	17.550
256.91	24.590
257.28	21.311
257.65	17.834
258.02	18.289
258.39	20.228
258.76	25.382
259.14	22.414
259.51	19.885
259.88	24.079
260.25	21.944
260.62	22.740
260.99	21.585
261.36	22.520
261.73	23.607
262.10	21.429
262.47	22.520
262.85	23.737
263.22	19.740
263.59	17.368
263.96	21.739
264.33	20.460
264.70	20.741
265.07	21.002
265.44	26.304
265.81	20.833
266.18	25.397
266.55	24.107
266.92	21.640
267.29	21.882
267.66	22.395
268.03	22.271
268.40	21.503
268.77	18.451
269.14	21.366
269.51	24.342
269.88	22.951
270.25	22.133
270.62	23.840
270.99	22.424
271.36	21.584
271.73	21.807
272.10	20.842
272.47	23.447
272.84	20.884
273.21	23.046
273.58	21.169
273.95	20.192
274.32	19.392
274.69	21.470
275.06	24.176
275.43	21.442
275.80	20.988
276.17	20.185
276.54	18.657
276.91	22.361
277.28	19.711
277.65	23.339
278.02	21.875
278.39	19.928
278.76	20.738
279.13	21.454
279.50	20.790
279.87	20.572
280.23	19.190
280.60	22.203
280.97	21.875
281.34	18.846
281.71	23.012
282.08	21.761
282.45	19.313
282.82	18.995
283.19	17.771
283.56	20.492
283.92	22.523
284.29	22.749
284.66	22.332
285.03	20.513
285.40	20.711
285.77	19.195
286.14	21.221
286.51	22.374
286.87	20.221
287.24	20.181
287.61	21.525
287.98	19.637
288.35	20.710
288.72	19.083
289.08	20.498
289.45	18.639
289.82	19.127
290.19	19.828
290.56	19.577
290.93	18.973
291.29	19.559
291.66	19.421
292.03	17.639
292.40	20.136
292.77	18.329
293.13	19.350
293.50	18.134
293.87	16.644
294.24	20.400
294.60	19.469
294.97	18.658
295.34	18.950
295.71	17.781
296.08	18.217
296.44	17.770
296.81	18.149
297.18	17.310
297.55	17.099
297.91	19.454
298.28	17.180
298.65	17.004
299.02	17.237
299.38	17.735
299.75	17.757
300.12	17.361
300.48	17.051
300.85	15.973
301.22	16.331
301.59	15.868
301.95	17.627
302.32	16.556
302.69	17.196
303.05	17.628
303.42	16.851
303.79	14.896
304.15	16.404
304.52	16.490
304.89	17.277
305.25	16.874
305.62	15.883
305.99	16.804
306.35	16.230
306.72	18.407
307.09	16.650
307.45	17.288
307.82	17.457
308.19	17.053
308.55	17.454
308.92	17.137
309.29	16.954
309.65	18.129
310.02	18.317
310.38	16.142
310.75	18.738
311.12	19.463
311.48	16.325
311.85	17.094
312.22	17.552
312.58	18.028
312.95	17.591
313.31	18.428
313.68	20.604
314.05	20.235
314.41	21.038
314.78	20.073
315.14	19.510
315.51	20.499
315.87	21.152
316.24	21.187
316.61	21.758
316.97	20.000
317.34	20.988
317.70	22.096
318.07	21.605
318.43	23.214
318.80	22.659
319.16	21.974
319.53	22.365
319.89	21.998
320.26	23.132
320.62	22.429
320.99	23.638
321.35	24.584
321.72	26.140
322.08	24.436
322.45	25.565
322.81	26.083
323.18	24.071
323.54	26.552
323.91	25.801
324.27	25.731
324.64	27.288
325.00	27.114
325.37	28.337
325.73	28.760
326.10	28.062
326.46	29.642
326.83	29.464
327.19	30.079
327.56	29.802
327.92	28.954
328.29	29.032
328.65	29.146
329.01	31.387
329.38	31.424
329.74	31.507
330.11	32.192
330.47	31.592
330.84	29.974
331.20	31.583
331.56	31.542
331.93	32.134
332.29	32.627
332.66	33.056
333.02	32.747
333.38	31.963
333.75	31.313
334.11	32.694
334.48	31.601
334.84	34.410
335.20	32.242
335.57	32.631
335.93	32.727
336.29	31.864
336.66	31.623
337.02	32.441
337.38	32.823
337.75	32.893
338.11	34.651
338.47	35.236
338.84	34.095
339.20	32.098
339.56	33.361
339.93	34.236
340.29	32.528
340.65	32.603
341.02	33.041
341.38	33.872
341.74	33.091
342.11	34.996
342.47	32.010
342.83	33.172
343.20	33.442
343.56	33.841
343.92	33.387
344.28	33.281
344.65	34.729
345.01	33.853
345.37	33.126
345.73	32.736
346.10	34.165
346.46	33.386
346.82	33.184
347.19	34.301
347.55	34.067
347.91	34.027
348.27	32.625
348.63	33.435
349.00	34.004
349.36	34.870
349.72	34.003
350.08	34.175
350.45	33.460
350.81	33.635
351.17	34.135
351.53	34.723
351.89	34.776
352.26	34.254
352.62	33.806
352.98	35.038
353.34	32.636
353.70	34.592
354.07	34.426
354.43	34.548
354.79	34.331
355.15	34.290
355.51	34.722
355.87	33.957
356.24	34.829
356.60	32.964
356.96	34.692
357.32	32.862
357.68	34.041
358.04	34.955
358.40	34.403
358.77	34.503
359.13	33.900
359.49	33.532
359.85	35.678
360.21	34.935
360.57	34.602
360.93	33.639
361.29	35.368
361.66	35.409
362.02	35.421
362.38	34.996
362.74	34.288
363.10	36.245
363.46	34.626
363.82	34.730
364.18	36.172
364.54	34.924
364.90	35.184
365.26	35.172
365.62	35.333
365.98	35.466
366.35	35.638
366.71	35.714
367.07	35.656
367.43	35.325
367.79	37.027
368.15	36.187
368.51	35.318
368.87	35.859
369.23	36.267
369.59	36.202
369.95	35.632
370.31	36.124
370.67	36.314
371.03	35.942
371.39	34.923
371.75	35.351
372.11	34.350
372.47	36.967
372.83	36.387
373.19	35.290
373.55	36.314
373.91	34.492
374.27	35.964
374.63	35.792
374.99	36.737
375.35	36.753
375.71	36.323
376.07	36.604
376.42	36.209
376.78	35.488
377.14	35.933
377.50	36.496
377.86	36.700
378.22	36.228
378.58	36.445
378.94	36.150
379.30	35.970
379.66	36.919
380.02	36.353
380.38	36.924
380.74	36.958
381.09	37.224
381.45	36.193
381.81	37.061
382.17	36.936
382.53	35.965
382.89	36.625
383.25	37.339
383.61	36.516
383.97	35.925
384.32	37.380
384.68	35.905
385.04	35.628
385.40	37.124
385.76	37.339
386.12	35.727
386.48	37.000
386.83	37.128
387.19	35.921
387.55	36.209
387.91	36.530
388.27	36.143
388.62	36.999
388.98	36.041
389.34	36.830
389.70	36.374
390.06	36.175
390.42	36.566
390.77	37.447
391.13	35.270
391.49	36.836
391.85	36.182
392.20	36.773
392.56	37.626
392.92	36.532
393.28	36.263
393.64	35.698
393.99	36.839
394.35	35.981
394.71	36.347
395.07	36.527
395.42	35.123
395.78	36.624
396.14	36.661
396.50	35.570
396.85	36.196
397.21	36.036
397.57	35.336
397.92	36.312
398.28	36.013
398.64	34.954
399.00	34.764
399.35	35.707
399.71	35.598
400.07	36.384
400.42	35.914
400.78	35.938
401.14	35.060
401.49	35.930
401.85	35.465
402.21	35.110
402.57	36.561
402.92	35.284
403.28	35.890
403.63	34.129
403.99	35.689
404.35	35.304
404.70	35.184
405.06	34.185
405.42	34.953
405.77	35.005
406.13	35.170
406.49	34.234
406.84	35.125
407.20	34.153
407.55	35.009
407.91	34.004
408.27	34.393
408.62	34.322
408.98	34.359
409.34	33.666
409.69	34.178
410.05	34.642
410.40	34.339
410.76	34.941
411.11	34.366
411.47	34.767
411.83	34.215
412.18	35.482
412.54	34.440
412.89	33.993
413.25	33.126
413.60	33.946
413.96	33.333
414.31	34.958
414.67	33.870
415.03	34.277
415.38	34.363
415.74	34.209
416.09	34.053
416.45	33.312
416.80	32.742
417.16	33.269
417.51	33.188
417.87	33.354
418.22	33.293
418.58	32.404
418.93	33.120
419.29	33.354
419.64	33.193
420.00	33.056
420.35	33.240
420.71	32.567
421.06	32.605
421.42	33.888
421.77	33.441
422.12	32.558
422.48	32.924
422.83	33.790
423.19	33.793
423.54	34.015
423.90	33.020
424.25	33.280
424.61	33.008
424.96	33.608
425.31	35.138
425.67	33.441
426.02	33.979
426.38	33.639
426.73	32.980
427.09	34.775
427.44	32.769
427.79	33.389
428.15	33.790
428.50	33.596
428.85	33.582
429.21	34.255
429.56	33.366
429.92	33.563
430.27	33.880
430.62	34.148
430.98	32.514
431.33	33.236
431.68	31.801
432.04	33.773
432.39	33.637
432.74	33.619
433.10	33.369
433.45	32.107
433.80	32.725
434.16	34.091
434.51	33.350
434.86	34.202
435.22	34.006
435.57	34.080
435.92	34.057
436.28	34.414
436.63	34.134
436.98	33.280
437.34	33.258
437.69	32.856
438.04	33.845
438.39	33.946
438.75	33.149
439.10	33.827
439.45	33.650
439.81	34.407
440.16	33.673
440.51	32.887
440.86	33.741
441.22	33.387
441.57	33.438
441.92	33.220
442.27	33.283
442.63	33.681
442.98	33.298
443.33	32.614
443.68	33.598
444.03	34.572
444.39	34.027
444.74	33.895
445.09	33.198
445.44	33.667
445.79	34.052
446.15	33.556
446.50	32.661
446.85	34.095
447.20	34.429
447.55	34.100
447.91	33.560
448.26	33.457
448.61	33.900
448.96	34.120
449.31	33.457
449.66	33.170
450.02	33.755
450.37	32.818
450.72	32.777
451.07	33.030
451.42	33.160
451.77	32.629
452.12	33.860
452.47	33.452
452.83	34.122
453.18	33.041
453.53	33.027
453.88	33.241
454.23	33.107
454.58	33.836
454.93	33.434
455.28	34.497
455.63	32.405
455.98	33.855
456.34	32.332
456.69	33.157
457.04	33.333
457.39	31.984
457.74	33.277
458.09	32.290
458.44	33.351
458.79	31.769
459.14	32.931
459.49	32.258
459.84	32.581
460.19	31.316
460.54	32.879
460.89	33.827
461.24	32.069
461.59	32.429
461.94	31.831
462.29	32.699
462.64	32.649
462.99	32.643
463.34	33.160
463.69	31.477
464.04	31.907
464.39	31.951
464.74	32.212
465.09	30.738
465.44	31.867
465.79	32.047
466.14	31.423
466.49	30.895
466.84	30.744
467.19	31.445
467.54	31.257
467.89	30.575
468.24	32.133
468.59	30.863
468.94	31.002
469.29	30.534
469.64	30.769
469.99	31.103
470.34	30.941
470.68	31.442
471.03	31.893
471.38	31.982
471.73	30.559
472.08	32.424
472.43	31.306
472.78	31.675
473.13	30.973
473.48	30.997
473.83	32.618
474.17	31.477
474.52	30.908
474.87	31.008
475.22	31.268
475.57	30.478
475.92	30.911
476.27	30.138
476.61	30.218
476.96	30.031
477.31	31.287
477.66	31.165
478.01	30.147
478.36	30.708
478.70	29.655
479.05	30.982
479.40	30.701
479.75	31.028
480.10	30.317
480.45	30.356
480.79	29.841
481.14	30.009
481.49	30.986
481.84	31.201
482.19	30.409
482.53	30.214
482.88	30.394
483.23	30.236
483.58	29.651
483.92	29.699
484.27	29.890
484.62	29.373
484.97	29.588
485.31	29.250
485.66	27.221
486.01	26.593
486.36	27.491
486.70	28.324
487.05	28.407
487.40	27.746
487.75	27.812
488.09	28.036
488.44	28.175
488.79	28.634
489.13	28.168
489.48	28.350
489.83	27.928
490.17	28.352
490.52	29.187
490.87	28.596
491.22	29.593
491.56	28.669
491.91	28.783
492.26	28.905
492.60	28.596
492.95	29.092
493.30	28.418
493.64	29.085
493.99	28.509
494.34	28.179
494.68	27.837
495.03	27.885
495.37	28.717
495.72	28.707
496.07	28.615
496.41	27.885
496.76	28.274
497.11	28.747
497.45	28.226
497.80	27.899
498.14	26.984
498.49	28.447
498.84	29.068
499.18	28.250
499.53	28.161
499.87	27.868
500.22	27.471
500.56	28.115
500.91	28.192
501.26	27.955
501.60	27.707
501.95	28.398
502.29	27.863
502.64	27.722
502.98	27.049
503.33	27.473
503.67	27.693
504.02	27.102
504.36	28.061
504.71	27.699
505.06	27.422
505.40	27.057
505.75	27.823
506.09	27.486
506.44	27.855
506.78	27.385
507.13	27.663
507.47	27.807
507.82	27.131
508.16	26.673
508.51	27.379
508.85	27.444
509.19	27.475
509.54	27.570
509.88	27.052
510.23	27.829
510.57	29.000
510.92	26.899
511.26	26.936
511.61	26.944
511.95	27.233
512.30	27.031
512.64	27.436
512.98	26.513
513.33	27.167
513.67	26.976
514.02	27.440
514.36	27.417
514.70	27.448
515.05	27.007
515.39	27.349
515.74	27.837
516.08	27.364
516.42	28.362
516.77	27.077
517.11	26.663
517.46	27.200
517.80	27.044
518.14	28.237
518.49	27.711
518.83	27.195
519.17	27.141
519.52	27.358
519.86	27.825
520.20	27.689
520.55	27.656
520.89	26.802
521.23	28.643
521.58	27.797
521.92	28.385
522.26	27.549
522.61	28.009
522.95	26.528
523.29	27.586
523.64	26.906
523.98	28.009
524.32	27.966
524.66	26.864
525.01	27.010
525.35	26.594
525.69	27.552
526.04	26.693
526.38	26.724
526.72	26.644
527.06	28.680
527.41	27.638
527.75	26.960
528.09	27.922
528.43	27.235
528.78	26.012
529.12	26.720
529.46	26.251
529.80	26.545
530.15	25.739
530.49	26.750
530.83	26.860
531.17	26.523
531.51	27.256
531.86	27.284
532.20	27.500
532.54	26.092
532.88	26.970
533.22	25.987
533.57	26.947
533.91	26.207
534.25	26.060
534.59	26.379
534.93	25.580
535.27	24.676
535.62	26.322
535.96	26.206
536.30	25.323
536.64	26.186
536.98	27.060
537.32	26.420
537.66	26.762
538.01	25.498
538.35	25.396
538.69	25.361
539.03	25.567
539.37	26.207
539.71	26.006
540.05	27.098
540.39	25.550
540.73	25.926
541.07	25.261
541.42	25.635
541.76	25.504
542.10	25.332
542.44	25.518
542.78	25.243
543.12	24.970
543.46	25.885
543.80	23.921
544.14	25.194
544.48	25.118
544.82	25.972
545.16	25.045
545.50	25.704
545.84	24.985
546.18	26.420
546.52	25.541
546.86	24.843
547.20	25.763
547.54	24.844
547.88	24.895
548.22	24.795
548.56	24.868
548.90	25.194
549.24	24.620
549.58	25.174
549.92	24.936
550.26	25.890
550.60	25.144
550.94	25.032
551.28	24.818
551.62	25.674
551.96	25.113
552.30	25.112
552.64	25.078
552.98	25.452
553.32	25.531
553.66	24.759
554.00	24.842
554.34	25.097
554.68	25.242
555.02	25.099
555.36	26.167
555.69	23.959
556.03	24.653
556.37	25.469
556.71	24.857
557.05	25.112
557.39	25.614
557.73	24.967
558.07	24.503
558.41	25.249
558.75	24.544
559.08	25.191
559.42	25.103
559.76	25.984
560.10	25.251
560.44	25.726
560.78	25.437
561.12	25.062
561.45	24.392
561.79	25.153
562.13	26.186
562.47	24.168
562.81	24.304
563.15	25.000
563.48	24.922
563.82	24.728
564.16	23.501
564.50	24.672
564.84	24.012
565.17	24.176
565.51	23.303
565.85	23.337
566.19	23.560
566.52	24.049
566.86	24.222
567.20	22.838
567.54	23.951
567.88	24.159
568.21	23.370
568.55	22.686
568.89	23.332
569.23	23.067
569.56	22.392
569.90	21.882
570.24	22.226
570.57	21.681
570.91	21.157
571.25	21.232
571.59	21.264
571.92	20.922
572.26	20.937
572.60	20.994
572.93	20.735
573.27	20.849
573.61	20.858
573.95	20.466
574.28	20.696
574.62	20.282
574.96	19.982
575.29	19.806
575.63	19.612
575.97	20.527
576.30	19.763
576.64	20.067
576.98	19.818
577.31	20.215
577.65	19.996
577.98	19.748
578.32	19.654
578.66	19.506
578.99	19.496
579.33	20.053
579.67	19.810
580.00	19.645
580.34	19.721
580.67	19.704
581.01	19.753
581.35	19.755
581.68	19.610
582.02	19.593
582.35	19.369
582.69	19.398
583.02	19.286
583.36	19.696
583.70	19.223
584.03	19.486
584.37	19.279
584.70	19.267
585.04	19.461
585.37	19.730
585.71	19.374
586.04	19.793
586.38	20.125
586.72	19.328
587.05	19.519
587.39	19.721
587.72	19.880
588.06	19.729
588.39	19.915
588.73	19.524
589.06	20.175
589.40	20.037
589.73	20.276
590.07	20.292
590.40	20.757
590.73	20.184
591.07	20.588
591.40	20.334
591.74	20.668
592.07	21.234
592.41	20.741
592.74	20.483
593.08	20.318
593.41	19.977
593.75	20.374
594.08	19.964
594.41	20.288
594.75	19.794
595.08	20.592
595.42	20.325
595.75	20.213
596.09	21.044
596.42	20.208
596.75	20.378
597.09	21.980
597.42	20.143
597.75	20.541
598.09	20.754
598.42	21.311
598.76	19.870
599.09	20.399
599.42	19.812
599.76	20.271
600.09	20.254
600.42	20.287
600.76	20.641
601.09	19.681
601.42	20.185
601.76	20.138
602.09	19.979
602.42	19.557
602.76	19.742
603.09	20.264
603.42	19.942
603.76	19.873
604.09	20.405
604.42	20.477
604.76	19.863
605.09	20.862
605.42	20.973
605.75	20.346
606.09	20.194
606.42	19.883
606.75	19.940
607.09	19.700
607.42	20.193
607.75	20.633
608.08	19.613
608.42	20.516
608.75	21.227
609.08	20.374
609.41	20.997
609.75	20.670
610.08	21.372
610.41	20.221
610.74	20.546
611.07	20.826
611.41	21.031
611.74	21.201
612.07	21.318
612.40	20.817
612.73	20.929
613.07	21.222
613.40	21.511
613.73	20.077
614.06	21.394
614.39	20.603
614.72	20.524
615.06	20.260
615.39	20.831
615.72	20.948
616.05	21.321
616.38	21.342
616.71	21.369
617.05	20.554
617.38	21.776
617.71	21.544
618.04	21.425
618.37	21.585
618.70	22.229
619.03	21.266
619.36	21.147
619.69	21.012
620.03	21.971
620.36	21.656
620.69	22.394
621.02	22.178
621.35	23.730
621.68	23.066
622.01	21.495
622.34	21.409
622.67	23.230
623.00	21.862
623.33	22.163
623.66	22.374
623.99	22.449
624.32	23.392
624.65	21.300
624.99	21.912
625.32	23.187
625.65	23.129
625.98	21.356
626.31	22.466
626.64	23.297
626.97	21.530
627.30	22.551
627.63	22.731
627.96	23.198
628.29	23.346
628.62	22.334
628.95	23.401
629.28	23.619
629.61	22.896
629.94	23.013
630.26	24.068
630.59	24.180
630.92	23.463
631.25	25.403
631.58	24.294
631.91	24.274
632.24	25.072
632.57	24.478
632.90	23.972
633.23	24.388
633.56	25.510
633.89	23.037
634.22	24.428
634.55	25.470
634.88	24.026
635.20	26.265
635.53	24.746
635.86	24.594
636.19	24.284
636.52	25.105
636.85	24.106
637.18	23.493
637.51	25.376
637.83	25.803
638.16	25.576
638.49	24.883
638.82	24.803
639.15	24.513
639.48	25.404
639.81	25.289
640.13	25.913
640.46	25.333
640.79	23.775
641.12	27.205
641.45	24.969
641.77	26.316
642.10	26.509
642.43	25.798
642.76	26.016
643.09	26.164
643.41	24.650
643.74	25.103
644.07	28.690
644.40	25.601
644.73	26.851
645.05	24.082
645.38	26.906
645.71	25.367
646.04	27.403
646.36	25.255
646.69	26.227
647.02	26.911
647.35	27.786
647.67	27.375
648.00	25.159
648.33	26.877
648.66	25.107
648.98	25.986
649.31	25.304
649.64	27.224
649.96	24.271
650.29	25.313
650.62	26.308
650.94	24.625
651.27	24.701
651.60	25.292
651.92	22.948
652.25	24.168
652.58	24.347
652.90	24.855
653.23	26.197
653.56	26.248
653.88	26.264
654.21	26.620
654.54	23.988
654.86	24.929
655.19	23.714
655.52	22.745
655.84	18.419
656.17	21.554
656.49	29.743
656.82	32.256
657.15	24.291
657.47	17.988
657.80	12.977
658.13	10.025
658.45	13.236
658.78	15.862
659.10	15.808
659.43	15.799
659.75	16.336
660.08	16.415
660.41	20.017
660.73	21.095
661.06	22.026
661.38	24.721
661.71	24.828
662.03	25.573
662.36	25.939
662.68	24.390
663.01	24.956
663.33	28.922
663.66	27.473
663.98	28.654
664.31	27.580
664.63	26.397
664.96	27.949
665.28	25.590
665.61	26.923
665.93	27.143
666.26	26.344
666.58	23.432
666.91	25.794
667.23	25.905
667.56	28.402
667.88	27.400
668.21	24.023
668.53	22.201
668.86	24.754
669.18	25.662
669.50	26.640
669.83	25.800
670.15	24.803
670.48	29.960
670.80	23.136
671.13	24.953
671.45	26.969
671.77	26.742
672.10	23.833
672.42	24.595
672.75	24.117
673.07	23.134
673.39	24.807
673.72	25.000
674.04	24.483
674.37	26.655
674.69	25.220
675.01	24.762
675.34	23.855
675.66	26.592
675.98	25.746
676.31	24.414
676.63	26.426
676.95	25.862
677.28	25.806
677.60	25.591
677.92	23.992
678.25	25.960
678.57	24.377
678.89	25.256
679.22	24.390
679.54	23.590
679.86	24.237
680.18	24.212
680.51	26.572
680.83	24.059
681.15	25.172
681.48	25.216
681.80	23.489
682.12	23.077
682.44	23.539
682.77	24.468
683.09	25.379
683.41	27.713
683.73	24.668
684.06	26.937
684.38	24.329
684.70	25.314
685.02	25.301
685.34	22.296
685.67	21.924
685.99	21.933
686.31	22.820
686.63	21.485
686.96	23.186
687.28	23.941
687.60	23.569
687.92	21.383
688.24	26.711
688.56	22.414
688.89	25.953
689.21	25.636
689.53	21.569
689.85	22.880
690.17	22.963
690.49	23.506
690.82	24.752
691.14	23.482
691.46	23.518
691.78	24.862
692.10	22.202
692.42	20.714
692.74	21.960
693.06	21.296
693.39	23.719
693.71	21.992
694.03	23.606
694.35	23.619
694.67	22.998
694.99	24.255
695.31	24.945
695.63	25.758
695.95	24.017
696.27	23.516
696.59	25.885
696.91	23.649
697.23	24.835
697.56	22.403
697.88	22.727
698.20	23.164
698.52	25.568
698.84	22.661
699.16	25.306
699.48	25.523
699.80	22.553
700.12	22.489
700.44	25.576
700.76	24.228
701.08	24.213
701.40	22.539
701.72	24.876
702.04	23.797
702.36	22.513
702.68	26.406
703.00	23.961
703.32	23.153
703.64	25.183
703.96	21.718
704.28	22.359
704.60	24.810
704.91	28.316
705.23	24.658
705.55	25.348
705.87	26.970
706.19	25.153
706.51	24.699
706.83	23.631
707.15	18.254
707.47	21.729
707.79	22.707
708.11	20.339
708.43	20.000
708.74	18.973
709.06	22.274
709.38	25.587
709.70	25.062
710.02	21.964
710.34	23.670
710.66	25.698
710.98	22.678
711.29	26.648
711.61	24.576
711.93	24.501
712.25	22.703
712.57	25.959
712.89	26.765
713.20	18.935
713.52	26.879
713.84	23.120
714.16	24.211
714.48	20.619
714.80	25.455
715.11	21.260
715.43	22.812
715.75	22.368
716.07	23.757
716.39	22.951
716.70	23.795
717.02	23.279
717.34	22.648
717.66	24.832
717.97	23.630
718.29	27.491
718.61	21.382
718.93	20.065
719.24	22.360
719.56	23.006
719.88	21.321
720.20	25.806
720.51	26.087
720.83	21.875
721.15	22.039
721.46	20.890
721.78	22.000
722.10	18.123
722.42	20.470
722.73	22.258
723.05	25.263
723.37	23.264
723.68	21.147
724.00	23.466
724.32	22.887
724.63	24.825
724.95	24.823
725.27	20.906
725.58	25.088
725.90	23.103
726.22	21.317
726.53	19.805
726.85	22.327
727.16	21.450
727.48	22.936
727.80	23.510
728.11	19.435
728.43	21.212
728.74	22.742
729.06	22.517
729.38	19.805
729.69	23.154
730.01	24.405
730.32	19.697
730.64	20.755
730.96	16.149
731.27	22.626
731.59	17.308
731.90	17.662
732.22	17.708
732.53	17.680
732.85	19.714
733.16	21.994
733.48	16.463
733.80	20.334
734.11	19.373
734.43	19.189
734.74	24.051
735.06	18.844
735.37	20.811
735.69	18.919
736.00	21.186
736.32	22.102
736.63	19.722
736.95	17.241
737.26	23.030
737.58	19.697
737.89	22.941
738.21	17.737
738.52	18.033
738.83	21.843
739.15	20.213
739.46	21.769
739.78	21.779
740.09	18.338
740.41	20.991
740.72	18.000
741.04	19.741
741.35	21.754
741.66	21.961
741.98	24.590
742.29	23.431
742.61	19.737
742.92	23.462
743.23	23.466
743.55	20.543
743.86	21.600
744.18	21.488
744.49	19.831
744.80	25.103
745.12	20.253
745.43	22.358
745.74	25.431
746.06	22.034
746.37	20.253
746.68	22.764
747.00	25.000
747.31	18.026
747.62	28.077
747.94	23.887
748.25	20.884
748.56	21.633
748.88	20.940
749.19	24.138
749.50	19.913
749.82	23.695
750.13	24.199
750.44	17.333
750.75	19.077
751.07	20.000
751.38	21.767
751.69	19.808
752.01	16.505
752.32	21.569
752.63	19.388
752.94	19.377
753.26	23.792
753.57	18.519
753.88	23.970
754.19	19.293
754.51	23.473
754.82	25.402
755.13	24.590
755.44	19.795
755.75	24.013
756.07	20.597
756.38	21.069
756.69	21.084
757.00	17.452
757.31	18.306
757.63	16.624
757.94	19.953
758.25	17.833
758.56	19.390
758.87	17.727
759.18	19.467
759.50	22.096
759.81	20.728
760.12	21.294
760.43	22.396
760.74	22.906
761.05	17.250
761.36	17.349
761.67	17.513
761.99	18.919
762.30	19.817
762.61	13.861
762.92	21.269
763.23	20.225
763.54	22.662
763.85	17.526
764.16	19.529
764.47	19.366
764.78	20.767
765.10	19.355
765.41	23.077
765.72	18.783
766.03	18.079
766.34	16.928
766.65	18.118
766.96	19.522
767.27	25.806
767.58	22.388
767.89	24.038
768.20	23.005
768.51	14.352
768.82	18.072
769.13	18.939
769.44	13.846
769.75	20.217
770.06	19.231
770.37	17.717
770.68	17.021
770.99	16.194
771.30	19.630
771.61	21.673
771.92	20.370
772.23	19.433
772.54	16.204
772.85	22.581
773.16	17.143
773.47	15.873
773.78	17.838
774.09	17.045
774.39	24.000
774.70	25.137
775.01	19.512
775.32	18.235
775.63	15.337
775.94	10.191
776.25	20.000
776.56	26.282
776.87	21.769
777.18	20.690
777.48	20.979
777.79	23.649
778.10	20.588
778.41	21.528
778.72	20.690
779.03	19.136
779.34	24.242
779.65	12.953
779.95	25.000
780.26	19.318
780.57	19.355
780.88	25.362
781.19	20.000
781.50	20.588
781.80	18.817
782.11	14.815
782.42	12.626
782.73	10.180
783.04	15.642
783.34	15.758
783.65	9.804
783.96	14.907
784.27	13.690
784.57	12.583
784.88	19.286
785.19	13.386
785.50	18.898
785.81	15.789
786.11	13.846
786.42	20.144
786.73	10.791
787.04	13.534
787.34	19.672
787.65	9.600
787.96	14.925
788.26	26.573
788.57	21.678
788.88	19.737
789.19	20.915
789.49	15.753
789.80	7.801
790.11	11.024
790.41	11.719
790.72	19.492
791.03	7.767
791.33	17.391
791.64	19.298
791.95	9.821
792.25	20.000
792.56	24.107
792.87	13.542
793.17	16.964
793.48	14.583
793.79	-1.205
794.09	8.257
794.40	11.009
794.70	14.286
795.01	14.935
795.32	11.644
795.62	20.423
795.93	12.879
796.23	19.672
796.54	13.393
796.85	3.191
797.15	16.304
797.46	8.219
797.76	7.500
798.07	16.304
798.37	3.093
798.68	-1.299
798.99	14.943
799.29	7.865
799.60	20.213
799.90	16.867
800.21	9.231
800.51	10.448
800.82	1.471
801.12	0.000
801.43	-1.471
801.73	-1.695
802.04	10.606
802.34	-1.667
802.65	5.085
802.95	19.403
803.26	8.475
803.56	9.589
803.87	5.714
804.17	9.589
804.48	-17.544
804.78	0.000
805.09	5.172
805.39	13.514
805.70	-2.817
806.00	17.073
806.30	12.048
806.61	-8.219
806.91	16.346
807.22	1.111
807.52	6.897
807.83	26.389
808.13	26.506
808.43	7.865
808.74	13.750
809.04	-2.941
809.35	21.333
809.65	14.286
809.95	21.918
810.26	-1.754
810.56	18.966
810.86	23.529
811.17	-1.754
811.47	-8.197
811.77	-13.333
812.08	8.475
812.38	-3.333
812.69	17.241
812.99	5.660
813.29	-20.513
813.59	-4.000
813.90	15.789
814.20	3.636
814.50	14.085
814.81	29.487
815.11	8.197
815.41	7.463
815.72	24.138
816.02	-3.571
816.32	4.444
816.62	4.545
816.93	6.667
817.23	1.852
817.53	12.766
817.84	19.048
818.14	5.882
818.44	22.449
818.74	28.889
819.04	-28.205
819.35	2.857
819.65	-50.000
819.95	1.887
820.25	15.556
820.56	14.286
820.86	-21.875
821.16	0.000
821.46	-11.628
821.76	-10.000
822.07	-10.714
822.37	-17.391
822.67	6.383
822.97	-37.838
823.27	2.500
823.57	24.490
823.88	26.667
824.18	7.500
824.48	-3.333
824.78	-4.000
825.08	-12.121
825.38	26.667
825.69	4.255
825.99	-2.778
826.29	-45.714
826.59	-7.692
826.89	-9.302
827.19	10.000
827.49	2.941
827.79	8.333
828.09	-45.946
828.39	0.000
828.70	0.000
829.00	18.605
829.30	-53.571
829.60	-5.882
829.90	8.696
830.20	-17.143
830.50	-34.483
830.80	-50.000
831.10	7.692
831.40	-14.706
831.70	0.000
832.00	25.806
832.30	-129.412
832.60	16.667
832.90	-69.231
833.20	21.053
833.50	5.000
833.80	-31.579
834.10	-95.238
834.40	19.444
834.70	15.625
835.00	-28.571
835.30	-14.706
835.60	-23.333
835.90	8.000
836.20	-59.091
836.50	4.000
836.80	-12.121
837.10	-48.148
837.40	0.000
837.70	-68.750
838.00	3.571
838.30	-34.783
838.60	0.000
838.90	-57.143
839.19	-17.391
839.49	-91.667
839.79	-34.783
840.09	-62.500
840.39	-10.000
840.69	22.581
840.99	-25.000
841.29	-6.667
841.59	-5.263
841.88	15.385
842.18	0.000
842.48	-130.000
842.78	10.000
843.08	3.333
843.38	0.000
843.68	-94.444
843.97	5.882
844.27	-56.250
844.57	-52.632
844.87	-80.000
845.17	-26.667
845.47	-28.571
845.76	-33.333
846.06	-155.556
846.36	-35.294
846.66	-38.462
846.96	-113.333
847.25	-52.941
847.55	4.348
847.85	-40.000
848.15	-41.176
848.44	-109.091
848.74	-42.857
849.04	-45.833
849.34	-25.000
849.63	-26.087
849.93	1250.000
850.23	-46.667
850.53	-34.615
850.82	-81.818
851.12	-13.636
851.42	-109.091
851.71	-23.077
852.01	-30.000
852.31	-30.769
852.61	-10.526
852.90	8.333
853.20	22.222
853.50	-77.778
853.79	-33.333
854.09	-63.636
854.39	-50.000
854.68	-12.903
854.98	-23.077
855.28	-16.667
855.57	-28.571
855.87	-4.000
856.17	-4.545
856.46	3.704
856.76	-33.333
857.05	-43.478
857.35	-45.833
857.65	-38.462
857.94	-14.286
858.24	-22.222
858.53	47.826
858.83	-29.412
859.13	-70.588
859.42	-29.412
859.72	-71.429
860.01	-65.000
860.31	-77.778
860.60	-100.000
860.90	-13.333
861.20	-38.889
861.49	-38.462
861.79	-3.333
862.08	-100.000
862.38	18.750
862.67	-23.529
862.97	-62.500
863.26	-200.000
863.56	-10.000
863.85	-127.273
864.15	5.556
864.44	-100.000
864.74	-42.857
865.03	-62.500
865.33	-110.000
865.62	-6.452
865.92	-31.818
866.21	0.000
866.51	-35.714
866.80	-60.000
867.10	-100.000
867.39	-33.333
867.69	2300.000
867.98	-114.286
868.27	-5.882
868.57	-2100.000
868.86	-100.000
869.16	-33.333
869.45	-29.167
869.75	-9.091
870.04	-185.714
870.33	-33.333
870.63	-242.857
870.92	-200.000
871.22	-150.000
871.51	-109.091
871.80	-533.333
872.10	-400.000
>>>>>End Processed Spectral Data<<<<<
