SpectraSuite Data File
++++++++++++++++++++++++++++++++++++
Date: Thu May 14 16:13:29 PDT 2015
User: schluterlab
Dark Spectrum Present: Yes
Reference Spectrum Present: Yes
Number of Sampled Component Spectra: 1
Spectrometers: USB2E3373
Integration Time (usec): 3000 (USB2E3373)
Spectra Averaged: 3 (USB2E3373)
Boxcar Smoothing: 0 (USB2E3373)
Correct for Electrical Dark: No (USB2E3373)
Strobe/Lamp Enabled: No (USB2E3373)
Correct for Detector Non-linearity: No (USB2E3373)
Correct for Stray Light: No (USB2E3373)
Number of Pixels in Processed Spectrum: 2048
>>>>>Begin Processed Spectral Data<<<<<
178.53	0.000
178.91	-114.286
179.29	-400.000
179.67	-700.000
180.04	164.286
180.42	40.000
180.80	40.000
181.18	-900.000
181.56	-400.000
181.94	225.000
182.31	-50.000
182.69	300.000
183.07	-500.000
183.45	175.000
183.83	-16.667
184.20	-333.333
184.58	900.000
184.96	-150.000
185.34	-22.222
185.72	160.000
186.09	77.778
186.47	550.000
186.85	280.000
187.23	-144.444
187.61	-800.000
187.98	220.000
188.36	200.000
188.74	175.000
189.12	-33.333
189.49	0.000
189.87	-112.500
190.25	-11.111
190.63	80.000
191.00	-100.000
191.38	0.000
191.76	-275.000
192.14	-133.333
192.51	750.000
192.89	-50.000
193.27	0.000
193.65	-57.143
194.02	-1400.000
194.40	-71.429
194.78	71.429
195.15	0.000
195.53	-27.273
195.91	0.000
196.29	-100.000
196.66	-76.923
197.04	-500.000
197.42	-228.571
197.79	-450.000
198.17	12.500
198.55	-185.714
198.92	-33.333
199.30	-50.000
199.68	0.000
200.05	7.143
200.43	-200.000
200.81	228.571
201.18	0.000
201.56	55.556
201.94	0.000
202.31	266.667
202.69	-144.444
203.07	-100.000
203.44	-11.111
203.82	100.000
204.19	-8.333
204.57	-100.000
204.95	-125.000
205.32	-1200.000
205.70	-50.000
206.08	-116.667
206.45	0.000
206.83	220.000
207.20	33.333
207.58	-300.000
207.96	-116.667
208.33	0.000
208.71	25.000
209.08	66.667
209.46	0.000
209.84	250.000
210.21	450.000
210.59	150.000
210.96	333.333
211.34	-25.000
211.71	0.000
212.09	-500.000
212.46	0.000
212.84	1100.000
213.22	-120.000
213.59	50.000
213.97	-110.000
214.34	-266.667
214.72	116.667
215.09	-125.000
215.47	0.000
215.84	128.571
216.22	550.000
216.59	20.000
216.97	0.000
217.34	-325.000
217.72	-112.500
218.09	-175.000
218.47	-50.000
218.84	0.000
219.22	40.000
219.59	-17.647
219.97	5.000
220.34	500.000
220.72	-11.111
221.09	7.692
221.47	233.333
221.84	-60.000
222.22	-100.000
222.59	0.000
222.97	0.000
223.34	-140.000
223.72	-1200.000
224.09	-50.000
224.46	75.000
224.84	-40.000
225.21	-157.143
225.59	-250.000
225.96	-175.000
226.34	3.846
226.71	266.667
227.08	-250.000
227.46	-40.000
227.83	-125.000
228.21	26.316
228.58	150.000
228.95	550.000
229.33	-8.333
229.70	-30.000
230.08	47.368
230.45	190.000
230.82	66.667
231.20	0.000
231.57	0.000
231.95	27.273
232.32	-81.818
232.69	10.000
233.07	-375.000
233.44	17.647
233.81	-120.000
234.19	44.444
234.56	18.182
234.93	24.138
235.31	26.316
235.68	-16.667
236.05	-55.000
236.43	11.538
236.80	8.000
237.17	0.000
237.55	18.182
237.92	-70.000
238.29	-12.903
238.67	-6.818
239.04	5.556
239.41	-33.333
239.79	-2.174
240.16	1.852
240.53	-13.043
240.91	-3.922
241.28	-1.639
241.65	13.433
242.02	14.865
242.40	-1.538
242.77	-1.333
243.14	-2.439
243.51	2.632
243.89	-6.410
244.26	11.881
244.63	10.784
245.00	0.935
245.38	0.877
245.75	0.885
246.12	7.937
246.49	-6.977
246.87	3.571
247.24	4.636
247.61	7.895
247.98	0.671
248.36	1.852
248.73	1.227
249.10	4.372
249.47	10.448
249.84	9.424
250.22	4.663
250.59	3.889
250.96	6.818
251.33	2.551
251.70	7.692
252.08	5.000
252.45	6.967
252.82	3.719
253.19	3.516
253.56	7.605
253.94	4.615
254.31	6.818
254.68	10.140
255.05	5.863
255.42	5.102
255.79	7.120
256.16	4.967
256.54	2.980
256.91	6.230
257.28	7.213
257.65	5.096
258.02	4.130
258.39	5.983
258.76	5.199
259.14	6.322
259.51	6.340
259.88	7.932
260.25	4.444
260.62	6.027
260.99	9.016
261.36	8.043
261.73	4.244
262.10	3.297
262.47	6.702
262.85	7.576
263.22	5.195
263.59	2.632
263.96	7.928
264.33	5.115
264.70	5.926
265.07	7.160
265.44	8.844
265.81	3.704
266.18	7.029
266.55	7.143
266.92	6.150
267.29	6.346
267.66	6.208
268.03	8.734
268.40	6.889
268.77	2.278
269.14	3.304
269.51	7.895
269.88	8.402
270.25	5.835
270.62	8.228
270.99	7.475
271.36	7.525
271.73	6.876
272.10	4.208
272.47	5.411
272.84	6.024
273.21	6.413
273.58	5.040
273.95	3.462
274.32	4.753
274.69	5.029
275.06	6.960
275.43	7.209
275.80	6.878
276.17	4.815
276.54	6.343
276.91	6.082
277.28	5.606
277.65	8.259
278.02	7.537
278.39	7.971
278.76	4.745
279.13	6.738
279.50	6.701
279.87	6.619
280.23	4.754
280.60	6.949
280.97	6.743
281.34	5.093
281.71	6.937
282.08	6.811
282.45	7.529
282.82	6.279
283.19	5.008
283.56	3.934
283.92	7.658
284.29	6.477
284.66	6.897
285.03	5.449
285.40	5.255
285.77	6.037
286.14	7.023
286.51	6.545
286.87	5.213
287.24	6.627
287.61	5.082
287.98	4.683
288.35	6.065
288.72	5.621
289.08	7.321
289.45	4.438
289.82	7.078
290.19	4.885
290.56	8.028
290.93	6.419
291.29	7.300
291.66	6.612
292.03	5.020
292.40	8.299
292.77	4.582
293.13	5.954
293.50	5.125
293.87	6.577
294.24	7.333
294.60	6.700
294.97	4.295
295.34	6.786
295.71	5.170
296.08	5.685
296.44	7.721
296.81	6.334
297.18	5.479
297.55	6.604
297.91	6.287
298.28	6.280
298.65	6.659
299.02	6.848
299.38	7.323
299.75	6.893
300.12	4.977
300.48	6.452
300.85	6.974
301.22	7.606
301.59	5.594
301.95	6.893
302.32	7.667
302.69	7.777
303.05	7.835
303.42	7.539
303.79	7.708
304.15	6.519
304.52	7.611
304.89	8.272
305.25	8.489
305.62	7.210
305.99	9.485
306.35	7.964
306.72	8.687
307.09	8.832
307.45	8.696
307.82	9.485
308.19	9.183
308.55	9.740
308.92	10.321
309.29	9.579
309.65	8.480
310.02	9.703
310.38	10.630
310.75	10.971
311.12	11.218
311.48	11.241
311.85	11.016
312.22	11.575
312.58	11.737
312.95	11.759
313.31	12.285
313.68	12.637
314.05	14.363
314.41	13.479
314.78	14.169
315.14	14.338
315.51	15.328
315.87	15.392
316.24	15.708
316.61	16.430
316.97	14.299
317.34	16.226
317.70	17.729
318.07	17.196
318.43	18.027
318.80	18.896
319.16	18.455
319.53	16.967
319.89	20.245
320.26	19.573
320.62	19.681
320.99	20.406
321.35	19.963
321.72	22.977
322.08	22.723
322.45	22.764
322.81	23.646
323.18	24.690
323.54	24.655
323.91	27.758
324.27	26.850
324.64	28.128
325.00	28.524
325.37	29.402
325.73	30.165
326.10	32.766
326.46	31.433
326.83	33.307
327.19	32.913
327.56	33.676
327.92	34.697
328.29	35.323
328.65	36.683
329.01	38.579
329.38	38.332
329.74	37.671
330.11	38.955
330.47	38.079
330.84	38.415
331.20	39.417
331.56	40.035
331.93	40.921
332.29	40.847
332.66	41.196
333.02	40.369
333.38	42.030
333.75	42.593
334.11	42.869
334.48	41.419
334.84	44.010
335.20	43.073
335.57	43.423
335.93	43.471
336.29	41.431
336.66	43.230
337.02	43.395
337.38	43.452
337.75	44.215
338.11	44.239
338.47	44.500
338.84	44.839
339.20	43.218
339.56	43.822
339.93	44.089
340.29	45.169
340.65	44.526
341.02	45.650
341.38	47.373
341.74	44.552
342.11	45.133
342.47	44.559
342.83	47.343
343.20	46.525
343.56	46.271
343.92	46.597
344.28	45.547
344.65	46.202
345.01	45.788
345.37	46.656
345.73	45.207
346.10	45.944
346.46	46.044
346.82	47.191
347.19	46.448
347.55	46.965
347.91	46.582
348.27	46.282
348.63	46.992
349.00	46.085
349.36	47.658
349.72	47.693
350.08	47.400
350.45	48.517
350.81	47.360
351.17	48.421
351.53	48.522
351.89	47.684
352.26	47.910
352.62	47.388
352.98	48.931
353.34	47.797
353.70	49.615
354.07	48.510
354.43	49.734
354.79	49.065
355.15	47.829
355.51	50.073
355.87	48.915
356.24	50.342
356.60	49.446
356.96	50.259
357.32	47.509
357.68	49.780
358.04	49.102
358.40	48.731
358.77	48.684
359.13	49.114
359.49	48.625
359.85	48.949
360.21	48.637
360.57	48.959
360.93	49.224
361.29	49.474
361.66	49.529
362.02	51.218
362.38	49.122
362.74	49.441
363.10	50.275
363.46	50.623
363.82	50.639
364.18	50.598
364.54	50.692
364.90	50.702
365.26	50.000
365.62	49.667
365.98	49.489
366.35	50.134
366.71	49.728
367.07	49.323
367.43	50.164
367.79	50.697
368.15	49.699
368.51	50.338
368.87	51.012
369.23	49.733
369.59	51.776
369.95	49.831
370.31	50.439
370.67	50.138
371.03	50.416
371.39	50.302
371.75	49.175
372.11	50.068
372.47	50.169
372.83	50.262
373.19	50.167
373.55	50.068
373.91	50.648
374.27	49.288
374.63	51.015
374.99	50.265
375.35	51.299
375.71	50.452
376.07	50.032
376.42	50.504
376.78	51.212
377.14	50.468
377.50	50.727
377.86	50.862
378.22	51.198
378.58	50.476
378.94	50.822
379.30	50.732
379.66	50.852
380.02	50.375
380.38	50.864
380.74	50.986
381.09	51.161
381.45	50.341
381.81	50.820
382.17	50.772
382.53	51.228
382.89	50.339
383.25	50.996
383.61	51.273
383.97	50.707
384.32	51.495
384.68	50.986
385.04	50.318
385.40	50.913
385.76	51.583
386.12	49.372
386.48	50.412
386.83	51.073
387.19	50.869
387.55	50.469
387.91	51.256
388.27	50.866
388.62	49.427
388.98	49.577
389.34	50.265
389.70	50.552
390.06	49.497
390.42	49.819
390.77	50.391
391.13	48.768
391.49	49.396
391.85	50.121
392.20	50.415
392.56	50.266
392.92	49.237
393.28	50.691
393.64	48.492
393.99	49.506
394.35	50.526
394.71	50.419
395.07	49.701
395.42	50.257
395.78	51.493
396.14	50.267
396.50	48.694
396.85	49.434
397.21	49.408
397.57	48.645
397.92	49.427
398.28	48.180
398.64	49.256
399.00	48.429
399.35	47.644
399.71	48.043
400.07	49.354
400.42	47.730
400.78	47.512
401.14	48.492
401.49	48.550
401.85	48.488
402.21	49.537
402.57	49.413
402.92	46.749
403.28	47.541
403.63	47.017
403.99	46.912
404.35	47.186
404.70	46.856
405.06	46.957
405.42	47.775
405.77	48.364
406.13	46.407
406.49	47.466
406.84	46.981
407.20	46.842
407.55	48.153
407.91	47.203
408.27	46.525
408.62	46.888
408.98	46.431
409.34	46.452
409.69	46.972
410.05	46.073
410.40	47.506
410.76	46.270
411.11	47.808
411.47	47.297
411.83	47.384
412.18	47.169
412.54	45.880
412.89	46.158
413.25	46.501
413.60	46.525
413.96	46.096
414.31	45.269
414.67	45.081
415.03	44.431
415.38	46.217
415.74	45.266
416.09	45.774
416.45	44.083
416.80	45.716
417.16	46.743
417.51	45.953
417.87	46.475
418.22	45.509
418.58	45.105
418.93	46.391
419.29	45.376
419.64	45.078
420.00	44.392
420.35	45.649
420.71	44.802
421.06	44.623
421.42	44.839
421.77	43.619
422.12	43.446
422.48	45.469
422.83	44.852
423.19	44.934
423.54	44.469
423.90	44.948
424.25	44.960
424.61	44.202
424.96	43.053
425.31	44.427
425.67	44.337
426.02	44.051
426.38	44.145
426.73	44.420
427.09	44.521
427.44	44.293
427.79	45.384
428.15	43.607
428.50	43.989
428.85	43.972
429.21	44.362
429.56	44.571
429.92	43.440
430.27	43.759
430.62	44.016
430.98	44.122
431.33	43.304
431.68	43.534
432.04	44.134
432.39	44.563
432.74	44.406
433.10	44.024
433.45	43.478
433.80	43.026
434.16	43.285
434.51	44.913
434.86	44.408
435.22	44.580
435.57	44.222
435.92	43.573
436.28	43.629
436.63	44.129
436.98	43.478
437.34	43.743
437.69	43.864
438.04	42.834
438.39	43.481
438.75	43.110
439.10	43.922
439.45	43.544
439.81	43.277
440.16	43.003
440.51	43.478
440.86	42.857
441.22	43.087
441.57	44.340
441.92	42.580
442.27	43.788
442.63	42.424
442.98	43.330
443.33	43.240
443.68	43.062
444.03	43.603
444.39	42.349
444.74	43.083
445.09	42.524
445.44	43.309
445.79	42.864
446.15	43.422
446.50	42.894
446.85	43.531
447.20	43.037
447.55	42.521
447.91	42.356
448.26	42.759
448.61	42.136
448.96	43.723
449.31	42.259
449.66	41.993
450.02	42.458
450.37	41.769
450.72	42.788
451.07	43.052
451.42	40.728
451.77	41.912
452.12	42.607
452.47	41.711
452.83	43.131
453.18	42.557
453.53	43.251
453.88	42.794
454.23	41.412
454.58	41.962
454.93	42.476
455.28	42.444
455.63	41.842
455.98	41.955
456.34	41.166
456.69	41.799
457.04	42.376
457.39	41.962
457.74	43.177
458.09	40.802
458.44	41.487
458.79	41.207
459.14	41.059
459.49	41.143
459.84	41.605
460.19	40.200
460.54	40.886
460.89	41.451
461.24	40.862
461.59	41.339
461.94	40.331
462.29	40.929
462.64	41.400
462.99	41.368
463.34	41.077
463.69	39.918
464.04	39.633
464.39	40.359
464.74	40.593
465.09	38.581
465.44	39.753
465.79	40.931
466.14	38.249
466.49	40.158
466.84	40.386
467.19	38.960
467.54	38.719
467.89	39.483
468.24	39.335
468.59	38.506
468.94	37.879
469.29	38.872
469.64	38.907
469.99	40.472
470.34	38.738
470.68	39.098
471.03	40.210
471.38	40.157
471.73	38.687
472.08	39.150
472.43	38.651
472.78	39.358
473.13	39.381
473.48	39.335
473.83	39.060
474.17	38.570
474.52	39.447
474.87	38.427
475.22	38.648
475.57	38.577
475.92	38.377
476.27	37.966
476.61	38.266
476.96	37.800
477.31	37.871
477.66	38.982
478.01	37.265
478.36	36.989
478.70	37.488
479.05	38.395
479.40	38.006
479.75	37.704
480.10	38.276
480.45	37.557
480.79	37.234
481.14	37.592
481.49	37.165
481.84	37.641
482.19	36.731
482.53	37.167
482.88	37.173
483.23	37.305
483.58	35.721
483.92	36.879
484.27	35.986
484.62	36.510
484.97	36.897
485.31	35.692
485.66	35.107
486.01	33.850
486.36	34.333
486.70	35.453
487.05	35.836
487.40	35.825
487.75	36.158
488.09	35.869
488.44	35.203
488.79	35.616
489.13	36.387
489.48	35.301
489.83	35.332
490.17	35.642
490.52	34.524
490.87	35.618
491.22	35.442
491.56	35.282
491.91	35.587
492.26	34.920
492.60	35.111
492.95	35.103
493.30	34.917
493.64	35.436
493.99	34.211
494.34	35.497
494.68	34.818
495.03	34.626
495.37	35.064
495.72	35.283
496.07	35.057
496.41	33.934
496.76	35.238
497.11	34.183
497.45	34.700
497.80	34.518
498.14	34.240
498.49	34.467
498.84	34.141
499.18	34.593
499.53	34.395
499.87	33.978
500.22	33.170
500.56	33.603
500.91	34.005
501.26	34.227
501.60	34.070
501.95	33.652
502.29	34.226
502.64	33.800
502.98	33.693
503.33	32.786
503.67	32.970
504.02	33.888
504.36	33.378
504.71	32.200
505.06	32.560
505.40	33.592
505.75	33.151
506.09	33.748
506.44	33.658
506.78	33.716
507.13	33.840
507.47	33.539
507.82	33.333
508.16	33.078
508.51	32.114
508.85	32.782
509.19	32.354
509.54	33.237
509.88	31.812
510.23	32.297
510.57	33.011
510.92	31.882
511.26	31.602
511.61	32.158
511.95	32.699
512.30	32.004
512.64	31.534
512.98	32.716
513.33	32.964
513.67	31.566
514.02	33.214
514.36	32.430
514.70	31.771
515.05	32.795
515.39	31.811
515.74	34.305
516.08	32.277
516.42	32.339
516.77	32.387
517.11	31.099
517.46	31.972
517.80	32.710
518.14	32.535
518.49	31.562
518.83	32.038
519.17	30.533
519.52	32.128
519.86	31.626
520.20	32.055
520.55	31.544
520.89	31.700
521.23	32.049
521.58	32.429
521.92	31.445
522.26	31.042
522.61	32.176
522.95	31.142
523.29	31.667
523.64	31.222
523.98	31.318
524.32	32.378
524.66	32.442
525.01	31.087
525.35	30.327
525.69	31.032
526.04	30.310
526.38	30.805
526.72	30.681
527.06	31.848
527.41	30.554
527.75	31.116
528.09	30.815
528.43	30.136
528.78	30.578
529.12	30.103
529.46	30.129
529.80	29.977
530.15	30.493
530.49	30.071
530.83	30.992
531.17	31.661
531.51	30.265
531.86	29.808
532.20	29.878
532.54	29.922
532.88	29.879
533.22	29.405
533.57	29.486
533.91	29.630
534.25	29.678
534.59	29.655
534.93	29.768
535.27	28.901
535.62	30.529
535.96	30.215
536.30	29.436
536.64	29.670
536.98	30.135
537.32	29.815
537.66	29.445
538.01	29.909
538.35	29.172
538.69	27.704
539.03	29.001
539.37	29.152
539.71	29.069
540.05	28.717
540.39	28.729
540.73	28.780
541.07	29.307
541.42	28.647
541.76	28.885
542.10	28.528
542.44	27.954
542.78	28.650
543.12	28.605
543.46	28.327
543.80	26.918
544.14	28.366
544.48	29.314
544.82	28.546
545.16	28.086
545.50	28.220
545.84	28.291
546.18	29.444
546.52	29.299
546.86	28.616
547.20	29.008
547.54	27.715
547.88	27.607
548.22	27.193
548.56	27.443
548.90	27.642
549.24	28.024
549.58	27.571
549.92	28.763
550.26	28.867
550.60	27.632
550.94	27.749
551.28	29.043
551.62	28.369
551.96	27.961
552.30	27.215
552.64	27.256
552.98	28.010
553.32	28.553
553.66	27.138
554.00	27.175
554.34	27.606
554.68	27.566
555.02	27.858
555.36	27.285
555.69	26.778
556.03	27.049
556.37	27.347
556.71	27.457
557.05	26.773
557.39	26.941
557.73	26.882
558.07	28.212
558.41	27.442
558.75	26.369
559.08	27.279
559.42	27.435
559.76	27.408
560.10	26.591
560.44	27.309
560.78	27.125
561.12	26.416
561.45	27.007
561.79	26.618
562.13	27.049
562.47	25.709
562.81	26.139
563.15	26.515
563.48	26.414
563.82	25.937
564.16	25.136
564.50	26.281
564.84	25.192
565.17	26.412
565.51	25.144
565.85	26.603
566.19	25.576
566.52	25.688
566.86	25.637
567.20	25.177
567.54	25.597
567.88	25.535
568.21	25.296
568.55	25.372
568.89	25.465
569.23	24.461
569.56	25.049
569.90	24.555
570.24	24.148
570.57	24.214
570.91	23.882
571.25	23.894
571.59	24.158
571.92	23.907
572.26	23.346
572.60	23.423
572.93	23.629
573.27	24.333
573.61	23.716
573.95	23.841
574.28	23.266
574.62	23.101
574.96	22.651
575.29	22.648
575.63	22.915
575.97	22.946
576.30	23.217
576.64	23.002
576.98	22.916
577.31	23.149
577.65	22.905
577.98	22.459
578.32	22.523
578.66	22.748
578.99	22.199
579.33	22.899
579.67	22.461
580.00	22.477
580.34	22.404
580.67	22.882
581.01	22.588
581.35	22.424
581.68	22.272
582.02	22.134
582.35	22.378
582.69	22.374
583.02	22.164
583.36	22.387
583.70	22.540
584.03	22.822
584.37	22.883
584.70	22.323
585.04	22.576
585.37	21.962
585.71	22.783
586.04	21.973
586.38	22.075
586.72	22.036
587.05	22.077
587.39	22.239
587.72	22.464
588.06	22.365
588.39	22.031
588.73	22.619
589.06	22.178
589.40	22.772
589.73	22.815
590.07	22.546
590.40	22.786
590.73	22.729
591.07	22.934
591.40	22.978
591.74	22.178
592.07	22.940
592.41	22.082
592.74	22.187
593.08	22.771
593.41	22.835
593.75	21.839
594.08	22.115
594.41	22.564
594.75	22.418
595.08	22.275
595.42	21.851
595.75	22.183
596.09	22.907
596.42	22.501
596.75	21.922
597.09	22.465
597.42	22.050
597.75	22.031
598.09	22.500
598.42	23.201
598.76	21.857
599.09	21.894
599.42	21.723
599.76	21.492
600.09	21.822
600.42	21.922
600.76	21.797
601.09	21.938
601.42	21.387
601.76	21.759
602.09	21.694
602.42	21.519
602.76	22.066
603.09	21.733
603.42	21.460
603.76	21.177
604.09	21.930
604.42	21.725
604.76	21.613
605.09	21.978
605.42	22.289
605.75	22.269
606.09	21.239
606.42	20.795
606.75	21.439
607.09	21.006
607.42	21.349
607.75	21.766
608.08	21.468
608.42	21.161
608.75	21.269
609.08	21.265
609.41	21.526
609.75	21.652
610.08	21.592
610.41	21.538
610.74	20.966
611.07	21.581
611.41	21.839
611.74	21.801
612.07	21.786
612.40	21.721
612.73	21.711
613.07	21.907
613.40	21.704
613.73	22.051
614.06	21.590
614.39	21.331
614.72	21.834
615.06	21.126
615.39	21.025
615.72	21.374
616.05	21.612
616.38	22.048
616.71	21.630
617.05	21.193
617.38	21.990
617.71	21.706
618.04	21.695
618.37	22.295
618.70	22.002
619.03	21.505
619.36	22.503
619.69	21.973
620.03	21.155
620.36	22.147
620.69	21.283
621.02	21.982
621.35	22.642
621.68	23.427
622.01	22.918
622.34	21.827
622.67	21.856
623.00	21.457
623.33	22.827
623.66	22.438
623.99	21.198
624.32	23.197
624.65	21.557
624.99	22.172
625.32	22.012
625.65	21.443
625.98	21.356
626.31	21.616
626.64	20.879
626.97	21.380
627.30	20.881
627.63	21.905
627.96	22.297
628.29	22.724
628.62	21.075
628.95	23.225
629.28	22.430
629.61	21.549
629.94	21.841
630.26	21.525
630.59	21.416
630.92	22.251
631.25	22.630
631.58	22.693
631.91	21.837
632.24	23.439
632.57	21.632
632.90	21.765
633.23	22.857
633.56	22.755
633.89	22.314
634.22	22.245
634.55	22.025
634.88	23.052
635.20	23.143
635.53	23.277
635.86	23.294
636.19	22.057
636.52	23.418
636.85	21.144
637.18	21.518
637.51	22.043
637.83	23.256
638.16	22.120
638.49	22.770
638.82	22.548
639.15	20.848
639.48	23.441
639.81	21.709
640.13	22.497
640.46	21.576
640.79	21.201
641.12	22.733
641.45	22.334
641.77	23.235
642.10	21.391
642.43	25.133
642.76	22.222
643.09	23.425
643.41	22.409
643.74	22.345
644.07	24.552
644.40	20.368
644.73	22.787
645.05	22.761
645.38	22.302
645.71	22.581
646.04	25.108
646.36	22.190
646.69	23.466
647.02	24.618
647.35	23.359
647.67	23.833
648.00	24.522
648.33	22.222
648.66	23.110
648.98	19.456
649.31	23.410
649.64	22.444
649.96	21.883
650.29	21.697
650.62	22.631
650.94	21.171
651.27	19.910
651.60	21.784
651.92	20.821
652.25	20.839
652.58	21.320
652.90	21.366
653.23	23.099
653.56	22.397
653.88	22.331
654.21	23.239
654.54	22.832
654.86	22.380
655.19	21.330
655.52	20.750
655.84	18.337
656.17	20.858
656.49	29.420
656.82	32.298
657.15	24.936
657.47	18.786
657.80	14.139
658.13	11.051
658.45	14.722
658.78	17.738
659.10	17.237
659.43	17.714
659.75	17.916
660.08	17.591
660.41	18.114
660.73	18.700
661.06	20.558
661.38	22.329
661.71	23.448
662.03	21.164
662.36	22.898
662.68	22.139
663.01	21.416
663.33	23.629
663.66	23.443
663.98	20.769
664.31	21.388
664.63	20.809
664.96	23.956
665.28	19.419
665.61	22.902
665.93	20.179
666.26	21.505
666.58	21.771
666.91	23.551
667.23	21.905
667.56	23.077
667.88	25.200
668.21	19.727
668.53	19.884
668.86	22.004
669.18	23.625
669.50	22.664
669.83	20.800
670.15	21.850
670.48	23.810
670.80	21.989
671.13	21.550
671.45	20.669
671.77	22.599
672.10	19.167
672.42	20.874
672.75	21.045
673.07	19.552
673.39	20.185
673.72	20.638
674.04	23.276
674.37	20.572
674.69	24.515
675.01	20.571
675.34	21.183
675.66	20.037
675.98	20.522
676.31	22.461
676.63	23.764
676.95	23.755
677.28	21.976
677.60	22.244
677.92	22.649
678.25	21.755
678.57	20.641
678.89	21.672
679.22	20.035
679.54	21.197
679.86	19.322
680.18	20.398
680.51	21.069
680.83	20.949
681.15	18.621
681.48	21.416
681.80	21.762
682.12	20.105
682.44	20.701
682.77	18.085
683.09	20.076
683.41	22.481
683.73	19.734
684.06	20.664
684.38	19.141
684.70	20.826
685.02	21.687
685.34	19.135
685.67	19.558
685.99	19.785
686.31	18.169
686.63	20.063
686.96	18.927
687.28	18.730
687.60	18.182
687.92	18.489
688.24	21.536
688.56	17.586
688.89	19.782
689.21	20.352
689.53	17.647
689.85	19.921
690.17	20.185
690.49	18.127
690.82	20.198
691.14	18.623
691.46	19.885
691.78	21.547
692.10	20.000
692.42	18.036
692.74	19.238
693.06	18.333
693.39	18.975
693.71	19.361
694.03	19.888
694.35	19.048
694.67	20.739
694.99	19.362
695.31	20.530
695.63	20.346
695.95	19.876
696.27	18.901
696.59	21.239
696.91	15.541
697.23	21.758
697.56	21.589
697.88	16.288
698.20	19.962
698.52	21.970
698.84	18.919
699.16	18.776
699.48	17.364
699.80	17.447
700.12	19.651
700.44	18.894
700.76	19.952
701.08	20.339
701.40	21.244
701.72	22.388
702.04	21.123
702.36	16.754
702.68	18.093
703.00	19.071
703.32	19.704
703.64	19.804
703.96	18.616
704.28	18.673
704.60	18.987
704.91	20.153
705.23	22.192
705.55	19.777
705.87	20.303
706.19	20.859
706.51	18.072
706.83	19.597
707.15	19.841
707.47	18.224
707.79	17.467
708.11	13.347
708.43	17.204
708.74	15.625
709.06	15.313
709.38	19.249
709.70	19.355
710.02	19.897
710.34	19.149
710.66	15.363
710.98	19.399
711.29	17.582
711.61	17.797
711.93	19.088
712.25	17.838
712.57	19.764
712.89	17.647
713.20	17.751
713.52	19.075
713.84	16.713
714.16	20.000
714.48	19.330
714.80	20.519
715.11	16.273
715.43	18.833
715.75	19.737
716.07	17.956
716.39	18.306
716.70	16.566
717.02	17.705
717.34	18.118
717.66	16.107
717.97	17.808
718.29	18.900
718.61	19.079
718.93	22.006
719.24	16.149
719.56	17.178
719.88	19.219
720.20	18.710
720.51	18.323
720.83	15.000
721.15	16.776
721.46	15.411
721.78	20.667
722.10	17.152
722.42	20.134
722.73	19.355
723.05	22.456
723.37	18.750
723.68	18.638
724.00	15.884
724.32	17.958
724.63	20.629
724.95	19.149
725.27	14.983
725.58	16.961
725.90	22.069
726.22	16.301
726.53	16.234
726.85	17.296
727.16	15.106
727.48	18.654
727.80	18.212
728.11	15.548
728.43	20.539
728.74	21.070
729.06	18.874
729.38	21.753
729.69	19.463
730.01	15.774
730.32	15.758
730.64	19.182
730.96	16.770
731.27	20.670
731.59	14.835
731.90	14.286
732.22	13.021
732.53	15.470
732.85	18.857
733.16	14.956
733.48	14.634
733.80	16.713
734.11	15.100
734.43	16.757
734.74	17.722
735.06	14.824
735.37	14.324
735.69	16.757
736.00	17.797
736.32	17.520
736.63	14.167
736.95	17.241
737.26	15.758
737.58	15.152
737.89	21.765
738.21	11.927
738.52	15.410
738.83	19.795
739.15	18.085
739.46	17.687
739.78	17.791
740.09	16.046
740.41	18.659
740.72	16.667
741.04	17.152
741.35	17.544
741.66	20.392
741.98	17.623
742.29	15.063
742.61	15.351
742.92	18.462
743.23	19.134
743.55	15.116
743.86	16.000
744.18	13.636
744.49	14.768
744.80	22.634
745.12	20.675
745.43	15.447
745.74	15.086
746.06	13.559
746.37	17.300
746.68	21.951
747.00	20.833
747.31	14.163
747.62	20.385
747.94	13.765
748.25	18.876
748.56	15.510
748.88	14.103
749.19	12.069
749.50	16.017
749.82	19.679
750.13	19.217
750.44	16.000
750.75	13.538
751.07	20.308
751.38	15.773
751.69	15.655
752.01	13.592
752.32	17.647
752.63	14.966
752.94	17.993
753.26	15.613
753.57	13.333
753.88	10.112
754.19	17.685
754.51	14.469
754.82	14.791
755.13	13.770
755.44	17.747
755.75	16.118
756.07	17.015
756.38	15.723
756.69	16.265
757.00	15.235
757.31	14.208
757.63	14.066
757.94	14.554
758.25	14.898
758.56	13.508
758.87	16.818
759.18	13.067
759.50	16.431
759.81	15.126
760.12	15.094
760.43	11.979
760.74	16.010
761.05	13.000
761.36	11.325
761.67	13.706
761.99	16.486
762.30	15.854
762.61	14.851
762.92	13.433
763.23	13.858
763.54	19.424
763.85	14.089
764.16	14.141
764.47	15.141
764.78	16.613
765.10	16.129
765.41	19.487
765.72	11.111
766.03	15.537
766.34	13.166
766.65	10.105
766.96	14.741
767.27	13.364
767.58	9.453
767.89	16.346
768.20	14.554
768.51	13.889
768.82	17.269
769.13	14.015
769.44	12.308
769.75	16.968
770.06	16.154
770.37	18.504
770.68	14.468
770.99	12.146
771.30	17.778
771.61	15.209
771.92	12.963
772.23	17.004
772.54	11.574
772.85	19.355
773.16	19.524
773.47	14.815
773.78	9.730
774.09	15.341
774.39	18.000
774.70	18.033
775.01	7.927
775.32	12.941
775.63	19.632
775.94	14.650
776.25	14.194
776.56	17.949
776.87	18.367
777.18	15.172
777.48	17.483
777.79	12.838
778.10	13.235
778.41	20.139
778.72	11.034
779.03	14.815
779.34	13.939
779.65	17.617
779.95	11.667
780.26	18.750
780.57	16.129
780.88	22.464
781.19	16.774
781.50	22.353
781.80	18.817
782.11	15.344
782.42	9.091
782.73	17.964
783.04	12.291
783.34	10.303
783.65	7.843
783.96	13.043
784.27	20.833
784.57	11.921
784.88	15.714
785.19	19.685
785.50	15.748
785.81	12.030
786.11	13.077
786.42	15.108
786.73	7.914
787.04	13.534
787.34	8.197
787.65	8.800
787.96	13.433
788.26	11.888
788.57	21.678
788.88	13.816
789.19	17.647
789.49	10.274
789.80	16.312
790.11	17.323
790.41	6.250
790.72	13.559
791.03	-0.971
791.33	16.522
791.64	23.684
791.95	8.036
792.25	4.762
792.56	25.000
792.87	5.208
793.17	13.393
793.48	10.417
793.79	-2.410
794.09	8.257
794.40	9.174
794.70	16.327
795.01	11.688
795.32	17.808
795.62	14.085
795.93	13.636
796.23	12.295
796.54	8.929
796.85	1.064
797.15	15.217
797.46	6.849
797.76	5.000
798.07	18.478
798.37	12.371
798.68	6.494
798.99	6.897
799.29	8.989
799.60	27.660
799.90	10.843
800.21	15.385
800.51	17.910
800.82	1.471
801.12	-4.110
801.43	-13.235
801.73	-3.390
802.04	6.061
802.34	-11.667
802.65	-16.949
802.95	4.478
803.26	8.475
803.56	26.027
803.87	22.857
804.17	17.808
804.48	-14.035
804.78	9.722
805.09	-5.172
805.39	16.216
805.70	-2.817
806.00	12.195
806.30	8.434
806.61	2.740
806.91	11.538
807.22	13.333
807.52	8.046
807.83	19.444
808.13	19.277
808.43	16.854
808.74	8.750
809.04	-4.412
809.35	8.000
809.65	-2.857
809.95	12.329
810.26	3.509
810.56	6.897
810.86	8.824
811.17	12.281
811.47	-9.836
811.77	-20.000
812.08	-6.780
812.38	-10.000
812.69	8.621
812.99	24.528
813.29	-7.692
813.59	18.000
813.90	24.561
814.20	16.364
814.50	19.718
814.81	7.692
815.11	6.557
815.41	7.463
815.72	15.517
816.02	1.786
816.32	24.444
816.62	29.545
816.93	4.444
817.23	12.963
817.53	-14.894
817.84	38.095
818.14	14.706
818.44	-14.286
818.74	13.333
819.04	-38.462
819.35	-14.286
819.65	-38.462
819.95	5.660
820.25	15.556
820.56	0.000
820.86	-34.375
821.16	-10.256
821.46	11.628
821.76	-8.000
822.07	5.357
822.37	-15.217
822.67	17.021
822.97	-16.216
823.27	-2.500
823.57	24.490
823.88	17.778
824.18	25.000
824.48	30.000
824.78	-16.000
825.08	-21.212
825.38	2.222
825.69	4.255
825.99	13.889
826.29	-40.000
826.59	-7.692
826.89	-18.605
827.19	-2.000
827.49	14.706
827.79	18.750
828.09	-16.216
828.39	3.333
828.70	14.634
829.00	-20.930
829.30	-35.714
829.60	20.588
829.90	2.174
830.20	11.429
830.50	-27.586
830.80	-27.778
831.10	3.846
831.40	-11.765
831.70	23.810
832.00	12.903
832.30	-64.706
832.60	-8.333
832.90	-100.000
833.20	10.526
833.50	5.000
833.80	-36.842
834.10	-61.905
834.40	-2.778
834.70	12.500
835.00	-14.286
835.30	-8.824
835.60	16.667
835.90	-20.000
836.20	-68.182
836.50	20.000
836.80	-12.121
837.10	-40.741
837.40	-14.815
837.70	-81.250
838.00	28.571
838.30	-21.739
838.60	3.448
838.90	-42.857
839.19	-13.043
839.49	-41.667
839.79	-13.043
840.09	-25.000
840.39	-45.000
840.69	12.903
840.99	-17.857
841.29	-33.333
841.59	-10.526
841.88	28.205
842.18	-19.231
842.48	-90.000
842.78	5.000
843.08	10.000
843.38	12.903
843.68	-50.000
843.97	17.647
844.27	-43.750
844.57	-36.842
844.87	-50.000
845.17	-33.333
845.47	47.619
845.76	-4.762
846.06	-22.222
846.36	-70.588
846.66	-7.692
846.96	-13.333
847.25	5.882
847.55	4.348
847.85	-5.000
848.15	0.000
848.44	-72.727
848.74	23.810
849.04	-25.000
849.34	-18.750
849.63	4.348
849.93	550.000
850.23	-20.000
850.53	42.308
850.82	-63.636
851.12	4.545
851.42	-18.182
851.71	-46.154
852.01	-15.000
852.31	7.692
852.61	-42.105
852.90	16.667
853.20	16.667
853.50	-66.667
853.79	-4.762
854.09	-72.727
854.39	-91.667
854.68	22.581
854.98	-23.077
855.28	-50.000
855.57	-28.571
855.87	-4.000
856.17	-54.545
856.46	7.407
856.76	-22.222
857.05	17.391
857.35	-20.833
857.65	-100.000
857.94	23.810
858.24	44.444
858.53	39.130
858.83	11.765
859.13	-23.529
859.42	35.294
859.72	-28.571
860.01	-10.000
860.31	88.889
860.60	-60.000
860.90	53.333
861.20	27.778
861.49	0.000
861.79	6.667
862.08	-30.769
862.38	-3.125
862.67	11.765
862.97	18.750
863.26	-122.222
863.56	-40.000
863.85	-127.273
864.15	-38.889
864.44	-266.667
864.74	14.286
865.03	-50.000
865.33	-130.000
865.62	3.226
865.92	13.636
866.21	-4.348
866.51	14.286
866.80	-200.000
867.10	-50.000
867.39	-100.000
867.69	600.000
867.98	14.286
868.27	17.647
868.57	-1700.000
868.86	-100.000
869.16	-9.524
869.45	37.500
869.75	-18.182
870.04	-57.143
870.33	8.333
870.63	-142.857
870.92	-50.000
871.22	-100.000
871.51	-81.818
871.80	-333.333
872.10	-350.000
>>>>>End Processed Spectral Data<<<<<
