SpectraSuite Data File
++++++++++++++++++++++++++++++++++++
Date: Thu May 14 16:21:01 PDT 2015
User: schluterlab
Dark Spectrum Present: Yes
Reference Spectrum Present: Yes
Number of Sampled Component Spectra: 1
Spectrometers: USB2E3373
Integration Time (usec): 3000 (USB2E3373)
Spectra Averaged: 3 (USB2E3373)
Boxcar Smoothing: 0 (USB2E3373)
Correct for Electrical Dark: No (USB2E3373)
Strobe/Lamp Enabled: No (USB2E3373)
Correct for Detector Non-linearity: No (USB2E3373)
Correct for Stray Light: No (USB2E3373)
Number of Pixels in Processed Spectrum: 2048
>>>>>Begin Processed Spectral Data<<<<<
178.53	0.000
178.91	142.857
179.29	-200.000
179.67	-1300.000
180.04	114.286
180.42	80.000
180.80	20.000
181.18	-300.000
181.56	900.000
181.94	50.000
182.31	-25.000
182.69	333.333
183.07	-100.000
183.45	250.000
183.83	-66.667
184.20	-333.333
184.58	-200.000
184.96	-275.000
185.34	-33.333
185.72	60.000
186.09	133.333
186.47	750.000
186.85	300.000
187.23	-122.222
187.61	-800.000
187.98	180.000
188.36	125.000
188.74	-50.000
189.12	-133.333
189.49	37.500
189.87	-25.000
190.25	-22.222
190.63	0.000
191.00	11.111
191.38	0.000
191.76	-375.000
192.14	-233.333
192.51	800.000
192.89	83.333
193.27	0.000
193.65	-100.000
194.02	-1400.000
194.40	0.000
194.78	185.714
195.15	0.000
195.53	27.273
195.91	0.000
196.29	-125.000
196.66	23.077
197.04	-900.000
197.42	-185.714
197.79	-450.000
198.17	-125.000
198.55	28.571
198.92	11.111
199.30	-50.000
199.68	63.636
200.05	-7.143
200.43	-600.000
200.81	157.143
201.18	0.000
201.56	77.778
201.94	0.000
202.31	366.667
202.69	0.000
203.07	1000.000
203.44	-122.222
203.82	-275.000
204.19	-8.333
204.57	-66.667
204.95	-25.000
205.32	-700.000
205.70	100.000
206.08	-100.000
206.45	-116.667
206.83	280.000
207.20	-116.667
207.58	-140.000
207.96	0.000
208.33	-50.000
208.71	33.333
209.08	100.000
209.46	0.000
209.84	66.667
210.21	50.000
210.59	400.000
210.96	433.333
211.34	75.000
211.71	-150.000
212.09	-1200.000
212.46	0.000
212.84	1050.000
213.22	-160.000
213.59	-150.000
213.97	-10.000
214.34	-133.333
214.72	233.333
215.09	-350.000
215.47	0.000
215.84	-0.000
216.22	750.000
216.59	-140.000
216.97	-60.000
217.34	0.000
217.72	-12.500
218.09	-75.000
218.47	-75.000
218.84	0.000
219.22	120.000
219.59	5.882
219.97	-40.000
220.34	200.000
220.72	-166.667
221.09	100.000
221.47	-133.333
221.84	-60.000
222.22	-85.714
222.59	0.000
222.97	-12.500
223.34	-260.000
223.72	-200.000
224.09	-50.000
224.46	-125.000
224.84	140.000
225.21	-185.714
225.59	-75.000
225.96	-250.000
226.34	15.385
226.71	216.667
227.08	-100.000
227.46	13.333
227.83	-175.000
228.21	-5.263
228.58	50.000
228.95	500.000
229.33	-25.000
229.70	60.000
230.08	52.632
230.45	120.000
230.82	-266.667
231.20	7.143
231.57	-16.667
231.95	-9.091
232.32	18.182
232.69	-5.000
233.07	-175.000
233.44	-11.765
233.81	-90.000
234.19	-27.778
234.56	-9.091
234.93	13.793
235.31	5.263
235.68	-27.778
236.05	-65.000
236.43	30.769
236.80	28.000
237.17	29.630
237.55	-9.091
237.92	-40.000
238.29	3.226
238.67	-4.545
239.04	22.222
239.41	-4.762
239.79	-4.348
240.16	-20.370
240.53	-6.522
240.91	-7.843
241.28	-3.279
241.65	4.478
242.02	12.162
242.40	-7.692
242.77	2.667
243.14	3.659
243.51	-10.526
243.89	10.256
244.26	14.851
244.63	9.804
245.00	9.346
245.38	-2.632
245.75	-4.425
246.12	8.730
246.49	4.651
246.87	7.857
247.24	3.311
247.61	4.605
247.98	14.765
248.36	8.642
248.73	3.681
249.10	6.011
249.47	12.438
249.84	15.183
250.22	6.218
250.59	5.000
250.96	10.455
251.33	7.143
251.70	12.393
252.08	6.667
252.45	7.377
252.82	6.198
253.19	5.859
253.56	10.266
253.94	5.000
254.31	10.227
254.68	10.839
255.05	14.007
255.42	8.503
255.79	5.825
256.16	5.960
256.54	5.960
256.91	12.131
257.28	12.459
257.65	5.096
258.02	7.375
258.39	7.692
258.76	11.621
259.14	10.920
259.51	9.510
259.88	4.249
260.25	9.167
260.62	9.863
260.99	10.656
261.36	11.528
261.73	7.692
262.10	9.066
262.47	10.188
262.85	11.869
263.22	7.792
263.59	6.316
263.96	12.020
264.33	7.673
264.70	9.383
265.07	13.365
265.44	13.152
265.81	9.259
266.18	7.483
266.55	10.045
266.92	7.745
267.29	9.847
267.66	9.313
268.03	9.607
268.40	10.438
268.77	7.745
269.14	7.048
269.51	10.088
269.88	11.066
270.25	10.060
270.62	10.127
270.99	11.313
271.36	10.495
271.73	11.591
272.10	9.619
272.47	9.820
272.84	10.442
273.21	11.824
273.58	9.274
273.95	7.115
274.32	7.795
274.69	7.930
275.06	10.806
275.43	7.394
275.80	9.524
276.17	9.259
276.54	10.448
276.91	8.945
277.28	10.307
277.65	7.540
278.02	10.294
278.39	9.239
278.76	8.612
279.13	9.397
279.50	11.340
279.87	10.197
280.23	8.803
280.60	10.508
280.97	10.362
281.34	8.829
281.71	10.829
282.08	10.299
282.45	10.147
282.82	8.634
283.19	7.108
283.56	9.344
283.92	10.511
284.29	10.269
284.66	10.016
285.03	8.173
285.40	9.119
285.77	9.752
286.14	8.702
286.51	8.524
286.87	9.637
287.24	11.446
287.61	8.969
287.98	7.100
288.35	10.059
288.72	8.432
289.08	9.956
289.45	8.136
289.82	8.283
290.19	9.626
290.56	8.451
290.93	8.702
291.29	9.780
291.66	8.678
292.03	6.920
292.40	9.116
292.77	8.221
293.13	10.825
293.50	6.833
293.87	8.456
294.24	10.133
294.60	8.091
294.97	7.248
295.34	8.195
295.71	7.440
296.08	6.977
296.44	8.088
296.81	8.283
297.18	8.095
297.55	8.255
297.91	9.015
298.28	6.280
298.65	8.680
299.02	7.202
299.38	8.810
299.75	6.308
300.12	7.176
300.48	8.295
300.85	8.999
301.22	7.383
301.59	7.534
301.95	7.119
302.32	8.444
302.69	7.010
303.05	8.270
303.42	7.317
303.79	7.708
304.15	7.676
304.52	5.708
304.89	7.016
305.25	6.315
305.62	6.374
305.99	6.907
306.35	5.948
306.72	7.756
307.09	6.294
307.45	7.143
307.82	6.660
308.19	7.467
308.55	8.679
308.92	6.816
309.29	6.226
309.65	7.505
310.02	6.634
310.38	6.988
310.75	6.699
311.12	7.095
311.48	6.940
311.85	6.933
312.22	5.503
312.58	7.700
312.95	6.788
313.31	7.859
313.68	8.242
314.05	7.498
314.41	7.923
314.78	6.994
315.14	7.078
315.51	7.572
315.87	8.551
316.24	8.676
316.61	7.549
316.97	6.968
317.34	8.113
317.70	8.122
318.07	7.937
318.43	7.908
318.80	7.943
319.16	6.867
319.53	6.598
319.89	5.784
320.26	7.206
320.62	6.206
320.99	7.387
321.35	6.747
321.72	7.721
322.08	6.132
322.45	8.040
322.81	7.040
323.18	6.814
323.54	7.414
323.91	8.185
324.27	7.229
324.64	7.976
325.00	7.380
325.37	8.927
325.73	7.521
326.10	7.624
326.46	8.143
326.83	8.006
327.19	8.189
327.56	7.668
327.92	7.710
328.29	6.290
328.65	7.286
329.01	7.445
329.38	8.930
329.74	7.962
330.11	7.534
330.47	7.835
330.84	7.838
331.20	7.750
331.56	6.759
331.93	7.699
332.29	7.627
332.66	8.056
333.02	6.700
333.38	6.963
333.75	7.155
334.11	7.423
334.48	8.663
334.84	7.901
335.20	6.381
335.57	7.589
335.93	7.769
336.29	6.572
336.66	6.392
337.02	8.194
337.38	8.588
337.75	6.612
338.11	7.906
338.47	7.692
338.84	7.360
339.20	6.571
339.56	7.578
339.93	6.732
340.29	7.890
340.65	7.137
341.02	8.220
341.38	7.357
341.74	7.667
342.11	7.321
342.47	6.990
342.83	7.568
343.20	8.013
343.56	7.298
343.92	7.206
344.28	7.734
344.65	8.295
345.01	6.786
345.37	7.854
345.73	7.015
346.10	7.800
346.46	7.358
346.82	7.940
347.19	7.563
347.55	7.815
347.91	7.578
348.27	6.980
348.63	7.768
349.00	7.830
349.36	6.989
349.72	6.920
350.08	7.875
350.45	7.452
350.81	7.089
351.17	7.068
351.53	7.430
351.89	6.682
352.26	7.612
352.62	7.463
352.98	7.176
353.34	5.825
353.70	6.471
354.07	7.154
354.43	7.062
354.79	6.283
355.15	7.285
355.51	7.675
355.87	7.255
356.24	6.844
356.60	6.430
356.96	6.597
357.32	6.543
357.68	6.076
358.04	6.512
358.40	6.119
358.77	7.529
359.13	6.647
359.49	5.428
359.85	6.672
360.21	7.676
360.57	6.174
360.93	6.559
361.29	7.088
361.66	6.589
362.02	7.237
362.38	7.519
362.74	5.936
363.10	7.221
363.46	6.440
363.82	6.534
364.18	6.826
364.54	6.777
364.90	7.224
365.26	5.862
365.62	7.400
365.98	6.807
366.35	5.906
366.71	6.803
367.07	6.157
367.43	6.894
367.79	7.100
368.15	6.890
368.51	6.698
368.87	7.315
369.23	6.200
369.59	6.148
369.95	7.032
370.31	6.617
370.67	6.121
371.03	6.440
371.39	5.507
371.75	5.983
372.11	6.707
372.47	7.651
372.83	6.937
373.19	6.671
373.55	6.301
373.91	5.249
374.27	6.274
374.63	6.766
374.99	5.836
375.35	7.078
375.71	6.194
376.07	6.068
376.42	6.423
376.78	6.588
377.14	6.862
377.50	5.946
377.86	7.389
378.22	6.587
378.58	6.718
378.94	6.631
379.30	6.151
379.66	6.290
380.02	6.694
380.38	6.567
380.74	6.592
381.09	5.865
381.45	6.761
381.81	6.616
382.17	6.176
382.53	6.959
382.89	6.941
383.25	6.213
383.61	6.192
383.97	6.066
384.32	6.579
384.68	5.162
385.04	6.478
385.40	6.246
385.76	6.506
386.12	6.044
386.48	6.647
386.83	6.555
387.19	5.910
387.55	6.631
387.91	6.678
388.27	5.774
388.62	6.014
388.98	6.373
389.34	6.777
389.70	5.694
390.06	6.809
390.42	5.964
390.77	7.526
391.13	6.045
391.49	6.522
391.85	5.273
392.20	6.346
392.56	6.852
392.92	6.052
393.28	6.081
393.64	6.425
393.99	6.682
394.35	6.308
394.71	6.707
395.07	5.629
395.42	6.453
395.78	6.886
396.14	6.714
396.50	5.938
396.85	6.261
397.21	5.740
397.57	6.360
397.92	6.586
398.28	5.975
398.64	5.549
399.00	5.707
399.35	6.283
399.71	6.033
400.07	6.401
400.42	6.170
400.78	6.076
401.14	6.431
401.49	6.310
401.85	6.221
402.21	6.837
402.57	6.866
402.92	6.442
403.28	6.323
403.63	5.370
403.99	6.295
404.35	6.254
404.70	6.969
405.06	6.196
405.42	6.206
405.77	6.161
406.13	5.943
406.49	6.419
406.84	6.593
407.20	5.813
407.55	5.754
407.91	6.474
408.27	6.419
408.62	6.225
408.98	7.139
409.34	5.220
409.69	5.810
410.05	6.741
410.40	7.193
410.76	6.282
411.11	6.371
411.47	7.002
411.83	6.408
412.18	6.145
412.54	6.876
412.89	5.763
413.25	6.377
413.60	5.974
413.96	6.119
414.31	5.892
414.67	7.096
415.03	6.523
415.38	6.936
415.74	6.475
416.09	7.218
416.45	6.262
416.80	6.242
417.16	6.322
417.51	6.351
417.87	6.683
418.22	6.108
418.58	6.815
418.93	7.451
419.29	6.042
419.64	6.663
420.00	6.409
420.35	7.243
420.71	6.778
421.06	5.865
421.42	6.250
421.77	6.247
422.12	6.977
422.48	6.656
422.83	6.900
423.19	6.366
423.54	6.471
423.90	6.350
424.25	6.347
424.61	5.396
424.96	6.974
425.31	7.059
425.67	6.656
426.02	5.479
426.38	6.544
426.73	5.692
427.09	7.093
427.44	6.117
427.79	6.578
428.15	6.507
428.50	6.517
428.85	6.716
429.21	6.596
429.56	5.824
429.92	6.241
430.27	6.169
430.62	6.155
430.98	6.345
431.33	5.621
431.68	6.322
432.04	6.247
432.39	5.945
432.74	6.507
433.10	6.760
433.45	6.076
433.80	6.599
434.16	7.076
434.51	5.601
434.86	6.135
435.22	6.854
435.57	6.191
435.92	6.733
436.28	5.916
436.63	5.898
436.98	7.139
437.34	6.877
437.69	5.559
438.04	5.817
438.39	6.720
438.75	6.143
439.10	6.765
439.45	6.987
439.81	6.780
440.16	6.434
440.51	6.856
440.86	6.281
441.22	6.163
441.57	6.342
441.92	6.353
442.27	5.960
442.63	6.657
442.98	6.510
443.33	5.997
443.68	7.185
444.03	7.338
444.39	6.657
444.74	6.636
445.09	6.336
445.44	7.007
445.79	7.040
446.15	6.526
446.50	6.408
446.85	7.393
447.20	6.963
447.55	6.642
447.91	6.806
448.26	6.395
448.61	6.429
448.96	7.672
449.31	6.946
449.66	6.590
450.02	6.171
450.37	7.565
450.72	6.297
451.07	7.175
451.42	6.008
451.77	6.392
452.12	7.223
452.47	6.595
452.83	6.700
453.18	7.064
453.53	6.491
453.88	7.510
454.23	6.610
454.58	6.965
454.93	6.614
455.28	6.924
455.63	7.220
455.98	7.207
456.34	6.949
456.69	6.761
457.04	6.560
457.39	7.594
457.74	7.215
458.09	6.535
458.44	7.435
458.79	5.982
459.14	6.607
459.49	7.074
459.84	7.240
460.19	6.774
460.54	7.041
460.89	6.988
461.24	6.437
461.59	7.914
461.94	6.674
462.29	7.391
462.64	6.940
462.99	6.842
463.34	6.944
463.69	7.386
464.04	7.282
464.39	6.278
464.74	7.697
465.09	6.747
465.44	6.867
465.79	6.822
466.14	6.566
466.49	6.789
466.84	7.218
467.19	6.994
467.54	6.522
467.89	6.954
468.24	7.368
468.59	5.906
468.94	6.760
469.29	6.479
469.64	6.739
469.99	7.457
470.34	7.550
470.68	5.742
471.03	7.531
471.38	7.325
471.73	6.632
472.08	7.234
472.43	7.285
472.78	7.809
473.13	6.258
473.48	7.734
473.83	7.719
474.17	7.327
474.52	7.096
474.87	7.697
475.22	7.606
475.57	7.269
475.92	7.267
476.27	7.188
476.61	7.269
476.96	5.787
477.31	7.574
477.66	7.817
478.01	6.812
478.36	7.129
478.70	7.340
479.05	7.157
479.40	7.453
479.75	8.453
480.10	6.679
480.45	7.475
480.79	7.302
481.14	7.077
481.49	6.770
481.84	7.659
482.19	7.441
482.53	6.777
482.88	7.045
483.23	6.936
483.58	7.293
483.92	7.004
484.27	7.028
484.62	7.261
484.97	6.843
485.31	6.758
485.66	6.616
486.01	6.020
486.36	6.276
486.70	6.696
487.05	6.993
487.40	6.873
487.75	7.583
488.09	7.129
488.44	6.813
488.79	7.555
489.13	7.277
489.48	7.262
489.83	7.284
490.17	6.723
490.52	7.266
490.87	7.657
491.22	7.149
491.56	7.423
491.91	7.763
492.26	7.746
492.60	7.827
492.95	7.196
493.30	7.216
493.64	7.271
493.99	7.588
494.34	7.622
494.68	7.281
495.03	8.194
495.37	7.545
495.72	7.347
496.07	7.844
496.41	7.593
496.76	8.007
497.11	7.431
497.45	7.208
497.80	8.041
498.14	6.712
498.49	7.629
498.84	7.815
499.18	7.242
499.53	7.713
499.87	7.516
500.22	6.768
500.56	7.018
500.91	6.819
501.26	7.636
501.60	6.938
501.95	7.338
502.29	6.977
502.64	7.608
502.98	7.463
503.33	7.516
503.67	6.716
504.02	7.793
504.36	7.954
504.71	7.625
505.06	7.594
505.40	7.130
505.75	7.423
506.09	7.965
506.44	7.614
506.78	8.349
507.13	7.792
507.47	7.342
507.82	7.907
508.16	6.979
508.51	7.267
508.85	7.038
509.19	7.911
509.54	7.493
509.88	7.285
510.23	7.237
510.57	7.782
510.92	7.789
511.26	7.600
511.61	6.760
511.95	7.857
512.30	8.370
512.64	7.796
512.98	7.904
513.33	8.014
513.67	7.190
514.02	8.380
514.36	8.542
514.70	7.552
515.05	7.612
515.39	7.927
515.74	8.378
516.08	8.188
516.42	8.582
516.77	7.992
517.11	8.045
517.46	8.802
517.80	7.857
518.14	8.651
518.49	7.972
518.83	8.249
519.17	7.485
519.52	8.753
519.86	9.398
520.20	8.466
520.55	8.434
520.89	7.770
521.23	8.543
521.58	8.644
521.92	8.725
522.26	7.732
522.61	8.623
522.95	8.478
523.29	7.931
523.64	8.632
523.98	8.557
524.32	9.169
524.66	8.993
525.01	8.381
525.35	8.443
525.69	8.585
526.04	8.209
526.38	8.736
526.72	8.304
527.06	8.211
527.41	8.921
527.75	8.551
528.09	8.796
528.43	8.703
528.78	8.092
529.12	7.741
529.46	8.600
529.80	8.638
530.15	8.058
530.49	7.473
530.83	8.501
531.17	8.363
531.51	9.446
531.86	8.474
532.20	8.902
532.54	8.378
532.88	8.364
533.22	8.132
533.57	8.540
533.91	9.596
534.25	8.197
534.59	8.563
534.93	8.998
535.27	8.732
535.62	8.982
535.96	8.425
536.30	8.167
536.64	9.309
536.98	9.287
537.32	8.889
537.66	9.295
538.01	8.943
538.35	8.952
538.69	8.474
539.03	8.706
539.37	9.776
539.71	9.189
540.05	8.513
540.39	8.252
540.73	8.015
541.07	8.522
541.42	9.096
541.76	8.482
542.10	8.203
542.44	8.587
542.78	8.455
543.12	9.058
543.46	8.486
543.80	8.213
544.14	8.378
544.48	9.043
544.82	8.857
545.16	8.408
545.50	8.868
545.84	8.818
546.18	9.568
546.52	9.108
546.86	8.805
547.20	8.461
547.54	9.051
547.88	8.620
548.22	7.953
548.56	8.250
548.90	8.478
549.24	8.997
549.58	8.644
549.92	8.801
550.26	9.256
550.60	9.636
550.94	8.732
551.28	9.043
551.62	9.771
551.96	8.997
552.30	8.859
552.64	9.272
552.98	8.422
553.32	8.810
553.66	9.260
554.00	9.710
554.34	8.752
554.68	9.877
555.02	9.198
555.36	9.467
555.69	7.559
556.03	8.197
556.37	8.761
556.71	8.941
557.05	9.073
557.39	8.693
557.73	8.851
558.07	8.808
558.41	8.970
558.75	9.060
559.08	8.977
559.42	8.368
559.76	10.244
560.10	8.506
560.44	9.169
560.78	9.562
561.12	8.990
561.45	8.698
561.79	8.730
562.13	9.550
562.47	9.371
562.81	9.430
563.15	8.775
563.48	9.758
563.82	8.646
564.16	8.964
564.50	9.595
564.84	8.260
565.17	8.471
565.51	8.228
565.85	9.086
566.19	8.237
566.52	7.899
566.86	9.451
567.20	8.374
567.54	8.391
567.88	8.308
568.21	8.004
568.55	7.290
568.89	8.488
569.23	8.619
569.56	7.620
569.90	7.983
570.24	7.521
570.57	7.056
570.91	7.103
571.25	7.695
571.59	7.431
571.92	7.170
572.26	7.120
572.60	7.371
572.93	7.431
573.27	7.277
573.61	7.332
573.95	7.502
574.28	7.311
574.62	7.140
574.96	6.705
575.29	7.050
575.63	7.092
575.97	7.401
576.30	7.772
576.64	7.421
576.98	7.175
577.31	7.030
577.65	7.202
577.98	7.154
578.32	6.656
578.66	6.822
578.99	7.229
579.33	7.203
579.67	7.253
580.00	7.260
580.34	7.286
580.67	6.840
581.01	7.075
581.35	7.072
581.68	6.957
582.02	6.775
582.35	6.807
582.69	6.654
583.02	7.326
583.36	7.620
583.70	7.135
584.03	7.439
584.37	7.702
584.70	7.262
585.04	7.277
585.37	7.092
585.71	7.184
586.04	7.177
586.38	7.033
586.72	6.919
587.05	6.856
587.39	7.205
587.72	7.033
588.06	7.423
588.39	7.692
588.73	7.460
589.06	7.562
589.40	7.806
589.73	7.584
590.07	7.858
590.40	7.843
590.73	8.236
591.07	7.893
591.40	7.659
591.74	7.790
592.07	8.364
592.41	7.532
592.74	7.526
593.08	7.930
593.41	7.291
593.75	7.098
594.08	7.240
594.41	7.628
594.75	7.772
595.08	7.201
595.42	7.468
595.75	7.556
596.09	7.794
596.42	7.703
596.75	8.066
597.09	8.566
597.42	8.184
597.75	7.683
598.09	7.778
598.42	8.122
598.76	7.528
599.09	7.334
599.42	7.677
599.76	7.230
600.09	7.407
600.42	7.541
600.76	7.926
601.09	7.501
601.42	7.587
601.76	7.724
602.09	8.006
602.42	7.452
602.76	7.860
603.09	7.085
603.42	7.659
603.76	7.505
604.09	8.197
604.42	7.670
604.76	7.534
605.09	8.217
605.42	8.094
605.75	7.769
606.09	7.951
606.42	7.734
606.75	7.609
607.09	7.335
607.42	7.707
607.75	8.284
608.08	8.011
608.42	8.142
608.75	7.794
609.08	8.107
609.41	8.072
609.75	7.723
610.08	8.004
610.41	7.901
610.74	7.857
611.07	7.860
611.41	8.341
611.74	7.898
612.07	7.994
612.40	7.890
612.73	8.215
613.07	7.922
613.40	8.037
613.73	7.559
614.06	7.998
614.39	7.775
614.72	8.200
615.06	8.422
615.39	8.023
615.72	8.057
616.05	8.014
616.38	8.224
616.71	8.568
617.05	7.881
617.38	9.310
617.71	8.855
618.04	8.473
618.37	9.454
618.70	9.050
619.03	8.781
619.36	8.878
619.69	8.200
620.03	8.851
620.36	8.773
620.69	7.958
621.02	9.318
621.35	8.926
621.68	10.701
622.01	9.395
622.34	8.438
622.67	8.591
623.00	8.300
623.33	9.290
623.66	8.885
623.99	8.822
624.32	9.552
624.65	8.044
624.99	8.778
625.32	9.340
625.65	9.440
625.98	8.271
626.31	9.213
626.64	9.890
626.97	8.927
627.30	8.656
627.63	8.852
627.96	10.736
628.29	9.805
628.62	9.152
628.95	9.115
629.28	10.195
629.61	10.606
629.94	9.121
630.26	9.153
630.59	8.808
630.92	8.745
631.25	9.839
631.58	9.605
631.91	9.934
632.24	10.759
632.57	10.057
632.90	11.033
633.23	9.796
633.56	9.184
633.89	10.124
634.22	10.187
634.55	10.021
634.88	9.848
635.20	11.302
635.53	10.056
635.86	11.376
636.19	11.983
636.52	10.443
636.85	10.623
637.18	9.979
637.51	10.645
637.83	10.188
638.16	12.327
638.49	10.563
638.82	10.372
639.15	11.226
639.48	11.547
639.81	11.778
640.13	12.014
640.46	9.212
640.79	9.436
641.12	10.559
641.45	9.912
641.77	13.094
642.10	11.286
642.43	11.170
642.76	11.653
643.09	9.452
643.41	11.905
643.74	10.759
644.07	12.414
644.40	9.618
644.73	11.321
645.05	10.573
645.38	11.223
645.71	12.170
646.04	12.769
646.36	11.825
646.69	10.429
647.02	13.150
647.35	12.061
647.67	13.043
648.00	10.510
648.33	11.111
648.66	11.127
648.98	10.884
649.31	10.825
649.64	11.819
649.96	9.549
650.29	9.040
650.62	8.911
650.94	10.961
651.27	8.533
651.60	12.573
651.92	11.246
652.25	12.590
652.58	11.692
652.90	10.029
653.23	11.972
653.56	11.127
653.88	12.079
654.21	10.704
654.54	10.405
654.86	10.198
655.19	9.787
655.52	8.540
655.84	6.195
656.17	6.786
656.49	9.498
656.82	10.944
657.15	8.988
657.47	7.345
657.80	5.640
658.13	4.682
658.45	6.257
658.78	7.892
659.10	7.752
659.43	7.720
659.75	8.107
660.08	8.459
660.41	8.768
660.73	9.350
661.06	9.545
661.38	10.686
661.71	10.000
662.03	11.287
662.36	11.628
662.68	11.632
663.01	11.327
663.33	13.422
663.66	14.469
663.98	11.538
664.31	14.071
664.63	10.212
664.96	14.156
665.28	11.615
665.61	13.811
665.93	10.893
666.26	12.186
666.58	8.856
666.91	14.953
667.23	13.333
667.56	12.426
667.88	12.800
668.21	11.328
668.53	11.969
668.86	13.752
669.18	12.831
669.50	11.730
669.83	13.000
670.15	12.402
670.48	12.302
670.80	10.516
671.13	12.098
671.45	12.598
671.77	11.299
672.10	11.000
672.42	10.194
672.75	8.295
673.07	9.254
673.39	10.324
673.72	10.738
674.04	12.759
674.37	11.807
674.69	11.640
675.01	11.048
675.34	10.878
675.66	10.861
675.98	12.500
676.31	10.547
676.63	13.688
676.95	12.261
677.28	10.282
677.60	8.268
677.92	13.052
678.25	10.603
678.57	10.676
678.89	12.457
679.22	9.930
679.54	11.966
679.86	8.136
680.18	10.779
680.51	10.692
680.83	10.475
681.15	9.655
681.48	12.608
681.80	10.017
682.12	10.315
682.44	9.349
682.77	9.752
683.09	11.174
683.41	13.566
683.73	11.575
684.06	12.177
684.38	10.018
684.70	11.670
685.02	12.220
685.34	7.654
685.67	9.779
685.99	9.202
686.31	8.576
686.63	9.321
686.96	8.360
687.28	9.935
687.60	8.923
687.92	9.325
688.24	10.184
688.56	9.310
688.89	9.800
689.21	9.980
689.53	6.471
689.85	9.270
690.17	9.259
690.49	10.757
690.82	11.683
691.14	9.312
691.46	12.046
691.78	11.602
692.10	8.073
692.42	10.179
692.74	7.985
693.06	9.815
693.39	12.713
693.71	9.962
694.03	10.037
694.35	9.143
694.67	11.704
694.99	11.064
695.31	12.141
695.63	12.987
695.95	9.524
696.27	9.670
696.59	13.053
696.91	13.288
697.23	11.429
697.56	8.350
697.88	9.091
698.20	10.546
698.52	13.636
698.84	10.395
699.16	10.612
699.48	10.879
699.80	9.787
700.12	10.699
700.44	9.677
700.76	12.589
701.08	11.380
701.40	10.622
701.72	12.438
702.04	12.032
702.36	8.377
702.68	12.958
703.00	8.802
703.32	10.099
703.64	11.247
703.96	9.308
704.28	7.617
704.60	13.671
704.91	10.459
705.23	8.493
705.55	12.535
705.87	11.212
706.19	10.736
706.51	8.735
706.83	9.510
707.15	11.376
707.47	7.477
707.79	9.825
708.11	9.110
708.43	8.172
708.74	7.812
709.06	9.977
709.38	12.207
709.70	9.677
710.02	11.370
710.34	11.170
710.66	8.659
710.98	12.295
711.29	9.615
711.61	9.322
711.93	8.832
712.25	12.162
712.57	11.504
712.89	12.647
713.20	7.692
713.52	11.850
713.84	10.864
714.16	9.737
714.48	11.856
714.80	10.909
715.11	9.449
715.43	10.610
715.75	10.789
716.07	11.050
716.39	12.295
716.70	9.036
717.02	10.820
717.34	8.711
717.66	8.389
717.97	10.274
718.29	10.309
718.61	8.553
718.93	10.032
719.24	10.870
719.56	11.043
719.88	9.610
720.20	8.065
720.51	9.627
720.83	11.250
721.15	9.211
721.46	6.164
721.78	11.333
722.10	8.414
722.42	7.047
722.73	8.710
723.05	12.632
723.37	12.847
723.68	11.470
724.00	13.718
724.32	5.282
724.63	7.343
724.95	12.411
725.27	11.498
725.58	8.127
725.90	13.103
726.22	9.718
726.53	9.091
726.85	14.151
727.16	13.293
727.48	11.621
727.80	9.603
728.11	7.774
728.43	11.785
728.74	9.699
729.06	9.603
729.38	8.442
729.69	12.081
730.01	9.821
730.32	9.697
730.64	13.836
730.96	9.006
731.27	10.615
731.59	10.714
731.90	6.234
732.22	10.677
732.53	8.011
732.85	7.429
733.16	9.677
733.48	4.878
733.80	10.028
734.11	6.553
734.43	11.622
734.74	11.392
735.06	8.794
735.37	8.919
735.69	7.027
736.00	9.605
736.32	9.434
736.63	8.889
736.95	6.897
737.26	11.212
737.58	7.879
737.89	8.529
738.21	6.728
738.52	9.836
738.83	9.556
739.15	10.993
739.46	8.503
739.78	6.135
740.09	8.309
740.41	9.913
740.72	9.667
741.04	11.650
741.35	10.877
741.66	11.765
741.98	9.016
742.29	7.950
742.61	12.281
742.92	14.231
743.23	9.747
743.55	9.302
743.86	9.200
744.18	2.066
744.49	9.283
744.80	12.346
745.12	7.173
745.43	9.756
745.74	9.914
746.06	11.864
746.37	10.127
746.68	16.667
747.00	13.333
747.31	10.300
747.62	15.000
747.94	7.692
748.25	8.032
748.56	6.531
748.88	8.974
749.19	11.207
749.50	6.494
749.82	11.647
750.13	14.947
750.44	7.667
750.75	10.154
751.07	9.231
751.38	8.517
751.69	8.946
752.01	7.443
752.32	8.170
752.63	5.442
752.94	7.612
753.26	5.576
753.57	6.296
753.88	7.491
754.19	9.646
754.51	9.003
754.82	11.897
755.13	9.508
755.44	7.850
755.75	8.553
756.07	14.627
756.38	8.805
756.69	9.337
757.00	7.202
757.31	9.290
757.63	6.138
757.94	7.277
758.25	9.707
758.56	6.318
758.87	12.045
759.18	8.267
759.50	12.181
759.81	9.804
760.12	7.278
760.43	10.417
760.74	11.576
761.05	9.000
761.36	5.301
761.67	7.107
761.99	8.649
762.30	9.146
762.61	3.630
762.92	5.597
763.23	8.240
763.54	11.151
763.85	6.873
764.16	8.754
764.47	8.099
764.78	9.265
765.10	9.677
765.41	11.795
765.72	5.291
766.03	9.605
766.34	6.897
766.65	4.530
766.96	5.976
767.27	7.834
767.58	5.473
767.89	17.308
768.20	14.554
768.51	1.852
768.82	10.040
769.13	6.061
769.44	2.308
769.75	9.386
770.06	9.615
770.37	9.843
770.68	6.383
770.99	1.619
771.30	11.111
771.61	7.605
771.92	6.296
772.23	9.312
772.54	6.481
772.85	15.207
773.16	7.143
773.47	4.762
773.78	3.243
774.09	6.250
774.39	13.000
774.70	9.290
775.01	5.488
775.32	0.000
775.63	1.840
775.94	8.917
776.25	11.613
776.56	6.410
776.87	14.966
777.18	5.517
777.48	9.091
777.79	16.216
778.10	12.500
778.41	13.889
778.72	17.931
779.03	8.025
779.34	11.515
779.65	12.435
779.95	10.000
780.26	6.818
780.57	13.548
780.88	13.043
781.19	9.677
781.50	14.118
781.80	14.516
782.11	7.407
782.42	4.545
782.73	1.198
783.04	11.173
783.34	2.424
783.65	0.000
783.96	11.180
784.27	16.071
784.57	11.258
784.88	0.000
785.19	3.150
785.50	4.724
785.81	10.526
786.11	9.231
786.42	0.000
786.73	7.914
787.04	11.278
787.34	0.000
787.65	14.400
787.96	11.194
788.26	8.392
788.57	9.091
788.88	4.605
789.19	14.379
789.49	4.110
789.80	8.511
790.11	8.661
790.41	7.813
790.72	7.627
791.03	0.971
791.33	0.000
791.64	6.140
791.95	1.786
792.25	2.857
792.56	10.714
792.87	6.250
793.17	7.143
793.48	1.042
793.79	-4.819
794.09	-3.670
794.40	-3.670
794.70	4.762
795.01	5.195
795.32	4.795
795.62	8.451
795.93	-1.515
796.23	4.918
796.54	4.464
796.85	22.340
797.15	1.087
797.46	-5.479
797.76	6.250
798.07	3.261
798.37	-1.031
798.68	15.584
798.99	5.747
799.29	4.494
799.60	8.511
799.90	10.843
800.21	-7.692
800.51	4.478
800.82	0.000
801.12	-9.589
801.43	-19.118
801.73	-1.695
802.04	-6.061
802.34	-10.000
802.65	3.390
802.95	4.478
803.26	-3.390
803.56	-5.479
803.87	1.429
804.17	6.849
804.48	-22.807
804.78	4.167
805.09	-18.966
805.39	0.000
805.70	-8.451
806.00	9.756
806.30	3.614
806.61	-13.699
806.91	13.462
807.22	1.111
807.52	-4.598
807.83	5.556
808.13	16.867
808.43	0.000
808.74	1.250
809.04	-4.412
809.35	10.667
809.65	1.429
809.95	5.479
810.26	-12.281
810.56	5.172
810.86	16.176
811.17	7.018
811.47	3.279
811.77	-17.778
812.08	-1.695
812.38	10.000
812.69	13.793
812.99	-1.887
813.29	-7.692
813.59	8.000
813.90	17.544
814.20	0.000
814.50	14.085
814.81	-2.564
815.11	18.033
815.41	2.985
815.72	5.172
816.02	10.714
816.32	4.444
816.62	13.636
816.93	-4.444
817.23	33.333
817.53	23.404
817.84	0.000
818.14	-14.706
818.44	8.163
818.74	6.667
819.04	-23.077
819.35	-25.714
819.65	-23.077
819.95	-1.887
820.25	2.222
820.56	-2.381
820.86	-37.500
821.16	10.256
821.46	0.000
821.76	-22.000
822.07	14.286
822.37	6.522
822.67	-6.383
822.97	-21.622
823.27	-27.500
823.57	2.041
823.88	-4.444
824.18	7.500
824.48	33.333
824.78	-24.000
825.08	-18.182
825.38	26.667
825.69	10.638
825.99	0.000
826.29	-37.143
826.59	-15.385
826.89	-13.953
827.19	2.000
827.49	-20.588
827.79	6.250
828.09	-10.811
828.39	-23.333
828.70	-19.512
829.00	-4.651
829.30	-21.429
829.60	11.765
829.90	-6.522
830.20	-14.286
830.50	-13.793
830.80	-5.556
831.10	-7.692
831.40	8.824
831.70	-28.571
832.00	-3.226
832.30	-141.176
832.60	0.000
832.90	-15.385
833.20	-42.105
833.50	-20.000
833.80	-5.263
834.10	-28.571
834.40	16.667
834.70	6.250
835.00	-20.000
835.30	2.941
835.60	-26.667
835.90	-8.000
836.20	-54.545
836.50	-4.000
836.80	-24.242
837.10	-7.407
837.40	-11.111
837.70	-75.000
838.00	-3.571
838.30	-17.391
838.60	6.897
838.90	-28.571
839.19	-60.870
839.49	-83.333
839.79	-13.043
840.09	-43.750
840.39	-25.000
840.69	-19.355
840.99	-21.429
841.29	-40.000
841.59	-10.526
841.88	33.333
842.18	7.692
842.48	20.000
842.78	5.000
843.08	-3.333
843.38	32.258
843.68	-50.000
843.97	17.647
844.27	18.750
844.57	-57.895
844.87	-60.000
845.17	-80.000
845.47	-14.286
845.76	-47.619
846.06	22.222
846.36	-52.941
846.66	38.462
846.96	-20.000
847.25	-41.176
847.55	8.696
847.85	20.000
848.15	5.882
848.44	-90.909
848.74	4.762
849.04	-37.500
849.34	-18.750
849.63	21.739
849.93	650.000
850.23	20.000
850.53	3.846
850.82	-90.909
851.12	13.636
851.42	-27.273
851.71	-7.692
852.01	-45.000
852.31	-15.385
852.61	-52.632
852.90	33.333
853.20	-44.444
853.50	-133.333
853.79	-23.810
854.09	-4.545
854.39	-175.000
854.68	6.452
854.98	23.077
855.28	0.000
855.57	-14.286
855.87	-8.000
856.17	-9.091
856.46	-14.815
856.76	-27.778
857.05	-34.783
857.35	-37.500
857.65	-23.077
857.94	38.095
858.24	7.407
858.53	0.000
858.83	0.000
859.13	-47.059
859.42	41.176
859.72	35.714
860.01	-25.000
860.31	-88.889
860.60	-70.000
860.90	-6.667
861.20	-22.222
861.49	-30.769
861.79	3.333
862.08	-69.231
862.38	-15.625
862.67	-35.294
862.97	-6.250
863.26	-33.333
863.56	-10.000
863.85	-45.455
864.15	-5.556
864.44	-33.333
864.74	-14.286
865.03	-56.250
865.33	10.000
865.62	-6.452
865.92	36.364
866.21	13.043
866.51	-35.714
866.80	-60.000
867.10	-50.000
867.39	-8.333
867.69	2300.000
867.98	-100.000
868.27	-11.765
868.57	-1400.000
868.86	-160.000
869.16	-47.619
869.45	20.833
869.75	-63.636
870.04	0.000
870.33	0.000
870.63	-185.714
870.92	25.000
871.22	-150.000
871.51	-63.636
871.80	-633.333
872.10	-600.000
>>>>>End Processed Spectral Data<<<<<
