SpectraSuite Data File
++++++++++++++++++++++++++++++++++++
Date: Thu May 14 16:06:20 PDT 2015
User: schluterlab
Dark Spectrum Present: Yes
Reference Spectrum Present: Yes
Number of Sampled Component Spectra: 1
Spectrometers: USB2E3373
Integration Time (usec): 3000 (USB2E3373)
Spectra Averaged: 3 (USB2E3373)
Boxcar Smoothing: 0 (USB2E3373)
Correct for Electrical Dark: No (USB2E3373)
Strobe/Lamp Enabled: No (USB2E3373)
Correct for Detector Non-linearity: No (USB2E3373)
Correct for Stray Light: No (USB2E3373)
Number of Pixels in Processed Spectrum: 2048
>>>>>Begin Processed Spectral Data<<<<<
178.53	0.000
178.91	300.000
179.29	-3100.000
179.67	-1500.000
180.04	192.857
180.42	180.000
180.80	380.000
181.18	-1500.000
181.56	-400.000
181.94	225.000
182.31	-475.000
182.69	533.333
183.07	-700.000
183.45	200.000
183.83	-150.000
184.20	-366.667
184.58	1500.000
184.96	-125.000
185.34	-144.444
185.72	-160.000
186.09	200.000
186.47	600.000
186.85	280.000
187.23	-177.778
187.61	-1100.000
187.98	140.000
188.36	500.000
188.74	-300.000
189.12	-333.333
189.49	25.000
189.87	-175.000
190.25	-133.333
190.63	-200.000
191.00	-200.000
191.38	0.000
191.76	-575.000
192.14	-350.000
192.51	900.000
192.89	-33.333
193.27	0.000
193.65	-114.286
194.02	-1800.000
194.40	-128.571
194.78	257.143
195.15	0.000
195.53	-63.636
195.91	0.000
196.29	-175.000
196.66	-107.692
197.04	-1900.000
197.42	-128.571
197.79	-900.000
198.17	-162.500
198.55	-142.857
198.92	-122.222
199.30	-237.500
199.68	-100.000
200.05	-78.571
200.43	-900.000
200.81	257.143
201.18	0.000
201.56	211.111
201.94	0.000
202.31	833.333
202.69	-166.667
203.07	500.000
203.44	-122.222
203.82	-350.000
204.19	-16.667
204.57	-383.333
204.95	-225.000
205.32	-1900.000
205.70	175.000
206.08	-200.000
206.45	-100.000
206.83	660.000
207.20	-233.333
207.58	-300.000
207.96	-366.667
208.33	-250.000
208.71	150.000
209.08	-116.667
209.46	0.000
209.84	383.333
210.21	650.000
210.59	750.000
210.96	666.667
211.34	-175.000
211.71	-225.000
212.09	-2000.000
212.46	0.000
212.84	1300.000
213.22	-340.000
213.59	-375.000
213.97	-100.000
214.34	-500.000
214.72	250.000
215.09	-200.000
215.47	0.000
215.84	214.286
216.22	1050.000
216.59	-400.000
216.97	-240.000
217.34	-350.000
217.72	-225.000
218.09	-525.000
218.47	-600.000
218.84	0.000
219.22	300.000
219.59	-76.471
219.97	-20.000
220.34	500.000
220.72	-255.556
221.09	-69.231
221.47	-166.667
221.84	-110.000
222.22	-228.571
222.59	0.000
222.97	-112.500
223.34	-240.000
223.72	-1700.000
224.09	-400.000
224.46	-425.000
224.84	-240.000
225.21	-314.286
225.59	-550.000
225.96	-225.000
226.34	-7.692
226.71	283.333
227.08	-850.000
227.46	-66.667
227.83	-525.000
228.21	-47.368
228.58	175.000
228.95	450.000
229.33	-50.000
229.70	-120.000
230.08	-26.316
230.45	150.000
230.82	-566.667
231.20	-85.714
231.57	-133.333
231.95	-72.727
232.32	-36.364
232.69	-40.000
233.07	-450.000
233.44	-64.706
233.81	-190.000
234.19	-72.222
234.56	-31.818
234.93	-13.793
235.31	-31.579
235.68	-27.778
236.05	-120.000
236.43	15.385
236.80	-4.000
237.17	-33.333
237.55	-9.091
237.92	-80.000
238.29	-35.484
238.67	-43.182
239.04	-36.111
239.41	-14.286
239.79	-15.217
240.16	-20.370
240.53	-30.435
240.91	-37.255
241.28	-18.033
241.65	-8.955
242.02	-13.514
242.40	-23.077
242.77	-10.667
243.14	-10.976
243.51	-18.421
243.89	-19.231
244.26	-2.970
244.63	0.000
245.00	1.869
245.38	-13.158
245.75	-11.504
246.12	-7.937
246.49	-8.527
246.87	-0.714
247.24	-8.609
247.61	1.316
247.98	-4.027
248.36	-2.469
248.73	-7.975
249.10	-1.093
249.47	2.985
249.84	3.141
250.22	-4.663
250.59	-1.111
250.96	0.000
251.33	-4.592
251.70	2.564
252.08	1.250
252.45	-3.689
252.82	0.826
253.19	-2.734
253.56	0.000
253.94	-2.692
254.31	4.545
254.68	-1.049
255.05	4.886
255.42	1.361
255.79	2.265
256.16	-0.331
256.54	-0.331
256.91	3.607
257.28	0.000
257.65	4.140
258.02	0.590
258.39	0.000
258.76	5.505
259.14	4.023
259.51	2.882
259.88	0.283
260.25	2.222
260.62	3.836
260.99	3.552
261.36	3.753
261.73	1.061
262.10	-0.275
262.47	1.072
262.85	4.040
263.22	0.260
263.59	-0.263
263.96	1.279
264.33	2.046
264.70	3.704
265.07	4.773
265.44	5.896
265.81	0.926
266.18	5.442
266.55	3.125
266.92	0.000
267.29	4.595
267.66	3.326
268.03	2.620
268.40	2.923
268.77	1.595
269.14	0.220
269.51	3.509
269.88	4.508
270.25	4.024
270.62	3.165
270.99	4.444
271.36	4.158
271.73	3.733
272.10	5.411
272.47	3.808
272.84	4.016
273.21	4.008
273.58	2.218
273.95	4.231
274.32	2.091
274.69	0.000
275.06	2.930
275.43	3.512
275.80	5.291
276.17	2.963
276.54	5.224
276.91	3.578
277.28	3.436
277.65	2.873
278.02	2.757
278.39	2.355
278.76	2.285
279.13	1.950
279.50	3.952
279.87	4.114
280.23	0.000
280.60	3.051
280.97	2.467
281.34	1.528
281.71	5.415
282.08	3.488
282.45	3.764
282.82	4.553
283.19	2.585
283.56	2.787
283.92	5.105
284.29	4.265
284.66	3.941
285.03	2.244
285.40	2.937
285.77	3.096
286.14	3.511
286.51	3.501
286.87	1.422
287.24	2.711
287.61	3.288
287.98	4.230
288.35	3.402
288.72	3.550
289.08	3.367
289.45	2.663
289.82	2.711
290.19	2.443
290.56	3.521
290.93	3.709
291.29	3.168
291.66	3.994
292.03	2.035
292.40	6.395
292.77	2.156
293.13	3.518
293.50	2.365
293.87	3.758
294.24	4.000
294.60	3.666
294.97	2.550
295.34	4.738
295.71	1.765
296.08	3.488
296.44	2.941
296.81	4.263
297.18	2.615
297.55	1.415
297.91	3.321
298.28	2.251
298.65	4.518
299.02	4.368
299.38	3.547
299.75	4.089
300.12	2.778
300.48	3.687
300.85	3.937
301.22	3.579
301.59	2.968
301.95	3.503
302.32	4.333
302.69	4.162
303.05	4.353
303.42	3.437
303.79	3.646
304.15	3.785
304.52	3.171
304.89	3.874
305.25	3.934
305.62	3.135
305.99	4.433
306.35	4.940
306.72	4.654
307.09	5.076
307.45	4.865
307.82	3.935
308.19	3.734
308.55	4.629
308.92	4.382
309.29	5.939
309.65	3.704
310.02	3.564
310.38	3.839
310.75	5.631
311.12	6.520
311.48	6.061
311.85	5.223
312.22	5.503
312.58	5.540
312.95	4.876
313.31	5.691
313.68	6.502
314.05	6.143
314.41	6.922
314.78	8.447
315.14	8.984
315.51	8.587
315.87	9.361
316.24	8.219
316.61	9.769
316.97	8.235
317.34	8.466
317.70	10.044
318.07	8.818
318.43	10.459
318.80	11.706
319.16	11.073
319.53	10.626
319.89	12.007
320.26	11.744
320.62	12.943
320.99	13.204
321.35	13.124
321.72	13.860
322.08	13.436
322.45	15.537
322.81	14.440
323.18	15.310
323.54	15.517
323.91	16.993
324.27	16.695
324.64	18.892
325.00	17.662
325.37	18.919
325.73	21.157
326.10	20.843
326.46	19.707
326.83	22.738
327.19	22.362
327.56	23.478
327.92	23.210
328.29	22.661
328.65	23.618
329.01	23.858
329.38	25.527
329.74	26.541
330.11	26.798
330.47	25.611
330.84	25.668
331.20	26.500
331.56	27.556
331.93	27.615
332.29	27.712
332.66	28.073
333.02	27.052
333.38	27.517
333.75	27.694
334.11	29.108
334.48	29.538
334.84	28.887
335.20	28.212
335.57	29.005
335.93	30.000
336.29	29.368
336.66	30.614
337.02	28.930
337.38	29.422
337.75	29.752
338.11	29.184
338.47	30.438
338.84	29.103
339.20	29.318
339.56	29.407
339.93	29.557
340.29	29.469
340.65	29.927
341.02	30.886
341.38	32.336
341.74	30.347
342.11	31.376
342.47	29.071
342.83	30.757
343.20	31.480
343.56	31.195
343.92	31.385
344.28	32.031
344.65	31.628
345.01	31.201
345.37	31.415
345.73	29.462
346.10	31.591
346.46	31.329
346.82	31.910
347.19	31.398
347.55	31.639
347.91	31.352
348.27	31.866
348.63	31.302
349.00	32.289
349.36	31.599
349.72	31.250
350.08	31.129
350.45	31.939
350.81	32.202
351.17	31.654
351.53	33.434
351.89	33.181
352.26	30.970
352.62	32.388
352.98	31.756
353.34	31.815
353.70	32.126
354.07	32.787
354.43	32.422
354.79	32.984
355.15	32.597
355.51	32.749
355.87	32.685
356.24	33.004
356.60	32.742
356.96	33.506
357.32	33.383
357.68	33.602
358.04	32.485
358.40	33.955
358.77	33.918
359.13	33.456
359.49	33.234
359.85	34.880
360.21	32.783
360.57	33.453
360.93	33.639
361.29	34.596
361.66	33.164
362.02	34.656
362.38	34.715
362.74	34.218
363.10	34.044
363.46	35.180
363.82	33.949
364.18	35.468
364.54	34.647
364.90	35.786
365.26	35.517
365.62	35.533
365.98	35.194
366.35	34.497
366.71	34.694
367.07	35.792
367.43	34.997
367.79	36.430
368.15	35.987
368.51	35.453
368.87	36.251
369.23	36.133
369.59	36.066
369.95	36.241
370.31	36.327
370.67	35.832
371.03	36.496
371.39	35.259
371.75	35.626
372.11	36.721
372.47	36.019
372.83	36.126
373.19	36.024
373.55	36.450
373.91	36.196
374.27	36.675
374.63	37.009
374.99	37.533
375.35	37.857
375.71	36.258
376.07	34.926
376.42	36.398
376.78	36.979
377.14	35.745
377.50	36.622
377.86	38.362
378.22	37.066
378.58	37.515
378.94	37.089
379.30	36.790
379.66	37.213
380.02	37.853
380.38	37.961
380.74	36.845
381.09	37.340
381.45	38.068
381.81	38.407
382.17	37.886
382.53	37.778
382.89	37.585
383.25	38.218
383.61	37.847
383.97	38.280
384.32	38.577
384.68	37.645
385.04	38.982
385.40	38.715
385.76	39.625
386.12	38.420
386.48	38.882
386.83	38.439
387.19	37.717
387.55	38.322
387.91	38.813
388.27	37.818
388.62	37.915
388.98	36.887
389.34	38.774
389.70	37.246
390.06	37.478
390.42	38.675
390.77	37.869
391.13	38.674
391.49	37.802
391.85	38.364
392.20	38.375
392.56	37.803
392.92	38.004
393.28	39.138
393.64	37.877
393.99	38.640
394.35	37.558
394.71	38.443
395.07	38.084
395.42	36.436
395.78	39.062
396.14	39.037
396.50	37.352
396.85	38.283
397.21	37.219
397.57	37.691
397.92	37.915
398.28	38.457
398.64	36.670
399.00	36.649
399.35	37.749
399.71	37.772
400.07	37.395
400.42	38.300
400.78	37.789
401.14	36.824
401.49	38.886
401.85	38.547
402.21	38.528
402.57	38.908
402.92	37.648
403.28	37.061
403.63	37.291
403.99	38.895
404.35	37.464
404.70	36.941
405.06	36.304
405.42	37.237
405.77	38.222
406.13	36.899
406.49	37.782
406.84	37.618
407.20	37.339
407.55	37.795
407.91	37.335
408.27	37.809
408.62	37.231
408.98	36.970
409.34	36.598
409.69	37.454
410.05	37.046
410.40	37.529
410.76	36.511
411.11	36.821
411.47	36.978
411.83	37.507
412.18	37.892
412.54	36.277
412.89	37.544
413.25	37.641
413.60	37.048
413.96	36.888
414.31	36.374
414.67	36.494
415.03	36.677
415.38	36.759
415.74	37.324
416.09	36.706
416.45	36.756
416.80	35.679
417.16	36.718
417.51	36.550
417.87	36.113
418.22	37.605
418.58	36.245
418.93	37.136
419.29	37.238
419.64	36.795
420.00	35.668
420.35	36.216
420.71	36.301
421.06	36.343
421.42	36.640
421.77	36.026
422.12	36.047
422.48	37.481
422.83	37.130
423.19	35.438
423.54	37.058
423.90	36.389
424.25	37.120
424.61	35.591
424.96	36.244
425.31	36.996
425.67	35.749
426.02	37.244
426.38	35.649
426.73	34.877
427.09	35.871
427.44	35.445
427.79	35.710
428.15	35.845
428.50	36.067
428.85	36.682
429.21	37.287
429.56	36.624
429.92	35.725
430.27	36.193
430.62	35.662
430.98	36.006
431.33	35.582
431.68	34.626
432.04	36.719
432.39	35.833
432.74	36.301
433.10	35.965
433.45	34.838
433.80	35.891
434.16	35.486
434.51	36.382
434.86	37.514
435.22	36.929
435.57	37.028
435.92	35.949
436.28	37.201
436.63	36.319
436.98	35.534
437.34	36.077
437.69	36.324
438.04	36.277
438.39	35.554
438.75	35.639
439.10	36.628
439.45	36.333
439.81	37.458
440.16	35.818
440.51	36.455
440.86	35.131
441.22	36.120
441.57	37.159
441.92	35.742
442.27	36.667
442.63	36.711
442.98	36.019
443.33	36.191
443.68	37.166
444.03	37.582
444.39	36.801
444.74	37.162
445.09	36.442
445.44	37.197
445.79	36.398
446.15	37.513
446.50	36.382
446.85	36.722
447.20	37.186
447.55	36.454
447.91	36.073
448.26	36.416
448.61	36.504
448.96	37.876
449.31	37.010
449.66	35.675
450.02	36.656
450.37	37.027
450.72	36.652
451.07	36.333
451.42	36.511
451.77	35.464
452.12	37.302
452.47	35.948
452.83	37.444
453.18	36.194
453.53	36.129
453.88	35.781
454.23	36.441
454.58	37.261
454.93	35.740
455.28	37.327
455.63	35.418
455.98	35.698
456.34	36.219
456.69	37.449
457.04	37.057
457.39	36.308
457.74	35.906
458.09	35.200
458.44	35.884
458.79	35.431
459.14	35.763
459.49	36.559
459.84	36.254
460.19	35.203
460.54	36.400
460.89	36.051
461.24	35.632
461.59	37.410
461.94	35.881
462.29	36.226
462.64	35.546
462.99	36.095
463.34	35.561
463.69	35.346
464.04	36.298
464.39	35.482
464.74	34.607
465.09	35.698
465.44	35.086
465.79	35.590
466.14	35.175
466.49	34.368
466.84	35.096
467.19	34.393
467.54	34.371
467.89	34.885
468.24	34.515
468.59	35.032
468.94	34.033
469.29	34.733
469.64	33.694
469.99	34.990
470.34	34.839
470.68	34.245
471.03	35.298
471.38	34.075
471.73	34.070
472.08	34.772
472.43	34.798
472.78	35.327
473.13	34.829
473.48	34.743
473.83	34.823
474.17	34.818
474.52	34.696
474.87	34.884
475.22	34.592
475.57	33.593
475.92	34.196
476.27	34.505
476.61	34.008
476.96	34.150
477.31	34.455
477.66	34.785
478.01	33.249
478.36	33.699
478.70	34.138
479.05	34.867
479.40	34.699
479.75	34.390
480.10	33.586
480.45	33.637
480.79	33.968
481.14	32.812
481.49	33.485
481.84	33.551
482.19	33.935
482.53	33.931
482.88	33.540
483.23	33.081
483.58	33.624
483.92	32.358
484.27	32.642
484.62	32.632
484.97	33.359
485.31	32.242
485.66	30.057
486.01	29.732
486.36	30.384
486.70	31.551
487.05	32.567
487.40	32.203
487.75	32.443
488.09	32.178
488.44	31.165
488.79	32.277
489.13	31.825
489.48	32.660
489.83	31.227
490.17	31.956
490.52	31.281
490.87	33.291
491.22	33.232
491.56	32.381
491.91	32.577
492.26	32.324
492.60	31.876
492.95	32.383
493.30	31.421
493.64	31.932
493.99	32.237
494.34	32.753
494.68	31.478
495.03	32.026
495.37	32.268
495.72	32.018
496.07	31.770
496.41	30.759
496.76	30.651
497.11	31.125
497.45	31.549
497.80	31.853
498.14	31.474
498.49	32.307
498.84	31.399
499.18	31.849
499.53	31.973
499.87	31.297
500.22	30.944
500.56	31.579
500.91	31.213
501.26	31.364
501.60	32.037
501.95	31.046
502.29	31.066
502.64	31.701
502.98	30.198
503.33	30.324
503.67	29.743
504.02	30.166
504.36	31.189
504.71	30.868
505.06	30.241
505.40	29.799
505.75	30.282
506.09	29.650
506.44	30.223
506.78	30.505
507.13	29.968
507.47	29.844
507.82	30.777
508.16	30.019
508.51	29.630
508.85	30.609
509.19	29.986
509.54	30.451
509.88	30.695
510.23	29.820
510.57	30.933
510.92	30.672
511.26	29.485
511.61	28.972
511.95	29.527
512.30	30.231
512.64	28.986
512.98	30.415
513.33	30.192
513.67	30.240
514.02	30.455
514.36	30.230
514.70	29.115
515.05	29.510
515.39	29.186
515.74	29.745
516.08	29.371
516.42	29.880
516.77	29.968
517.11	28.829
517.46	29.958
517.80	29.824
518.14	30.141
518.49	29.664
518.83	28.952
519.17	29.402
519.52	28.878
519.86	28.986
520.20	29.020
520.55	29.737
520.89	29.617
521.23	29.369
521.58	28.644
521.92	28.725
522.26	29.553
522.61	29.167
522.95	29.354
523.29	29.828
523.64	29.204
523.98	29.720
524.32	29.914
524.66	29.027
525.01	29.162
525.35	29.236
525.69	28.828
526.04	28.416
526.38	27.989
526.72	28.316
527.06	28.328
527.41	27.872
527.75	29.038
528.09	28.808
528.43	28.064
528.78	28.728
529.12	28.211
529.46	27.712
529.80	28.204
530.15	28.174
530.49	27.284
530.83	28.158
531.17	27.718
531.51	27.497
531.86	28.786
532.20	26.829
532.54	27.229
532.88	27.273
533.22	26.812
533.57	26.947
533.91	27.104
534.25	26.738
534.59	27.586
534.93	26.316
535.27	26.479
535.62	26.890
535.96	27.310
536.30	26.792
536.64	26.907
536.98	27.860
537.32	28.580
537.66	27.012
538.01	26.344
538.35	27.284
538.69	26.683
539.03	27.100
539.37	25.383
539.71	27.147
540.05	26.978
540.39	26.406
540.73	26.169
541.07	25.445
541.42	26.639
541.76	25.326
542.10	25.875
542.44	25.639
542.78	27.007
543.12	25.685
543.46	26.984
543.80	24.760
544.14	25.314
544.48	26.596
544.82	26.212
545.16	25.641
545.50	25.464
545.84	25.413
546.18	25.988
546.52	26.369
546.86	25.094
547.20	24.936
547.54	25.281
547.88	24.231
548.22	24.854
548.56	25.688
548.90	24.537
549.24	24.863
549.58	25.489
549.92	24.298
550.26	25.566
550.60	25.016
550.94	25.226
551.28	25.149
551.62	25.674
551.96	25.696
552.30	25.175
552.64	25.016
552.98	25.390
553.32	25.723
553.66	24.695
554.00	25.347
554.34	25.418
554.68	22.983
555.02	25.033
555.36	24.721
555.69	23.895
556.03	24.590
556.37	24.593
556.71	24.731
557.05	23.706
557.39	24.884
557.73	24.174
558.07	24.238
558.41	24.053
558.75	24.273
559.08	25.052
559.42	24.623
559.76	24.627
560.10	24.246
560.44	23.747
560.78	24.250
561.12	23.584
561.45	23.783
561.79	23.748
562.13	23.475
562.47	23.120
562.81	23.987
563.15	23.295
563.48	23.679
563.82	24.002
564.16	22.168
564.50	22.229
564.84	23.068
565.17	24.118
565.51	23.418
565.85	22.922
566.19	22.177
566.52	22.703
566.86	22.581
567.20	22.132
567.54	22.730
567.88	22.222
568.21	22.431
568.55	22.110
568.89	21.652
569.23	22.222
569.56	21.219
569.90	20.813
570.24	20.742
570.57	20.366
570.91	20.698
571.25	20.596
571.59	20.095
571.92	20.496
572.26	20.037
572.60	20.311
572.93	20.512
573.27	19.978
573.61	20.328
573.95	19.519
574.28	19.808
574.62	19.782
574.96	19.365
575.29	19.079
575.63	19.404
575.97	19.449
576.30	19.220
576.64	19.733
576.98	18.747
577.31	19.076
577.65	19.129
577.98	18.712
578.32	18.570
578.66	18.734
578.99	18.943
579.33	19.053
579.67	18.518
580.00	19.060
580.34	19.197
580.67	19.086
581.01	19.148
581.35	18.586
581.68	18.634
582.02	18.306
582.35	18.547
582.69	18.611
583.02	18.595
583.36	18.772
583.70	18.882
584.03	18.407
584.37	19.131
584.70	18.509
585.04	18.647
585.37	18.736
585.71	18.296
586.04	18.516
586.38	18.709
586.72	18.250
587.05	18.803
587.39	19.122
587.72	18.780
588.06	18.496
588.39	19.218
588.73	17.910
589.06	18.764
589.40	19.084
589.73	19.023
590.07	18.899
590.40	19.202
590.73	18.947
591.07	19.434
591.40	19.285
591.74	19.277
592.07	19.651
592.41	18.651
592.74	18.992
593.08	18.662
593.41	19.131
593.75	18.305
594.08	19.055
594.41	18.750
594.75	18.931
595.08	18.304
595.42	18.994
595.75	18.889
596.09	18.943
596.42	18.810
596.75	18.950
597.09	19.232
597.42	18.673
597.75	18.581
598.09	18.730
598.42	18.858
598.76	18.265
599.09	18.441
599.42	18.136
599.76	18.356
600.09	18.519
600.42	18.252
600.76	17.966
601.09	18.321
601.42	17.817
601.76	18.207
602.09	18.620
602.42	18.248
602.76	18.487
603.09	18.025
603.42	18.605
603.76	17.759
604.09	18.630
604.42	18.128
604.76	18.341
605.09	18.349
605.42	18.620
605.75	18.577
606.09	17.768
606.42	17.366
606.75	17.204
607.09	17.742
607.42	18.459
607.75	18.054
608.08	18.193
608.42	17.574
608.75	18.325
609.08	17.869
609.41	17.953
609.75	18.259
610.08	18.690
610.41	17.715
610.74	17.731
611.07	18.384
611.41	18.430
611.74	18.106
612.07	18.841
612.40	18.108
612.73	18.044
613.07	18.729
613.40	18.864
613.73	18.055
614.06	18.646
614.39	18.270
614.72	18.292
615.06	18.142
615.39	18.173
615.72	18.389
616.05	17.776
616.38	18.012
616.71	18.182
617.05	17.785
617.38	17.924
617.71	18.035
618.04	18.834
618.37	18.743
618.70	18.495
619.03	18.638
619.36	18.742
619.69	18.898
620.03	18.644
620.36	18.528
620.69	19.001
621.02	19.094
621.35	18.360
621.68	19.089
622.01	19.573
622.34	17.643
622.67	18.419
623.00	17.611
623.33	19.841
623.66	18.677
623.99	18.631
624.32	19.688
624.65	17.696
624.99	19.116
625.32	18.485
625.65	18.881
625.98	18.169
626.31	18.001
626.64	19.414
626.97	18.680
627.30	19.058
627.63	18.080
627.96	19.069
628.29	18.288
628.62	18.304
628.95	19.369
629.28	19.031
629.61	18.434
629.94	18.577
630.26	19.068
630.59	19.603
630.92	19.134
631.25	19.946
631.58	18.832
631.91	19.963
632.24	19.020
632.57	19.924
632.90	19.659
633.23	19.490
633.56	18.878
633.89	19.215
634.22	21.102
634.55	19.102
634.88	18.939
635.20	20.560
635.53	20.226
635.86	20.910
636.19	19.936
636.52	19.726
636.85	19.305
637.18	19.231
637.51	18.495
637.83	21.373
638.16	20.853
638.49	18.779
638.82	18.715
639.15	19.359
639.48	21.016
639.81	18.822
640.13	19.081
640.46	18.667
640.79	17.770
641.12	20.621
641.45	19.072
641.77	21.438
642.10	18.504
642.43	21.941
642.76	20.325
643.09	19.589
643.41	18.207
643.74	20.276
644.07	20.966
644.40	19.378
644.73	19.739
645.05	21.586
645.38	19.856
645.71	21.261
646.04	20.516
646.36	20.146
646.69	20.245
647.02	21.407
647.35	19.695
647.67	21.578
648.00	20.382
648.33	20.721
648.66	20.399
648.98	18.367
649.31	18.674
649.64	19.920
649.96	20.424
650.29	17.942
650.62	20.651
650.94	17.868
651.27	19.012
651.60	19.591
651.92	19.149
652.25	20.116
652.58	19.120
652.90	16.570
653.23	19.296
653.56	20.542
653.88	19.382
654.21	19.014
654.54	18.064
654.86	21.105
655.19	17.942
655.52	17.957
655.84	15.330
656.17	17.007
656.49	24.166
656.82	25.808
657.15	20.098
657.47	15.147
657.80	11.510
658.13	9.092
658.45	11.955
658.78	14.300
659.10	13.981
659.43	14.303
659.75	13.336
660.08	13.950
660.41	14.392
660.73	14.709
661.06	18.796
661.38	17.384
661.71	18.621
662.03	20.106
662.36	20.930
662.68	19.512
663.01	20.354
663.33	20.794
663.66	21.429
663.98	19.231
664.31	20.263
664.63	18.304
664.96	19.419
665.28	19.056
665.61	20.804
665.93	18.929
666.26	21.505
666.58	19.557
666.91	17.196
667.23	23.048
667.56	20.710
667.88	19.000
668.21	18.945
668.53	17.954
668.86	22.986
669.18	20.163
669.50	19.483
669.83	19.600
670.15	17.323
670.48	22.222
670.80	18.164
671.13	19.471
671.45	19.488
671.77	20.716
672.10	17.667
672.42	18.447
672.75	17.204
673.07	17.164
673.39	15.871
673.72	18.289
674.04	18.103
674.37	16.637
674.69	20.282
675.01	16.190
675.34	17.557
675.66	18.727
675.98	19.403
676.31	18.945
676.63	18.631
676.95	18.582
677.28	18.145
677.60	16.732
677.92	20.921
678.25	18.830
678.57	19.217
678.89	18.942
679.22	16.028
679.54	19.487
679.86	16.949
680.18	16.750
680.51	16.981
680.83	17.349
681.15	16.207
681.48	17.789
681.80	17.617
682.12	15.559
682.44	18.698
682.77	19.149
683.09	18.750
683.41	18.798
683.73	20.114
684.06	15.314
684.38	15.206
684.70	19.210
685.02	19.105
685.34	15.474
685.67	15.457
685.99	16.104
686.31	14.680
686.63	16.114
686.96	16.877
687.28	16.612
687.60	14.141
687.92	15.916
688.24	15.860
688.56	14.828
688.89	17.241
689.21	17.221
689.53	17.255
689.85	15.779
690.17	16.667
690.49	16.335
690.82	17.624
691.14	14.980
691.46	18.738
691.78	18.048
692.10	15.229
692.42	15.357
692.74	16.697
693.06	12.963
693.39	17.647
693.71	16.541
694.03	16.543
694.35	18.857
694.67	17.864
694.99	14.681
695.31	16.336
695.63	17.316
695.95	16.770
696.27	15.604
696.59	21.239
696.91	17.117
697.23	18.022
697.56	14.868
697.88	12.689
698.20	17.326
698.52	16.856
698.84	17.672
699.16	17.347
699.48	16.946
699.80	14.043
700.12	16.812
700.44	16.129
700.76	15.677
701.08	22.276
701.40	18.394
701.72	17.910
702.04	17.647
702.36	13.089
702.68	17.115
703.00	15.159
703.32	14.532
703.64	14.914
703.96	18.616
704.28	18.428
704.60	18.481
704.91	17.347
705.23	19.178
705.55	15.599
705.87	16.364
706.19	18.098
706.51	16.265
706.83	16.138
707.15	12.963
707.47	17.056
707.79	15.502
708.11	14.619
708.43	15.269
708.74	13.839
709.06	16.473
709.38	16.901
709.70	14.888
710.02	17.829
710.34	13.830
710.66	14.804
710.98	16.667
711.29	13.462
711.61	17.797
711.93	15.954
712.25	13.784
712.57	17.994
712.89	16.176
713.20	13.314
713.52	18.208
713.84	18.384
714.16	15.263
714.48	17.010
714.80	15.844
715.11	15.748
715.43	12.732
715.75	16.053
716.07	12.155
716.39	18.579
716.70	16.566
717.02	16.066
717.34	12.892
717.66	16.107
717.97	13.356
718.29	12.715
718.61	16.118
718.93	12.298
719.24	14.596
719.56	14.724
719.88	15.616
720.20	15.484
720.51	12.733
720.83	15.625
721.15	13.158
721.46	10.616
721.78	15.667
722.10	12.298
722.42	10.738
722.73	13.226
723.05	13.333
723.37	13.889
723.68	15.771
724.00	13.718
724.32	13.732
724.63	17.832
724.95	19.149
725.27	12.892
725.58	12.014
725.90	16.552
726.22	10.031
726.53	15.260
726.85	14.465
727.16	15.408
727.48	14.373
727.80	12.914
728.11	9.894
728.43	16.835
728.74	10.702
729.06	14.238
729.38	16.883
729.69	13.087
730.01	11.607
730.32	10.606
730.64	11.006
730.96	9.938
731.27	15.642
731.59	12.637
731.90	10.390
732.22	12.240
732.53	9.669
732.85	14.000
733.16	11.730
733.48	10.366
733.80	11.978
734.11	14.245
734.43	13.243
734.74	14.430
735.06	12.814
735.37	14.595
735.69	12.162
736.00	15.537
736.32	11.051
736.63	14.167
736.95	9.483
737.26	11.515
737.58	13.030
737.89	12.647
738.21	10.398
738.52	12.459
738.83	12.969
739.15	10.993
739.46	14.626
739.78	14.110
740.09	11.748
740.41	14.286
740.72	15.000
741.04	13.269
741.35	15.088
741.66	14.118
741.98	17.213
742.29	12.552
742.61	15.789
742.92	13.077
743.23	13.718
743.55	10.853
743.86	11.600
744.18	11.157
744.49	9.283
744.80	13.169
745.12	13.502
745.43	14.634
745.74	15.086
746.06	12.288
746.37	16.456
746.68	15.447
747.00	12.500
747.31	12.876
747.62	15.385
747.94	9.717
748.25	14.458
748.56	12.245
748.88	8.120
749.19	12.069
749.50	10.823
749.82	13.253
750.13	14.947
750.44	12.333
750.75	12.615
751.07	12.000
751.38	9.148
751.69	11.821
752.01	10.356
752.32	12.092
752.63	9.184
752.94	11.765
753.26	8.922
753.57	9.259
753.88	14.232
754.19	11.254
754.51	9.003
754.82	13.183
755.13	14.754
755.44	10.580
755.75	10.197
756.07	12.836
756.38	9.748
756.69	13.855
757.00	9.972
757.31	11.202
757.63	9.719
757.94	8.451
758.25	12.641
758.56	11.111
758.87	11.364
759.18	11.733
759.50	11.615
759.81	10.084
760.12	10.512
760.43	11.719
760.74	12.069
761.05	12.250
761.36	12.048
761.67	11.168
761.99	10.270
762.30	14.634
762.61	7.591
762.92	13.806
763.23	13.483
763.54	9.353
763.85	11.340
764.16	11.785
764.47	11.620
764.78	12.780
765.10	11.437
765.41	14.872
765.72	7.672
766.03	14.124
766.34	8.464
766.65	7.666
766.96	12.351
767.27	12.442
767.58	4.975
767.89	17.308
768.20	11.737
768.51	9.722
768.82	8.032
769.13	7.576
769.44	10.000
769.75	11.913
770.06	11.538
770.37	14.567
770.68	9.787
770.99	4.453
771.30	14.815
771.61	14.068
771.92	9.259
772.23	13.765
772.54	6.019
772.85	7.373
773.16	15.238
773.47	6.878
773.78	4.865
774.09	12.500
774.39	14.500
774.70	9.290
775.01	7.317
775.32	4.118
775.63	7.362
775.94	1.274
776.25	8.387
776.56	5.769
776.87	12.925
777.18	10.345
777.48	6.993
777.79	14.865
778.10	10.294
778.41	9.722
778.72	9.655
779.03	11.111
779.34	11.515
779.65	8.290
779.95	15.556
780.26	4.545
780.57	9.032
780.88	13.768
781.19	14.839
781.50	9.412
781.80	14.516
782.11	11.111
782.42	6.061
782.73	5.988
783.04	12.291
783.34	7.879
783.65	7.190
783.96	8.075
784.27	9.524
784.57	5.298
784.88	2.143
785.19	0.787
785.50	7.087
785.81	6.767
786.11	13.077
786.42	7.194
786.73	5.036
787.04	6.767
787.34	2.459
787.65	5.600
787.96	2.239
788.26	13.287
788.57	6.993
788.88	1.974
789.19	11.111
789.49	6.164
789.80	5.674
790.11	7.874
790.41	3.125
790.72	10.169
791.03	-14.563
791.33	-0.870
791.64	16.667
791.95	7.143
792.25	4.762
792.56	5.357
792.87	5.208
793.17	8.929
793.48	2.083
793.79	-7.229
794.09	3.670
794.40	0.000
794.70	2.721
795.01	6.494
795.32	3.425
795.62	7.746
795.93	5.303
796.23	4.918
796.54	3.571
796.85	-4.255
797.15	-1.087
797.46	-1.370
797.76	-6.250
798.07	5.435
798.37	1.031
798.68	-7.792
798.99	-2.299
799.29	4.494
799.60	12.766
799.90	2.410
800.21	-6.154
800.51	-17.910
800.82	-17.647
801.12	-2.740
801.43	-11.765
801.73	3.390
802.04	-4.545
802.34	-25.000
802.65	0.000
802.95	8.955
803.26	1.695
803.56	0.000
803.87	4.286
804.17	-6.849
804.48	-24.561
804.78	-2.778
805.09	-29.310
805.39	6.757
805.70	-14.085
806.00	2.439
806.30	1.205
806.61	-16.438
806.91	12.500
807.22	-3.333
807.52	-13.793
807.83	0.000
808.13	0.000
808.43	-3.371
808.74	-6.250
809.04	-23.529
809.35	6.667
809.65	-10.000
809.95	8.219
810.26	-19.298
810.56	0.000
810.86	1.471
811.17	-19.298
811.47	-21.311
811.77	-44.444
812.08	-3.390
812.38	-8.333
812.69	1.724
812.99	-18.868
813.29	-41.026
813.59	-2.000
813.90	-12.281
814.20	-16.364
814.50	4.225
814.81	0.000
815.11	6.557
815.41	-7.463
815.72	0.000
816.02	-1.786
816.32	-11.111
816.62	-13.636
816.93	-17.778
817.23	3.704
817.53	2.128
817.84	4.762
818.14	-17.647
818.44	-16.327
818.74	-17.778
819.04	-33.333
819.35	-25.714
819.65	-73.077
819.95	-7.547
820.25	-13.333
820.56	-35.714
820.86	-53.125
821.16	-33.333
821.46	-13.953
821.76	-30.000
822.07	-3.571
822.37	-23.913
822.67	-23.404
822.97	-24.324
823.27	-35.000
823.57	6.122
823.88	-15.556
824.18	2.500
824.48	-10.000
824.78	-52.000
825.08	18.182
825.38	2.222
825.69	8.511
825.99	0.000
826.29	-57.143
826.59	-15.385
826.89	-20.930
827.19	-6.000
827.49	-44.118
827.79	-31.250
828.09	-40.541
828.39	-63.333
828.70	-36.585
829.00	-11.628
829.30	-46.429
829.60	-2.941
829.90	-17.391
830.20	-40.000
830.50	-58.621
830.80	-94.444
831.10	-42.308
831.40	-41.176
831.70	-61.905
832.00	-6.452
832.30	-123.529
832.60	-45.833
832.90	-176.923
833.20	-63.158
833.50	-95.000
833.80	-94.737
834.10	-109.524
834.40	5.556
834.70	-15.625
835.00	-65.714
835.30	-23.529
835.60	-26.667
835.90	-40.000
836.20	-90.909
836.50	0.000
836.80	-36.364
837.10	-14.815
837.40	-29.630
837.70	-37.500
838.00	0.000
838.30	-73.913
838.60	-44.828
838.90	-57.143
839.19	-78.261
839.49	-108.333
839.79	-30.435
840.09	-125.000
840.39	-80.000
840.69	-35.484
840.99	-71.429
841.29	-46.667
841.59	-57.895
841.88	10.256
842.18	-46.154
842.48	-110.000
842.78	-70.000
843.08	-43.333
843.38	-25.806
843.68	-161.111
843.97	-32.353
844.27	-6.250
844.57	-63.158
844.87	-220.000
845.17	-166.667
845.47	-42.857
845.76	-61.905
846.06	-133.333
846.36	-135.294
846.66	-30.769
846.96	-93.333
847.25	-47.059
847.55	-21.739
847.85	-55.000
848.15	-5.882
848.44	-72.727
848.74	-19.048
849.04	-58.333
849.34	-50.000
849.63	-13.043
849.93	350.000
850.23	-46.667
850.53	-19.231
850.82	-109.091
851.12	-18.182
851.42	-100.000
851.71	-61.538
852.01	-25.000
852.31	-76.923
852.61	-100.000
852.90	-108.333
853.20	-77.778
853.50	-266.667
853.79	-85.714
854.09	-95.455
854.39	-233.333
854.68	-25.806
854.98	-46.154
855.28	-33.333
855.57	-53.571
855.87	-16.000
856.17	-54.545
856.46	-40.741
856.76	-44.444
857.05	-34.783
857.35	-41.667
857.65	-84.615
857.94	-47.619
858.24	-7.407
858.53	-39.130
858.83	-117.647
859.13	-11.765
859.42	-41.176
859.72	-114.286
860.01	-50.000
860.31	-33.333
860.60	-50.000
860.90	-126.667
861.20	-66.667
861.49	-23.077
861.79	-3.333
862.08	-130.769
862.38	15.625
862.67	35.294
862.97	-37.500
863.26	-144.444
863.56	-70.000
863.85	-63.636
864.15	-88.889
864.44	-566.667
864.74	-92.857
865.03	-112.500
865.33	-100.000
865.62	-32.258
865.92	-22.727
866.21	-34.783
866.51	-50.000
866.80	-420.000
867.10	-125.000
867.39	-166.667
867.69	1500.000
867.98	-71.429
868.27	-52.941
868.57	-2300.000
868.86	-200.000
869.16	-90.476
869.45	-33.333
869.75	-127.273
870.04	-285.714
870.33	-100.000
870.63	-357.143
870.92	-400.000
871.22	-337.500
871.51	-163.636
871.80	-866.667
872.10	-400.000
>>>>>End Processed Spectral Data<<<<<
