SpectraSuite Data File
++++++++++++++++++++++++++++++++++++
Date: Thu May 14 16:21:28 PDT 2015
User: schluterlab
Dark Spectrum Present: Yes
Reference Spectrum Present: Yes
Number of Sampled Component Spectra: 1
Spectrometers: USB2E3373
Integration Time (usec): 3000 (USB2E3373)
Spectra Averaged: 3 (USB2E3373)
Boxcar Smoothing: 0 (USB2E3373)
Correct for Electrical Dark: No (USB2E3373)
Strobe/Lamp Enabled: No (USB2E3373)
Correct for Detector Non-linearity: No (USB2E3373)
Correct for Stray Light: No (USB2E3373)
Number of Pixels in Processed Spectrum: 2048
>>>>>Begin Processed Spectral Data<<<<<
178.53	0.000
178.91	114.286
179.29	-2500.000
179.67	-1500.000
180.04	164.286
180.42	-30.000
180.80	100.000
181.18	-1500.000
181.56	700.000
181.94	125.000
182.31	-125.000
182.69	400.000
183.07	150.000
183.45	175.000
183.83	-133.333
184.20	-133.333
184.58	1100.000
184.96	-175.000
185.34	-22.222
185.72	20.000
186.09	266.667
186.47	700.000
186.85	320.000
187.23	-133.333
187.61	-300.000
187.98	140.000
188.36	250.000
188.74	-200.000
189.12	-166.667
189.49	18.750
189.87	-87.500
190.25	11.111
190.63	0.000
191.00	-66.667
191.38	0.000
191.76	-100.000
192.14	-183.333
192.51	550.000
192.89	-33.333
193.27	0.000
193.65	28.571
194.02	-1700.000
194.40	-142.857
194.78	185.714
195.15	0.000
195.53	9.091
195.91	0.000
196.29	0.000
196.66	-23.077
197.04	-1700.000
197.42	-71.429
197.79	-550.000
198.17	-137.500
198.55	-57.143
198.92	-55.556
199.30	-100.000
199.68	-72.727
200.05	0.000
200.43	-350.000
200.81	242.857
201.18	0.000
201.56	211.111
201.94	0.000
202.31	466.667
202.69	-55.556
203.07	600.000
203.44	-66.667
203.82	-25.000
204.19	-25.000
204.57	-150.000
204.95	25.000
205.32	-1200.000
205.70	125.000
206.08	-16.667
206.45	-116.667
206.83	300.000
207.20	-50.000
207.58	-280.000
207.96	-250.000
208.33	-250.000
208.71	75.000
209.08	-16.667
209.46	0.000
209.84	250.000
210.21	-150.000
210.59	350.000
210.96	300.000
211.34	-75.000
211.71	-25.000
212.09	-1000.000
212.46	0.000
212.84	850.000
213.22	-340.000
213.59	-175.000
213.97	-20.000
214.34	-166.667
214.72	83.333
215.09	-125.000
215.47	0.000
215.84	28.571
216.22	300.000
216.59	-100.000
216.97	-120.000
217.34	-50.000
217.72	-100.000
218.09	-50.000
218.47	-225.000
218.84	0.000
219.22	100.000
219.59	-58.824
219.97	-50.000
220.34	50.000
220.72	-100.000
221.09	-46.154
221.47	-66.667
221.84	-20.000
222.22	-200.000
222.59	0.000
222.97	-12.500
223.34	-100.000
223.72	-700.000
224.09	-350.000
224.46	-275.000
224.84	-200.000
225.21	-28.571
225.59	125.000
225.96	-150.000
226.34	-11.538
226.71	150.000
227.08	-500.000
227.46	-40.000
227.83	-225.000
228.21	31.579
228.58	100.000
228.95	450.000
229.33	-50.000
229.70	0.000
230.08	47.368
230.45	120.000
230.82	-333.333
231.20	-50.000
231.57	50.000
231.95	-36.364
232.32	-27.273
232.69	-30.000
233.07	-100.000
233.44	-17.647
233.81	-60.000
234.19	5.556
234.56	-13.636
234.93	3.448
235.31	-5.263
235.68	5.556
236.05	-85.000
236.43	19.231
236.80	32.000
237.17	-18.519
237.55	0.000
237.92	-160.000
238.29	-25.806
238.67	-9.091
239.04	-11.111
239.41	-9.524
239.79	0.000
240.16	-9.259
240.53	-28.261
240.91	-19.608
241.28	-9.836
241.65	-5.970
242.02	1.351
242.40	-13.846
242.77	-8.000
243.14	-18.293
243.51	-19.737
243.89	-14.103
244.26	8.911
244.63	-0.980
245.00	-0.935
245.38	-7.018
245.75	-10.619
246.12	-5.556
246.49	-2.326
246.87	0.714
247.24	0.662
247.61	0.000
247.98	-2.685
248.36	-1.852
248.73	-7.975
249.10	-4.372
249.47	-1.990
249.84	2.094
250.22	-1.036
250.59	-1.667
250.96	2.727
251.33	-6.122
251.70	2.564
252.08	4.583
252.45	-0.410
252.82	1.653
253.19	-0.781
253.56	1.901
253.94	-1.923
254.31	-0.758
254.68	4.196
255.05	4.560
255.42	-1.020
255.79	-0.324
256.16	-0.331
256.54	-1.987
256.91	-0.328
257.28	-0.328
257.65	-1.911
258.02	-2.065
258.39	0.000
258.76	3.364
259.14	0.000
259.51	0.576
259.88	-2.266
260.25	0.833
260.62	2.192
260.99	2.186
261.36	1.072
261.73	-3.979
262.10	-3.571
262.47	2.413
262.85	1.263
263.22	-1.299
263.59	-5.263
263.96	-0.256
264.33	0.512
264.70	-0.247
265.07	3.819
265.44	3.175
265.81	-1.852
266.18	1.587
266.55	2.232
266.92	-1.367
267.29	0.656
267.66	1.996
268.03	2.183
268.40	1.670
268.77	-0.911
269.14	-4.626
269.51	-0.658
269.88	2.664
270.25	1.408
270.62	2.110
270.99	3.636
271.36	2.970
271.73	1.965
272.10	1.603
272.47	-0.200
272.84	0.803
273.21	2.004
273.58	0.000
273.95	1.923
274.32	0.000
274.69	-0.580
275.06	0.916
275.43	-1.109
275.80	2.116
276.17	0.000
276.54	1.306
276.91	0.179
277.28	0.362
277.65	2.334
278.02	1.103
278.39	0.543
278.76	0.351
279.13	1.773
279.50	1.203
279.87	2.504
280.23	-0.704
280.60	0.847
280.97	0.164
281.34	-0.340
281.71	4.399
282.08	0.997
282.45	1.473
282.82	0.785
283.19	-1.292
283.56	0.000
283.92	2.252
284.29	3.476
284.66	2.135
285.03	-0.321
285.40	1.546
285.77	0.155
286.14	0.458
286.51	1.370
286.87	1.738
287.24	0.753
287.61	0.598
287.98	-0.755
288.35	2.071
288.72	0.888
289.08	2.196
289.45	0.740
289.82	0.753
290.19	2.155
290.56	3.662
290.93	0.428
291.29	0.551
291.66	1.791
292.03	0.814
292.40	2.313
292.77	0.404
293.13	2.030
293.50	-0.131
293.87	-0.537
294.24	2.533
294.60	1.896
294.97	-0.134
295.34	2.305
295.71	0.883
296.08	0.775
296.44	-0.245
296.81	1.462
297.18	1.245
297.55	1.887
297.91	1.186
298.28	0.237
298.65	1.784
299.02	0.118
299.38	1.716
299.75	0.935
300.12	1.389
300.48	0.922
300.85	1.237
301.22	2.125
301.59	1.142
301.95	0.678
302.32	2.000
302.69	1.972
303.05	1.850
303.42	2.550
303.79	1.667
304.15	0.631
304.52	2.220
304.89	3.037
305.25	2.588
305.62	2.090
305.99	2.371
306.35	1.310
306.72	3.309
307.09	2.132
307.45	2.277
307.82	2.018
308.19	2.220
308.55	3.182
308.92	2.142
309.29	3.544
309.65	2.729
310.02	2.772
310.38	2.264
310.75	3.204
311.12	4.027
311.48	3.715
311.85	2.944
312.22	2.941
312.58	3.944
312.95	3.059
313.31	3.704
313.68	4.670
314.05	5.149
314.41	5.464
314.78	5.722
315.14	5.898
315.51	6.094
315.87	5.401
316.24	7.306
316.61	6.927
316.97	5.520
317.34	6.261
317.70	6.900
318.07	7.055
318.43	9.354
318.80	9.281
319.16	7.811
319.53	8.398
319.89	9.027
320.26	10.142
320.62	9.397
320.99	10.619
321.35	10.074
321.72	12.372
322.08	11.271
322.45	13.098
322.81	13.628
323.18	13.894
323.54	14.828
323.91	15.480
324.27	16.351
324.64	17.128
325.00	16.335
325.37	18.755
325.73	17.273
326.10	18.491
326.46	19.381
326.83	19.616
327.19	19.921
327.56	21.344
327.92	21.400
328.29	21.532
328.65	21.106
329.01	22.166
329.38	23.420
329.74	24.829
330.11	24.315
330.47	24.010
330.84	24.720
331.20	24.750
331.56	25.737
331.93	25.272
332.29	26.525
332.66	25.664
333.02	26.633
333.38	27.181
333.75	27.525
334.11	26.272
334.48	26.650
334.84	27.528
335.20	26.616
335.57	28.499
335.93	27.438
336.29	27.371
336.66	26.745
337.02	28.177
337.38	28.571
337.75	27.190
338.11	27.754
338.47	27.709
338.84	27.665
339.20	27.464
339.56	27.842
339.93	28.079
340.29	27.456
340.65	28.792
341.02	28.731
341.38	29.426
341.74	27.441
342.11	28.238
342.47	28.038
342.83	28.986
343.20	29.109
343.56	29.190
343.92	27.382
344.28	28.203
344.65	28.682
345.01	28.315
345.37	29.393
345.73	28.683
346.10	28.783
346.46	28.085
346.82	28.839
347.19	29.565
347.55	29.363
347.91	28.529
348.27	27.921
348.63	29.855
349.00	29.157
349.36	27.732
349.72	29.613
350.08	28.158
350.45	28.897
350.81	29.412
351.17	28.571
351.53	29.037
351.89	29.309
352.26	29.328
352.62	29.179
352.98	28.855
353.34	28.753
353.70	29.507
354.07	29.434
354.43	29.385
354.79	29.319
355.15	28.330
355.51	29.678
355.87	29.319
356.24	29.049
356.60	28.455
356.96	29.577
357.32	28.550
357.68	28.477
358.04	28.817
358.40	29.701
358.77	29.386
359.13	29.468
359.49	26.989
359.85	29.514
360.21	28.766
360.57	28.356
360.93	28.914
361.29	29.684
361.66	29.037
362.02	28.392
362.38	29.023
362.74	29.260
363.10	29.917
363.46	29.155
363.82	29.688
364.18	30.542
364.54	29.737
364.90	30.100
365.26	29.931
365.62	29.933
365.98	29.135
366.35	28.859
366.71	29.796
367.07	29.973
367.43	30.532
367.79	29.662
368.15	30.234
368.51	29.567
368.87	29.197
369.23	29.600
369.59	29.508
369.95	29.344
370.31	29.777
370.67	30.261
371.03	29.778
371.39	29.214
371.75	29.574
372.11	29.675
372.47	29.858
372.83	30.236
373.19	29.019
373.55	28.455
373.91	30.198
374.27	29.495
374.63	31.055
374.99	29.708
375.35	29.481
375.71	29.226
376.07	29.890
376.42	29.534
376.78	30.143
377.14	28.447
377.50	29.222
377.86	29.618
378.22	29.281
378.58	30.678
378.94	29.812
379.30	29.115
379.66	29.924
380.02	29.775
380.38	30.242
380.74	29.070
381.09	29.791
381.45	29.489
381.81	30.269
382.17	29.632
382.53	28.830
382.89	28.837
383.25	29.660
383.61	29.687
383.97	29.623
384.32	30.622
384.68	28.886
385.04	30.422
385.40	30.112
385.76	30.129
386.12	29.204
386.48	29.235
386.83	30.334
387.19	29.896
387.55	30.399
387.91	29.338
388.27	29.157
388.62	29.897
388.98	29.385
389.34	30.524
389.70	30.506
390.06	29.959
390.42	28.976
390.77	29.199
391.13	28.462
391.49	29.046
391.85	29.273
392.20	29.300
392.56	30.301
392.92	28.899
393.28	29.132
393.64	29.162
393.99	30.041
394.35	29.965
394.71	29.281
395.07	30.000
395.42	28.955
395.78	30.347
396.14	29.352
396.50	29.157
396.85	28.563
397.21	28.521
397.57	29.270
397.92	29.210
398.28	28.408
398.64	28.547
399.00	27.749
399.35	28.482
399.71	28.424
400.07	29.759
400.42	28.754
400.78	28.588
401.14	28.856
401.49	29.107
401.85	28.605
402.21	30.359
402.57	29.695
402.92	28.546
403.28	28.571
403.63	28.759
403.99	28.029
404.35	28.027
404.70	28.725
405.06	28.098
405.42	28.513
405.77	27.863
406.13	27.769
406.49	28.378
406.84	28.864
407.20	28.452
407.55	27.317
407.91	28.221
408.27	27.915
408.62	28.505
408.98	28.265
409.34	27.155
409.69	27.627
410.05	27.374
410.40	29.118
410.76	27.650
411.11	27.002
411.47	28.808
411.83	27.513
412.18	28.554
412.54	28.038
412.89	27.590
413.25	28.160
413.60	27.915
413.96	27.681
414.31	27.875
414.67	27.430
415.03	27.385
415.38	28.247
415.74	28.039
416.09	27.946
416.45	26.863
416.80	27.234
417.16	27.714
417.51	28.580
417.87	28.694
418.22	27.246
418.58	26.704
418.93	28.754
419.29	28.360
419.64	27.371
420.00	28.131
420.35	27.344
420.71	27.513
421.06	26.452
421.42	28.039
421.77	26.710
422.12	27.220
422.48	27.138
422.83	28.094
423.19	27.162
423.54	27.489
423.90	27.554
424.25	28.640
424.61	27.555
424.96	28.171
425.31	27.335
425.67	27.751
426.02	27.836
426.38	26.579
426.73	27.455
427.09	28.258
427.44	27.253
427.79	26.921
428.15	26.884
428.50	26.742
428.85	27.784
429.21	28.085
429.56	26.752
429.92	28.108
430.27	27.470
430.62	27.601
430.98	27.250
431.33	27.224
431.68	27.490
432.04	27.476
432.39	28.334
432.74	27.968
433.10	27.420
433.45	27.369
433.80	27.307
434.16	26.963
434.51	27.903
434.86	27.633
435.22	27.896
435.57	28.479
435.92	27.935
436.28	27.076
436.63	28.127
436.98	27.429
437.34	28.241
437.69	27.463
438.04	27.816
438.39	28.432
438.75	28.279
439.10	28.700
439.45	27.781
439.81	28.475
440.16	27.399
440.51	28.094
440.86	27.182
441.22	28.349
441.57	28.302
441.92	26.964
442.27	27.424
442.63	28.217
442.98	28.869
443.33	26.933
443.68	28.048
444.03	28.598
444.39	27.138
444.74	28.229
445.09	27.217
445.44	27.661
445.79	28.305
446.15	27.955
446.50	28.010
446.85	27.529
447.20	27.805
447.55	27.772
447.91	27.853
448.26	28.224
448.61	27.471
448.96	28.594
449.31	27.943
449.66	27.070
450.02	28.217
450.37	28.290
450.72	27.933
451.07	28.303
451.42	28.134
451.77	28.349
452.12	28.837
452.47	28.164
452.83	28.378
453.18	27.320
453.53	27.743
453.88	27.775
454.23	28.249
454.58	28.845
454.93	27.306
455.28	27.213
455.63	27.516
455.98	28.380
456.34	28.033
456.69	29.159
457.04	27.719
457.39	27.494
457.74	28.747
458.09	27.952
458.44	28.017
458.79	27.592
459.14	27.687
459.49	27.957
459.84	27.335
460.19	27.152
460.54	27.825
460.89	28.481
461.24	27.414
461.59	27.283
461.94	25.956
462.29	27.436
462.64	27.459
462.99	27.872
463.34	27.190
463.69	27.140
464.04	27.515
464.39	27.859
464.74	26.853
465.09	27.509
465.44	27.468
465.79	27.869
466.14	26.941
466.49	26.789
466.84	27.328
467.19	27.399
467.54	26.322
467.89	26.954
468.24	27.368
468.59	25.999
468.94	27.098
469.29	26.695
469.64	27.018
469.99	27.151
470.34	26.114
470.68	27.341
471.03	27.701
471.38	27.273
471.73	26.723
472.08	27.030
472.43	27.092
472.78	27.204
473.13	26.549
473.48	27.372
473.83	27.046
474.17	25.967
474.52	27.721
474.87	27.076
475.22	27.493
475.57	26.532
475.92	27.078
476.27	26.198
476.61	26.376
476.96	25.912
477.31	26.535
477.66	27.020
478.01	26.029
478.36	26.670
478.70	26.256
479.05	26.840
479.40	27.098
479.75	26.657
480.10	25.580
480.45	25.387
480.79	26.349
481.14	25.643
481.49	25.034
481.84	26.197
482.19	26.280
482.53	26.541
482.88	26.938
483.23	26.100
483.58	26.157
483.92	25.709
484.27	25.995
484.62	24.917
484.97	26.128
485.31	25.519
485.66	23.846
486.01	23.970
486.36	24.261
486.70	25.369
487.05	26.129
487.40	25.702
487.75	26.387
488.09	26.120
488.44	24.969
488.79	25.599
489.13	25.199
489.48	25.515
489.83	25.272
490.17	24.463
490.52	25.411
490.87	24.873
491.22	25.303
491.56	25.768
491.91	25.687
492.26	25.141
492.60	24.836
492.95	24.967
493.30	24.429
493.64	25.230
493.99	25.614
494.34	24.695
494.68	24.968
495.03	25.463
495.37	24.989
495.72	25.034
496.07	24.540
496.41	24.367
496.76	24.687
497.11	24.501
497.45	24.860
497.80	24.789
498.14	25.034
498.49	24.770
498.84	25.183
499.18	24.561
499.53	24.753
499.87	25.143
500.22	23.954
500.56	24.291
500.91	25.355
501.26	25.273
501.60	24.260
501.95	24.924
502.29	24.046
502.64	24.005
502.98	23.684
503.33	24.233
503.67	23.245
504.02	24.212
504.36	24.441
504.71	24.529
505.06	23.920
505.40	24.314
505.75	23.998
506.09	24.263
506.44	24.605
506.78	24.037
507.13	24.435
507.47	24.491
507.82	24.337
508.16	23.853
508.51	23.301
508.85	23.996
509.19	24.064
509.54	24.063
509.88	24.186
510.23	23.895
510.57	24.070
510.92	24.673
511.26	23.810
511.61	23.274
511.95	23.084
512.30	23.781
512.64	23.838
512.98	24.012
513.33	24.395
513.67	23.508
514.02	24.067
514.36	23.734
514.70	23.802
515.05	23.931
515.39	22.625
515.74	24.549
516.08	23.455
516.42	24.490
516.77	24.553
517.11	23.259
517.46	22.906
517.80	23.784
518.14	23.885
518.49	23.807
518.83	23.204
519.17	22.563
519.52	23.061
519.86	23.495
520.20	23.269
520.55	22.892
520.89	23.029
521.23	22.725
521.58	23.164
521.92	23.286
522.26	21.993
522.61	23.264
522.95	22.549
523.29	23.103
523.64	22.814
523.98	22.875
524.32	23.438
524.66	22.823
525.01	22.990
525.35	21.827
525.69	22.448
526.04	21.871
526.38	23.276
526.72	22.434
527.06	23.109
527.41	23.032
527.75	22.862
528.09	22.550
528.43	22.617
528.78	21.329
529.12	22.076
529.46	22.428
529.80	22.025
530.15	21.391
530.49	22.361
530.83	22.904
531.17	22.103
531.51	22.443
531.86	21.575
532.20	22.073
532.54	21.783
532.88	21.879
533.22	22.628
533.57	22.851
533.91	21.661
534.25	21.820
534.59	22.644
534.93	21.109
535.27	21.859
535.62	22.399
535.96	22.255
536.30	22.033
536.64	22.462
536.98	22.509
537.32	22.284
537.66	22.707
538.01	21.813
538.35	21.437
538.69	21.514
539.03	22.502
539.37	22.203
539.71	21.321
540.05	21.223
540.39	21.333
540.73	20.826
541.07	20.969
541.42	21.087
541.76	20.463
542.10	20.929
542.44	20.219
542.78	21.533
543.12	21.514
543.46	21.062
543.80	20.264
544.14	20.886
544.48	21.099
544.82	21.065
545.16	20.632
545.50	20.911
545.84	20.698
546.18	22.778
546.52	21.338
546.86	20.943
547.20	21.310
547.54	20.037
547.88	20.313
548.22	20.058
548.56	20.187
548.90	20.597
549.24	21.824
549.58	20.883
549.92	20.089
550.26	20.129
550.60	20.804
550.94	20.699
551.28	20.792
551.62	21.092
551.96	20.518
552.30	21.415
552.64	20.722
552.98	20.836
553.32	21.222
553.66	20.064
554.00	20.681
554.34	20.528
554.68	20.142
555.02	20.039
555.36	21.170
555.69	19.603
556.03	20.113
556.37	21.089
556.71	20.228
557.05	19.744
557.39	19.973
557.73	20.674
558.07	19.536
558.41	20.465
558.75	19.811
559.08	20.320
559.42	19.204
559.76	20.353
560.10	19.558
560.44	19.459
560.78	20.063
561.12	20.074
561.45	19.951
561.79	20.269
562.13	20.025
562.47	19.482
562.81	18.734
563.15	20.455
563.48	20.075
563.82	20.435
564.16	19.382
564.50	19.547
564.84	18.997
565.17	19.824
565.51	19.333
565.85	19.359
566.19	19.355
566.52	19.075
566.86	19.638
567.20	18.923
567.54	18.694
567.88	18.705
568.21	19.466
568.55	18.609
568.89	18.656
569.23	18.547
569.56	18.406
569.90	18.603
570.24	18.111
570.57	17.960
570.91	17.575
571.25	17.964
571.59	17.924
571.92	17.591
572.26	17.814
572.60	17.527
572.93	17.506
573.27	18.039
573.61	18.078
573.95	18.087
574.28	17.613
574.62	17.531
574.96	17.203
575.29	17.206
575.63	17.302
575.97	17.341
576.30	17.567
576.64	17.347
576.98	17.335
577.31	17.477
577.65	17.520
577.98	16.773
578.32	16.805
578.66	17.000
578.99	17.162
579.33	17.719
579.67	16.976
580.00	17.038
580.34	17.670
580.67	16.858
581.01	17.265
581.35	17.300
581.68	16.894
582.02	16.743
582.35	16.886
582.69	16.918
583.02	17.399
583.36	17.211
583.70	17.042
584.03	17.087
584.37	17.329
584.70	16.528
585.04	16.508
585.37	17.013
585.71	17.001
586.04	16.821
586.38	16.922
586.72	16.445
587.05	16.654
587.39	16.928
587.72	17.105
588.06	17.142
588.39	16.878
588.73	16.058
589.06	16.845
589.40	16.779
589.73	17.063
590.07	17.805
590.40	17.681
590.73	17.215
591.07	17.461
591.40	16.446
591.74	16.773
592.07	17.093
592.41	17.468
592.74	16.649
593.08	16.783
593.41	16.827
593.75	16.695
594.08	16.480
594.41	16.731
594.75	16.440
595.08	16.689
595.42	16.071
595.75	16.984
596.09	16.605
596.42	16.661
596.75	17.059
597.09	17.818
597.42	16.766
597.75	16.111
598.09	16.944
598.42	16.606
598.76	16.393
599.09	16.412
599.42	15.924
599.76	16.276
600.09	16.550
600.42	16.416
600.76	15.951
601.09	16.130
601.42	16.615
601.76	16.310
602.09	16.440
602.42	15.776
602.76	16.052
603.09	16.483
603.42	15.860
603.76	16.526
604.09	16.537
604.42	15.963
604.76	16.058
605.09	16.394
605.42	15.949
605.75	16.077
606.09	16.275
606.42	15.542
606.75	15.892
607.09	15.899
607.42	16.378
607.75	15.787
608.08	16.338
608.42	16.042
608.75	15.672
609.08	15.577
609.41	15.968
609.75	16.161
610.08	16.447
610.41	16.015
610.74	16.387
611.07	16.163
611.41	16.099
611.74	16.767
612.07	16.223
612.40	15.732
612.73	16.039
613.07	15.941
613.40	16.362
613.73	16.659
614.06	16.143
614.39	15.646
614.72	16.060
615.06	16.314
615.39	15.998
615.72	16.114
616.05	16.270
616.38	15.943
616.71	15.831
617.05	15.229
617.38	16.158
617.71	16.199
618.04	16.730
618.37	16.557
618.70	16.686
619.03	15.054
619.36	16.215
619.69	16.656
620.03	16.133
620.36	14.969
620.69	16.471
621.02	16.601
621.35	16.110
621.68	16.558
622.01	16.014
622.34	16.248
622.67	16.289
623.00	15.115
623.33	16.125
623.66	15.240
623.99	15.405
624.32	17.349
624.65	15.701
624.99	16.385
625.32	15.676
625.65	16.588
625.98	15.119
626.31	15.592
626.64	15.824
626.97	15.229
627.30	15.642
627.63	15.079
627.96	17.342
628.29	16.031
628.62	16.373
628.95	16.389
629.28	15.718
629.61	15.825
629.94	15.983
630.26	15.678
630.59	16.494
630.92	14.286
631.25	16.279
631.58	16.478
631.91	14.714
632.24	15.178
632.57	16.414
632.90	15.948
633.23	16.327
633.56	16.633
633.89	15.186
634.22	17.464
634.55	15.762
634.88	16.126
635.20	16.900
635.53	15.819
635.86	16.468
636.19	18.028
636.52	16.667
636.85	16.037
637.18	15.904
637.51	15.484
637.83	17.276
638.16	17.396
638.49	14.202
638.82	14.994
639.15	14.318
639.48	17.206
639.81	16.744
640.13	16.372
640.46	15.030
640.79	15.809
641.12	15.901
641.45	16.437
641.77	18.614
642.10	14.567
642.43	19.016
642.76	16.531
643.09	15.890
643.41	16.246
643.74	14.621
644.07	17.793
644.40	15.983
644.73	15.965
645.05	16.887
645.38	15.827
645.71	16.716
646.04	16.786
646.36	16.496
646.69	16.258
647.02	16.361
647.35	17.252
647.67	16.586
648.00	15.287
648.33	18.168
648.66	14.979
648.98	14.422
649.31	16.509
649.64	16.999
649.96	15.782
650.29	14.047
650.62	15.417
650.94	14.715
651.27	14.820
651.60	16.667
651.92	14.590
652.25	17.077
652.58	16.369
652.90	13.953
653.23	16.901
653.56	14.693
653.88	16.011
654.21	16.479
654.54	14.017
654.86	15.297
655.19	13.802
655.52	14.685
655.84	12.816
656.17	15.192
656.49	21.738
656.82	23.848
657.15	18.715
657.47	14.503
657.80	10.789
658.13	8.354
658.45	11.341
658.78	13.792
659.10	13.091
659.43	13.375
659.75	13.377
660.08	13.109
660.41	12.821
660.73	13.341
661.06	13.510
661.38	16.108
661.71	15.172
662.03	14.109
662.36	17.889
662.68	15.197
663.01	15.044
663.33	17.580
663.66	16.300
663.98	15.192
664.31	15.197
664.63	12.717
664.96	15.064
665.28	13.793
665.61	16.084
665.93	14.643
666.26	16.308
666.58	14.207
666.91	15.514
667.23	14.286
667.56	14.596
667.88	15.600
668.21	12.500
668.53	10.425
668.86	15.128
669.18	12.627
669.50	13.320
669.83	15.000
670.15	14.764
670.48	17.460
670.80	14.340
671.13	13.989
671.45	14.173
671.77	14.689
672.10	11.500
672.42	14.563
672.75	10.906
673.07	13.284
673.39	11.864
673.72	13.087
674.04	15.862
674.37	13.953
674.69	16.226
675.01	13.905
675.34	12.595
675.66	12.360
675.98	14.739
676.31	12.109
676.63	15.019
676.95	14.368
677.28	16.129
677.60	11.811
677.92	14.012
678.25	14.991
678.57	16.370
678.89	15.017
679.22	12.021
679.54	14.188
679.86	10.169
680.18	14.096
680.51	13.679
680.83	14.894
681.15	14.828
681.48	14.335
681.80	12.781
682.12	14.161
682.44	14.023
682.77	14.716
683.09	16.477
683.41	12.403
683.73	12.524
684.06	13.838
684.38	12.701
684.70	14.542
685.02	13.425
685.34	12.146
685.67	10.726
685.99	12.423
686.31	11.483
686.63	13.428
686.96	13.091
687.28	12.215
687.60	10.943
687.92	11.897
688.24	13.856
688.56	10.345
688.89	12.160
689.21	13.112
689.53	10.784
689.85	11.637
690.17	13.704
690.49	11.355
690.82	14.059
691.14	12.146
691.46	13.958
691.78	13.996
692.10	10.826
692.42	10.714
692.74	12.341
693.06	10.741
693.39	11.765
693.71	11.090
694.03	13.941
694.35	12.762
694.67	13.347
694.99	12.766
695.31	12.583
695.63	14.502
695.95	11.801
696.27	11.868
696.59	16.150
696.91	13.288
697.23	14.286
697.56	9.165
697.88	11.553
698.20	11.488
698.52	14.583
698.84	12.474
699.16	15.102
699.48	13.598
699.80	10.426
700.12	12.227
700.44	11.982
700.76	11.876
701.08	13.317
701.40	9.845
701.72	14.428
702.04	12.834
702.36	16.754
702.68	13.936
703.00	10.513
703.32	10.099
703.64	13.936
703.96	12.649
704.28	10.319
704.60	14.430
704.91	9.949
705.23	14.247
705.55	12.813
705.87	17.273
706.19	17.485
706.51	11.446
706.83	10.086
707.15	11.376
707.47	10.748
707.79	14.410
708.11	9.958
708.43	11.183
708.74	8.482
709.06	10.209
709.38	12.911
709.70	13.151
710.02	11.628
710.34	9.309
710.66	7.821
710.98	13.388
711.29	9.341
711.61	10.734
711.93	10.826
712.25	11.622
712.57	15.929
712.89	14.118
713.20	10.355
713.52	14.740
713.84	12.813
714.16	13.158
714.48	10.567
714.80	13.247
715.11	11.811
715.43	13.263
715.75	11.316
716.07	10.497
716.39	10.929
716.70	9.940
717.02	11.803
717.34	10.801
717.66	11.745
717.97	9.589
718.29	8.591
718.61	7.895
718.93	11.650
719.24	9.317
719.56	13.497
719.88	13.514
720.20	9.032
720.51	8.075
720.83	9.375
721.15	9.539
721.46	5.822
721.78	11.000
722.10	10.032
722.42	11.074
722.73	6.129
723.05	12.281
723.37	13.542
723.68	12.186
724.00	13.718
724.32	8.099
724.63	11.189
724.95	12.411
725.27	10.105
725.58	12.367
725.90	11.034
726.22	8.150
726.53	11.364
726.85	13.522
727.16	12.387
727.48	12.538
727.80	11.589
728.11	10.601
728.43	10.774
728.74	12.709
729.06	10.265
729.38	11.364
729.69	9.732
730.01	12.798
730.32	9.091
730.64	9.119
730.96	8.696
731.27	8.101
731.59	9.890
731.90	10.909
732.22	8.854
732.53	7.735
732.85	9.429
733.16	10.557
733.48	4.878
733.80	8.914
734.11	8.832
734.43	10.541
734.74	12.911
735.06	9.296
735.37	9.459
735.69	8.378
736.00	10.734
736.32	10.782
736.63	9.444
736.95	11.494
737.26	7.879
737.58	9.091
737.89	11.765
738.21	9.174
738.52	11.803
738.83	11.263
739.15	9.929
739.46	11.905
739.78	9.816
740.09	6.877
740.41	9.038
740.72	7.333
741.04	12.945
741.35	8.772
741.66	10.588
741.98	12.295
742.29	8.368
742.61	10.088
742.92	9.615
743.23	13.718
743.55	9.690
743.86	8.400
744.18	7.851
744.49	4.219
744.80	11.111
745.12	10.127
745.43	10.976
745.74	9.483
746.06	9.746
746.37	10.970
746.68	17.073
747.00	14.167
747.31	7.725
747.62	10.769
747.94	4.858
748.25	8.434
748.56	8.571
748.88	5.556
749.19	13.362
749.50	10.823
749.82	12.450
750.13	9.964
750.44	5.333
750.75	8.615
751.07	12.308
751.38	10.726
751.69	9.585
752.01	11.650
752.32	8.824
752.63	6.803
752.94	10.035
753.26	6.320
753.57	9.630
753.88	7.491
754.19	8.682
754.51	6.431
754.82	9.646
755.13	12.459
755.44	7.850
755.75	12.171
756.07	12.239
756.38	8.176
756.69	10.241
757.00	5.817
757.31	7.104
757.63	7.673
757.94	8.920
758.25	8.126
758.56	8.932
758.87	8.409
759.18	12.267
759.50	12.181
759.81	9.804
760.12	8.625
760.43	10.156
760.74	12.069
761.05	7.250
761.36	7.711
761.67	7.614
761.99	10.270
762.30	10.366
762.61	9.571
762.92	10.448
763.23	10.112
763.54	12.590
763.85	7.216
764.16	8.754
764.47	9.859
764.78	7.029
765.10	7.625
765.41	10.256
765.72	7.407
766.03	9.605
766.34	5.956
766.65	5.226
766.96	5.976
767.27	12.442
767.58	2.985
767.89	13.462
768.20	11.737
768.51	6.019
768.82	10.442
769.13	7.197
769.44	5.000
769.75	9.386
770.06	7.308
770.37	9.843
770.68	5.957
770.99	4.453
771.30	11.111
771.61	9.886
771.92	6.296
772.23	8.502
772.54	3.241
772.85	10.138
773.16	9.524
773.47	-1.058
773.78	5.946
774.09	9.091
774.39	13.000
774.70	9.290
775.01	3.659
775.32	6.471
775.63	9.202
775.94	3.185
776.25	7.097
776.56	7.051
776.87	11.565
777.18	6.207
777.48	6.993
777.79	2.027
778.10	5.882
778.41	8.333
778.72	10.345
779.03	3.704
779.34	6.667
779.65	8.290
779.95	6.667
780.26	3.977
780.57	5.806
780.88	10.870
781.19	16.774
781.50	8.824
781.80	6.452
782.11	9.524
782.42	3.030
782.73	2.994
783.04	5.028
783.34	2.424
783.65	-3.268
783.96	7.453
784.27	6.548
784.57	4.636
784.88	5.000
785.19	-3.150
785.50	0.787
785.81	9.774
786.11	3.077
786.42	0.719
786.73	2.878
787.04	9.023
787.34	6.557
787.65	12.000
787.96	8.955
788.26	16.783
788.57	6.993
788.88	4.605
789.19	18.954
789.49	8.219
789.80	7.801
790.11	16.535
790.41	0.781
790.72	8.475
791.03	-3.883
791.33	12.174
791.64	8.772
791.95	0.893
792.25	-2.857
792.56	5.357
792.87	-4.167
793.17	13.393
793.48	1.042
793.79	1.205
794.09	4.587
794.40	14.679
794.70	3.401
795.01	2.597
795.32	1.370
795.62	9.859
795.93	9.091
796.23	11.475
796.54	0.000
796.85	-9.574
797.15	13.043
797.46	-8.219
797.76	-3.750
798.07	10.870
798.37	3.093
798.68	7.792
798.99	1.149
799.29	3.371
799.60	6.383
799.90	14.458
800.21	0.000
800.51	-7.463
800.82	-11.765
801.12	0.000
801.43	-14.706
801.73	-25.424
802.04	-4.545
802.34	-8.333
802.65	-11.864
802.95	-5.970
803.26	-1.695
803.56	5.479
803.87	-4.286
804.17	-6.849
804.48	-22.807
804.78	6.944
805.09	0.000
805.39	16.216
805.70	-2.817
806.00	7.317
806.30	-7.229
806.61	0.000
806.91	7.692
807.22	5.556
807.52	-8.046
807.83	-2.778
808.13	10.843
808.43	1.124
808.74	1.250
809.04	-17.647
809.35	4.000
809.65	0.000
809.95	-1.370
810.26	0.000
810.56	-15.517
810.86	11.765
811.17	-3.509
811.47	-6.557
811.77	-4.444
812.08	1.695
812.38	18.333
812.69	-6.897
812.99	-22.642
813.29	-23.077
813.59	18.000
813.90	14.035
814.20	-21.818
814.50	5.634
814.81	5.128
815.11	-4.918
815.41	-4.478
815.72	-15.517
816.02	7.143
816.32	20.000
816.62	20.455
816.93	-13.333
817.23	1.852
817.53	-8.511
817.84	-9.524
818.14	14.706
818.44	4.082
818.74	6.667
819.04	-25.641
819.35	-31.429
819.65	-34.615
819.95	-9.434
820.25	13.333
820.56	-7.143
820.86	18.750
821.16	-20.513
821.46	-18.605
821.76	-26.000
822.07	10.714
822.37	-21.739
822.67	-19.149
822.97	-45.946
823.27	-7.500
823.57	4.082
823.88	0.000
824.18	-17.500
824.48	-30.000
824.78	-4.000
825.08	-21.212
825.38	11.111
825.69	-6.383
825.99	0.000
826.29	-25.714
826.59	-20.513
826.89	-32.558
827.19	8.000
827.49	8.824
827.79	-2.083
828.09	-32.432
828.39	-50.000
828.70	-4.878
829.00	-2.326
829.30	-25.000
829.60	32.353
829.90	0.000
830.20	-28.571
830.50	10.345
830.80	-55.556
831.10	-42.308
831.40	-23.529
831.70	-38.095
832.00	19.355
832.30	-76.471
832.60	-16.667
832.90	-38.462
833.20	-57.895
833.50	-60.000
833.80	0.000
834.10	-76.190
834.40	-2.778
834.70	21.875
835.00	-37.143
835.30	-11.765
835.60	10.000
835.90	0.000
836.20	-40.909
836.50	-12.000
836.80	-9.091
837.10	-14.815
837.40	0.000
837.70	-6.250
838.00	-7.143
838.30	-17.391
838.60	-27.586
838.90	-78.571
839.19	-52.174
839.49	-108.333
839.79	-8.696
840.09	-87.500
840.39	-45.000
840.69	-12.903
840.99	-46.429
841.29	13.333
841.59	-21.053
841.88	-2.564
842.18	-7.692
842.48	-10.000
842.78	-35.000
843.08	3.333
843.38	12.903
843.68	-83.333
843.97	17.647
844.27	-37.500
844.57	-21.053
844.87	-90.000
845.17	-60.000
845.47	0.000
845.76	-47.619
846.06	-22.222
846.36	0.000
846.66	3.846
846.96	-26.667
847.25	-76.471
847.55	-4.348
847.85	-55.000
848.15	23.529
848.44	-45.455
848.74	-14.286
849.04	-37.500
849.34	-25.000
849.63	-4.348
849.93	650.000
850.23	-86.667
850.53	3.846
850.82	-127.273
851.12	-13.636
851.42	-54.545
851.71	-30.769
852.01	-70.000
852.31	46.154
852.61	-21.053
852.90	58.333
853.20	0.000
853.50	-100.000
853.79	-14.286
854.09	-36.364
854.39	-83.333
854.68	-16.129
854.98	-38.462
855.28	-27.778
855.57	-17.857
855.87	-24.000
856.17	-50.000
856.46	-11.111
856.76	-16.667
857.05	21.739
857.35	-41.667
857.65	-115.385
857.94	-9.524
858.24	40.741
858.53	-4.348
858.83	-41.176
859.13	-76.471
859.42	-23.529
859.72	-50.000
860.01	-50.000
860.31	-22.222
860.60	0.000
860.90	6.667
861.20	-33.333
861.49	-46.154
861.79	-33.333
862.08	-76.923
862.38	9.375
862.67	-35.294
862.97	-31.250
863.26	-200.000
863.56	-110.000
863.85	-100.000
864.15	27.778
864.44	-200.000
864.74	-57.143
865.03	-81.250
865.33	-180.000
865.62	-22.581
865.92	-4.545
866.21	13.043
866.51	57.143
866.80	-160.000
867.10	-91.667
867.39	-108.333
867.69	800.000
867.98	-228.571
868.27	-47.059
868.57	-2100.000
868.86	-110.000
869.16	-19.048
869.45	4.167
869.75	-100.000
870.04	-71.429
870.33	-16.667
870.63	-328.571
870.92	125.000
871.22	-150.000
871.51	-27.273
871.80	-400.000
872.10	-250.000
>>>>>End Processed Spectral Data<<<<<
