SpectraSuite Data File
++++++++++++++++++++++++++++++++++++
Date: Thu May 14 16:18:38 PDT 2015
User: schluterlab
Dark Spectrum Present: Yes
Reference Spectrum Present: Yes
Number of Sampled Component Spectra: 1
Spectrometers: USB2E3373
Integration Time (usec): 3000 (USB2E3373)
Spectra Averaged: 3 (USB2E3373)
Boxcar Smoothing: 0 (USB2E3373)
Correct for Electrical Dark: No (USB2E3373)
Strobe/Lamp Enabled: No (USB2E3373)
Correct for Detector Non-linearity: No (USB2E3373)
Correct for Stray Light: No (USB2E3373)
Number of Pixels in Processed Spectrum: 2048
>>>>>Begin Processed Spectral Data<<<<<
178.53	0.000
178.91	42.857
179.29	-1300.000
179.67	-500.000
180.04	157.143
180.42	120.000
180.80	200.000
181.18	-600.000
181.56	-200.000
181.94	-25.000
182.31	0.000
182.69	33.333
183.07	-250.000
183.45	125.000
183.83	-116.667
184.20	0.000
184.58	900.000
184.96	-200.000
185.34	-33.333
185.72	-40.000
186.09	77.778
186.47	350.000
186.85	220.000
187.23	-122.222
187.61	-1500.000
187.98	240.000
188.36	100.000
188.74	-75.000
189.12	200.000
189.49	37.500
189.87	12.500
190.25	44.444
190.63	-80.000
191.00	-66.667
191.38	0.000
191.76	0.000
192.14	33.333
192.51	600.000
192.89	50.000
193.27	0.000
193.65	-128.571
194.02	-700.000
194.40	-14.286
194.78	42.857
195.15	0.000
195.53	18.182
195.91	0.000
196.29	-25.000
196.66	-7.692
197.04	-1000.000
197.42	-14.286
197.79	-150.000
198.17	-50.000
198.55	-114.286
198.92	-22.222
199.30	-112.500
199.68	81.818
200.05	92.857
200.43	-350.000
200.81	271.429
201.18	0.000
201.56	166.667
201.94	0.000
202.31	133.333
202.69	-55.556
203.07	-200.000
203.44	-22.222
203.82	-200.000
204.19	-16.667
204.57	-216.667
204.95	-50.000
205.32	-100.000
205.70	50.000
206.08	0.000
206.45	116.667
206.83	40.000
207.20	33.333
207.58	-100.000
207.96	-166.667
208.33	16.667
208.71	16.667
209.08	133.333
209.46	0.000
209.84	366.667
210.21	200.000
210.59	350.000
210.96	233.333
211.34	125.000
211.71	-12.500
212.09	-1100.000
212.46	0.000
212.84	600.000
213.22	-140.000
213.59	-25.000
213.97	100.000
214.34	-166.667
214.72	33.333
215.09	-50.000
215.47	0.000
215.84	57.143
216.22	750.000
216.59	-20.000
216.97	20.000
217.34	-150.000
217.72	-12.500
218.09	-300.000
218.47	-75.000
218.84	0.000
219.22	100.000
219.59	-11.765
219.97	-5.000
220.34	250.000
220.72	-55.556
221.09	76.923
221.47	133.333
221.84	-70.000
222.22	-57.143
222.59	0.000
222.97	-37.500
223.34	-220.000
223.72	-100.000
224.09	-75.000
224.46	-100.000
224.84	80.000
225.21	28.571
225.59	-275.000
225.96	-150.000
226.34	0.000
226.71	150.000
227.08	-200.000
227.46	-26.667
227.83	-150.000
228.21	68.421
228.58	162.500
228.95	450.000
229.33	100.000
229.70	0.000
230.08	47.368
230.45	60.000
230.82	-100.000
231.20	-35.714
231.57	41.667
231.95	45.455
232.32	54.545
232.69	-15.000
233.07	100.000
233.44	11.765
233.81	-160.000
234.19	33.333
234.56	40.909
234.93	75.862
235.31	36.842
235.68	72.222
236.05	-25.000
236.43	42.308
236.80	60.000
237.17	7.407
237.55	45.455
237.92	-30.000
238.29	22.581
238.67	0.000
239.04	27.778
239.41	16.667
239.79	15.217
240.16	14.815
240.53	10.870
240.91	23.529
241.28	18.033
241.65	17.910
242.02	29.730
242.40	30.769
242.77	22.667
243.14	23.171
243.51	9.211
243.89	7.692
244.26	26.733
244.63	26.471
245.00	22.430
245.38	26.316
245.75	14.159
246.12	26.984
246.49	33.333
246.87	20.000
247.24	24.503
247.61	28.947
247.98	26.846
248.36	29.630
248.73	28.221
249.10	25.137
249.47	32.836
249.84	28.272
250.22	26.943
250.59	27.222
250.96	30.000
251.33	19.388
251.70	31.197
252.08	28.333
252.45	27.869
252.82	28.512
253.19	26.562
253.56	24.715
253.94	26.923
254.31	31.061
254.68	30.420
255.05	28.990
255.42	26.190
255.79	25.890
256.16	29.139
256.54	25.828
256.91	28.852
257.28	27.869
257.65	24.522
258.02	24.484
258.39	27.066
258.76	29.969
259.14	32.759
259.51	26.513
259.88	26.346
260.25	24.167
260.62	28.219
260.99	30.328
261.36	28.150
261.73	29.708
262.10	26.099
262.47	25.469
262.85	29.040
263.22	25.455
263.59	24.211
263.96	30.179
264.33	27.621
264.70	29.877
265.07	27.685
265.44	31.066
265.81	27.315
266.18	30.612
266.55	26.786
266.92	27.107
267.29	26.477
267.66	27.938
268.03	28.384
268.40	26.931
268.77	26.879
269.14	25.771
269.51	28.509
269.88	29.918
270.25	26.962
270.62	29.958
270.99	30.303
271.36	27.921
271.73	26.916
272.10	29.058
272.47	25.251
272.84	27.108
273.21	27.655
273.58	26.613
273.95	25.769
274.32	26.046
274.69	26.692
275.06	28.388
275.43	26.063
275.80	25.573
276.17	27.963
276.54	24.627
276.91	26.655
277.28	27.486
277.65	26.750
278.02	26.103
278.39	25.543
278.76	27.065
279.13	27.305
279.50	27.835
279.87	25.403
280.23	24.648
280.60	26.949
280.97	25.658
281.34	25.637
281.71	28.088
282.08	27.076
282.45	24.550
282.82	25.118
283.19	24.233
283.56	24.590
283.92	26.426
284.29	27.646
284.66	28.243
285.03	23.077
285.40	26.121
285.77	25.851
286.14	25.802
286.51	24.810
286.87	24.487
287.24	25.753
287.61	24.813
287.98	25.227
288.35	24.704
288.72	24.852
289.08	25.622
289.45	21.154
289.82	22.139
290.19	23.994
290.56	23.662
290.93	25.392
291.29	23.691
291.66	23.003
292.03	21.710
292.40	24.626
292.77	23.585
293.13	22.869
293.50	24.179
293.87	23.087
294.24	23.733
294.60	21.113
294.97	21.745
295.34	22.535
295.71	21.185
296.08	21.705
296.44	20.956
296.81	22.046
297.18	22.416
297.55	20.165
297.91	22.183
298.28	19.787
298.65	21.879
299.02	20.189
299.38	20.938
299.75	20.678
300.12	20.370
300.48	22.350
300.85	21.147
301.22	20.134
301.59	21.119
301.95	20.113
302.32	21.222
302.69	19.934
303.05	21.654
303.42	19.845
303.79	20.729
304.15	19.558
304.52	20.613
304.89	19.791
305.25	20.186
305.62	20.899
305.99	20.412
306.35	20.665
306.72	20.372
307.09	20.305
307.45	21.014
307.82	21.695
308.19	17.962
308.55	21.119
308.92	19.961
309.29	19.828
309.65	20.858
310.02	19.802
310.38	20.768
310.75	21.068
311.12	20.709
311.48	19.941
311.85	21.462
312.22	21.252
312.58	20.751
312.95	19.120
313.31	20.777
313.68	20.604
314.05	21.138
314.41	20.856
314.78	21.344
315.14	22.595
315.51	22.161
315.87	21.782
316.24	21.735
316.61	23.268
316.97	21.538
317.34	21.429
317.70	22.358
318.07	23.192
318.43	22.279
318.80	22.826
319.16	22.060
319.53	21.337
319.89	22.349
320.26	23.221
320.62	21.897
320.99	21.884
321.35	22.274
321.72	23.907
322.08	22.272
322.45	24.029
322.81	23.195
323.18	24.425
323.54	24.655
323.91	24.555
324.27	24.269
324.64	25.693
325.00	24.710
325.37	25.553
325.73	26.942
326.10	25.547
326.46	26.547
326.83	26.501
327.19	25.591
327.56	26.403
327.92	27.301
328.29	26.452
328.65	26.131
329.01	27.073
329.38	27.464
329.74	27.997
330.11	27.312
330.47	27.464
330.84	27.993
331.20	27.750
331.56	28.336
331.93	28.117
332.29	27.966
332.66	29.070
333.02	27.889
333.38	26.762
333.75	28.283
334.11	27.940
334.48	28.383
334.84	29.312
335.20	27.708
335.57	29.258
335.93	28.512
336.29	27.621
336.66	28.764
337.02	28.930
337.38	29.082
337.75	28.760
338.11	28.680
338.47	28.122
338.84	28.088
339.20	27.970
339.56	27.924
339.93	29.064
340.29	28.422
340.65	27.737
341.02	28.492
341.38	28.941
341.74	28.168
342.11	28.721
342.47	27.164
342.83	29.308
343.20	28.945
343.56	29.030
343.92	28.263
344.28	28.047
344.65	28.682
345.01	27.067
345.37	28.694
345.73	26.890
346.10	27.691
346.46	28.085
346.82	28.989
347.19	27.578
347.55	28.452
347.91	26.969
348.27	28.528
348.63	29.703
349.00	27.666
349.36	28.773
349.72	28.497
350.08	28.900
350.45	29.049
350.81	27.979
351.17	27.368
351.53	29.568
351.89	28.094
352.26	27.463
352.62	27.910
352.98	28.550
353.34	27.931
353.70	29.430
354.07	28.838
354.43	28.474
354.79	28.197
355.15	27.962
355.51	28.363
355.87	28.796
356.24	29.430
356.60	27.642
356.96	28.243
357.32	27.584
357.68	28.404
358.04	28.144
358.40	28.881
358.77	27.851
359.13	29.173
359.49	28.104
359.85	28.571
360.21	28.407
360.57	27.351
360.93	27.362
361.29	27.719
361.66	28.892
362.02	30.132
362.38	29.304
362.74	28.282
363.10	28.611
363.46	28.463
363.82	28.835
364.18	28.149
364.54	29.461
364.90	29.365
365.26	29.586
365.62	29.267
365.98	29.408
366.35	28.859
366.71	29.524
367.07	29.229
367.43	29.481
367.79	29.463
368.15	30.435
368.51	30.041
368.87	28.478
369.23	29.400
369.59	29.440
369.95	30.020
370.31	30.452
370.67	28.542
371.03	30.125
371.39	28.878
371.75	29.092
372.11	29.268
372.47	28.436
372.83	30.694
373.19	29.286
373.55	28.659
373.91	29.857
374.27	29.625
374.63	30.041
374.99	30.040
375.35	29.545
375.71	30.129
376.07	28.986
376.42	29.345
376.78	30.205
377.14	30.505
377.50	30.740
377.86	31.219
378.22	30.599
378.58	32.105
378.94	30.458
379.30	29.936
379.66	30.747
380.02	30.929
380.38	30.645
380.74	31.211
381.09	31.417
381.45	31.023
381.81	31.616
382.17	31.829
382.53	31.053
382.89	31.038
383.25	32.122
383.61	30.903
383.97	31.154
384.32	31.818
384.68	30.278
385.04	31.926
385.40	32.174
385.76	32.181
386.12	31.598
386.48	31.294
386.83	33.135
387.19	31.924
387.55	32.981
387.91	32.934
388.27	32.679
388.62	31.329
388.98	31.303
389.34	32.587
389.70	32.191
390.06	31.912
390.42	32.530
390.77	33.233
391.13	32.453
391.49	32.428
391.85	32.727
392.20	32.206
392.56	32.900
392.92	33.043
393.28	33.002
393.64	32.737
393.99	33.353
394.35	33.470
394.71	34.012
395.07	32.455
395.42	33.124
395.78	34.308
396.14	34.106
396.50	33.195
396.85	32.797
397.21	32.544
397.57	34.276
397.92	34.192
398.28	32.428
398.64	33.009
399.00	33.141
399.35	33.037
399.71	33.859
400.07	33.577
400.42	33.003
400.78	34.086
401.14	33.580
401.49	33.599
401.85	34.186
402.21	33.720
402.57	34.624
402.92	33.511
403.28	34.543
403.63	34.069
403.99	34.145
404.35	34.110
404.70	34.504
405.06	33.424
405.42	34.426
405.77	34.896
406.13	34.738
406.49	34.741
406.84	35.235
407.20	35.103
407.55	35.009
407.91	34.695
408.27	34.040
408.62	35.486
408.98	35.868
409.34	33.372
409.69	35.105
410.05	35.111
410.40	36.369
410.76	35.222
411.11	36.002
411.47	35.749
411.83	36.567
412.18	36.627
412.54	35.151
412.89	35.623
413.25	35.666
413.60	35.095
413.96	36.014
414.31	35.581
414.67	36.076
415.03	36.369
415.38	37.074
415.74	35.980
416.09	36.767
416.45	36.694
416.80	34.455
417.16	37.420
417.51	36.550
417.87	37.278
418.22	37.126
418.58	36.679
418.93	37.253
419.29	37.608
419.64	36.315
420.00	36.736
420.35	36.889
420.71	37.163
421.06	36.515
421.42	36.697
421.77	36.672
422.12	36.786
422.48	37.225
422.83	38.171
423.19	37.613
423.54	37.500
423.90	36.886
424.25	38.133
424.61	36.625
424.96	38.770
425.31	38.482
425.67	37.466
426.02	38.406
426.38	37.543
426.73	37.612
427.09	38.639
427.44	37.957
427.79	37.645
428.15	38.413
428.50	38.539
428.85	36.682
429.21	38.670
429.56	38.253
429.92	38.673
430.27	38.072
430.62	38.495
430.98	38.515
431.33	37.977
431.68	38.602
432.04	38.751
432.39	38.939
432.74	38.699
433.10	39.535
433.45	39.409
433.80	38.948
434.16	38.326
434.51	39.620
434.86	40.934
435.22	39.851
435.57	40.153
435.92	40.456
436.28	39.761
436.63	40.197
436.98	39.077
437.34	40.135
437.69	39.681
438.04	40.349
438.39	39.920
438.75	40.620
439.10	40.381
439.45	40.246
439.81	40.452
440.16	39.732
440.51	40.914
440.86	40.133
441.22	41.104
441.57	39.832
441.92	39.719
442.27	40.505
442.63	40.735
442.98	40.662
443.33	41.399
443.68	41.675
444.03	42.380
444.39	41.193
444.74	41.756
445.09	40.243
445.44	41.834
445.79	41.523
446.15	40.185
446.50	40.724
446.85	41.391
447.20	41.683
447.55	41.370
447.91	40.995
448.26	41.173
448.61	41.286
448.96	42.811
449.31	41.251
449.66	41.122
450.02	40.928
450.37	41.289
450.72	42.357
451.07	41.173
451.42	41.537
451.77	41.356
452.12	42.269
452.47	42.424
452.83	42.624
453.18	41.389
453.53	42.562
453.88	41.966
454.23	42.881
454.58	42.368
454.93	42.233
455.28	43.227
455.63	41.671
455.98	42.793
456.34	41.461
456.69	41.446
457.04	43.499
457.39	41.851
457.74	43.680
458.09	42.724
458.44	42.295
458.79	42.135
459.14	42.318
459.49	42.954
459.84	43.022
460.19	41.755
460.54	43.044
460.89	43.092
461.24	42.414
461.59	42.612
461.94	41.985
462.29	43.953
462.64	41.762
462.99	42.812
463.34	43.738
463.69	41.676
464.04	43.524
464.39	42.377
464.74	43.729
465.09	43.714
465.44	44.152
465.79	42.834
466.14	42.418
466.49	42.474
466.84	43.251
467.19	42.081
467.54	42.479
467.89	42.931
468.24	42.936
468.59	43.196
468.94	43.881
469.29	44.451
469.64	43.802
469.99	46.144
470.34	43.812
470.68	45.249
471.03	45.907
471.38	44.016
471.73	44.603
472.08	44.226
472.43	44.792
472.78	45.025
473.13	45.575
473.48	45.257
473.83	45.502
474.17	45.311
474.52	45.701
474.87	44.795
475.22	45.014
475.57	44.237
475.92	45.694
476.27	44.995
476.61	45.587
476.96	44.265
477.31	45.792
477.66	46.852
478.01	45.247
478.36	44.516
478.70	45.911
479.05	45.041
479.40	46.644
479.75	45.725
480.10	45.618
480.45	45.214
480.79	45.760
481.14	46.278
481.49	44.980
481.84	46.040
482.19	46.581
482.53	46.699
482.88	46.167
483.23	47.666
483.58	46.638
483.92	45.612
484.27	45.766
484.62	45.668
484.97	45.607
485.31	45.019
485.66	42.506
486.01	41.902
486.36	42.308
486.70	44.364
487.05	45.662
487.40	45.972
487.75	45.623
488.09	46.633
488.44	45.654
488.79	45.936
489.13	47.104
489.48	46.058
489.83	45.795
490.17	45.525
490.52	46.839
490.87	46.531
491.22	46.924
491.56	46.758
491.91	46.184
492.26	47.252
492.60	47.661
492.95	47.652
493.30	46.706
493.64	47.350
493.99	46.711
494.34	46.864
494.68	47.024
495.03	47.577
495.37	46.960
495.72	47.029
496.07	47.590
496.41	47.662
496.76	46.622
497.11	48.238
497.45	47.907
497.80	48.423
498.14	48.118
498.49	48.024
498.84	48.446
499.18	47.143
499.53	49.013
499.87	48.308
500.22	47.507
500.56	48.133
500.91	48.787
501.26	49.409
501.60	48.166
501.95	47.807
502.29	50.022
502.64	49.410
502.98	48.102
503.33	48.207
503.67	48.932
504.02	48.074
504.36	50.045
504.71	49.518
505.06	50.068
505.40	48.903
505.75	50.273
506.09	50.875
506.44	50.000
506.78	50.963
507.13	50.023
507.47	51.397
507.82	49.905
508.16	50.526
508.51	50.023
508.85	50.874
509.19	51.492
509.54	52.402
509.88	51.481
510.23	52.307
510.57	53.359
510.92	52.298
511.26	52.862
511.61	51.811
511.95	51.684
512.30	53.323
512.64	53.323
512.98	53.177
513.33	53.377
513.67	53.748
514.02	54.522
514.36	55.550
514.70	53.958
515.05	54.223
515.39	53.491
515.74	55.249
516.08	54.094
516.42	55.625
516.77	54.890
517.11	54.255
517.46	55.726
517.80	56.654
518.14	57.726
518.49	55.315
518.83	55.881
519.17	55.358
519.52	56.866
519.86	56.811
520.20	56.869
520.55	58.105
520.89	57.432
521.23	57.677
521.58	57.062
521.92	58.300
522.26	58.190
522.61	58.449
522.95	58.593
523.29	59.253
523.64	58.408
523.98	60.068
524.32	60.516
524.66	59.419
525.01	58.267
525.35	59.908
525.69	59.861
526.04	58.152
526.38	59.828
526.72	58.593
527.06	60.117
527.41	59.359
527.75	60.154
528.09	61.629
528.43	60.568
528.78	60.405
529.12	59.862
529.46	59.247
529.80	60.984
530.15	61.565
530.49	60.202
530.83	60.213
531.17	60.514
531.51	61.252
531.86	61.899
532.20	63.110
532.54	59.904
532.88	60.909
533.22	60.283
533.57	60.473
533.91	60.157
534.25	60.034
534.59	61.782
534.93	61.630
535.27	60.789
535.62	61.910
535.96	61.999
536.30	60.870
536.64	63.243
536.98	62.485
537.32	61.914
537.66	62.196
538.01	60.665
538.35	62.241
538.69	61.779
539.03	62.293
539.37	61.307
539.71	61.742
540.05	63.189
540.39	60.758
540.73	59.927
541.07	60.883
541.42	62.256
541.76	59.964
542.10	62.244
542.44	62.241
542.78	62.470
543.12	61.263
543.46	60.501
543.80	60.851
544.14	62.418
544.48	61.939
544.82	61.819
545.16	61.896
545.50	60.815
545.84	62.217
546.18	63.704
546.52	61.975
546.86	62.201
547.20	61.641
547.54	61.610
547.88	61.302
548.22	61.579
548.56	60.620
548.90	62.507
549.24	62.675
549.58	63.344
549.92	61.862
550.26	63.495
550.60	63.561
550.94	61.966
551.28	62.112
551.62	63.140
551.96	61.618
552.30	62.843
552.64	62.041
552.98	63.069
553.32	63.280
553.66	62.701
554.00	62.863
554.34	62.548
554.68	61.588
555.02	62.484
555.36	64.629
555.69	62.780
556.03	62.043
556.37	62.954
556.71	62.524
557.05	62.364
557.39	64.433
557.73	62.087
558.07	62.980
558.41	62.857
558.75	64.030
559.08	64.579
559.42	63.992
559.76	62.551
560.10	62.090
560.44	62.401
560.78	63.000
561.12	61.145
561.45	63.260
561.79	62.454
562.13	61.306
562.47	61.406
562.81	62.785
563.15	62.500
563.48	61.778
563.82	62.636
564.16	62.326
564.50	62.098
564.84	61.357
565.17	62.000
565.51	60.414
565.85	61.580
566.19	60.829
566.52	60.913
566.86	61.121
567.20	59.815
567.54	60.117
567.88	59.276
568.21	60.672
568.55	60.815
568.89	59.464
569.23	58.471
569.56	58.187
569.90	57.448
570.24	57.673
570.57	57.312
570.91	56.522
571.25	55.626
571.59	56.415
571.92	55.970
572.26	55.294
572.60	55.910
572.93	55.886
573.27	55.746
573.61	55.664
573.95	54.819
574.28	54.543
574.62	55.753
574.96	53.727
575.29	54.241
575.63	54.262
575.97	55.329
576.30	53.861
576.64	55.047
576.98	54.624
577.31	55.169
577.65	54.767
577.98	54.198
578.32	53.208
578.66	53.694
578.99	54.639
579.33	56.003
579.67	54.850
580.00	55.091
580.34	54.058
580.67	54.568
581.01	55.041
581.35	54.198
581.68	53.185
582.02	53.388
582.35	53.551
582.69	54.311
583.02	54.438
583.36	55.124
583.70	55.442
584.03	55.892
584.37	54.900
584.70	54.450
585.04	54.313
585.37	53.778
585.71	53.937
586.04	54.425
586.38	54.457
586.72	54.324
587.05	55.334
587.39	55.373
587.72	54.809
588.06	54.836
588.39	54.120
588.73	54.974
589.06	54.994
589.40	56.361
589.73	56.234
590.07	56.300
590.40	56.457
590.73	55.709
591.07	57.334
591.40	56.493
591.74	57.154
592.07	56.679
592.41	57.256
592.74	55.627
593.08	55.191
593.41	54.739
593.75	55.086
594.08	55.407
594.41	55.128
594.75	55.397
595.08	56.023
595.42	54.870
595.75	55.150
596.09	56.489
596.42	57.112
596.75	57.082
597.09	57.374
597.42	56.774
597.75	55.978
598.09	55.754
598.42	57.700
598.76	54.834
599.09	54.290
599.42	53.704
599.76	54.539
600.09	54.288
600.42	55.155
600.76	55.020
601.09	54.298
601.42	54.652
601.76	55.586
602.09	55.147
602.42	55.107
602.76	55.830
603.09	55.800
603.42	55.311
603.76	55.109
604.09	54.755
604.42	55.229
604.76	55.213
605.09	55.126
605.42	56.340
605.75	54.885
606.09	54.871
606.42	53.119
606.75	54.235
607.09	53.879
607.42	54.759
607.75	55.451
608.08	54.420
608.42	54.051
608.75	55.182
609.08	55.390
609.41	55.712
609.75	56.741
610.08	56.069
610.41	54.291
610.74	54.370
611.07	56.439
611.41	56.143
611.74	54.873
612.07	55.353
612.40	56.036
612.73	57.213
613.07	56.088
613.40	56.641
613.73	55.368
614.06	56.477
614.39	55.928
614.72	55.264
615.06	55.630
615.39	55.969
615.72	55.403
616.05	55.415
616.38	57.114
616.71	56.792
617.05	56.763
617.38	56.768
617.71	56.263
618.04	56.503
618.37	57.869
618.70	57.805
619.03	58.124
619.36	58.076
619.69	57.335
620.03	55.681
620.36	56.380
620.69	56.323
621.02	57.283
621.35	60.305
621.68	59.725
622.01	59.573
622.34	58.508
622.67	58.144
623.00	56.748
623.33	58.925
623.66	57.458
623.99	57.209
624.32	58.480
624.65	56.242
624.99	59.168
625.32	57.740
625.65	57.249
625.98	57.017
626.31	59.674
626.64	59.780
626.97	58.365
627.30	58.922
627.63	58.140
627.96	58.183
628.29	59.533
628.62	59.950
628.95	62.401
629.28	59.218
629.61	59.259
629.94	59.079
630.26	59.915
630.59	59.240
630.92	59.134
631.25	60.555
631.58	62.241
631.91	61.200
632.24	62.824
632.57	60.816
632.90	61.284
633.23	61.531
633.56	61.429
633.89	59.504
634.22	62.370
634.55	60.960
634.88	61.688
635.20	62.110
635.53	63.503
635.86	62.405
636.19	61.930
636.52	62.975
636.85	61.185
637.18	61.123
637.51	63.011
637.83	61.683
638.16	62.442
638.49	62.441
638.82	60.541
639.15	60.252
639.48	62.702
639.81	60.393
640.13	62.426
640.46	59.152
640.79	60.294
641.12	62.112
641.45	61.606
641.77	64.570
642.10	62.336
642.43	62.367
642.76	63.144
643.09	63.151
643.41	62.885
643.74	63.448
644.07	63.724
644.40	61.386
644.73	63.716
645.05	65.492
645.38	64.173
645.71	63.930
646.04	65.567
646.36	63.796
646.69	65.337
647.02	62.691
647.35	64.885
647.67	65.862
648.00	66.242
648.33	63.514
648.66	61.769
648.98	60.544
649.31	60.893
649.64	61.753
649.96	60.610
650.29	60.223
650.62	61.528
650.94	62.462
651.27	59.731
651.60	60.380
651.92	62.158
652.25	59.913
652.58	59.010
652.90	59.302
653.23	58.169
653.56	58.203
653.88	60.955
654.21	58.310
654.54	59.827
654.86	61.331
655.19	56.211
655.52	53.951
655.84	45.942
656.17	52.201
656.49	73.313
656.82	80.979
657.15	64.488
657.47	49.996
657.80	37.871
658.13	30.269
658.45	40.281
658.78	49.267
659.10	48.689
659.43	47.995
659.75	48.804
660.08	47.339
660.41	48.801
660.73	54.618
661.06	57.122
661.38	60.287
661.71	62.586
662.03	62.787
662.36	62.433
662.68	64.540
663.01	62.124
663.33	64.272
663.66	63.736
663.98	61.923
664.31	62.101
664.63	61.850
664.96	62.613
665.28	59.347
665.61	63.287
665.93	60.179
666.26	60.932
666.58	58.672
666.91	62.804
667.23	59.810
667.56	63.314
667.88	64.400
668.21	62.109
668.53	58.880
668.86	61.493
669.18	61.100
669.50	58.847
669.83	60.200
670.15	61.024
670.48	60.714
670.80	58.509
671.13	58.223
671.45	63.780
671.77	58.380
672.10	53.833
672.42	56.149
672.75	55.914
673.07	55.224
673.39	54.237
673.72	57.886
674.04	58.276
674.37	58.497
674.69	61.199
675.01	59.238
675.34	60.115
675.66	55.805
675.98	58.582
676.31	61.719
676.63	57.795
676.95	57.854
677.28	60.685
677.60	52.165
677.92	56.622
678.25	56.673
678.57	56.940
678.89	55.973
679.22	54.878
679.54	56.239
679.86	56.102
680.18	54.229
680.51	54.403
680.83	53.519
681.15	54.310
681.48	54.577
681.80	57.513
682.12	57.867
682.44	53.589
682.77	53.014
683.09	57.197
683.41	56.977
683.73	56.167
684.06	54.982
684.38	54.204
684.70	56.373
685.02	54.733
685.34	52.413
685.67	51.893
685.99	51.840
686.31	49.273
686.63	52.765
686.96	52.997
687.28	53.420
687.60	55.387
687.92	51.608
688.24	54.090
688.56	51.379
688.89	53.902
689.21	56.556
689.53	54.314
689.85	53.649
690.17	54.630
690.49	55.378
690.82	52.079
691.14	55.466
691.46	54.493
691.78	53.591
692.10	52.477
692.42	52.500
692.74	50.091
693.06	51.481
693.39	53.890
693.71	53.947
694.03	50.929
694.35	52.381
694.67	55.031
694.99	54.255
695.31	54.967
695.63	54.545
695.95	53.830
696.27	51.868
696.59	55.088
696.91	53.153
697.23	53.187
697.56	50.916
697.88	51.705
698.20	50.847
698.52	49.811
698.84	56.133
699.16	52.449
699.48	48.536
699.80	50.426
700.12	48.690
700.44	53.226
700.76	52.257
701.08	55.448
701.40	52.850
701.72	54.975
702.04	57.754
702.36	50.785
702.68	52.323
703.00	52.812
703.32	51.970
703.64	52.567
703.96	53.699
704.28	50.860
704.60	55.190
704.91	50.255
705.23	54.247
705.55	54.318
705.87	58.788
706.19	56.442
706.51	54.217
706.83	51.297
707.15	50.794
707.47	48.598
707.79	47.598
708.11	46.822
708.43	48.172
708.74	47.321
709.06	49.420
709.38	51.408
709.70	52.854
710.02	50.904
710.34	51.330
710.66	53.631
710.98	51.639
711.29	52.473
711.61	49.153
711.93	52.991
712.25	49.189
712.57	51.917
712.89	51.765
713.20	47.633
713.52	51.734
713.84	48.189
714.16	52.368
714.48	51.546
714.80	52.468
715.11	47.244
715.43	49.337
715.75	49.474
716.07	48.066
716.39	50.273
716.70	53.012
717.02	56.393
717.34	51.568
717.66	53.020
717.97	48.973
718.29	48.454
718.61	50.658
718.93	49.515
719.24	48.758
719.56	47.239
719.88	47.748
720.20	49.355
720.51	50.621
720.83	45.313
721.15	48.684
721.46	51.712
721.78	49.333
722.10	46.278
722.42	49.329
722.73	41.935
723.05	51.930
723.37	52.778
723.68	48.746
724.00	51.264
724.32	50.704
724.63	48.601
724.95	52.482
725.27	46.341
725.58	49.117
725.90	51.379
726.22	46.395
726.53	46.104
726.85	46.541
727.16	46.828
727.48	46.483
727.80	49.007
728.11	44.170
728.43	50.168
728.74	47.492
729.06	46.689
729.38	45.130
729.69	43.960
730.01	41.071
730.32	44.242
730.64	50.314
730.96	45.963
731.27	46.648
731.59	46.154
731.90	41.818
732.22	44.792
732.53	43.370
732.85	43.143
733.16	43.988
733.48	41.768
733.80	43.175
734.11	45.584
734.43	45.135
734.74	44.557
735.06	43.467
735.37	48.108
735.69	44.054
736.00	48.023
736.32	42.049
736.63	41.111
736.95	44.828
737.26	42.424
737.58	42.424
737.89	44.706
738.21	42.508
738.52	41.639
738.83	45.734
739.15	44.681
739.46	46.939
739.78	43.558
740.09	42.120
740.41	41.983
740.72	43.667
741.04	43.042
741.35	45.263
741.66	42.353
741.98	43.033
742.29	46.444
742.61	47.807
742.92	47.308
743.23	50.542
743.55	45.349
743.86	43.200
744.18	44.215
744.49	41.350
744.80	45.267
745.12	47.257
745.43	45.528
745.74	43.966
746.06	45.763
746.37	44.726
746.68	48.374
747.00	47.500
747.31	50.215
747.62	49.231
747.94	39.676
748.25	44.177
748.56	45.306
748.88	44.872
749.19	49.569
749.50	44.156
749.82	48.594
750.13	47.687
750.44	38.333
750.75	43.077
751.07	41.846
751.38	45.110
751.69	43.770
752.01	41.748
752.32	44.771
752.63	42.857
752.94	43.253
753.26	44.981
753.57	42.963
753.88	45.693
754.19	39.871
754.51	38.907
754.82	43.730
755.13	42.623
755.44	39.249
755.75	42.763
756.07	42.090
756.38	44.025
756.69	40.663
757.00	39.058
757.31	41.803
757.63	37.340
757.94	38.498
758.25	38.600
758.56	36.383
758.87	36.591
759.18	41.600
759.50	39.093
759.81	43.417
760.12	39.892
760.43	38.021
760.74	39.655
761.05	39.000
761.36	39.036
761.67	38.579
761.99	38.919
762.30	41.768
762.61	37.624
762.92	41.045
763.23	42.322
763.54	37.770
763.85	37.801
764.16	38.721
764.47	43.662
764.78	38.339
765.10	37.537
765.41	42.308
765.72	36.508
766.03	40.395
766.34	40.752
766.65	37.979
766.96	39.044
767.27	47.005
767.58	44.279
767.89	45.673
768.20	40.376
768.51	43.056
768.82	40.964
769.13	40.530
769.44	32.692
769.75	36.462
770.06	40.000
770.37	46.457
770.68	39.149
770.99	37.652
771.30	42.222
771.61	35.361
771.92	35.926
772.23	42.915
772.54	36.111
772.85	38.249
773.16	44.286
773.47	37.037
773.78	38.378
774.09	40.341
774.39	40.500
774.70	40.984
775.01	43.902
775.32	38.235
775.63	38.037
775.94	35.669
776.25	37.419
776.56	38.462
776.87	45.578
777.18	35.172
777.48	41.958
777.79	38.514
778.10	30.882
778.41	40.972
778.72	43.448
779.03	38.889
779.34	38.788
779.65	36.788
779.95	36.667
780.26	38.636
780.57	38.065
780.88	45.652
781.19	41.935
781.50	42.353
781.80	43.011
782.11	39.683
782.42	36.869
782.73	37.725
783.04	35.196
783.34	31.515
783.65	28.758
783.96	37.888
784.27	32.143
784.57	36.424
784.88	37.857
785.19	41.732
785.50	38.583
785.81	42.857
786.11	46.923
786.42	30.935
786.73	31.655
787.04	35.338
787.34	40.164
787.65	42.400
787.96	37.313
788.26	41.259
788.57	41.958
788.88	30.263
789.19	37.908
789.49	33.562
789.80	36.170
790.11	37.008
790.41	39.063
790.72	37.288
791.03	30.097
791.33	33.913
791.64	35.965
791.95	36.607
792.25	40.000
792.56	36.607
792.87	34.375
793.17	33.929
793.48	36.458
793.79	21.687
794.09	27.523
794.40	41.284
794.70	30.612
795.01	31.818
795.32	32.877
795.62	36.620
795.93	35.606
796.23	32.787
796.54	34.821
796.85	37.234
797.15	31.522
797.46	26.027
797.76	10.000
798.07	31.522
798.37	36.082
798.68	22.078
798.99	21.839
799.29	31.461
799.60	39.362
799.90	36.145
800.21	23.077
800.51	31.343
800.82	38.235
801.12	10.959
801.43	27.941
801.73	52.542
802.04	28.788
802.34	25.000
802.65	47.458
802.95	38.806
803.26	45.763
803.56	41.096
803.87	42.857
804.17	46.575
804.48	24.561
804.78	25.000
805.09	15.517
805.39	32.432
805.70	21.127
806.00	37.805
806.30	28.916
806.61	21.918
806.91	25.000
807.22	35.556
807.52	24.138
807.83	41.667
808.13	37.349
808.43	24.719
808.74	33.750
809.04	29.412
809.35	32.000
809.65	34.286
809.95	26.027
810.26	29.825
810.56	13.793
810.86	32.353
811.17	29.825
811.47	6.557
811.77	44.444
812.08	35.593
812.38	35.000
812.69	36.207
812.99	33.962
813.29	15.385
813.59	46.000
813.90	45.614
814.20	32.727
814.50	33.803
814.81	42.308
815.11	42.623
815.41	35.821
815.72	44.828
816.02	44.643
816.32	33.333
816.62	34.091
816.93	44.444
817.23	37.037
817.53	12.766
817.84	45.238
818.14	20.588
818.44	30.612
818.74	40.000
819.04	17.949
819.35	31.429
819.65	-7.692
819.95	33.962
820.25	15.556
820.56	21.429
820.86	12.500
821.16	33.333
821.46	9.302
821.76	6.000
822.07	37.500
822.37	36.957
822.67	34.043
822.97	-18.919
823.27	27.500
823.57	32.653
823.88	31.111
824.18	22.500
824.48	43.333
824.78	32.000
825.08	36.364
825.38	40.000
825.69	31.915
825.99	25.000
826.29	-28.571
826.59	43.590
826.89	20.930
827.19	20.000
827.49	11.765
827.79	33.333
828.09	18.919
828.39	40.000
828.70	26.829
829.00	16.279
829.30	7.143
829.60	35.294
829.90	45.652
830.20	28.571
830.50	31.034
830.80	0.000
831.10	11.538
831.40	17.647
831.70	38.095
832.00	25.806
832.30	-76.471
832.60	16.667
832.90	-38.462
833.20	-10.526
833.50	-20.000
833.80	0.000
834.10	4.762
834.40	38.889
834.70	56.250
835.00	22.857
835.30	-8.824
835.60	43.333
835.90	20.000
836.20	-22.727
836.50	44.000
836.80	-18.182
837.10	18.519
837.40	14.815
837.70	-18.750
838.00	25.000
838.30	17.391
838.60	27.586
838.90	35.714
839.19	-43.478
839.49	-58.333
839.79	21.739
840.09	0.000
840.39	20.000
840.69	25.806
840.99	7.143
841.29	20.000
841.59	31.579
841.88	33.333
842.18	11.538
842.48	50.000
842.78	30.000
843.08	16.667
843.38	45.161
843.68	33.333
843.97	32.353
844.27	18.750
844.57	31.579
844.87	-50.000
845.17	0.000
845.47	71.429
845.76	-38.095
846.06	11.111
846.36	-64.706
846.66	-3.846
846.96	-46.667
847.25	-17.647
847.55	43.478
847.85	25.000
848.15	23.529
848.44	9.091
848.74	9.524
849.04	-12.500
849.34	12.500
849.63	43.478
849.93	350.000
850.23	13.333
850.53	46.154
850.82	-27.273
851.12	22.727
851.42	-36.364
851.71	69.231
852.01	0.000
852.31	38.462
852.61	63.158
852.90	66.667
853.20	38.889
853.50	-22.222
853.79	-14.286
854.09	-9.091
854.39	-58.333
854.68	-3.226
854.98	-19.231
855.28	-11.111
855.57	-14.286
855.87	16.000
856.17	0.000
856.46	14.815
856.76	5.556
857.05	-4.348
857.35	12.500
857.65	-30.769
857.94	33.333
858.24	33.333
858.53	56.522
858.83	70.588
859.13	-35.294
859.42	23.529
859.72	50.000
860.01	30.000
860.31	-22.222
860.60	60.000
860.90	-6.667
861.20	0.000
861.49	-15.385
861.79	46.667
862.08	-46.154
862.38	25.000
862.67	82.353
862.97	43.750
863.26	-22.222
863.56	-40.000
863.85	-81.818
864.15	38.889
864.44	0.000
864.74	-7.143
865.03	-12.500
865.33	-10.000
865.62	16.129
865.92	0.000
866.21	26.087
866.51	-14.286
866.80	-240.000
867.10	-91.667
867.39	-83.333
867.69	1300.000
867.98	-14.286
868.27	-47.059
868.57	-1800.000
868.86	-60.000
869.16	-14.286
869.45	12.500
869.75	45.455
870.04	-14.286
870.33	-25.000
870.63	-128.571
870.92	-125.000
871.22	-125.000
871.51	-9.091
871.80	-333.333
872.10	-150.000
>>>>>End Processed Spectral Data<<<<<
