SpectraSuite Data File
++++++++++++++++++++++++++++++++++++
Date: Thu May 14 16:06:34 PDT 2015
User: schluterlab
Dark Spectrum Present: Yes
Reference Spectrum Present: Yes
Number of Sampled Component Spectra: 1
Spectrometers: USB2E3373
Integration Time (usec): 3000 (USB2E3373)
Spectra Averaged: 3 (USB2E3373)
Boxcar Smoothing: 0 (USB2E3373)
Correct for Electrical Dark: No (USB2E3373)
Strobe/Lamp Enabled: No (USB2E3373)
Correct for Detector Non-linearity: No (USB2E3373)
Correct for Stray Light: No (USB2E3373)
Number of Pixels in Processed Spectrum: 2048
>>>>>Begin Processed Spectral Data<<<<<
178.53	0.000
178.91	228.571
179.29	-1900.000
179.67	-2000.000
180.04	257.143
180.42	160.000
180.80	280.000
181.18	-1500.000
181.56	-2000.000
181.94	350.000
182.31	-225.000
182.69	433.333
183.07	-600.000
183.45	250.000
183.83	-133.333
184.20	-400.000
184.58	1400.000
184.96	-225.000
185.34	-144.444
185.72	-280.000
186.09	266.667
186.47	850.000
186.85	600.000
187.23	-277.778
187.61	-1600.000
187.98	240.000
188.36	275.000
188.74	-375.000
189.12	-33.333
189.49	-50.000
189.87	-225.000
190.25	-77.778
190.63	-60.000
191.00	-177.778
191.38	0.000
191.76	-600.000
192.14	-200.000
192.51	700.000
192.89	-183.333
193.27	0.000
193.65	-185.714
194.02	-2000.000
194.40	-200.000
194.78	214.286
195.15	0.000
195.53	-63.636
195.91	0.000
196.29	-325.000
196.66	-107.692
197.04	-1900.000
197.42	-300.000
197.79	-900.000
198.17	-312.500
198.55	-85.714
198.92	-122.222
199.30	-200.000
199.68	-118.182
200.05	-114.286
200.43	-1200.000
200.81	271.429
201.18	0.000
201.56	166.667
201.94	0.000
202.31	533.333
202.69	-244.444
203.07	1400.000
203.44	-111.111
203.82	-575.000
204.19	-150.000
204.57	-316.667
204.95	-312.500
205.32	-1500.000
205.70	350.000
206.08	-200.000
206.45	-216.667
206.83	560.000
207.20	-250.000
207.58	-380.000
207.96	-300.000
208.33	-116.667
208.71	175.000
209.08	-250.000
209.46	0.000
209.84	216.667
210.21	850.000
210.59	600.000
210.96	600.000
211.34	-25.000
211.71	-337.500
212.09	-2400.000
212.46	0.000
212.84	1550.000
213.22	-320.000
213.59	-150.000
213.97	-70.000
214.34	-466.667
214.72	383.333
215.09	-175.000
215.47	0.000
215.84	200.000
216.22	1200.000
216.59	-240.000
216.97	-260.000
217.34	-325.000
217.72	-150.000
218.09	-450.000
218.47	-475.000
218.84	0.000
219.22	280.000
219.59	-64.706
219.97	-55.000
220.34	750.000
220.72	-244.444
221.09	-76.923
221.47	-666.667
221.84	-180.000
222.22	-257.143
222.59	0.000
222.97	-200.000
223.34	-300.000
223.72	-1100.000
224.09	-275.000
224.46	-600.000
224.84	-40.000
225.21	-314.286
225.59	-525.000
225.96	-300.000
226.34	-30.769
226.71	433.333
227.08	-1300.000
227.46	-106.667
227.83	-275.000
228.21	-57.895
228.58	312.500
228.95	1350.000
229.33	-50.000
229.70	-10.000
230.08	47.368
230.45	180.000
230.82	-266.667
231.20	-107.143
231.57	-91.667
231.95	-100.000
232.32	-145.455
232.69	-70.000
233.07	-150.000
233.44	-23.529
233.81	-80.000
234.19	-16.667
234.56	-31.818
234.93	-6.897
235.31	-31.579
235.68	-61.111
236.05	-120.000
236.43	-53.846
236.80	-16.000
237.17	-33.333
237.55	-33.333
237.92	-200.000
238.29	-83.871
238.67	-38.636
239.04	-8.333
239.41	-33.333
239.79	-30.435
240.16	-35.185
240.53	-52.174
240.91	-39.216
241.28	-11.475
241.65	-8.955
242.02	0.000
242.40	-21.538
242.77	-16.000
243.14	-15.854
243.51	-25.000
243.89	-19.231
244.26	-5.941
244.63	-5.882
245.00	-6.542
245.38	-14.035
245.75	-23.009
246.12	-8.730
246.49	-5.426
246.87	-2.857
247.24	-2.649
247.61	-0.658
247.98	-10.738
248.36	-8.642
248.73	-11.043
249.10	-2.732
249.47	1.493
249.84	-0.524
250.22	-7.772
250.59	-8.333
250.96	-0.455
251.33	-11.735
251.70	0.855
252.08	-2.083
252.45	-0.820
252.82	-4.132
253.19	-2.734
253.56	-1.141
253.94	1.538
254.31	-5.303
254.68	0.350
255.05	1.303
255.42	-3.061
255.79	-3.883
256.16	-1.987
256.54	-2.318
256.91	-1.967
257.28	-3.279
257.65	-7.006
258.02	-3.540
258.39	-1.140
258.76	3.976
259.14	1.149
259.51	-0.865
259.88	-2.266
260.25	0.278
260.62	-2.466
260.99	-2.186
261.36	-2.413
261.73	-2.918
262.10	-2.198
262.47	-1.072
262.85	5.556
263.22	-2.597
263.59	-1.316
263.96	-0.767
264.33	-3.069
264.70	0.247
265.07	0.955
265.44	2.041
265.81	-0.926
266.18	-0.907
266.55	1.116
266.92	-4.100
267.29	0.438
267.66	-1.996
268.03	-0.655
268.40	0.626
268.77	-2.961
269.14	-2.203
269.51	0.000
269.88	0.205
270.25	2.817
270.62	-1.477
270.99	0.606
271.36	0.792
271.73	-1.179
272.10	1.202
272.47	0.000
272.84	0.402
273.21	0.401
273.58	0.202
273.95	-0.577
274.32	-0.570
274.69	0.193
275.06	1.832
275.43	-1.848
275.80	1.058
276.17	0.556
276.54	-0.560
276.91	0.537
277.28	0.542
277.65	1.616
278.02	-0.551
278.39	-0.181
278.76	0.176
279.13	-0.177
279.50	-0.344
279.87	0.894
280.23	-1.585
280.60	0.847
280.97	0.987
281.34	-0.849
281.71	1.523
282.08	0.831
282.45	0.818
282.82	0.628
283.19	-0.323
283.56	-1.639
283.92	3.153
284.29	3.633
284.66	0.493
285.03	-2.244
285.40	1.236
285.77	0.310
286.14	2.290
286.51	0.913
286.87	0.000
287.24	0.301
287.61	0.149
287.98	0.453
288.35	1.331
288.72	0.000
289.08	0.586
289.45	-0.148
289.82	0.301
290.19	2.155
290.56	1.127
290.93	0.143
291.29	0.964
291.66	0.138
292.03	0.407
292.40	1.361
292.77	1.078
293.13	0.947
293.50	-1.708
293.87	0.537
294.24	1.600
294.60	1.391
294.97	-0.671
295.34	1.024
295.71	-0.883
296.08	0.388
296.44	1.838
296.81	0.609
297.18	0.747
297.55	0.590
297.91	0.237
298.28	-0.237
298.65	1.308
299.02	-0.945
299.38	1.487
299.75	0.818
300.12	0.231
300.48	1.959
300.85	1.462
301.22	1.790
301.59	-0.114
301.95	1.243
302.32	1.889
302.69	1.314
303.05	1.306
303.42	2.217
303.79	1.562
304.15	1.682
304.52	0.317
304.89	1.152
305.25	1.760
305.62	1.985
305.99	1.237
306.35	1.210
306.72	1.138
307.09	0.914
307.45	1.242
307.82	2.422
308.19	2.119
308.55	2.507
308.92	2.532
309.29	2.586
309.65	1.852
310.02	1.287
310.38	2.461
310.75	2.816
311.12	3.068
311.48	1.271
311.85	2.374
312.22	2.372
312.58	3.662
312.95	2.868
313.31	3.704
313.68	3.938
314.05	4.155
314.41	5.009
314.78	4.541
315.14	3.630
315.51	5.633
315.87	5.041
316.24	5.662
316.61	5.329
316.97	5.701
317.34	6.349
317.70	6.725
318.07	6.790
318.43	8.078
318.80	7.609
319.16	8.412
319.53	7.369
319.89	7.011
320.26	8.897
320.62	8.422
320.99	9.049
321.35	8.688
321.72	10.140
322.08	8.747
322.45	10.298
322.81	11.552
323.18	10.088
323.54	11.034
323.91	11.299
324.27	10.499
324.64	11.419
325.00	11.940
325.37	12.449
325.73	13.636
326.10	12.976
326.46	13.925
326.83	14.091
327.19	14.173
327.56	13.834
327.92	13.611
328.29	14.194
328.65	12.982
329.01	14.890
329.38	14.827
329.74	15.325
330.11	15.411
330.47	15.080
330.84	14.729
331.20	16.500
331.56	15.511
331.93	15.816
332.29	16.186
332.66	15.282
333.02	15.159
333.38	14.849
333.75	14.478
334.11	16.097
334.48	15.512
334.84	16.228
335.20	13.770
335.57	16.358
335.93	16.116
336.29	15.141
336.66	15.139
337.02	14.716
337.38	15.986
337.75	15.537
338.11	15.980
338.47	15.385
338.84	15.313
339.20	15.838
339.56	14.992
339.93	14.614
340.29	14.493
340.65	15.815
341.02	16.042
341.38	15.360
341.74	14.528
342.11	16.814
342.47	14.694
342.83	15.137
343.20	15.699
343.56	15.958
343.92	15.372
344.28	15.156
344.65	15.891
345.01	15.601
345.37	14.619
345.73	14.809
346.10	16.069
346.46	14.478
346.82	16.030
347.19	14.591
347.55	16.009
347.91	15.007
348.27	15.554
348.63	15.004
349.00	14.989
349.36	16.208
349.72	14.955
350.08	15.899
350.45	14.373
350.81	15.083
351.17	15.338
351.53	15.011
351.89	16.705
352.26	15.224
352.62	14.925
352.98	15.420
353.34	13.816
353.70	15.408
354.07	14.978
354.43	14.047
354.79	15.183
355.15	15.011
355.51	16.082
355.87	14.959
356.24	15.285
356.60	14.486
356.96	15.493
357.32	14.201
357.68	15.300
358.04	14.521
358.40	15.448
358.77	14.547
359.13	14.106
359.49	15.465
359.85	15.954
360.21	15.495
360.57	15.147
360.93	14.669
361.29	15.228
361.66	14.482
362.02	15.101
362.38	15.179
362.74	15.433
363.10	15.475
363.46	14.751
363.82	14.844
364.18	15.552
364.54	15.214
364.90	15.518
365.26	14.759
365.62	15.933
365.98	15.453
366.35	15.369
366.71	15.578
367.07	15.020
367.43	15.364
367.79	15.528
368.15	16.254
368.51	15.291
368.87	16.003
369.23	15.267
369.59	15.642
369.95	14.672
370.31	15.327
370.67	15.612
371.03	15.443
371.39	15.447
371.75	15.543
372.11	15.583
372.47	14.692
372.83	16.885
373.19	15.344
373.55	15.379
373.91	16.224
374.27	16.041
374.63	15.832
374.99	15.849
375.35	16.623
375.71	15.419
376.07	16.333
376.42	15.617
376.78	16.097
377.14	16.095
377.50	15.750
377.86	16.687
378.22	16.168
378.58	17.122
378.94	17.136
379.30	15.349
379.66	16.755
380.02	16.445
380.38	16.705
380.74	16.563
381.09	16.376
381.45	16.193
381.81	17.155
382.17	16.865
382.53	15.380
382.89	16.196
383.25	16.354
383.61	15.451
383.97	16.254
384.32	16.806
384.68	16.009
385.04	17.698
385.40	17.207
385.76	17.409
386.12	16.278
386.48	16.529
386.83	16.687
387.19	17.323
387.55	15.023
387.91	16.267
388.27	17.436
388.62	15.865
388.98	16.920
389.34	16.794
389.70	16.386
390.06	16.578
390.42	16.265
390.77	16.978
391.13	16.138
391.49	18.056
391.85	16.364
392.20	17.260
392.56	16.775
392.92	17.176
393.28	16.915
393.64	16.313
393.99	17.664
394.35	16.939
394.71	17.425
395.07	15.928
395.42	16.562
395.78	17.307
396.14	16.518
396.50	16.508
396.85	17.293
397.21	16.213
397.57	17.138
397.92	17.125
398.28	16.839
398.64	16.076
399.00	16.806
399.35	16.387
399.71	15.924
400.07	17.238
400.42	17.346
400.78	17.014
401.14	16.392
401.49	17.681
401.85	16.570
402.21	16.570
402.57	16.960
402.92	17.730
403.28	16.452
403.63	17.005
403.99	16.390
404.35	17.169
404.70	17.337
405.06	16.087
405.42	17.447
405.77	17.121
406.13	16.640
406.49	16.667
406.84	16.898
407.20	16.769
407.55	16.172
407.91	15.462
408.27	15.960
408.62	16.696
408.98	16.947
409.34	15.718
409.69	16.749
410.05	17.057
410.40	17.401
410.76	16.938
411.11	16.715
411.47	16.585
411.83	16.461
412.18	17.229
412.54	16.242
412.89	16.531
413.25	16.930
413.60	17.117
413.96	16.550
414.31	16.487
414.67	16.756
415.03	17.108
415.38	16.330
415.74	16.494
416.09	16.718
416.45	16.468
416.80	17.013
417.16	16.284
417.51	16.812
417.87	16.677
418.22	16.527
418.58	16.109
418.93	17.229
419.29	17.324
419.64	16.387
420.00	16.083
420.35	17.125
420.71	16.370
421.06	16.619
421.42	16.972
421.77	15.509
422.12	16.438
422.48	15.771
422.83	16.703
423.19	16.605
423.54	16.925
423.90	16.068
424.25	16.587
424.61	16.705
424.96	16.255
425.31	16.826
425.67	16.479
426.02	16.491
426.38	16.073
426.73	16.908
427.09	17.416
427.44	16.221
427.79	16.307
428.15	16.381
428.50	16.461
428.85	15.959
429.21	16.383
429.56	16.140
429.92	16.364
430.27	16.048
430.62	17.000
430.98	16.527
431.33	16.276
431.68	15.996
432.04	15.846
432.39	16.658
432.74	16.667
433.10	16.333
433.45	15.608
433.80	16.524
434.16	16.839
434.51	17.112
434.86	15.907
435.22	16.738
435.57	16.804
435.92	17.474
436.28	16.667
436.63	16.221
436.98	16.264
437.34	17.136
437.69	16.676
438.04	16.816
438.39	16.198
438.75	16.713
439.10	17.336
439.45	17.105
439.81	16.723
440.16	17.212
440.51	16.834
440.86	17.009
441.22	17.363
441.57	16.719
441.92	17.701
442.27	17.071
442.63	16.592
442.98	16.969
443.33	16.675
443.68	17.047
444.03	17.027
444.39	17.106
444.74	16.539
445.09	16.320
445.44	17.439
445.79	17.098
446.15	17.266
446.50	16.641
446.85	17.753
447.20	16.344
447.55	16.736
447.91	16.492
448.26	16.596
448.61	16.844
448.96	18.026
449.31	16.437
449.66	16.449
450.02	16.983
450.37	17.581
450.72	16.523
451.07	17.198
451.42	15.656
451.77	16.509
452.12	17.833
452.47	16.696
452.83	17.455
453.18	16.871
453.53	16.887
453.88	16.068
454.23	16.610
454.58	17.586
454.93	16.626
455.28	17.640
455.63	16.941
455.98	18.212
456.34	17.197
456.69	17.343
457.04	16.017
457.39	16.463
457.74	17.785
458.09	16.694
458.44	17.511
458.79	16.503
459.14	16.938
459.49	17.204
459.84	16.212
460.19	16.158
460.54	17.149
460.89	16.993
461.24	16.552
461.59	16.934
461.94	15.859
462.29	16.741
462.64	16.777
462.99	17.200
463.34	17.132
463.69	16.706
464.04	16.787
464.39	15.975
464.74	16.192
465.09	16.090
465.44	16.202
465.79	16.499
466.14	16.884
466.49	16.684
466.84	16.309
467.19	16.474
467.54	15.687
467.89	16.264
468.24	17.008
468.59	15.576
468.94	15.676
469.29	15.537
469.64	16.275
469.99	16.890
470.34	16.089
470.68	16.063
471.03	16.765
471.38	16.220
471.73	15.410
472.08	16.244
472.43	16.857
472.78	17.003
473.13	15.929
473.48	15.891
473.83	17.005
474.17	16.589
474.52	16.296
474.87	15.891
475.22	16.676
475.57	16.459
475.92	16.327
476.27	16.241
476.61	16.251
476.96	15.433
477.31	16.188
477.66	16.632
478.01	16.523
478.36	16.451
478.70	16.502
479.05	15.746
479.40	16.288
479.75	17.003
480.10	16.201
480.45	16.180
480.79	16.054
481.14	16.222
481.49	15.448
481.84	16.406
482.19	16.559
482.53	16.135
482.88	15.906
483.23	15.651
483.58	15.983
483.92	15.204
484.27	16.088
484.62	15.553
484.97	15.552
485.31	15.206
485.66	15.096
486.01	14.940
486.36	15.399
486.70	15.655
487.05	16.145
487.40	15.974
487.75	15.878
488.09	15.526
488.44	15.228
488.79	15.379
489.13	15.496
489.48	15.340
489.83	15.332
490.17	14.621
490.52	15.271
490.87	15.271
491.22	15.468
491.56	15.742
491.91	15.613
492.26	14.972
492.60	15.173
492.95	15.094
493.30	15.285
493.64	15.112
493.99	15.921
494.34	15.331
494.68	14.433
495.03	16.432
495.37	15.224
495.72	15.510
496.07	15.250
496.41	15.315
496.76	15.096
497.11	14.692
497.45	14.933
497.80	15.415
498.14	14.603
498.49	14.706
498.84	15.037
499.18	15.205
499.53	14.798
499.87	15.429
500.22	14.737
500.56	15.160
500.91	15.149
501.26	15.727
501.60	14.892
501.95	15.154
502.29	14.392
502.64	14.954
502.98	15.272
503.33	15.421
503.67	14.174
504.02	14.536
504.36	14.790
504.71	14.791
505.06	14.734
505.40	14.899
505.75	14.891
506.09	14.503
506.44	14.717
506.78	14.725
507.13	15.214
507.47	14.969
507.82	14.773
508.16	14.532
508.51	14.674
508.85	13.982
509.19	14.827
509.54	15.034
509.88	14.473
510.23	15.202
510.57	15.370
510.92	14.804
511.26	14.045
511.61	13.858
511.95	14.544
512.30	14.771
512.64	14.143
512.98	14.957
513.33	14.718
513.67	14.380
514.02	14.614
514.36	14.936
514.70	13.906
515.05	14.129
515.39	14.121
515.74	14.952
516.08	13.840
516.42	14.600
516.77	14.669
517.11	14.286
517.46	14.846
517.80	15.019
518.14	15.180
518.49	14.479
518.83	14.263
519.17	13.732
519.52	14.990
519.86	14.836
520.20	14.430
520.55	14.458
520.89	13.739
521.23	13.959
521.58	14.011
521.92	14.618
522.26	13.860
522.61	14.757
522.95	13.610
523.29	14.425
523.64	13.845
523.98	14.318
524.32	15.702
524.66	14.627
525.01	14.043
525.35	13.900
525.69	13.631
526.04	13.892
526.38	14.023
526.72	14.706
527.06	14.311
527.41	14.111
527.75	14.608
528.09	14.463
528.43	13.440
528.78	13.699
529.12	14.048
529.46	14.165
529.80	14.245
530.15	12.986
530.49	13.227
530.83	14.404
531.17	13.441
531.51	13.538
531.86	14.183
532.20	13.171
532.54	13.764
532.88	13.394
533.22	14.084
533.57	13.503
533.91	14.590
534.25	14.471
534.59	13.621
534.93	13.809
535.27	13.634
535.62	14.213
535.96	13.422
536.30	14.160
536.64	14.595
536.98	13.899
537.32	13.951
537.66	14.286
538.01	12.991
538.35	12.911
538.69	13.221
539.03	13.918
539.37	13.663
539.71	13.333
540.05	13.010
540.39	13.264
540.73	13.175
541.07	13.489
541.42	12.877
541.76	12.930
542.10	12.907
542.44	13.581
542.78	13.260
543.12	13.170
543.46	13.309
543.80	12.410
544.14	12.867
544.48	13.180
544.82	12.507
545.16	13.476
545.50	13.421
545.84	12.186
546.18	14.259
546.52	12.548
546.86	12.642
547.20	13.168
547.54	12.547
547.88	12.658
548.22	12.398
548.56	12.815
548.90	12.716
549.24	13.252
549.58	12.808
549.92	12.564
550.26	13.528
550.60	12.636
550.94	13.260
551.28	13.069
551.62	12.668
551.96	12.427
552.30	12.811
552.64	12.508
552.98	13.412
553.32	12.412
553.66	12.283
554.00	12.106
554.34	12.870
554.68	12.266
555.02	12.352
555.36	12.492
555.69	12.428
556.03	12.232
556.37	13.392
556.71	11.985
557.05	13.163
557.39	11.480
557.73	11.823
558.07	12.252
558.41	13.023
558.75	11.697
559.08	11.969
559.42	12.209
559.76	11.601
560.10	12.726
560.44	11.807
560.78	12.250
561.12	12.562
561.45	12.713
561.79	12.271
562.13	12.200
562.47	11.529
562.81	12.089
563.15	12.374
563.48	12.244
563.82	11.971
564.16	10.963
564.50	12.098
564.84	11.622
565.17	12.000
565.51	11.738
565.85	12.114
566.19	11.463
566.52	11.410
566.86	11.715
567.20	11.963
567.54	11.259
567.88	12.436
568.21	11.660
568.55	12.134
568.89	12.029
569.23	12.041
569.56	11.411
569.90	11.761
570.24	11.130
570.57	11.033
570.91	11.176
571.25	10.992
571.59	11.355
571.92	11.674
572.26	11.408
572.60	11.493
572.93	11.662
573.27	11.295
573.61	10.958
573.95	11.362
574.28	11.212
574.62	11.255
574.96	10.785
575.29	10.861
575.63	10.557
575.97	11.114
576.30	10.831
576.64	10.618
576.98	10.729
577.31	11.148
577.65	11.061
577.98	10.900
578.32	10.792
578.66	10.686
578.99	10.895
579.33	10.983
579.67	10.743
580.00	10.901
580.34	11.017
580.67	10.746
581.01	10.796
581.35	10.734
581.68	10.612
582.02	10.798
582.35	10.885
582.69	10.606
583.02	10.951
583.36	11.029
583.70	10.634
584.03	10.751
584.37	10.689
584.70	10.440
585.04	10.649
585.37	10.650
585.71	11.111
586.04	10.436
586.38	10.562
586.72	10.303
587.05	9.951
587.39	10.870
587.72	10.646
588.06	10.566
588.39	10.630
588.73	10.291
589.06	10.440
589.40	10.787
589.73	10.572
590.07	10.477
590.40	10.311
590.73	10.817
591.07	10.611
591.40	10.381
591.74	10.413
592.07	11.125
592.41	10.292
592.74	10.330
593.08	10.350
593.41	10.965
593.75	10.000
594.08	10.330
594.41	10.673
594.75	10.262
595.08	10.431
595.42	10.292
595.75	10.010
596.09	10.573
596.42	10.283
596.75	11.077
597.09	10.465
597.42	9.774
597.75	9.996
598.09	10.198
598.42	10.334
598.76	10.279
599.09	10.360
599.42	10.091
599.76	9.937
600.09	9.910
600.42	10.410
600.76	10.073
601.09	9.492
601.42	10.264
601.76	10.207
602.09	10.150
602.42	9.924
602.76	9.926
603.09	10.059
603.42	10.152
603.76	10.042
604.09	10.185
604.42	10.128
604.76	9.627
605.09	10.012
605.42	9.769
605.75	10.346
606.09	9.257
606.42	9.814
606.75	9.258
607.09	9.562
607.42	10.250
607.75	9.887
608.08	9.590
608.42	9.674
608.75	10.116
609.08	10.017
609.41	10.057
609.75	9.241
610.08	9.982
610.41	10.025
610.74	9.706
611.07	9.414
611.41	10.045
611.74	10.069
612.07	9.958
612.40	9.078
612.73	9.927
613.07	10.269
613.40	10.346
613.73	9.966
614.06	10.108
614.39	9.475
614.72	9.753
615.06	9.817
615.39	9.860
615.72	9.479
616.05	9.908
616.38	9.839
616.71	9.822
617.05	9.159
617.38	10.487
617.71	9.989
618.04	9.552
618.37	9.781
618.70	9.785
619.03	10.096
619.36	9.433
619.69	9.801
620.03	9.605
620.36	9.693
620.69	9.439
621.02	10.696
621.35	10.305
621.68	10.701
622.01	10.320
622.34	9.275
622.67	9.210
623.00	9.109
623.33	10.153
623.66	9.987
623.99	9.809
624.32	10.071
624.65	9.331
624.99	9.298
625.32	8.883
625.65	9.777
625.98	8.949
626.31	10.489
626.64	9.963
626.97	8.927
627.30	8.276
627.63	9.377
627.96	9.384
628.29	9.728
628.62	9.824
628.95	9.202
629.28	8.496
629.61	9.175
629.94	9.874
630.26	8.729
630.59	9.326
630.92	9.264
631.25	9.839
631.58	9.887
631.91	8.435
632.24	8.742
632.57	9.298
632.90	8.927
633.23	8.980
633.56	10.000
633.89	7.955
634.22	10.187
634.55	9.499
634.88	8.442
635.20	10.657
635.53	10.056
635.86	9.534
636.19	9.650
636.52	9.705
636.85	10.010
637.18	9.252
637.51	8.602
637.83	9.967
638.16	8.180
638.49	8.803
638.82	8.230
639.15	8.247
639.48	9.122
639.81	9.238
640.13	9.658
640.46	6.424
640.79	7.966
641.12	9.565
641.45	8.281
641.77	11.297
642.10	8.268
642.43	10.505
642.76	8.672
643.09	9.178
643.41	8.123
643.74	9.517
644.07	7.310
644.40	8.487
644.73	7.837
645.05	9.251
645.38	10.216
645.71	8.944
646.04	10.617
646.36	7.445
646.69	7.669
647.02	9.327
647.35	8.855
647.67	9.823
648.00	7.803
648.33	9.459
648.66	7.846
648.98	8.571
649.31	8.660
649.64	9.695
649.96	8.886
650.29	7.093
650.62	7.496
650.94	7.658
651.27	6.437
651.60	8.480
651.92	6.231
652.25	9.841
652.58	8.391
652.90	6.541
653.23	9.014
653.56	7.561
653.88	11.236
654.21	7.887
654.54	7.948
654.86	8.499
655.19	7.779
655.52	9.896
655.84	8.281
656.17	9.670
656.49	13.785
656.82	14.974
657.15	11.687
657.47	9.007
657.80	6.607
658.13	5.063
658.45	6.748
658.78	8.009
659.10	8.103
659.43	7.720
659.75	7.175
660.08	7.451
660.41	6.452
660.73	6.842
661.06	7.048
661.38	7.974
661.71	9.138
662.03	7.231
662.36	8.766
662.68	8.443
663.01	9.204
663.33	9.641
663.66	10.440
663.98	8.654
664.31	8.255
664.63	6.166
664.96	9.619
665.28	8.167
665.61	8.392
665.93	7.679
666.26	8.244
666.58	8.118
666.91	8.411
667.23	10.476
667.56	8.284
667.88	7.400
668.21	5.469
668.53	5.598
668.86	6.876
669.18	6.110
669.50	7.555
669.83	5.800
670.15	6.299
670.48	9.127
670.80	8.795
671.13	8.129
671.45	7.480
671.77	8.098
672.10	7.000
672.42	8.091
672.75	6.759
673.07	6.119
673.39	5.701
673.72	8.054
674.04	7.069
674.37	6.619
674.69	9.700
675.01	6.095
675.34	5.153
675.66	6.929
675.98	8.955
676.31	8.203
676.63	8.935
676.95	10.345
677.28	6.250
677.60	7.087
677.92	6.910
678.25	8.044
678.57	8.185
678.89	10.580
679.22	6.620
679.54	7.009
679.86	5.254
680.18	7.794
680.51	6.918
680.83	8.674
681.15	7.241
681.48	5.009
681.80	7.599
682.12	6.294
682.44	6.678
682.77	5.674
683.09	7.008
683.41	7.752
683.73	7.211
684.06	7.011
684.38	6.798
684.70	6.822
685.02	7.229
685.34	6.323
685.67	5.521
685.99	6.748
686.31	5.959
686.63	7.899
686.96	5.836
687.28	8.143
687.60	5.556
687.92	7.074
688.24	9.015
688.56	4.828
688.89	7.441
689.21	6.262
689.53	5.686
689.85	6.312
690.17	7.593
690.49	6.773
690.82	6.733
691.14	4.453
691.46	6.883
691.78	8.656
692.10	6.239
692.42	5.000
692.74	5.263
693.06	3.704
693.39	7.211
693.71	3.759
694.03	8.550
694.35	6.476
694.67	7.598
694.99	5.532
695.31	5.960
695.63	7.143
695.95	6.211
696.27	5.714
696.59	5.088
696.91	6.306
697.23	9.670
697.56	4.888
697.88	6.818
698.20	7.533
698.52	8.902
698.84	6.029
699.16	7.959
699.48	6.695
699.80	4.894
700.12	7.642
700.44	4.839
700.76	7.363
701.08	6.538
701.40	7.513
701.72	5.970
702.04	4.278
702.36	3.141
702.68	4.156
703.00	6.357
703.32	4.187
703.64	4.401
703.96	7.637
704.28	4.914
704.60	7.595
704.91	5.102
705.23	7.945
705.55	4.457
705.87	5.455
706.19	7.975
706.51	1.205
706.83	2.594
707.15	2.116
707.47	4.439
707.79	4.585
708.11	3.178
708.43	5.806
708.74	2.009
709.06	3.944
709.38	8.685
709.70	8.685
710.02	5.943
710.34	5.053
710.66	3.631
710.98	3.825
711.29	0.824
711.61	6.780
711.93	4.274
712.25	4.054
712.57	7.375
712.89	7.059
713.20	5.621
713.52	5.202
713.84	4.178
714.16	6.579
714.48	4.381
714.80	6.753
715.11	5.774
715.43	5.305
715.75	4.474
716.07	5.525
716.39	5.464
716.70	2.410
717.02	4.262
717.34	1.742
717.66	3.356
717.97	4.452
718.29	2.062
718.61	2.303
718.93	2.589
719.24	5.280
719.56	3.988
719.88	3.904
720.20	3.226
720.51	4.037
720.83	4.063
721.15	2.961
721.46	2.740
721.78	2.333
722.10	-0.971
722.42	3.691
722.73	1.613
723.05	9.474
723.37	3.472
723.68	6.452
724.00	3.971
724.32	1.408
724.63	2.797
724.95	6.383
725.27	3.484
725.58	1.060
725.90	4.138
726.22	5.956
726.53	5.195
726.85	7.233
727.16	3.021
727.48	5.199
727.80	1.325
728.11	2.120
728.43	4.714
728.74	1.338
729.06	2.318
729.38	4.870
729.69	4.698
730.01	5.060
730.32	1.212
730.64	4.088
730.96	1.863
731.27	6.704
731.59	5.769
731.90	2.857
732.22	3.646
732.53	3.315
732.85	6.857
733.16	2.933
733.48	-1.220
733.80	2.228
734.11	1.994
734.43	5.135
734.74	8.861
735.06	1.256
735.37	4.054
735.69	4.595
736.00	5.085
736.32	4.043
736.63	5.833
736.95	3.736
737.26	2.727
737.58	2.424
737.89	7.353
738.21	3.058
738.52	2.951
738.83	4.437
739.15	4.965
739.46	3.401
739.78	3.988
740.09	4.585
740.41	9.038
740.72	1.000
741.04	5.825
741.35	4.561
741.66	2.353
741.98	-2.459
742.29	2.510
742.61	6.579
742.92	2.692
743.23	6.137
743.55	4.651
743.86	2.000
744.18	-2.479
744.49	-1.266
744.80	0.412
745.12	1.688
745.43	2.846
745.74	0.000
746.06	-1.271
746.37	0.422
746.68	5.285
747.00	1.250
747.31	-0.429
747.62	5.385
747.94	3.239
748.25	1.205
748.56	-1.633
748.88	-2.137
749.19	4.741
749.50	0.000
749.82	5.221
750.13	2.135
750.44	-0.333
750.75	-0.615
751.07	1.231
751.38	5.363
751.69	5.112
752.01	2.265
752.32	2.614
752.63	1.020
752.94	3.114
753.26	1.487
753.57	-0.370
753.88	1.873
754.19	4.180
754.51	1.608
754.82	5.788
755.13	6.557
755.44	4.437
755.75	4.934
756.07	5.970
756.38	1.258
756.69	5.422
757.00	2.770
757.31	3.279
757.63	1.535
757.94	3.286
758.25	4.966
758.56	3.704
758.87	5.227
759.18	4.267
759.50	4.249
759.81	4.202
760.12	3.504
760.43	2.604
760.74	3.695
761.05	2.500
761.36	1.205
761.67	4.061
761.99	3.514
762.30	1.524
762.61	-0.660
762.92	-1.119
763.23	3.371
763.54	2.518
763.85	2.062
764.16	2.694
764.47	3.873
764.78	2.875
765.10	2.346
765.41	5.641
765.72	-0.265
766.03	3.390
766.34	0.313
766.65	-2.439
766.96	-0.398
767.27	-1.843
767.58	-2.488
767.89	2.885
768.20	0.000
768.51	0.926
768.82	-0.803
769.13	1.894
769.44	-1.538
769.75	1.444
770.06	1.538
770.37	5.512
770.68	-2.553
770.99	-1.215
771.30	4.444
771.61	3.042
771.92	1.111
772.23	2.429
772.54	-4.167
772.85	6.912
773.16	1.905
773.47	-2.116
773.78	-3.243
774.09	-1.136
774.39	2.000
774.70	5.464
775.01	0.610
775.32	-2.941
775.63	-4.908
775.94	-9.554
776.25	-0.645
776.56	7.051
776.87	2.041
777.18	-1.379
777.48	-2.797
777.79	-1.351
778.10	-10.294
778.41	0.000
778.72	-2.759
779.03	-0.617
779.34	-0.606
779.65	2.073
779.95	3.333
780.26	3.977
780.57	-3.226
780.88	-4.348
781.19	-3.871
781.50	5.882
781.80	-3.763
782.11	4.762
782.42	-1.515
782.73	-2.395
783.04	-2.793
783.34	-2.424
783.65	-5.229
783.96	-1.863
784.27	-1.786
784.57	-5.960
784.88	2.143
785.19	-0.787
785.50	-10.236
785.81	0.000
786.11	-1.538
786.42	-2.878
786.73	-0.719
787.04	-3.008
787.34	-8.197
787.65	-12.800
787.96	-2.239
788.26	3.497
788.57	-0.699
788.88	-0.658
789.19	3.922
789.49	-4.110
789.80	-0.709
790.11	-3.937
790.41	-4.687
790.72	-11.864
791.03	-4.854
791.33	-11.304
791.64	-5.263
791.95	1.786
792.25	-4.762
792.56	0.893
792.87	-5.208
793.17	-0.893
793.48	-14.583
793.79	-24.096
794.09	-7.339
794.40	-9.174
794.70	-1.361
795.01	-3.896
795.32	-8.219
795.62	-1.408
795.93	1.515
796.23	1.639
796.54	-8.929
796.85	-9.574
797.15	-11.957
797.46	-26.027
797.76	-16.250
798.07	-5.435
798.37	-15.464
798.68	-25.974
798.99	-21.839
799.29	-4.494
799.60	-1.064
799.90	-9.639
800.21	-26.154
800.51	-10.448
800.82	-13.235
801.12	-13.699
801.43	-25.000
801.73	-44.068
802.04	-27.273
802.34	-20.000
802.65	-8.475
802.95	-16.418
803.26	-18.644
803.56	-19.178
803.87	4.286
804.17	-5.479
804.48	-26.316
804.78	-6.944
805.09	-29.310
805.39	-8.108
805.70	-19.718
806.00	-7.317
806.30	-10.843
806.61	-8.219
806.91	-3.846
807.22	-18.889
807.52	-18.391
807.83	-11.111
808.13	-2.410
808.43	-6.742
808.74	-12.500
809.04	-33.824
809.35	-26.667
809.65	5.714
809.95	-6.849
810.26	-22.807
810.56	-15.517
810.86	-4.412
811.17	-22.807
811.47	-21.311
811.77	-48.889
812.08	-16.949
812.38	-16.667
812.69	-1.724
812.99	-22.642
813.29	-53.846
813.59	-8.000
813.90	-14.035
814.20	-14.545
814.50	0.000
814.81	-6.410
815.11	-9.836
815.41	-13.433
815.72	-15.517
816.02	-25.000
816.32	-4.444
816.62	-18.182
816.93	-46.667
817.23	3.704
817.53	-29.787
817.84	-14.286
818.14	-38.235
818.44	-30.612
818.74	-22.222
819.04	-71.795
819.35	-80.000
819.65	-69.231
819.95	-18.868
820.25	4.444
820.56	-42.857
820.86	-40.625
821.16	-17.949
821.46	-20.930
821.76	-46.000
822.07	-10.714
822.37	-60.870
822.67	-38.298
822.97	-40.541
823.27	-40.000
823.57	-22.449
823.88	-13.333
824.18	-17.500
824.48	-36.667
824.78	-48.000
825.08	-36.364
825.38	-4.444
825.69	-14.894
825.99	-38.889
826.29	-77.143
826.59	-35.897
826.89	-44.186
827.19	-10.000
827.49	-8.824
827.79	-16.667
828.09	-32.432
828.39	-70.000
828.70	-31.707
829.00	-25.581
829.30	-46.429
829.60	-41.176
829.90	-23.913
830.20	-68.571
830.50	-65.517
830.80	-72.222
831.10	-65.385
831.40	-61.765
831.70	-57.143
832.00	-22.581
832.30	-123.529
832.60	-50.000
832.90	-161.538
833.20	-36.842
833.50	-65.000
833.80	-131.579
834.10	-128.571
834.40	-41.667
834.70	-15.625
835.00	-68.571
835.30	-35.294
835.60	-56.667
835.90	-76.000
836.20	-136.364
836.50	-72.000
836.80	-45.455
837.10	-44.444
837.40	-29.630
837.70	-150.000
838.00	-53.571
838.30	-56.522
838.60	-6.897
838.90	-64.286
839.19	-82.609
839.49	-200.000
839.79	-65.217
840.09	-81.250
840.39	-55.000
840.69	-3.226
840.99	-67.857
841.29	-106.667
841.59	-84.211
841.88	-15.385
842.18	0.000
842.48	-130.000
842.78	-30.000
843.08	-13.333
843.38	-9.677
843.68	-105.556
843.97	5.882
844.27	-43.750
844.57	-100.000
844.87	-140.000
845.17	-93.333
845.47	14.286
845.76	-61.905
846.06	-155.556
846.36	-164.706
846.66	-50.000
846.96	-100.000
847.25	-94.118
847.55	-30.435
847.85	-50.000
848.15	-76.471
848.44	-81.818
848.74	-28.571
849.04	-70.833
849.34	-106.250
849.63	-69.565
849.93	700.000
850.23	-100.000
850.53	3.846
850.82	-190.909
851.12	-45.455
851.42	-127.273
851.71	-61.538
852.01	-105.000
852.31	-100.000
852.61	-105.263
852.90	-91.667
853.20	-83.333
853.50	-255.556
853.79	-66.667
854.09	-59.091
854.39	-175.000
854.68	-6.452
854.98	-69.231
855.28	16.667
855.57	-50.000
855.87	-68.000
856.17	-104.545
856.46	-70.370
856.76	-61.111
857.05	-78.261
857.35	-100.000
857.65	-92.308
857.94	-28.571
858.24	0.000
858.53	-30.435
858.83	-52.941
859.13	-52.941
859.42	-64.706
859.72	-114.286
860.01	-85.000
860.31	-244.444
860.60	-80.000
860.90	-33.333
861.20	-55.556
861.49	-176.923
861.79	-40.000
862.08	-61.538
862.38	12.500
862.67	-23.529
862.97	-81.250
863.26	-211.111
863.56	-100.000
863.85	-190.909
864.15	-61.111
864.44	-400.000
864.74	-78.571
865.03	-37.500
865.33	-200.000
865.62	-48.387
865.92	-45.455
866.21	-43.478
866.51	7.143
866.80	-500.000
867.10	-116.667
867.39	-100.000
867.69	2000.000
867.98	-328.571
868.27	-70.588
868.57	-3000.000
868.86	-100.000
869.16	-47.619
869.45	-54.167
869.75	-136.364
870.04	-200.000
870.33	-166.667
870.63	-471.429
870.92	-175.000
871.22	-275.000
871.51	-109.091
871.80	-766.667
872.10	-1200.000
>>>>>End Processed Spectral Data<<<<<
