SpectraSuite Data File
++++++++++++++++++++++++++++++++++++
Date: Thu May 14 16:29:01 PDT 2015
User: schluterlab
Dark Spectrum Present: Yes
Reference Spectrum Present: Yes
Number of Sampled Component Spectra: 1
Spectrometers: USB2E3373
Integration Time (usec): 3000 (USB2E3373)
Spectra Averaged: 3 (USB2E3373)
Boxcar Smoothing: 0 (USB2E3373)
Correct for Electrical Dark: No (USB2E3373)
Strobe/Lamp Enabled: No (USB2E3373)
Correct for Detector Non-linearity: No (USB2E3373)
Correct for Stray Light: No (USB2E3373)
Number of Pixels in Processed Spectrum: 2048
>>>>>Begin Processed Spectral Data<<<<<
178.53	0.000
178.91	-100.000
179.29	-900.000
179.67	-500.000
180.04	71.429
180.42	20.000
180.80	220.000
181.18	300.000
181.56	700.000
181.94	200.000
182.31	0.000
182.69	-66.667
183.07	0.000
183.45	50.000
183.83	116.667
184.20	100.000
184.58	-400.000
184.96	-150.000
185.34	-22.222
185.72	-60.000
186.09	100.000
186.47	550.000
186.85	140.000
187.23	-66.667
187.61	-700.000
187.98	-0.000
188.36	125.000
188.74	-25.000
189.12	-33.333
189.49	68.750
189.87	75.000
190.25	33.333
190.63	60.000
191.00	-100.000
191.38	0.000
191.76	75.000
192.14	-83.333
192.51	-200.000
192.89	66.667
193.27	0.000
193.65	14.286
194.02	-100.000
194.40	214.286
194.78	85.714
195.15	0.000
195.53	54.545
195.91	0.000
196.29	-50.000
196.66	-53.846
197.04	-400.000
197.42	-128.571
197.79	300.000
198.17	-75.000
198.55	0.000
198.92	33.333
199.30	25.000
199.68	118.182
200.05	0.000
200.43	-200.000
200.81	100.000
201.18	0.000
201.56	111.111
201.94	0.000
202.31	533.333
202.69	-44.444
203.07	-300.000
203.44	-44.444
203.82	-175.000
204.19	8.333
204.57	-216.667
204.95	-100.000
205.32	-300.000
205.70	-25.000
206.08	-16.667
206.45	116.667
206.83	140.000
207.20	-100.000
207.58	-60.000
207.96	-233.333
208.33	50.000
208.71	-16.667
209.08	83.333
209.46	0.000
209.84	150.000
210.21	-100.000
210.59	50.000
210.96	333.333
211.34	200.000
211.71	0.000
212.09	-500.000
212.46	0.000
212.84	750.000
213.22	-200.000
213.59	100.000
213.97	40.000
214.34	-133.333
214.72	100.000
215.09	-125.000
215.47	0.000
215.84	71.429
216.22	-350.000
216.59	-40.000
216.97	20.000
217.34	50.000
217.72	-125.000
218.09	0.000
218.47	25.000
218.84	0.000
219.22	-40.000
219.59	11.765
219.97	10.000
220.34	50.000
220.72	22.222
221.09	76.923
221.47	-266.667
221.84	-20.000
222.22	0.000
222.59	0.000
222.97	87.500
223.34	-220.000
223.72	-500.000
224.09	-100.000
224.46	-175.000
224.84	100.000
225.21	-14.286
225.59	-275.000
225.96	-25.000
226.34	3.846
226.71	216.667
227.08	200.000
227.46	66.667
227.83	25.000
228.21	10.526
228.58	150.000
228.95	150.000
229.33	58.333
229.70	0.000
230.08	36.842
230.45	-0.000
230.82	-233.333
231.20	35.714
231.57	0.000
231.95	-18.182
232.32	54.545
232.69	25.000
233.07	25.000
233.44	-29.412
233.81	50.000
234.19	38.889
234.56	13.636
234.93	20.690
235.31	5.263
235.68	16.667
236.05	-75.000
236.43	46.154
236.80	60.000
237.17	25.926
237.55	9.091
237.92	0.000
238.29	-22.581
238.67	-20.455
239.04	8.333
239.41	-4.762
239.79	0.000
240.16	16.667
240.53	-10.870
240.91	-17.647
241.28	-8.197
241.65	10.448
242.02	8.108
242.40	-18.462
242.77	0.000
243.14	0.000
243.51	-15.789
243.89	2.564
244.26	11.881
244.63	6.863
245.00	-1.869
245.38	-0.877
245.75	-7.965
246.12	1.587
246.49	2.326
246.87	4.286
247.24	2.649
247.61	3.289
247.98	4.698
248.36	-0.617
248.73	-4.908
249.10	-6.557
249.47	8.458
249.84	0.524
250.22	-2.073
250.59	0.556
250.96	3.636
251.33	-5.102
251.70	5.556
252.08	4.583
252.45	1.230
252.82	-2.066
253.19	0.000
253.56	0.380
253.94	-1.154
254.31	0.379
254.68	5.594
255.05	3.909
255.42	1.361
255.79	-0.971
256.16	-0.662
256.54	-3.642
256.91	1.639
257.28	-0.656
257.65	0.318
258.02	0.000
258.39	5.128
258.76	3.364
259.14	4.310
259.51	1.441
259.88	0.567
260.25	1.667
260.62	2.740
260.99	4.645
261.36	2.413
261.73	2.122
262.10	-0.275
262.47	2.145
262.85	4.798
263.22	0.779
263.59	-3.947
263.96	3.581
264.33	-1.790
264.70	1.975
265.07	4.296
265.44	4.308
265.81	0.926
266.18	1.361
266.55	2.009
266.92	0.683
267.29	2.626
267.66	0.443
268.03	0.000
268.40	1.461
268.77	0.228
269.14	-2.863
269.51	0.658
269.88	4.098
270.25	1.811
270.62	4.008
270.99	3.838
271.36	2.772
271.73	2.161
272.10	2.405
272.47	1.804
272.84	2.811
273.21	1.804
273.58	1.613
273.95	1.538
274.32	0.570
274.69	-0.580
275.06	0.366
275.43	1.479
275.80	3.704
276.17	0.926
276.54	1.493
276.91	0.716
277.28	2.170
277.65	1.257
278.02	2.757
278.39	1.268
278.76	0.879
279.13	1.950
279.50	2.921
279.87	0.716
280.23	-1.408
280.60	3.390
280.97	0.822
281.34	-1.698
281.71	3.046
282.08	1.661
282.45	-1.309
282.82	0.471
283.19	0.323
283.56	1.311
283.92	3.003
284.29	2.528
284.66	2.299
285.03	0.962
285.40	3.246
285.77	0.929
286.14	2.901
286.51	0.609
286.87	2.212
287.24	1.506
287.61	1.495
287.98	1.057
288.35	2.367
288.72	0.592
289.08	1.611
289.45	-0.296
289.82	0.151
290.19	2.299
290.56	2.254
290.93	1.427
291.29	1.515
291.66	1.102
292.03	0.543
292.40	3.537
292.77	3.369
293.13	0.677
293.50	-1.051
293.87	0.537
294.24	2.533
294.60	2.528
294.97	1.477
295.34	3.073
295.71	0.757
296.08	1.034
296.44	1.838
296.81	1.096
297.18	1.993
297.55	1.887
297.91	1.068
298.28	1.777
298.65	2.854
299.02	1.535
299.38	2.174
299.75	1.402
300.12	1.736
300.48	0.691
300.85	2.362
301.22	3.132
301.59	1.712
301.95	1.582
302.32	2.889
302.69	1.862
303.05	2.394
303.42	3.548
303.79	1.458
304.15	1.262
304.52	1.480
304.89	3.037
305.25	3.002
305.62	1.881
305.99	3.402
306.35	2.722
306.72	3.206
307.09	2.843
307.45	3.106
307.82	3.027
308.19	2.825
308.55	3.664
308.92	3.311
309.29	3.544
309.65	3.411
310.02	3.069
310.38	2.953
310.75	4.078
311.12	5.465
311.48	4.106
311.85	4.653
312.22	3.985
312.58	5.070
312.95	4.780
313.31	6.233
313.68	6.319
314.05	6.865
314.41	7.104
314.78	6.630
315.14	7.713
315.51	7.941
315.87	8.101
316.24	8.311
316.61	9.059
316.97	8.054
317.34	8.995
317.70	10.044
318.07	9.524
318.43	10.629
318.80	11.371
319.16	10.386
319.53	10.797
319.89	10.955
320.26	12.100
320.62	10.904
320.99	12.373
321.35	12.477
321.72	13.953
322.08	12.624
322.45	14.453
322.81	15.343
323.18	16.106
323.54	16.897
323.91	16.014
324.27	16.265
324.64	18.472
325.00	17.081
325.37	19.492
325.73	19.174
326.10	20.519
326.46	20.521
326.83	20.256
327.19	21.024
327.56	22.134
327.92	22.423
328.29	23.226
328.65	21.692
329.01	24.027
329.38	23.589
329.74	24.486
330.11	25.257
330.47	25.021
330.84	25.495
331.20	25.583
331.56	25.823
331.93	25.690
332.29	25.678
332.66	27.658
333.02	26.298
333.38	25.923
333.75	26.431
334.11	26.606
334.48	27.393
334.84	26.593
335.20	27.540
335.57	27.403
335.93	27.521
336.29	26.123
336.66	27.250
337.02	27.759
337.38	28.571
337.75	26.777
338.11	28.175
338.47	28.371
338.84	27.750
339.20	27.717
339.56	27.759
339.93	27.750
340.29	27.617
340.65	27.413
341.02	28.651
341.38	28.456
341.74	28.329
342.11	28.238
342.47	26.926
342.83	28.744
343.20	29.109
343.56	29.431
343.92	27.782
344.28	29.375
344.65	28.605
345.01	27.847
345.37	28.460
345.73	28.371
346.10	27.847
346.46	28.085
346.82	28.464
347.19	29.717
347.55	28.225
347.91	28.678
348.27	28.376
348.63	28.332
349.00	28.113
349.36	28.922
349.72	28.423
350.08	28.529
350.45	28.745
350.81	28.959
351.17	27.820
351.53	28.734
351.89	28.550
352.26	28.731
352.62	29.403
352.98	29.237
353.34	28.529
353.70	28.814
354.07	29.061
354.43	28.398
354.79	29.020
355.15	29.139
355.51	29.094
355.87	29.469
356.24	30.190
356.60	29.047
356.96	29.874
357.32	29.814
357.68	28.038
358.04	29.641
358.40	29.552
358.77	29.971
359.13	28.656
359.49	29.294
359.85	29.587
360.21	28.192
360.57	28.715
360.93	30.113
361.29	30.105
361.66	29.978
362.02	30.411
362.38	29.937
362.74	28.980
363.10	30.330
363.46	29.155
363.82	29.190
364.18	29.909
364.54	30.360
364.90	30.435
365.26	30.966
365.62	31.000
365.98	29.884
366.35	29.597
366.71	29.796
367.07	29.635
367.43	30.138
367.79	30.259
368.15	29.699
368.51	30.447
368.87	30.699
369.23	30.067
369.59	30.123
369.95	29.277
370.31	30.452
370.67	29.298
371.03	30.263
371.39	29.349
371.75	30.674
372.11	30.827
372.47	30.399
372.83	29.712
373.19	30.220
373.55	30.759
373.91	29.380
374.27	29.107
374.63	30.447
374.99	29.708
375.35	30.065
375.71	29.742
376.07	29.955
376.42	29.723
376.78	30.205
377.14	29.881
377.50	29.665
377.86	30.542
378.22	30.539
378.58	30.856
378.94	30.458
379.30	29.643
379.66	30.453
380.02	29.544
380.38	29.666
380.74	30.366
381.09	30.488
381.45	29.545
381.81	31.030
382.17	30.641
382.53	30.409
382.89	29.797
383.25	29.836
383.61	29.803
383.97	29.270
384.32	29.665
384.68	29.292
385.04	30.654
385.40	30.053
385.76	30.188
386.12	29.683
386.48	29.000
386.83	30.095
387.19	29.548
387.55	28.638
387.91	29.224
388.27	29.157
388.62	28.809
388.98	28.878
389.34	28.874
389.70	29.111
390.06	29.366
390.42	28.916
390.77	28.898
391.13	28.052
391.49	28.804
391.85	28.242
392.20	28.173
392.56	28.234
392.92	29.389
393.28	28.690
393.64	28.045
393.99	28.995
394.35	27.570
394.71	28.683
395.07	26.347
395.42	27.127
395.78	27.605
396.14	27.629
396.50	27.910
396.85	27.490
397.21	28.107
397.57	27.326
397.92	28.007
398.28	27.159
398.64	26.316
399.00	26.440
399.35	26.963
399.71	27.065
400.07	27.569
400.42	26.775
400.78	27.025
401.14	26.579
401.49	26.720
401.85	26.570
402.21	26.999
402.57	26.761
402.92	26.891
403.28	25.527
403.63	25.656
403.99	25.950
404.35	25.867
404.70	26.516
405.06	24.837
405.42	26.581
405.77	25.573
406.13	24.797
406.49	25.732
406.84	26.260
407.20	24.930
407.55	24.409
407.91	25.267
408.27	24.441
408.62	24.782
408.98	24.898
409.34	24.340
409.69	24.907
410.05	25.029
410.40	25.986
410.76	23.612
411.11	25.190
411.47	25.676
411.83	25.456
412.18	24.940
412.54	24.481
412.89	25.029
413.25	24.323
413.60	24.354
413.96	25.175
414.31	24.816
414.67	24.568
415.03	23.323
415.38	23.644
415.74	23.396
416.09	24.244
416.45	22.730
416.80	24.541
417.16	24.649
417.51	23.724
417.87	24.034
418.22	22.934
418.58	24.164
418.93	23.690
419.29	23.674
419.64	22.929
420.00	22.908
420.35	24.088
420.71	22.573
421.06	22.197
421.42	22.993
421.77	22.132
422.12	22.992
422.48	22.273
422.83	23.056
423.19	22.971
423.54	23.507
423.90	22.363
424.25	22.667
424.61	21.814
424.96	22.405
425.31	22.771
425.67	21.685
426.02	22.191
426.38	22.560
426.73	21.708
427.09	22.376
427.44	21.628
427.79	21.172
428.15	21.290
428.50	21.966
428.85	21.584
429.21	22.447
429.56	21.372
429.92	21.818
430.27	21.783
430.62	22.130
430.98	21.348
431.33	21.652
431.68	20.259
432.04	20.975
432.39	21.425
432.74	20.605
433.10	21.525
433.45	21.126
433.80	21.352
434.16	21.281
434.51	21.069
434.86	21.227
435.22	21.573
435.57	21.993
435.92	21.369
436.28	21.104
436.63	21.245
436.98	21.095
437.34	20.913
437.69	20.308
438.04	21.629
438.39	21.022
438.75	21.417
439.10	21.247
439.45	20.626
439.81	20.734
440.16	20.751
440.51	20.959
440.86	20.623
441.22	21.329
441.57	21.069
441.92	20.708
442.27	21.010
442.63	21.063
442.98	21.665
443.33	21.725
443.68	21.110
444.03	21.825
444.39	22.053
444.74	20.725
445.09	20.578
445.44	21.391
445.79	21.216
446.15	20.761
446.50	20.724
446.85	21.109
447.20	20.793
447.55	20.921
447.91	21.204
448.26	20.930
448.61	20.882
448.96	20.655
449.31	20.361
449.66	20.752
450.02	20.411
450.37	20.618
450.72	19.914
451.07	20.672
451.42	20.624
451.77	19.789
452.12	20.090
452.47	20.261
452.83	21.002
453.18	19.790
453.53	19.816
453.88	20.375
454.23	20.678
454.58	20.313
454.93	19.114
455.28	19.747
455.63	20.523
455.98	20.112
456.34	19.258
456.69	20.047
457.04	19.917
457.39	19.734
457.74	20.358
458.09	18.396
458.44	20.205
458.79	18.876
459.14	19.245
459.49	20.091
459.84	19.675
460.19	18.989
460.54	19.591
460.89	19.375
461.24	19.540
461.59	20.255
461.94	19.110
462.29	19.541
462.64	19.131
462.99	18.393
463.34	19.922
463.69	18.875
464.04	19.956
464.39	18.890
464.74	19.840
465.09	19.204
465.44	18.991
465.79	19.090
466.14	17.978
466.49	19.158
466.84	19.504
467.19	19.711
467.54	18.860
467.89	18.851
468.24	19.335
468.59	18.761
468.94	18.473
469.29	19.316
469.64	19.072
469.99	18.483
470.34	19.059
470.68	19.959
471.03	18.730
471.38	19.424
471.73	19.051
472.08	19.670
472.43	19.145
472.78	19.899
473.13	18.963
473.48	19.215
473.83	19.733
474.17	19.812
474.52	19.844
474.87	19.103
475.22	19.775
475.57	18.899
475.92	18.915
476.27	19.382
476.61	19.003
476.96	19.082
477.31	19.901
477.66	20.462
478.01	19.776
478.36	19.093
478.70	19.409
479.05	19.172
479.40	19.743
479.75	19.356
480.10	19.469
480.45	19.508
480.79	19.365
481.14	19.485
481.49	19.173
481.84	18.625
482.19	19.441
482.53	20.026
482.88	19.140
483.23	19.431
483.58	18.777
483.92	18.351
484.27	19.009
484.62	17.946
484.97	19.246
485.31	18.057
485.66	17.661
486.01	17.211
486.36	17.281
486.70	18.031
487.05	18.205
487.40	18.667
487.75	18.499
488.09	18.428
488.44	18.403
488.79	18.887
489.13	18.537
489.48	18.524
489.83	18.270
490.17	17.821
490.52	18.760
490.87	18.020
491.22	17.981
491.56	19.070
491.91	18.840
492.26	18.390
492.60	17.665
492.95	18.166
493.30	18.288
493.64	18.528
493.99	18.421
494.34	18.206
494.68	17.473
495.03	18.546
495.37	18.242
495.72	18.277
496.07	18.624
496.41	17.804
496.76	18.307
497.11	17.834
497.45	18.213
497.80	18.214
498.14	18.458
498.49	18.566
498.84	17.550
499.18	17.454
499.53	18.565
499.87	18.813
500.22	17.988
500.56	18.084
500.91	18.078
501.26	19.500
501.60	18.294
501.95	18.715
502.29	18.210
502.64	18.233
502.98	18.939
503.33	18.531
503.67	18.491
504.02	18.564
504.36	19.705
504.71	18.741
505.06	18.690
505.40	19.196
505.75	19.080
506.09	19.705
506.44	19.452
506.78	19.358
507.13	19.917
507.47	19.327
507.82	19.555
508.16	19.073
508.51	18.519
508.85	19.509
509.19	19.612
509.54	19.549
509.88	19.524
510.23	19.961
510.57	20.203
510.92	20.368
511.26	19.769
511.61	18.880
511.95	19.424
512.30	20.138
512.64	19.790
512.98	19.410
513.33	20.766
513.67	20.296
514.02	20.542
514.36	21.995
514.70	20.104
515.05	20.490
515.39	20.630
515.74	21.315
516.08	20.972
516.42	21.612
516.77	20.873
517.11	20.784
517.46	21.686
517.80	21.700
518.14	21.872
518.49	22.072
518.83	21.022
519.17	20.732
519.52	21.384
519.86	20.327
520.20	22.045
520.55	21.249
520.89	21.959
521.23	21.552
521.58	21.525
521.92	21.756
522.26	22.165
522.61	21.470
522.95	22.203
523.29	22.069
523.64	21.469
523.98	22.818
524.32	22.980
524.66	21.571
525.01	21.178
525.35	21.941
525.69	21.868
526.04	22.158
526.38	21.437
526.72	22.491
527.06	22.287
527.41	22.332
527.75	22.862
528.09	22.196
528.43	21.255
528.78	21.214
529.12	20.929
529.46	21.641
529.80	21.911
530.15	21.623
530.49	21.352
530.83	21.192
531.17	21.924
531.51	20.878
531.86	21.394
532.20	21.890
532.54	22.262
532.88	21.939
533.22	21.626
533.57	21.350
533.91	21.380
534.25	21.651
534.59	21.437
534.93	20.996
535.27	20.507
535.62	21.546
535.96	21.441
536.30	21.152
536.64	21.502
536.98	21.956
537.32	20.988
537.66	21.772
538.01	20.665
538.35	21.559
538.69	21.695
539.03	20.846
539.37	21.555
539.71	21.021
540.05	21.283
540.39	20.782
540.73	20.583
541.07	21.398
541.42	20.791
541.76	20.166
542.10	20.265
542.44	20.402
542.78	20.985
543.12	20.620
543.46	21.429
543.80	20.624
544.14	21.065
544.48	21.927
544.82	20.287
545.16	21.109
545.50	20.971
545.84	20.453
546.18	21.111
546.52	20.637
546.86	19.874
547.20	20.483
547.54	20.412
547.88	20.193
548.22	20.175
548.56	19.134
548.90	20.000
549.24	20.304
549.58	19.937
549.92	20.472
550.26	20.971
550.60	20.294
550.94	20.505
551.28	20.330
551.62	20.957
551.96	19.288
552.30	20.841
552.64	20.597
552.98	19.900
553.32	20.000
553.66	19.678
554.00	19.672
554.34	20.785
554.68	20.077
555.02	20.105
555.36	19.921
555.69	19.090
556.03	19.105
556.37	19.837
556.71	19.341
557.05	19.872
557.39	19.376
557.73	19.419
558.07	19.536
558.41	20.133
558.75	19.337
559.08	19.485
559.42	19.342
559.76	19.946
560.10	19.625
560.44	20.053
560.78	20.187
561.12	18.904
561.45	19.161
561.79	19.109
562.13	19.901
562.47	18.866
562.81	19.241
563.15	19.129
563.48	19.391
563.82	19.831
564.16	17.444
564.50	18.892
564.84	18.643
565.17	18.941
565.51	18.700
565.85	19.240
566.19	17.972
566.52	17.905
566.86	18.393
567.20	18.543
567.54	17.844
567.88	17.737
568.21	17.292
568.55	18.129
568.89	18.021
569.23	18.082
569.56	17.233
569.90	17.177
570.24	17.133
570.57	16.902
570.91	16.626
571.25	16.893
571.59	16.866
571.92	17.058
572.26	16.543
572.60	16.216
572.93	17.117
573.27	16.634
573.61	16.702
573.95	16.290
574.28	16.211
574.62	16.303
574.96	15.924
575.29	16.105
575.63	16.193
575.97	16.647
576.30	15.840
576.64	15.820
576.98	16.014
577.31	16.185
577.65	16.137
577.98	15.870
578.32	15.076
578.66	15.680
578.99	15.585
579.33	16.096
579.67	16.138
580.00	15.846
580.34	15.881
580.67	15.711
581.01	15.513
581.35	15.449
581.68	15.741
582.02	15.423
582.35	15.702
582.69	15.600
583.02	15.735
583.36	15.753
583.70	15.701
584.03	15.671
584.37	15.650
584.70	15.672
585.04	15.392
585.37	14.980
585.71	15.534
586.04	15.456
586.38	15.831
586.72	15.242
587.05	15.247
587.39	15.133
587.72	14.928
588.06	15.401
588.39	15.210
588.73	15.529
589.06	15.406
589.40	15.612
589.73	15.778
590.07	15.650
590.40	15.686
590.73	15.765
591.07	16.083
591.40	15.241
591.74	15.660
592.07	15.997
592.41	15.142
592.74	15.513
593.08	14.968
593.41	15.223
593.75	15.316
594.08	15.268
594.41	15.449
594.75	15.377
595.08	15.444
595.42	15.292
595.75	15.467
596.09	15.181
596.42	15.192
596.75	15.708
597.09	15.960
597.42	15.217
597.75	14.896
598.09	15.317
598.42	16.124
598.76	14.788
599.09	14.881
599.42	14.750
599.76	14.493
600.09	14.681
600.42	14.648
600.76	14.795
601.09	14.537
601.42	14.933
601.76	14.655
602.09	14.260
602.42	13.850
602.76	14.391
603.09	14.758
603.42	14.884
603.76	13.531
604.09	15.153
604.42	15.119
604.76	14.574
605.09	15.078
605.42	15.191
605.75	14.577
606.09	13.736
606.42	14.009
606.75	14.093
607.09	14.324
607.42	15.029
607.75	15.006
608.08	14.009
608.42	14.551
608.75	14.635
609.08	14.389
609.41	13.851
609.75	14.420
610.08	14.996
610.41	14.231
610.74	14.370
611.07	14.787
611.41	14.978
611.74	14.827
612.07	15.101
612.40	14.924
612.73	14.377
613.07	14.425
613.40	15.014
613.73	14.877
614.06	14.377
614.39	14.237
614.72	13.925
615.06	13.956
615.39	14.065
615.72	14.123
616.05	14.036
616.38	14.329
616.71	14.316
617.05	14.590
617.38	14.607
617.71	14.579
618.04	14.409
618.37	14.699
618.70	14.876
619.03	14.516
619.36	14.858
619.69	15.054
620.03	14.250
620.36	14.417
620.69	14.065
621.02	13.780
621.35	15.094
621.68	14.244
622.01	15.374
622.34	13.808
622.67	14.433
623.00	12.955
623.33	13.670
623.66	15.045
623.99	12.969
624.32	15.140
624.65	14.479
624.99	14.109
625.32	15.088
625.65	14.363
625.98	13.966
626.31	14.316
626.64	16.044
626.97	14.254
627.30	14.579
627.63	14.029
627.96	15.691
628.29	15.253
628.62	15.029
628.95	14.198
629.28	16.143
629.61	15.404
629.94	14.142
630.26	14.068
630.59	14.249
630.92	14.026
631.25	15.116
631.58	14.972
631.91	14.620
632.24	15.274
632.57	14.421
632.90	14.243
633.23	14.286
633.56	15.102
633.89	14.050
634.22	14.969
634.55	14.301
634.88	12.987
635.20	15.501
635.53	14.237
635.86	15.710
636.19	15.164
636.52	15.401
636.85	15.322
637.18	14.241
637.51	13.656
637.83	15.172
638.16	15.323
638.49	13.028
638.82	13.191
639.15	14.777
639.48	15.820
639.81	15.704
640.13	16.019
640.46	12.606
640.79	12.868
641.12	15.031
641.45	14.304
641.77	15.661
642.10	14.173
642.43	15.559
642.76	15.312
643.09	14.658
643.41	12.885
643.74	14.069
644.07	16.000
644.40	13.437
644.73	14.659
645.05	15.712
645.38	15.971
645.71	13.636
646.04	16.069
646.36	13.869
646.69	14.264
647.02	16.361
647.35	16.336
647.67	14.976
648.00	16.242
648.33	15.766
648.66	14.836
648.98	12.517
649.31	14.614
649.64	15.007
649.96	15.517
650.29	12.656
650.62	13.437
650.94	12.312
651.27	14.072
651.60	15.205
651.92	14.742
652.25	14.327
652.58	15.268
652.90	13.227
653.23	14.648
653.56	14.836
653.88	17.416
654.21	16.056
654.54	14.017
654.86	13.598
655.19	14.178
655.52	12.530
655.84	11.206
656.17	13.165
656.49	18.649
656.82	20.879
657.15	16.296
657.47	12.408
657.80	9.245
658.13	7.345
658.45	9.556
658.78	11.643
659.10	11.077
659.43	11.670
659.75	11.309
660.08	11.653
660.41	12.159
660.73	12.087
661.06	13.069
661.38	13.716
661.71	13.276
662.03	14.286
662.36	15.564
662.68	14.822
663.01	15.752
663.33	14.556
663.66	14.835
663.98	14.423
664.31	14.447
664.63	13.873
664.96	16.334
665.28	12.341
665.61	14.510
665.93	12.500
666.26	12.545
666.58	11.993
666.91	14.953
667.23	15.619
667.56	14.398
667.88	17.000
668.21	12.891
668.53	12.355
668.86	15.128
669.18	13.238
669.50	14.314
669.83	13.400
670.15	14.173
670.48	15.675
670.80	11.663
671.13	15.879
671.45	13.189
671.77	15.254
672.10	13.667
672.42	11.974
672.75	11.521
673.07	12.388
673.39	10.786
673.72	14.765
674.04	15.172
674.37	13.775
674.69	14.991
675.01	12.000
675.34	11.641
675.66	12.921
675.98	13.433
676.31	13.867
676.63	16.350
676.95	14.559
677.28	13.508
677.60	12.598
677.92	14.012
678.25	14.260
678.57	13.167
678.89	15.358
679.22	14.111
679.54	11.966
679.86	11.017
680.18	11.940
680.51	13.365
680.83	12.602
681.15	11.724
681.48	12.263
681.80	12.781
682.12	13.112
682.44	12.187
682.77	10.106
683.09	14.205
683.41	14.535
683.73	12.334
684.06	13.284
684.38	13.059
684.70	12.926
685.02	14.974
685.34	10.815
685.67	13.091
685.99	12.423
686.31	10.610
686.63	11.374
686.96	11.356
687.28	13.355
687.60	10.269
687.92	13.987
688.24	14.357
688.56	12.241
688.89	13.612
689.21	11.937
689.53	10.392
689.85	12.032
690.17	10.926
690.49	12.151
690.82	13.267
691.14	11.741
691.46	12.237
691.78	11.418
692.10	9.358
692.42	11.786
692.74	13.067
693.06	9.259
693.39	14.231
693.71	12.782
694.03	14.312
694.35	11.429
694.67	12.936
694.99	13.191
695.31	11.479
695.63	12.987
695.95	10.145
696.27	9.451
696.59	13.053
696.91	11.486
697.23	14.286
697.56	12.016
697.88	10.985
698.20	12.053
698.52	15.530
698.84	12.890
699.16	14.082
699.48	10.042
699.80	12.340
700.12	13.537
700.44	8.756
700.76	13.539
701.08	14.286
701.40	13.212
701.72	14.179
702.04	16.310
702.36	9.686
702.68	11.736
703.00	14.425
703.32	11.576
703.64	11.002
703.96	13.604
704.28	11.794
704.60	13.924
704.91	11.990
705.23	11.781
705.55	11.421
705.87	14.242
706.19	11.043
706.51	10.542
706.83	8.934
707.15	8.730
707.47	10.280
707.79	10.044
708.11	7.627
708.43	8.817
708.74	10.268
709.06	12.065
709.38	11.972
709.70	14.888
710.02	12.145
710.34	11.702
710.66	8.939
710.98	11.202
711.29	10.440
711.61	14.689
711.93	15.670
712.25	11.622
712.57	13.274
712.89	13.824
713.20	13.018
713.52	15.318
713.84	13.092
714.16	11.842
714.48	11.082
714.80	11.169
715.11	12.598
715.43	12.202
715.75	12.368
716.07	11.326
716.39	13.661
716.70	7.831
717.02	12.787
717.34	10.801
717.66	13.087
717.97	8.904
718.29	12.715
718.61	8.882
718.93	10.356
719.24	10.248
719.56	11.656
719.88	11.411
720.20	11.935
720.51	9.938
720.83	10.625
721.15	9.868
721.46	8.219
721.78	10.000
722.10	9.061
722.42	11.409
722.73	11.613
723.05	15.439
723.37	10.417
723.68	12.545
724.00	12.996
724.32	9.155
724.63	11.888
724.95	14.894
725.27	12.892
725.58	9.187
725.90	12.759
726.22	10.031
726.53	12.338
726.85	12.264
727.16	11.782
727.48	12.538
727.80	9.272
728.11	7.774
728.43	12.458
728.74	13.378
729.06	9.934
729.38	14.610
729.69	8.389
730.01	13.393
730.32	8.182
730.64	11.321
730.96	11.180
731.27	13.966
731.59	9.341
731.90	10.649
732.22	12.500
732.53	10.221
732.85	11.429
733.16	9.384
733.48	5.488
733.80	11.142
734.11	10.826
734.43	12.703
734.74	15.190
735.06	10.050
735.37	11.081
735.69	10.000
736.00	9.322
736.32	9.973
736.63	9.444
736.95	10.345
737.26	11.515
737.58	7.879
737.89	10.882
738.21	8.563
738.52	9.180
738.83	15.358
739.15	13.121
739.46	11.905
739.78	11.656
740.09	8.023
740.41	12.536
740.72	8.667
741.04	11.327
741.35	12.281
741.66	10.980
741.98	9.836
742.29	7.531
742.61	12.719
742.92	12.308
743.23	15.162
743.55	9.690
743.86	9.200
744.18	8.264
744.49	10.549
744.80	13.169
745.12	11.814
745.43	12.602
745.74	9.052
746.06	11.441
746.37	11.814
746.68	16.260
747.00	11.250
747.31	10.300
747.62	11.154
747.94	9.312
748.25	8.434
748.56	8.571
748.88	9.829
749.19	12.931
749.50	7.359
749.82	8.835
750.13	14.947
750.44	7.000
750.75	9.231
751.07	12.308
751.38	8.833
751.69	10.224
752.01	10.032
752.32	7.843
752.63	8.163
752.94	10.035
753.26	8.178
753.57	7.778
753.88	8.989
754.19	15.113
754.51	9.325
754.82	12.219
755.13	13.443
755.44	9.215
755.75	9.868
756.07	12.836
756.38	9.434
756.69	11.747
757.00	7.756
757.31	9.016
757.63	8.696
757.94	11.268
758.25	8.804
758.56	6.318
758.87	11.364
759.18	9.600
759.50	14.731
759.81	9.244
760.12	9.973
760.43	9.115
760.74	11.823
761.05	10.000
761.36	8.193
761.67	7.614
761.99	9.730
762.30	7.622
762.61	10.231
762.92	11.567
763.23	9.738
763.54	10.432
763.85	9.622
764.16	14.815
764.47	5.282
764.78	7.987
765.10	11.730
765.41	10.513
765.72	7.937
766.03	11.017
766.34	6.897
766.65	5.923
766.96	7.968
767.27	8.295
767.58	2.985
767.89	7.692
768.20	8.920
768.51	6.944
768.82	12.851
769.13	5.303
769.44	3.846
769.75	10.108
770.06	10.000
770.37	14.567
770.68	8.085
770.99	7.692
771.30	11.481
771.61	10.646
771.92	6.667
772.23	12.551
772.54	5.093
772.85	12.903
773.16	12.381
773.47	5.820
773.78	3.784
774.09	12.500
774.39	17.000
774.70	9.836
775.01	8.537
775.32	5.882
775.63	6.135
775.94	2.548
776.25	13.548
776.56	11.538
776.87	17.007
777.18	6.207
777.48	11.888
777.79	10.811
778.10	8.088
778.41	13.889
778.72	13.103
779.03	10.494
779.34	8.485
779.65	9.326
779.95	10.000
780.26	7.386
780.57	12.903
780.88	18.116
781.19	13.548
781.50	15.294
781.80	10.753
782.11	10.582
782.42	8.081
782.73	2.395
783.04	8.380
783.34	7.879
783.65	9.150
783.96	11.801
784.27	7.738
784.57	7.947
784.88	9.286
785.19	7.874
785.50	10.236
785.81	3.008
786.11	11.538
786.42	10.791
786.73	7.914
787.04	15.789
787.34	3.279
787.65	7.200
787.96	8.209
788.26	16.084
788.57	9.091
788.88	9.868
789.19	13.072
789.49	8.904
789.80	10.638
790.11	11.811
790.41	3.906
790.72	12.712
791.03	0.000
791.33	8.696
791.64	14.912
791.95	0.893
792.25	9.524
792.56	12.500
792.87	3.125
793.17	17.857
793.48	17.708
793.79	-7.229
794.09	5.505
794.40	11.927
794.70	10.884
795.01	8.442
795.32	9.589
795.62	9.155
795.93	5.303
796.23	15.574
796.54	7.143
796.85	3.191
797.15	7.609
797.46	9.589
797.76	-1.250
798.07	5.435
798.37	6.186
798.68	7.792
798.99	11.494
799.29	13.483
799.60	7.447
799.90	9.639
800.21	4.615
800.51	-7.463
800.82	-8.824
801.12	-5.479
801.43	-7.353
801.73	-3.390
802.04	21.212
802.34	-5.000
802.65	3.390
802.95	1.493
803.26	13.559
803.56	6.849
803.87	14.286
804.17	9.589
804.48	-22.807
804.78	15.278
805.09	-1.724
805.39	8.108
805.70	-11.268
806.00	7.317
806.30	10.843
806.61	0.000
806.91	10.577
807.22	11.111
807.52	-4.598
807.83	16.667
808.13	10.843
808.43	10.112
808.74	2.500
809.04	7.353
809.35	16.000
809.65	10.000
809.95	12.329
810.26	-10.526
810.56	6.897
810.86	22.059
811.17	3.509
811.47	-4.918
811.77	-11.111
812.08	23.729
812.38	0.000
812.69	27.586
812.99	-11.321
813.29	0.000
813.59	-8.000
813.90	12.281
814.20	-5.455
814.50	23.944
814.81	23.077
815.11	13.115
815.41	13.433
815.72	13.793
816.02	0.000
816.32	31.111
816.62	0.000
816.93	0.000
817.23	22.222
817.53	8.511
817.84	19.048
818.14	20.588
818.44	12.245
818.74	2.222
819.04	-12.821
819.35	-28.571
819.65	-34.615
819.95	20.755
820.25	22.222
820.56	-19.048
820.86	-3.125
821.16	-17.949
821.46	6.977
821.76	-8.000
822.07	8.929
822.37	26.087
822.67	29.787
822.97	-27.027
823.27	15.000
823.57	26.531
823.88	11.111
824.18	17.500
824.48	-6.667
824.78	-8.000
825.08	27.273
825.38	17.778
825.69	17.021
825.99	13.889
826.29	-54.286
826.59	-10.256
826.89	-2.326
827.19	12.000
827.49	8.824
827.79	16.667
828.09	-24.324
828.39	-13.333
828.70	-4.878
829.00	11.628
829.30	0.000
829.60	-14.706
829.90	8.696
830.20	20.000
830.50	-41.379
830.80	-27.778
831.10	26.923
831.40	26.471
831.70	19.048
832.00	0.000
832.30	-52.941
832.60	-29.167
832.90	-115.385
833.20	10.526
833.50	-30.000
833.80	-15.789
834.10	-19.048
834.40	2.778
834.70	12.500
835.00	-17.143
835.30	17.647
835.60	3.333
835.90	32.000
836.20	-63.636
836.50	-12.000
836.80	-3.030
837.10	14.815
837.40	0.000
837.70	18.750
838.00	21.429
838.30	-4.348
838.60	3.448
838.90	-50.000
839.19	-47.826
839.49	-33.333
839.79	-17.391
840.09	-56.250
840.39	15.000
840.69	35.484
840.99	14.286
841.29	73.333
841.59	10.526
841.88	20.513
842.18	-15.385
842.48	-80.000
842.78	20.000
843.08	20.000
843.38	-6.452
843.68	0.000
843.97	23.529
844.27	37.500
844.57	15.789
844.87	-70.000
845.17	-6.667
845.47	33.333
845.76	0.000
846.06	-77.778
846.36	-70.588
846.66	19.231
846.96	-33.333
847.25	-23.529
847.55	56.522
847.85	10.000
848.15	29.412
848.44	-72.727
848.74	0.000
849.04	4.167
849.34	37.500
849.63	34.783
849.93	750.000
850.23	-20.000
850.53	19.231
850.82	-81.818
851.12	63.636
851.42	-9.091
851.71	46.154
852.01	-65.000
852.31	-53.846
852.61	-21.053
852.90	0.000
853.20	5.556
853.50	-22.222
853.79	-9.524
854.09	-22.727
854.39	-108.333
854.68	19.355
854.98	19.231
855.28	27.778
855.57	-17.857
855.87	-40.000
856.17	-59.091
856.46	14.815
856.76	-16.667
857.05	-4.348
857.35	0.000
857.65	15.385
857.94	42.857
858.24	29.630
858.53	56.522
858.83	29.412
859.13	5.882
859.42	-5.882
859.72	71.429
860.01	0.000
860.31	11.111
860.60	20.000
860.90	40.000
861.20	-5.556
861.49	7.692
861.79	23.333
862.08	30.769
862.38	21.875
862.67	23.529
862.97	-6.250
863.26	-155.556
863.56	-20.000
863.85	36.364
864.15	44.444
864.44	-233.333
864.74	-21.429
865.03	-18.750
865.33	-160.000
865.62	-16.129
865.92	18.182
866.21	30.435
866.51	28.571
866.80	-20.000
867.10	-41.667
867.39	-66.667
867.69	1200.000
867.98	57.143
868.27	82.353
868.57	-1500.000
868.86	0.000
869.16	47.619
869.45	8.333
869.75	36.364
870.04	42.857
870.33	-33.333
870.63	-200.000
870.92	-50.000
871.22	-162.500
871.51	-81.818
871.80	-100.000
872.10	-250.000
>>>>>End Processed Spectral Data<<<<<
