SpectraSuite Data File
++++++++++++++++++++++++++++++++++++
Date: Thu May 14 16:34:15 PDT 2015
User: schluterlab
Dark Spectrum Present: Yes
Reference Spectrum Present: Yes
Number of Sampled Component Spectra: 1
Spectrometers: USB2E3373
Integration Time (usec): 3000 (USB2E3373)
Spectra Averaged: 3 (USB2E3373)
Boxcar Smoothing: 0 (USB2E3373)
Correct for Electrical Dark: No (USB2E3373)
Strobe/Lamp Enabled: No (USB2E3373)
Correct for Detector Non-linearity: No (USB2E3373)
Correct for Stray Light: No (USB2E3373)
Number of Pixels in Processed Spectrum: 2048
>>>>>Begin Processed Spectral Data<<<<<
178.53	0.000
178.91	-0.000
179.29	-1000.000
179.67	200.000
180.04	214.286
180.42	90.000
180.80	80.000
181.18	100.000
181.56	-600.000
181.94	200.000
182.31	-75.000
182.69	300.000
183.07	-100.000
183.45	75.000
183.83	-200.000
184.20	-33.333
184.58	-100.000
184.96	-175.000
185.34	0.000
185.72	120.000
186.09	122.222
186.47	450.000
186.85	400.000
187.23	-88.889
187.61	-900.000
187.98	200.000
188.36	175.000
188.74	-175.000
189.12	-133.333
189.49	50.000
189.87	-100.000
190.25	-22.222
190.63	40.000
191.00	-44.444
191.38	0.000
191.76	-75.000
192.14	100.000
192.51	50.000
192.89	83.333
193.27	0.000
193.65	-171.429
194.02	-900.000
194.40	-14.286
194.78	42.857
195.15	0.000
195.53	36.364
195.91	0.000
196.29	300.000
196.66	-7.692
197.04	-500.000
197.42	42.857
197.79	-450.000
198.17	-87.500
198.55	-71.429
198.92	44.444
199.30	12.500
199.68	18.182
200.05	21.429
200.43	-350.000
200.81	71.429
201.18	0.000
201.56	88.889
201.94	0.000
202.31	466.667
202.69	-155.556
203.07	-100.000
203.44	-77.778
203.82	-250.000
204.19	-16.667
204.57	-116.667
204.95	-75.000
205.32	-200.000
205.70	-100.000
206.08	16.667
206.45	-16.667
206.83	260.000
207.20	-150.000
207.58	-40.000
207.96	-33.333
208.33	100.000
208.71	41.667
209.08	-50.000
209.46	0.000
209.84	150.000
210.21	650.000
210.59	550.000
210.96	533.333
211.34	-50.000
211.71	25.000
212.09	-200.000
212.46	0.000
212.84	800.000
213.22	-120.000
213.59	25.000
213.97	10.000
214.34	33.333
214.72	183.333
215.09	-75.000
215.47	0.000
215.84	42.857
216.22	400.000
216.59	40.000
216.97	-80.000
217.34	50.000
217.72	-12.500
218.09	-50.000
218.47	-100.000
218.84	0.000
219.22	20.000
219.59	11.765
219.97	5.000
220.34	250.000
220.72	-44.444
221.09	61.538
221.47	-100.000
221.84	-30.000
222.22	-100.000
222.59	0.000
222.97	12.500
223.34	-260.000
223.72	-1200.000
224.09	-325.000
224.46	50.000
224.84	160.000
225.21	-71.429
225.59	-225.000
225.96	-325.000
226.34	-11.538
226.71	216.667
227.08	350.000
227.46	0.000
227.83	0.000
228.21	5.263
228.58	75.000
228.95	200.000
229.33	-41.667
229.70	-40.000
230.08	31.579
230.45	90.000
230.82	33.333
231.20	0.000
231.57	25.000
231.95	0.000
232.32	90.909
232.69	20.000
233.07	-50.000
233.44	-35.294
233.81	-80.000
234.19	-11.111
234.56	22.727
234.93	44.828
235.31	5.263
235.68	-16.667
236.05	-25.000
236.43	69.231
236.80	76.000
237.17	-3.704
237.55	9.091
237.92	-110.000
238.29	-3.226
238.67	15.909
239.04	19.444
239.41	0.000
239.79	19.565
240.16	22.222
240.53	19.565
240.91	3.922
241.28	19.672
241.65	22.388
242.02	20.270
242.40	4.615
242.77	9.333
243.14	-3.659
243.51	1.316
243.89	7.692
244.26	20.792
244.63	26.471
245.00	13.084
245.38	17.544
245.75	10.619
246.12	23.016
246.49	9.302
246.87	12.857
247.24	18.543
247.61	21.053
247.98	18.121
248.36	14.815
248.73	10.429
249.10	19.672
249.47	19.900
249.84	25.131
250.22	18.135
250.59	17.222
250.96	20.455
251.33	13.776
251.70	20.085
252.08	18.333
252.45	18.852
252.82	14.463
253.19	12.891
253.56	17.490
253.94	12.308
254.31	14.773
254.68	21.678
255.05	17.915
255.42	16.667
255.79	12.621
256.16	18.543
256.54	15.232
256.91	19.344
257.28	17.049
257.65	16.242
258.02	16.814
258.39	14.530
258.76	20.489
259.14	19.828
259.51	17.867
259.88	17.847
260.25	17.222
260.62	16.164
260.99	18.579
261.36	22.252
261.73	16.711
262.10	18.956
262.47	19.035
262.85	18.434
263.22	16.883
263.59	18.158
263.96	16.368
264.33	14.578
264.70	19.012
265.07	21.718
265.44	18.367
265.81	17.361
266.18	18.367
266.55	18.304
266.92	17.768
267.29	20.350
267.66	17.960
268.03	19.214
268.40	20.042
268.77	18.679
269.14	15.859
269.51	20.175
269.88	18.033
270.25	18.310
270.62	18.565
270.99	18.182
271.36	20.594
271.73	18.664
272.10	20.441
272.47	18.036
272.84	18.675
273.21	17.836
273.58	18.145
273.95	17.692
274.32	18.061
274.69	16.634
275.06	19.963
275.43	16.821
275.80	19.224
276.17	17.963
276.54	17.537
276.91	17.889
277.28	17.360
277.65	17.415
278.02	20.221
278.39	16.123
278.76	15.114
279.13	18.262
279.50	18.385
279.87	17.710
280.23	15.493
280.60	20.000
280.97	19.079
281.34	18.846
281.71	19.459
282.08	18.937
282.45	15.876
282.82	17.425
283.19	16.963
283.56	17.869
283.92	18.619
284.29	18.799
284.66	19.540
285.03	15.705
285.40	17.620
285.77	18.421
286.14	18.321
286.51	17.656
286.87	16.904
287.24	18.675
287.61	16.592
287.98	16.918
288.35	19.083
288.72	18.047
289.08	18.594
289.45	17.160
289.82	15.060
290.19	17.098
290.56	17.887
290.93	15.264
291.29	15.840
291.66	14.601
292.03	15.875
292.40	15.646
292.77	14.825
293.13	16.373
293.50	13.535
293.87	13.289
294.24	15.600
294.60	15.803
294.97	12.483
295.34	15.877
295.71	13.745
296.08	14.212
296.44	15.441
296.81	12.667
297.18	14.072
297.55	14.387
297.91	14.709
298.28	13.033
298.65	14.031
299.02	12.987
299.38	14.645
299.75	13.551
300.12	13.657
300.48	13.134
300.85	14.398
301.22	14.318
301.59	12.671
301.95	13.446
302.32	13.222
302.69	14.020
303.05	14.255
303.42	12.971
303.79	14.062
304.15	13.249
304.52	12.368
304.89	12.461
305.25	13.147
305.62	12.226
305.99	12.990
306.35	12.097
306.72	13.444
307.09	12.995
307.45	12.526
307.82	12.412
308.19	13.017
308.55	12.729
308.92	12.853
309.29	13.123
309.65	12.865
310.02	11.386
310.38	12.697
310.75	13.398
311.12	12.943
311.48	13.196
311.85	11.966
312.22	11.480
312.58	13.146
312.95	12.046
313.31	12.647
313.68	13.187
314.05	13.279
314.41	13.115
314.78	11.898
315.14	12.432
315.51	13.019
315.87	12.871
316.24	12.237
316.61	12.522
316.97	11.312
317.34	11.905
317.70	12.838
318.07	11.993
318.43	12.585
318.80	13.462
319.16	12.876
319.53	11.311
319.89	12.270
320.26	12.811
320.62	11.968
320.99	12.004
321.35	12.569
321.72	12.744
322.08	11.271
322.45	11.382
322.81	10.830
323.18	11.593
323.54	12.500
323.91	12.011
324.27	11.274
324.64	11.839
325.00	13.101
325.37	11.630
325.73	12.479
326.10	11.922
326.46	12.541
326.83	13.211
327.19	12.835
327.56	12.411
327.92	11.880
328.29	12.258
328.65	12.228
329.01	10.829
329.38	12.384
329.74	13.099
330.11	12.329
330.47	12.384
330.84	13.437
331.20	13.333
331.56	11.958
331.93	11.715
332.29	12.119
332.66	12.043
333.02	13.317
333.38	11.074
333.75	11.869
334.11	12.761
334.48	13.036
334.84	13.254
335.20	10.579
335.57	12.142
335.93	12.149
336.29	11.398
336.66	11.522
337.02	11.873
337.38	11.820
337.75	11.653
338.11	12.363
338.47	13.151
338.84	11.421
339.20	11.542
339.56	12.850
339.93	12.151
340.29	12.560
340.65	13.058
341.02	11.492
341.38	12.288
341.74	12.026
342.11	11.665
342.47	10.723
342.83	12.319
343.20	12.510
343.56	11.708
343.92	12.410
344.28	11.719
344.65	12.403
345.01	12.168
345.37	12.675
345.73	11.146
346.10	12.637
346.46	10.680
346.82	11.610
347.19	12.223
347.55	12.822
347.91	11.070
348.27	11.533
348.63	12.262
349.00	11.409
349.36	11.970
349.72	11.756
350.08	10.996
350.45	10.418
350.81	11.689
351.17	11.805
351.53	11.676
351.89	11.769
352.26	11.418
352.62	12.015
352.98	10.992
353.34	11.501
353.70	11.402
354.07	11.923
354.43	10.706
354.79	12.191
355.15	11.553
355.51	12.208
355.87	11.444
356.24	11.711
356.60	11.456
356.96	9.859
357.32	11.227
357.68	10.542
358.04	10.554
358.40	10.299
358.77	12.208
359.13	10.857
359.49	10.112
359.85	11.022
360.21	11.693
360.57	11.701
360.93	10.931
361.29	11.368
361.66	11.151
362.02	12.109
362.38	11.033
362.74	11.313
363.10	10.729
363.46	10.873
363.82	10.369
364.18	10.908
364.54	11.895
364.90	11.438
365.26	10.828
365.62	11.933
365.98	11.232
366.35	11.208
366.71	11.565
367.07	10.758
367.43	10.506
367.79	10.949
368.15	11.839
368.51	11.434
368.87	11.365
369.23	11.200
369.59	11.270
369.95	10.886
370.31	12.086
370.67	10.935
371.03	11.496
371.39	10.813
371.75	11.142
372.11	10.908
372.47	11.239
372.83	11.126
373.19	10.740
373.55	10.840
373.91	10.225
374.27	10.737
374.63	9.946
374.99	11.936
375.35	10.325
375.71	11.226
376.07	11.943
376.42	10.453
376.78	11.187
377.14	10.543
377.50	10.183
377.86	10.653
378.22	11.437
378.58	10.523
378.94	10.974
379.30	11.072
379.66	10.935
380.02	10.675
380.38	11.406
380.74	11.268
381.09	10.918
381.45	10.170
381.81	11.007
382.17	11.164
382.53	10.175
382.89	10.948
383.25	11.137
383.61	10.822
383.97	10.954
384.32	10.706
384.68	10.499
385.04	10.295
385.40	10.784
385.76	11.313
386.12	11.370
386.48	11.588
386.83	10.787
387.19	11.066
387.55	10.211
387.91	10.559
388.27	11.374
388.62	10.997
388.98	11.224
389.34	10.548
389.70	10.459
390.06	10.716
390.42	11.145
390.77	11.017
391.13	10.681
391.49	10.326
391.85	10.848
392.20	10.439
392.56	11.459
392.92	11.232
393.28	10.835
393.64	10.279
393.99	11.563
394.35	11.390
394.71	11.497
395.07	10.240
395.42	10.565
395.78	10.238
396.14	11.289
396.50	10.986
396.85	11.032
397.21	10.414
397.57	10.718
397.92	10.596
398.28	10.266
398.64	9.954
399.00	10.576
399.35	11.099
399.71	10.489
400.07	10.893
400.42	10.186
400.78	10.880
401.14	10.586
401.49	10.745
401.85	10.581
402.21	9.907
402.57	10.857
402.92	9.870
403.28	10.070
403.63	9.964
403.99	10.214
404.35	10.574
404.70	10.935
405.06	10.326
405.42	10.831
405.77	11.941
406.13	10.373
406.49	10.529
406.84	10.582
407.20	10.844
407.55	10.297
407.91	10.245
408.27	11.307
408.62	11.227
408.98	10.563
409.34	10.088
409.69	10.816
410.05	10.903
410.40	11.195
410.76	10.993
411.11	10.520
411.47	11.364
411.83	10.641
412.18	11.867
412.54	10.670
412.89	10.827
413.25	10.722
413.60	10.626
413.96	9.907
414.31	10.595
414.67	10.972
415.03	9.908
415.38	11.286
415.74	10.690
416.09	11.043
416.45	10.582
416.80	10.343
417.16	10.153
417.51	10.959
417.87	10.239
418.22	10.359
418.58	10.595
418.93	10.768
419.29	10.543
419.64	10.324
420.00	10.267
420.35	10.837
420.71	10.569
421.06	10.351
421.42	10.436
421.77	10.124
422.12	10.782
422.48	10.906
422.83	10.734
423.19	9.867
423.54	10.675
423.90	10.657
424.25	10.347
424.61	9.300
424.96	10.269
425.31	10.403
425.67	11.111
426.02	10.459
426.38	10.390
426.73	10.212
427.09	11.130
427.44	9.995
427.79	10.779
428.15	9.989
428.50	10.449
428.85	9.874
429.21	11.489
429.56	10.612
429.92	10.319
430.27	10.651
430.62	10.747
430.98	10.133
431.33	10.068
431.68	10.441
432.04	10.208
432.39	10.016
432.74	10.274
433.10	10.817
433.45	10.424
433.80	10.354
434.16	10.434
434.51	10.586
434.86	10.423
435.22	10.414
435.57	10.731
435.92	10.963
436.28	10.410
436.63	10.541
436.98	9.769
437.34	10.485
437.69	10.237
438.04	10.576
438.39	10.167
438.75	10.570
439.10	11.152
439.45	10.620
439.81	10.226
440.16	11.099
440.51	10.758
440.86	10.728
441.22	10.718
441.57	10.377
441.92	10.621
442.27	10.505
442.63	10.482
442.98	10.299
443.33	10.679
443.68	11.001
444.03	10.724
444.39	10.217
444.74	10.362
445.09	10.948
445.44	10.854
445.79	11.446
446.15	11.048
446.50	10.284
446.85	10.652
447.20	11.122
447.55	11.245
447.91	10.524
448.26	10.307
448.61	11.265
448.96	10.891
449.31	10.286
449.66	9.913
450.02	9.968
450.37	10.815
450.72	10.388
451.07	11.446
451.42	10.341
451.77	10.395
452.12	10.327
452.47	9.745
452.83	10.923
453.18	10.099
453.53	10.511
453.88	10.657
454.23	10.791
454.58	11.550
454.93	10.376
455.28	10.596
455.63	10.688
455.98	10.670
456.34	10.895
456.69	10.994
457.04	10.047
457.39	10.421
457.74	11.242
458.09	10.434
458.44	10.237
458.79	11.037
459.14	9.649
459.49	10.413
459.84	11.228
460.19	9.772
460.54	10.846
460.89	10.693
461.24	10.000
461.59	11.068
461.94	10.439
462.29	10.806
462.64	10.622
462.99	10.358
463.34	10.707
463.69	10.785
464.04	10.895
464.39	10.258
464.74	10.718
465.09	10.208
465.44	10.891
465.79	11.264
466.14	10.787
466.49	11.000
466.84	10.248
467.19	10.983
467.54	9.518
467.89	10.172
468.24	11.080
468.59	9.959
468.94	10.198
469.29	10.198
469.64	10.617
469.99	10.516
470.34	10.396
470.68	11.073
471.03	10.806
471.38	10.399
471.73	10.338
472.08	10.025
472.43	11.198
472.78	11.398
473.13	10.809
473.48	11.118
473.83	11.376
474.17	10.844
474.52	11.185
474.87	11.462
475.22	11.437
475.57	11.059
475.92	10.453
476.27	10.117
476.61	10.644
476.96	10.480
477.31	10.842
477.66	10.860
478.01	11.439
478.36	10.867
478.70	10.542
479.05	10.890
479.40	10.908
479.75	11.960
480.10	11.369
480.45	10.848
480.79	10.975
481.14	10.248
481.49	10.223
481.84	11.314
482.19	10.882
482.53	10.844
482.88	10.678
483.23	10.894
483.58	11.135
483.92	10.594
484.27	11.389
484.62	10.891
484.97	11.198
485.31	10.102
485.66	10.100
486.01	10.379
486.36	10.807
486.70	10.758
487.05	10.777
487.40	10.309
487.75	10.712
488.09	10.679
488.44	10.419
488.79	10.219
489.13	11.224
489.48	10.058
489.83	10.946
490.17	10.652
490.52	11.002
490.87	10.745
491.22	10.745
491.56	10.495
491.91	11.077
492.26	11.251
492.60	10.756
492.95	10.399
493.30	10.623
493.64	10.644
493.99	10.351
494.34	10.758
494.68	10.664
495.03	10.881
495.37	11.185
495.72	10.658
496.07	11.043
496.41	10.639
496.76	10.926
497.11	10.488
497.45	10.358
497.80	11.284
498.14	11.066
498.49	10.662
498.84	11.335
499.18	11.291
499.53	10.673
499.87	11.341
500.22	10.240
500.56	10.841
500.91	11.213
501.26	11.136
501.60	11.003
501.95	10.682
502.29	11.452
502.64	11.325
502.98	10.613
503.33	11.102
503.67	11.252
504.02	10.683
504.36	10.858
504.71	11.208
505.06	11.551
505.40	11.106
505.75	11.840
506.09	11.418
506.44	11.235
506.78	11.514
507.13	11.342
507.47	11.606
507.82	10.985
508.16	11.138
508.51	10.642
508.85	10.912
509.19	11.937
509.54	11.047
509.88	11.122
510.23	11.413
510.57	10.778
510.92	11.418
511.26	10.630
511.61	10.623
511.95	11.371
512.30	11.669
512.64	10.595
512.98	11.306
513.33	11.996
513.67	11.372
514.02	11.650
514.36	11.765
514.70	10.938
515.05	11.887
515.39	11.759
515.74	12.248
516.08	11.727
516.42	11.617
516.77	11.777
517.11	11.140
517.46	11.241
517.80	11.705
518.14	12.133
518.49	11.551
518.83	12.081
519.17	11.416
519.52	12.421
519.86	11.510
520.20	12.354
520.55	11.884
520.89	11.768
521.23	11.949
521.58	12.090
521.92	12.295
522.26	11.111
522.61	12.211
522.95	11.822
523.29	11.954
523.64	12.052
523.98	12.436
524.32	12.206
524.66	11.554
525.01	12.231
525.35	12.005
525.69	12.239
526.04	11.711
526.38	12.011
526.72	12.687
527.06	11.848
527.41	12.595
527.75	12.292
528.09	11.688
528.43	11.368
528.78	12.659
529.12	12.041
529.46	11.804
529.80	11.842
530.15	11.130
530.49	12.040
530.83	11.452
531.17	11.470
531.51	12.756
531.86	12.380
532.20	11.890
532.54	11.490
532.88	11.636
533.22	12.669
533.57	11.945
533.91	12.963
534.25	12.549
534.59	11.667
534.93	11.771
535.27	11.718
535.62	12.507
535.96	12.202
536.30	11.457
536.64	12.372
536.98	12.546
537.32	12.654
537.66	12.289
538.01	11.601
538.35	11.510
538.69	11.839
539.03	12.508
539.37	12.073
539.71	12.012
540.05	12.470
540.39	11.858
540.73	12.629
541.07	12.324
541.42	12.463
541.76	11.210
542.10	12.786
542.44	10.901
542.78	12.530
543.12	11.442
543.46	12.088
543.80	11.631
544.14	12.208
544.48	12.293
544.82	12.807
545.16	12.224
545.50	11.384
545.84	11.880
546.18	12.284
546.52	11.911
546.86	12.075
547.20	12.087
547.54	11.486
547.88	11.392
548.22	11.871
548.56	12.580
548.90	11.224
549.24	12.340
549.58	11.987
549.92	11.862
550.26	12.686
550.60	11.870
550.94	12.549
551.28	11.815
551.62	12.264
551.96	11.197
552.30	12.237
552.64	12.570
552.98	11.978
553.32	11.768
553.66	11.704
554.00	13.556
554.34	12.098
554.68	11.685
555.02	12.418
555.36	12.558
555.69	12.172
556.03	11.665
556.37	12.578
556.71	11.668
557.05	12.013
557.39	12.409
557.73	11.493
558.07	11.788
558.41	12.226
558.75	12.035
559.08	11.830
559.42	12.689
559.76	12.551
560.10	11.119
560.44	11.807
560.78	13.063
561.12	12.192
561.45	12.044
561.79	12.698
562.13	11.830
562.47	11.776
562.81	12.405
563.15	11.932
563.48	11.746
563.82	12.273
564.16	11.629
564.50	11.144
564.84	11.740
565.17	12.176
565.51	11.162
565.85	11.876
566.19	11.463
566.52	11.820
566.86	12.111
567.20	11.582
567.54	11.790
567.88	11.978
568.21	11.561
568.55	11.751
568.89	11.847
569.23	11.703
569.56	11.489
569.90	11.689
570.24	10.894
570.57	11.353
570.91	11.421
571.25	11.513
571.59	11.606
571.92	11.247
572.26	11.011
572.60	11.248
572.93	11.634
573.27	11.155
573.61	11.567
573.95	11.580
574.28	11.539
574.62	11.164
574.96	11.138
575.29	10.928
575.63	10.903
575.97	11.186
576.30	11.103
576.64	10.833
576.98	10.843
577.31	11.279
577.65	11.143
577.98	11.333
578.32	11.031
578.66	10.893
578.99	10.895
579.33	10.783
579.67	10.766
580.00	10.901
580.34	11.104
580.67	10.658
581.01	11.077
581.35	10.949
581.68	11.233
582.02	11.059
582.35	11.411
582.69	11.016
583.02	11.194
583.36	11.275
583.70	10.657
584.03	10.679
584.37	10.936
584.70	10.562
585.04	10.509
585.37	10.959
585.71	10.895
586.04	11.008
586.38	10.840
586.72	10.830
587.05	11.154
587.39	10.845
587.72	11.100
588.06	10.735
588.39	11.302
588.73	10.714
589.06	11.174
589.40	10.418
589.73	11.183
590.07	11.306
590.40	11.663
590.73	10.958
591.07	11.355
591.40	11.003
591.74	10.890
592.07	11.328
592.41	10.765
592.74	11.360
593.08	11.178
593.41	11.549
593.75	11.264
594.08	11.330
594.41	11.282
594.75	11.524
595.08	10.633
595.42	11.136
595.75	11.140
596.09	11.318
596.42	11.358
596.75	11.810
597.09	11.394
597.42	10.807
597.75	11.368
598.09	11.230
598.42	11.982
598.76	10.737
599.09	11.499
599.42	11.029
599.76	11.027
600.09	11.745
600.42	11.378
600.76	11.295
601.09	11.318
601.42	11.500
601.76	11.448
602.09	11.258
602.42	10.832
602.76	11.107
603.09	11.527
603.42	11.163
603.76	11.452
604.09	11.852
604.42	11.266
604.76	11.073
605.09	11.408
605.42	11.483
605.75	11.423
606.09	11.124
606.42	10.872
606.75	10.645
607.09	11.022
607.42	11.561
607.75	10.668
608.08	11.208
608.42	12.213
608.75	11.484
609.08	11.333
609.41	11.381
609.75	10.937
610.08	11.346
610.41	11.342
610.74	11.345
611.07	11.456
611.41	11.570
611.74	11.594
612.07	10.986
612.40	11.074
612.73	11.296
613.07	11.002
613.40	11.790
613.73	10.496
614.06	11.138
614.39	11.710
614.72	11.111
615.06	11.020
615.39	10.875
615.72	11.659
616.05	11.559
616.38	11.604
616.71	11.494
617.05	11.928
617.38	11.717
617.71	11.339
618.04	11.333
618.37	11.749
618.70	11.256
619.03	11.410
619.36	11.036
619.69	11.595
620.03	11.551
620.36	11.472
620.69	11.474
621.02	11.745
621.35	12.264
621.68	11.931
622.01	11.886
622.34	10.460
622.67	11.615
623.00	10.594
623.33	12.541
623.66	11.738
623.99	11.126
624.32	12.671
624.65	10.875
624.99	11.704
625.32	12.280
625.65	12.138
625.98	11.254
626.31	11.198
626.64	12.088
626.97	10.728
627.30	11.314
627.63	11.778
627.96	12.462
628.29	11.829
628.62	11.839
628.95	12.270
629.28	11.895
629.61	12.205
629.94	11.464
630.26	11.610
630.59	10.708
630.92	10.130
631.25	12.343
631.58	11.394
631.91	11.996
632.24	12.104
632.57	11.480
632.90	13.039
633.23	12.653
633.56	11.531
633.89	11.570
634.22	12.682
634.55	12.109
634.88	11.039
635.20	14.532
635.53	11.638
635.86	11.268
636.19	13.468
636.52	12.447
636.85	11.849
637.18	11.746
637.51	12.473
637.83	13.178
638.16	12.673
638.49	12.207
638.82	12.627
639.15	11.455
639.48	12.356
639.81	12.356
640.13	12.485
640.46	11.515
640.79	11.152
641.12	12.050
641.45	11.669
641.77	13.350
642.10	12.730
642.43	12.101
642.76	11.789
643.09	11.096
643.41	11.625
643.74	9.793
644.07	13.931
644.40	12.871
644.73	12.046
645.05	12.335
645.38	13.669
645.71	12.170
646.04	14.347
646.36	11.825
646.69	12.577
647.02	12.844
647.35	12.824
647.67	12.560
648.00	11.465
648.33	13.964
648.66	12.411
648.98	12.925
649.31	12.043
649.64	13.280
649.96	13.793
650.29	11.822
650.62	13.296
650.94	10.961
651.27	9.880
651.60	11.842
651.92	12.462
652.25	15.051
652.58	12.517
652.90	11.337
653.23	12.535
653.56	11.698
653.88	13.624
654.21	13.380
654.54	11.272
654.86	12.890
655.19	12.673
655.52	12.690
655.84	12.060
656.17	13.920
656.49	19.523
656.82	20.853
657.15	15.600
657.47	11.365
657.80	8.219
658.13	6.259
658.45	7.879
658.78	9.416
659.10	8.806
659.43	8.767
659.75	8.066
660.08	7.843
660.41	8.271
660.73	8.780
661.06	10.866
661.38	11.324
661.71	11.207
662.03	12.346
662.36	12.522
662.68	11.069
663.01	13.628
663.33	12.098
663.66	13.736
663.98	12.308
664.31	13.508
664.63	10.405
664.96	11.797
665.28	12.523
665.61	12.762
665.93	10.893
666.26	11.470
666.58	12.177
666.91	12.710
667.23	14.667
667.56	14.201
667.88	10.400
668.21	13.477
668.53	9.073
668.86	14.931
669.18	12.220
669.50	11.928
669.83	11.400
670.15	13.386
670.48	13.294
670.80	13.958
671.13	11.153
671.45	12.598
671.77	14.501
672.10	11.833
672.42	11.489
672.75	11.214
673.07	11.791
673.39	12.173
673.72	12.081
674.04	13.793
674.37	12.165
674.69	13.580
675.01	11.429
675.34	9.733
675.66	11.423
675.98	13.246
676.31	12.891
676.63	14.259
676.95	12.644
677.28	11.895
677.60	10.039
677.92	11.324
678.25	13.163
678.57	12.278
678.89	14.676
679.22	10.801
679.54	12.308
679.86	10.339
680.18	11.609
680.51	13.208
680.83	13.584
681.15	12.069
681.48	13.817
681.80	11.226
682.12	10.490
682.44	11.018
682.77	11.702
683.09	12.311
683.41	13.953
683.73	13.662
684.06	11.624
684.38	9.839
684.70	14.183
685.02	12.220
685.34	12.313
685.67	12.145
685.99	11.963
686.31	9.884
686.63	11.532
686.96	11.041
687.28	12.052
687.60	10.774
687.92	12.058
688.24	12.354
688.56	10.000
688.89	12.341
689.21	11.155
689.53	9.804
689.85	11.243
690.17	9.630
690.49	13.944
690.82	12.475
691.14	12.955
691.46	12.620
691.78	12.523
692.10	12.477
692.42	9.286
692.74	11.797
693.06	11.296
693.39	13.472
693.71	10.526
694.03	11.524
694.35	12.000
694.67	13.347
694.99	11.064
695.31	10.155
695.63	11.905
695.95	11.387
696.27	11.648
696.59	13.274
696.91	13.063
697.23	13.187
697.56	12.220
697.88	12.689
698.20	14.124
698.52	13.068
698.84	11.227
699.16	12.041
699.48	11.715
699.80	9.574
700.12	11.790
700.44	10.138
700.76	12.589
701.08	14.770
701.40	10.104
701.72	11.940
702.04	12.299
702.36	11.780
702.68	9.291
703.00	10.513
703.32	13.793
703.64	14.181
703.96	11.456
704.28	13.268
704.60	13.671
704.91	12.245
705.23	11.507
705.55	14.206
705.87	12.121
706.19	13.497
706.51	12.048
706.83	12.104
707.15	10.582
707.47	10.047
707.79	12.227
708.11	9.534
708.43	9.892
708.74	8.036
709.06	10.209
709.38	15.023
709.70	15.136
710.02	9.044
710.34	13.032
710.66	10.894
710.98	12.022
711.29	11.264
711.61	10.452
711.93	11.966
712.25	8.108
712.57	12.389
712.89	14.706
713.20	10.059
713.52	13.584
713.84	12.256
714.16	17.105
714.48	12.887
714.80	12.468
715.11	9.186
715.43	12.467
715.75	11.579
716.07	10.221
716.39	16.120
716.70	7.229
717.02	11.148
717.34	9.059
717.66	9.732
717.97	11.301
718.29	11.340
718.61	8.553
718.93	11.650
719.24	13.354
719.56	12.577
719.88	10.811
720.20	8.387
720.51	11.180
720.83	12.813
721.15	8.882
721.46	6.507
721.78	11.333
722.10	9.709
722.42	11.074
722.73	11.613
723.05	7.368
723.37	17.708
723.68	13.262
724.00	7.942
724.32	12.676
724.63	8.741
724.95	14.539
725.27	12.195
725.58	8.834
725.90	16.552
726.22	13.793
726.53	10.714
726.85	13.522
727.16	13.595
727.48	13.150
727.80	11.589
728.11	10.601
728.43	10.438
728.74	8.027
729.06	12.583
729.38	12.662
729.69	11.745
730.01	12.202
730.32	11.818
730.64	13.208
730.96	8.075
731.27	15.642
731.59	9.890
731.90	11.429
732.22	9.896
732.53	6.077
732.85	11.714
733.16	11.437
733.48	10.671
733.80	8.078
734.11	11.966
734.43	10.270
734.74	13.924
735.06	9.548
735.37	10.541
735.69	8.378
736.00	11.582
736.32	11.321
736.63	10.833
736.95	15.230
737.26	12.121
737.58	9.394
737.89	12.647
738.21	9.786
738.52	8.852
738.83	11.263
739.15	10.284
739.46	11.565
739.78	14.417
740.09	11.748
740.41	13.703
740.72	10.000
741.04	11.327
741.35	11.228
741.66	11.373
741.98	10.656
742.29	11.297
742.61	11.842
742.92	10.385
743.23	14.801
743.55	12.016
743.86	12.400
744.18	4.132
744.49	5.907
744.80	13.580
745.12	10.549
745.43	12.602
745.74	7.328
746.06	9.746
746.37	11.392
746.68	13.415
747.00	10.833
747.31	6.867
747.62	13.846
747.94	11.741
748.25	11.647
748.56	7.347
748.88	7.692
749.19	13.793
749.50	9.524
749.82	13.253
750.13	16.370
750.44	11.333
750.75	9.231
751.07	11.692
751.38	10.410
751.69	8.307
752.01	9.709
752.32	14.052
752.63	12.925
752.94	10.035
753.26	11.524
753.57	12.593
753.88	13.483
754.19	8.682
754.51	9.646
754.82	12.862
755.13	10.492
755.44	8.532
755.75	13.487
756.07	11.940
756.38	13.836
756.69	14.759
757.00	9.695
757.31	12.842
757.63	9.463
757.94	9.390
758.25	12.190
758.56	12.854
758.87	10.682
759.18	11.200
759.50	12.181
759.81	11.485
760.12	8.895
760.43	14.062
760.74	12.315
761.05	11.000
761.36	9.880
761.67	9.645
761.99	11.622
762.30	12.805
762.61	7.261
762.92	11.194
763.23	12.734
763.54	12.590
763.85	13.402
764.16	8.081
764.47	10.211
764.78	11.182
765.10	11.730
765.41	12.308
765.72	8.730
766.03	13.277
766.34	10.972
766.65	10.105
766.96	9.562
767.27	9.677
767.58	6.468
767.89	16.827
768.20	11.737
768.51	10.648
768.82	12.048
769.13	9.848
769.44	6.538
769.75	15.162
770.06	14.615
770.37	15.354
770.68	8.085
770.99	6.883
771.30	16.667
771.61	13.308
771.92	13.333
772.23	16.599
772.54	7.407
772.85	13.825
773.16	12.857
773.47	5.291
773.78	7.568
774.09	11.364
774.39	15.500
774.70	13.661
775.01	9.146
775.32	8.824
775.63	9.816
775.94	6.369
776.25	14.194
776.56	12.179
776.87	15.646
777.18	9.655
777.48	9.790
777.79	10.135
778.10	7.353
778.41	6.944
778.72	17.241
779.03	11.111
779.34	12.727
779.65	7.254
779.95	15.000
780.26	15.341
780.57	16.774
780.88	5.797
781.19	14.194
781.50	13.529
781.80	15.591
782.11	17.460
782.42	6.566
782.73	12.575
783.04	9.497
783.34	6.667
783.65	9.150
783.96	6.832
784.27	4.167
784.57	12.583
784.88	11.429
785.19	13.386
785.50	14.961
785.81	12.782
786.11	9.231
786.42	10.072
786.73	12.230
787.04	11.278
787.34	11.475
787.65	4.000
787.96	10.448
788.26	16.084
788.57	12.587
788.88	6.579
789.19	15.033
789.49	2.740
789.80	9.929
790.11	21.260
790.41	6.250
790.72	7.627
791.03	3.883
791.33	7.826
791.64	13.158
791.95	9.821
792.25	17.143
792.56	7.143
792.87	16.667
793.17	14.286
793.48	3.125
793.79	-3.614
794.09	2.752
794.40	3.670
794.70	13.605
795.01	16.234
795.32	7.534
795.62	4.225
795.93	10.606
796.23	12.295
796.54	9.821
796.85	4.255
797.15	-5.435
797.46	-2.740
797.76	2.500
798.07	19.565
798.37	-1.031
798.68	10.390
798.99	17.241
799.29	6.742
799.60	13.830
799.90	8.434
800.21	9.231
800.51	2.985
800.82	1.471
801.12	-6.849
801.43	-5.882
801.73	-1.695
802.04	13.636
802.34	0.000
802.65	11.864
802.95	10.448
803.26	1.695
803.56	6.849
803.87	12.857
804.17	13.699
804.48	-1.754
804.78	4.167
805.09	-6.897
805.39	32.432
805.70	7.042
806.00	13.415
806.30	2.410
806.61	4.110
806.91	11.538
807.22	3.333
807.52	-9.195
807.83	16.667
808.13	20.482
808.43	11.236
808.74	13.750
809.04	-2.941
809.35	9.333
809.65	0.000
809.95	21.918
810.26	-10.526
810.56	-15.517
810.86	11.765
811.17	-3.509
811.47	-14.754
811.77	-8.889
812.08	3.390
812.38	5.000
812.69	8.621
812.99	-13.208
813.29	-10.256
813.59	6.000
813.90	10.526
814.20	10.909
814.50	14.085
814.81	12.821
815.11	8.197
815.41	16.418
815.72	15.517
816.02	8.929
816.32	-2.222
816.62	22.727
816.93	2.222
817.23	20.370
817.53	2.128
817.84	30.952
818.14	-11.765
818.44	-4.082
818.74	6.667
819.04	10.256
819.35	0.000
819.65	-15.385
819.95	7.547
820.25	24.444
820.56	19.048
820.86	-31.250
821.16	-5.128
821.46	-16.279
821.76	-2.000
822.07	-3.571
822.37	21.739
822.67	-17.021
822.97	-35.135
823.27	0.000
823.57	30.612
823.88	24.444
824.18	5.000
824.48	0.000
824.78	-24.000
825.08	-3.030
825.38	26.667
825.69	12.766
825.99	30.556
826.29	-22.857
826.59	-10.256
826.89	4.651
827.19	20.000
827.49	0.000
827.79	10.417
828.09	-5.405
828.39	-13.333
828.70	-17.073
829.00	13.953
829.30	3.571
829.60	-5.882
829.90	19.565
830.20	-2.857
830.50	-27.586
830.80	11.111
831.10	-3.846
831.40	23.529
831.70	28.571
832.00	32.258
832.30	-111.765
832.60	4.167
832.90	-30.769
833.20	-63.158
833.50	-20.000
833.80	0.000
834.10	-71.429
834.40	13.889
834.70	18.750
835.00	-42.857
835.30	20.588
835.60	-3.333
835.90	4.000
836.20	-81.818
836.50	-28.000
836.80	-3.030
837.10	-33.333
837.40	0.000
837.70	-12.500
838.00	10.714
838.30	-17.391
838.60	31.034
838.90	-128.571
839.19	-39.130
839.49	-58.333
839.79	13.043
840.09	-106.250
840.39	-30.000
840.69	9.677
840.99	-7.143
841.29	-73.333
841.59	15.789
841.88	28.205
842.18	-19.231
842.48	-40.000
842.78	-30.000
843.08	16.667
843.38	29.032
843.68	-55.556
843.97	8.824
844.27	18.750
844.57	-57.895
844.87	20.000
845.17	-33.333
845.47	-28.571
845.76	-33.333
846.06	-211.111
846.36	-70.588
846.66	0.000
846.96	-46.667
847.25	-11.765
847.55	8.696
847.85	-15.000
848.15	11.765
848.44	0.000
848.74	0.000
849.04	4.167
849.34	-6.250
849.63	-21.739
849.93	550.000
850.23	-20.000
850.53	26.923
850.82	-18.182
851.12	36.364
851.42	-36.364
851.71	30.769
852.01	-65.000
852.31	-53.846
852.61	0.000
852.90	50.000
853.20	61.111
853.50	-144.444
853.79	-47.619
854.09	-13.636
854.39	-83.333
854.68	9.677
854.98	-30.769
855.28	-50.000
855.57	-10.714
855.87	0.000
856.17	-40.909
856.46	14.815
856.76	-5.556
857.05	0.000
857.35	-16.667
857.65	-23.077
857.94	14.286
858.24	37.037
858.53	26.087
858.83	0.000
859.13	-52.941
859.42	41.176
859.72	35.714
860.01	40.000
860.31	-44.444
860.60	60.000
860.90	26.667
861.20	44.444
861.49	-38.462
861.79	20.000
862.08	-15.385
862.38	34.375
862.67	23.529
862.97	-18.750
863.26	-11.111
863.56	70.000
863.85	-18.182
864.15	-22.222
864.44	-266.667
864.74	-7.143
865.03	-56.250
865.33	-50.000
865.62	0.000
865.92	4.545
866.21	0.000
866.51	0.000
866.80	-120.000
867.10	8.333
867.39	-141.667
867.69	1600.000
867.98	-157.143
868.27	-23.529
868.57	-1800.000
868.86	-70.000
869.16	0.000
869.45	8.333
869.75	36.364
870.04	-57.143
870.33	16.667
870.63	14.286
870.92	75.000
871.22	-175.000
871.51	-27.273
871.80	-566.667
872.10	-450.000
>>>>>End Processed Spectral Data<<<<<
