SpectraSuite Data File
++++++++++++++++++++++++++++++++++++
Date: Thu May 14 16:24:57 PDT 2015
User: schluterlab
Dark Spectrum Present: Yes
Reference Spectrum Present: Yes
Number of Sampled Component Spectra: 1
Spectrometers: USB2E3373
Integration Time (usec): 3000 (USB2E3373)
Spectra Averaged: 3 (USB2E3373)
Boxcar Smoothing: 0 (USB2E3373)
Correct for Electrical Dark: No (USB2E3373)
Strobe/Lamp Enabled: No (USB2E3373)
Correct for Detector Non-linearity: No (USB2E3373)
Correct for Stray Light: No (USB2E3373)
Number of Pixels in Processed Spectrum: 2048
>>>>>Begin Processed Spectral Data<<<<<
178.53	0.000
178.91	-42.857
179.29	-400.000
179.67	0.000
180.04	71.429
180.42	-0.000
180.80	220.000
181.18	0.000
181.56	700.000
181.94	-50.000
182.31	-125.000
182.69	-133.333
183.07	100.000
183.45	-50.000
183.83	50.000
184.20	-166.667
184.58	-400.000
184.96	-325.000
185.34	-11.111
185.72	60.000
186.09	155.556
186.47	200.000
186.85	60.000
187.23	-77.778
187.61	-1400.000
187.98	-20.000
188.36	175.000
188.74	-25.000
189.12	266.667
189.49	18.750
189.87	0.000
190.25	77.778
190.63	-120.000
191.00	-44.444
191.38	0.000
191.76	-50.000
192.14	-33.333
192.51	-100.000
192.89	183.333
193.27	0.000
193.65	28.571
194.02	-900.000
194.40	42.857
194.78	-0.000
195.15	0.000
195.53	45.455
195.91	0.000
196.29	125.000
196.66	-46.154
197.04	-700.000
197.42	-14.286
197.79	-150.000
198.17	0.000
198.55	0.000
198.92	88.889
199.30	-50.000
199.68	-9.091
200.05	-14.286
200.43	-200.000
200.81	242.857
201.18	0.000
201.56	188.889
201.94	0.000
202.31	433.333
202.69	-88.889
203.07	-100.000
203.44	0.000
203.82	50.000
204.19	0.000
204.57	150.000
204.95	25.000
205.32	-100.000
205.70	25.000
206.08	0.000
206.45	0.000
206.83	260.000
207.20	-66.667
207.58	-60.000
207.96	-83.333
208.33	16.667
208.71	91.667
209.08	66.667
209.46	0.000
209.84	216.667
210.21	-100.000
210.59	500.000
210.96	533.333
211.34	0.000
211.71	87.500
212.09	-200.000
212.46	0.000
212.84	100.000
213.22	-60.000
213.59	-125.000
213.97	60.000
214.34	100.000
214.72	83.333
215.09	-250.000
215.47	0.000
215.84	85.714
216.22	700.000
216.59	-80.000
216.97	-20.000
217.34	0.000
217.72	87.500
218.09	175.000
218.47	-175.000
218.84	0.000
219.22	120.000
219.59	0.000
219.97	0.000
220.34	600.000
220.72	-122.222
221.09	15.385
221.47	-66.667
221.84	-20.000
222.22	-71.429
222.59	0.000
222.97	75.000
223.34	-160.000
223.72	-600.000
224.09	-25.000
224.46	-125.000
224.84	100.000
225.21	-57.143
225.59	-150.000
225.96	-275.000
226.34	7.692
226.71	150.000
227.08	-150.000
227.46	6.667
227.83	50.000
228.21	10.526
228.58	62.500
228.95	550.000
229.33	16.667
229.70	30.000
230.08	73.684
230.45	80.000
230.82	166.667
231.20	28.571
231.57	33.333
231.95	0.000
232.32	45.455
232.69	35.000
233.07	-100.000
233.44	-70.588
233.81	-20.000
234.19	33.333
234.56	31.818
234.93	-3.448
235.31	5.263
235.68	66.667
236.05	-5.000
236.43	69.231
236.80	40.000
237.17	11.111
237.55	3.030
237.92	-60.000
238.29	38.710
238.67	6.818
239.04	-16.667
239.41	21.429
239.79	-4.348
240.16	-24.074
240.53	6.522
240.91	-3.922
241.28	1.639
241.65	25.373
242.02	18.919
242.40	4.615
242.77	6.667
243.14	14.634
243.51	5.263
243.89	2.564
244.26	26.733
244.63	24.510
245.00	17.757
245.38	18.421
245.75	0.885
246.12	14.286
246.49	13.178
246.87	15.714
247.24	11.258
247.61	19.079
247.98	16.779
248.36	13.580
248.73	14.724
249.10	15.847
249.47	16.418
249.84	23.037
250.22	10.363
250.59	16.111
250.96	19.545
251.33	10.204
251.70	14.530
252.08	18.333
252.45	13.934
252.82	12.810
253.19	13.281
253.56	13.688
253.94	8.462
254.31	12.879
254.68	14.685
255.05	16.287
255.42	13.265
255.79	8.091
256.16	13.576
256.54	10.265
256.91	16.721
257.28	13.770
257.65	12.739
258.02	9.440
258.39	13.105
258.76	18.043
259.14	17.241
259.51	11.816
259.88	10.765
260.25	13.611
260.62	14.521
260.99	13.661
261.36	16.890
261.73	14.854
262.10	11.813
262.47	14.745
262.85	16.414
263.22	12.208
263.59	10.789
263.96	13.043
264.33	12.020
264.70	15.556
265.07	14.797
265.44	14.966
265.81	10.880
266.18	13.832
266.55	12.723
266.92	10.934
267.29	14.661
267.66	12.195
268.03	14.847
268.40	12.735
268.77	13.667
269.14	10.793
269.51	14.254
269.88	14.959
270.25	11.469
270.62	13.924
270.99	13.939
271.36	14.059
271.73	13.163
272.10	12.425
272.47	12.224
272.84	12.651
273.21	14.830
273.58	11.895
273.95	10.577
274.32	10.456
274.69	10.251
275.06	12.271
275.43	13.309
275.80	11.993
276.17	12.593
276.54	11.940
276.91	11.091
277.28	12.477
277.65	14.183
278.02	13.235
278.39	11.413
278.76	12.830
279.13	13.121
279.50	12.543
279.87	14.132
280.23	10.739
280.60	13.559
280.97	13.322
281.34	11.205
281.71	15.059
282.08	11.794
282.45	10.311
282.82	14.286
283.19	10.985
283.56	11.967
283.92	15.616
284.29	13.586
284.66	12.808
285.03	9.615
285.40	14.992
285.77	12.539
286.14	14.351
286.51	14.155
286.87	12.954
287.24	13.253
287.61	14.051
287.98	12.085
288.35	14.053
288.72	13.462
289.08	15.081
289.45	11.982
289.82	12.952
290.19	13.793
290.56	12.535
290.93	14.265
291.29	13.636
291.66	12.810
292.03	13.026
292.40	15.102
292.77	14.016
293.13	14.750
293.50	12.352
293.87	12.483
294.24	14.000
294.60	16.182
294.97	14.228
295.34	15.493
295.71	13.871
296.08	13.307
296.44	12.623
296.81	13.276
297.18	15.442
297.55	12.382
297.91	15.065
298.28	13.744
298.65	13.317
299.02	12.987
299.38	14.302
299.75	14.019
300.12	12.963
300.48	13.249
300.85	14.398
301.22	14.430
301.59	13.813
301.95	14.124
302.32	15.556
302.69	14.239
303.05	14.037
303.42	13.969
303.79	15.000
304.15	14.721
304.52	13.848
304.89	14.346
305.25	14.182
305.62	14.838
305.99	13.711
306.35	14.617
306.72	15.512
307.09	12.893
307.45	15.424
307.82	14.228
308.19	14.531
308.55	15.815
308.92	13.535
309.29	14.080
309.65	14.327
310.02	14.158
310.38	13.484
310.75	15.243
311.12	14.094
311.48	15.249
311.85	15.670
312.22	13.852
312.58	13.803
312.95	14.149
313.31	14.544
313.68	14.011
314.05	15.537
314.41	14.936
314.78	15.168
315.14	13.884
315.51	14.958
315.87	15.572
316.24	15.799
316.61	15.808
316.97	14.389
317.34	14.815
317.70	14.934
318.07	14.903
318.43	15.221
318.80	15.719
319.16	15.365
319.53	15.081
319.89	14.549
320.26	16.281
320.62	14.273
320.99	16.159
321.35	15.342
321.72	16.558
322.08	16.231
322.45	15.086
322.81	16.336
323.18	16.726
323.54	15.690
323.91	17.082
324.27	16.351
324.64	16.541
325.00	16.252
325.37	16.708
325.73	16.942
326.10	16.626
326.46	17.590
326.83	18.014
327.19	17.638
327.56	18.419
327.92	16.916
328.29	16.855
328.65	15.997
329.01	17.936
329.38	17.523
329.74	18.493
330.11	18.836
330.47	17.102
330.84	17.485
331.20	17.250
331.56	17.504
331.93	17.824
332.29	18.305
332.66	19.269
333.02	16.750
333.38	17.450
333.75	17.340
334.11	17.431
334.48	17.739
334.84	18.352
335.20	16.205
335.57	18.297
335.93	18.926
336.29	16.057
336.66	18.251
337.02	18.060
337.38	19.303
337.75	16.446
338.11	16.905
338.47	17.949
338.84	17.597
339.20	17.692
339.56	16.804
339.93	17.159
340.29	17.150
340.65	16.139
341.02	16.840
341.38	18.189
341.74	17.676
342.11	17.216
342.47	16.521
342.83	17.311
343.20	16.190
343.56	17.642
343.92	16.894
344.28	17.969
344.65	17.674
345.01	17.473
345.37	17.963
345.73	17.147
346.10	17.863
346.46	16.930
346.82	17.753
347.19	17.571
347.55	17.602
347.91	17.533
348.27	16.388
348.63	17.060
349.00	17.450
349.36	17.175
349.72	16.890
350.08	17.459
350.45	17.110
350.81	17.647
351.17	17.970
351.53	17.741
351.89	18.603
352.26	18.284
352.62	17.687
352.98	17.176
353.34	17.252
353.70	17.103
354.07	18.405
354.43	17.692
354.79	18.175
355.15	17.513
355.51	19.444
355.87	17.427
356.24	17.262
356.60	17.886
356.96	18.236
357.32	17.621
357.68	17.204
358.04	16.916
358.40	17.313
358.77	17.982
359.13	18.390
359.49	17.323
359.85	17.839
360.21	18.580
360.57	17.588
360.93	17.772
361.29	18.877
361.66	18.682
362.02	20.877
362.38	19.185
362.74	18.436
363.10	19.257
363.46	18.283
363.82	18.253
364.18	18.649
364.54	19.640
364.90	20.067
365.26	19.103
365.62	19.867
365.98	18.993
366.35	19.128
366.71	20.272
367.07	20.162
367.43	19.764
367.79	20.305
368.15	20.134
368.51	20.298
368.87	20.901
369.23	20.533
369.59	20.492
369.95	19.811
370.31	21.404
370.67	20.839
371.03	21.607
371.39	20.282
371.75	20.426
372.11	21.341
372.47	21.124
372.83	20.681
373.19	21.214
373.55	21.409
373.91	20.586
374.27	21.734
374.63	21.380
374.99	21.154
375.35	22.338
375.71	22.581
376.07	23.112
376.42	22.229
376.78	22.126
377.14	23.019
377.50	22.454
377.86	22.414
378.22	23.713
378.58	23.365
378.94	22.711
379.30	23.081
379.66	23.810
380.02	24.178
380.38	23.560
380.74	24.113
381.09	23.751
381.45	23.920
381.81	25.761
382.17	24.762
382.53	24.386
382.89	25.339
383.25	24.795
383.61	24.769
383.97	24.323
384.32	24.880
384.68	24.710
385.04	25.911
385.40	26.223
385.76	26.436
386.12	25.793
386.48	25.941
386.83	26.758
387.19	25.782
387.55	25.939
387.91	26.484
388.27	26.443
388.62	26.289
388.98	26.734
389.34	27.873
389.70	27.310
390.06	27.117
390.42	26.084
390.77	27.032
391.13	27.171
391.49	27.959
391.85	28.303
392.20	27.877
392.56	27.584
392.92	27.917
393.28	28.137
393.64	27.430
393.99	28.704
394.35	27.629
394.71	28.683
395.07	27.545
395.42	28.955
395.78	29.433
396.14	28.758
396.50	29.572
396.85	28.682
397.21	28.580
397.57	29.388
397.92	28.866
398.28	29.115
398.64	29.405
399.00	28.691
399.35	29.215
399.71	29.620
400.07	29.646
400.42	30.384
400.78	29.456
401.14	28.970
401.49	30.358
401.85	30.814
402.21	30.070
402.57	30.927
402.92	30.142
403.28	30.621
403.63	30.072
403.99	30.048
404.35	30.131
404.70	30.142
405.06	30.000
405.42	30.621
405.77	31.734
406.13	31.280
406.49	31.025
406.84	31.690
407.20	30.799
407.55	31.133
407.91	31.238
408.27	31.449
408.62	31.763
408.98	30.876
409.34	30.792
409.69	32.138
410.05	31.653
410.40	31.903
410.76	31.239
411.11	32.262
411.47	31.327
411.83	32.040
412.18	33.434
412.54	31.180
412.89	31.665
413.25	32.280
413.60	32.280
413.96	32.925
414.31	31.728
414.67	32.200
415.03	32.800
415.38	32.598
415.74	31.888
416.09	33.313
416.45	31.309
416.80	31.212
417.16	32.822
417.51	32.130
417.87	33.476
418.22	32.695
418.58	31.537
418.93	33.527
419.29	32.922
419.64	32.833
420.00	32.878
420.35	33.015
420.71	32.338
421.06	32.432
421.42	33.830
421.77	32.795
422.12	33.298
422.48	32.258
422.83	33.078
423.19	32.308
423.54	33.241
423.90	32.855
424.25	33.600
424.61	31.515
424.96	33.059
425.31	32.962
425.67	31.938
426.02	32.319
426.38	33.123
426.73	33.147
427.09	32.814
427.44	33.261
427.79	32.725
428.15	31.963
428.50	32.360
428.85	33.180
429.21	32.500
429.56	32.675
429.92	32.432
430.27	32.530
430.62	32.829
430.98	32.120
431.33	31.867
431.68	32.328
432.04	32.605
432.39	32.619
432.74	32.306
433.10	32.450
433.45	32.497
433.80	32.564
434.16	33.006
434.51	32.528
434.86	32.953
435.22	33.050
435.57	33.726
435.92	32.387
436.28	34.016
436.63	33.151
436.98	32.313
437.34	32.976
437.69	32.581
438.04	32.893
438.39	32.855
438.75	32.319
439.10	32.611
439.45	32.923
439.81	31.864
440.16	32.172
440.51	32.107
440.86	31.962
441.22	32.262
441.57	31.656
441.92	33.414
442.27	32.222
442.63	31.396
442.98	31.857
443.33	32.720
443.68	32.458
444.03	33.208
444.39	32.825
444.74	32.006
445.09	32.337
445.44	31.823
445.79	33.525
446.15	32.014
446.50	32.558
446.85	32.831
447.20	32.302
447.55	33.159
447.91	32.251
448.26	31.924
448.61	31.562
448.96	32.725
449.31	32.503
449.66	31.536
450.02	32.911
450.37	31.806
450.72	31.324
451.07	32.289
451.42	31.196
451.77	31.295
452.12	32.223
452.47	30.719
452.83	31.644
453.18	31.115
453.53	30.557
453.88	31.750
454.23	31.525
454.58	32.095
454.93	31.857
455.28	32.450
455.63	31.723
455.98	31.229
456.34	31.508
456.69	31.864
457.04	31.206
457.39	32.262
457.74	31.767
458.09	30.423
458.44	30.981
458.79	30.634
459.14	30.991
459.49	31.579
459.84	31.270
460.19	30.983
460.54	31.687
460.89	31.604
461.24	31.264
461.59	31.101
461.94	30.006
462.29	30.459
462.64	30.235
462.99	30.383
463.34	31.668
463.69	30.481
464.04	30.850
464.39	30.493
464.74	30.673
465.09	30.738
465.44	31.277
465.79	29.508
466.14	29.807
466.49	29.842
466.84	30.854
467.19	30.578
467.54	30.082
467.89	30.402
468.24	30.859
468.59	29.531
468.94	29.371
469.29	30.354
469.64	30.642
469.99	30.465
470.34	30.569
470.68	30.417
471.03	29.928
471.38	29.431
471.73	29.649
472.08	30.393
472.43	30.343
472.78	29.786
473.13	29.140
473.48	30.453
473.83	30.238
474.17	29.191
474.52	28.863
474.87	29.457
475.22	29.465
475.57	29.803
475.92	28.721
476.27	29.340
476.61	29.335
476.96	28.676
477.31	29.356
477.66	30.010
478.01	28.114
478.36	28.714
478.70	28.621
479.05	29.601
479.40	28.875
479.75	29.635
480.10	28.991
480.45	28.943
480.79	27.937
481.14	27.987
481.49	28.805
481.84	28.938
482.19	28.731
482.53	28.684
482.88	28.046
483.23	27.968
483.58	27.948
483.92	28.280
484.27	27.688
484.62	28.135
484.97	27.722
485.31	28.054
485.66	27.491
486.01	27.091
486.36	27.889
486.70	28.388
487.05	28.150
487.40	28.256
487.75	27.608
488.09	27.444
488.44	27.035
488.79	27.116
489.13	26.720
489.48	27.029
489.83	26.398
490.17	26.569
490.52	25.575
490.87	26.988
491.22	26.646
491.56	25.939
491.91	27.388
492.26	26.136
492.60	26.104
492.95	25.889
493.30	26.580
493.64	25.887
493.99	26.535
494.34	25.958
494.68	25.482
495.03	26.388
495.37	26.099
495.72	26.259
496.07	25.197
496.41	25.783
496.76	26.480
497.11	25.011
497.45	25.593
497.80	26.077
498.14	25.351
498.49	25.000
498.84	25.914
499.18	25.506
499.53	25.112
499.87	25.978
500.22	25.111
500.56	25.146
500.91	25.217
501.26	24.864
501.60	24.746
501.95	25.315
502.29	24.572
502.64	25.011
502.98	24.633
503.33	24.665
503.67	23.681
504.02	24.124
504.36	24.799
504.71	24.391
505.06	24.102
505.40	24.360
505.75	23.953
506.09	24.724
506.44	24.745
506.78	24.725
507.13	23.974
507.47	23.638
507.82	23.627
508.16	24.092
508.51	23.582
508.85	24.232
509.19	24.207
509.54	24.784
509.88	23.604
510.23	24.089
510.57	24.215
510.92	23.851
511.26	23.040
511.61	23.225
511.95	23.426
512.30	24.028
512.64	22.939
512.98	23.912
513.33	23.690
513.67	23.304
514.02	23.454
514.36	23.683
514.70	24.219
515.05	22.993
515.39	24.042
515.74	23.754
516.08	22.557
516.42	24.019
516.77	23.502
517.11	23.311
517.46	22.853
517.80	23.356
518.14	24.102
518.49	22.993
518.83	23.097
519.17	22.725
519.52	22.222
519.86	23.654
520.20	22.630
520.55	21.742
520.89	22.410
521.23	22.278
521.58	22.768
521.92	22.436
522.26	22.165
522.61	23.206
522.95	22.434
523.29	22.989
523.64	20.852
523.98	22.419
524.32	22.808
524.66	22.994
525.01	21.801
525.35	22.229
525.69	21.810
526.04	21.699
526.38	21.379
526.72	22.145
527.06	22.111
527.41	21.866
527.75	21.793
528.09	21.842
528.43	21.314
528.78	21.214
529.12	21.445
529.46	21.417
529.80	22.254
530.15	20.986
530.49	21.471
530.83	20.779
531.17	21.326
531.51	21.059
531.86	21.815
532.20	21.098
532.54	20.527
532.88	21.333
533.22	20.978
533.57	20.427
533.91	20.932
534.25	21.029
534.59	21.322
534.93	21.053
535.27	20.563
535.62	20.807
535.96	20.976
536.30	21.504
536.64	20.781
536.98	22.263
537.32	20.556
537.66	21.273
538.01	19.577
538.35	19.549
538.69	19.892
539.03	20.478
539.37	19.847
539.71	20.601
540.05	20.504
540.39	19.682
540.73	19.733
541.07	20.540
541.42	20.378
541.76	19.988
542.10	19.723
542.44	19.184
542.78	19.526
543.12	19.368
543.46	18.681
543.80	18.945
544.14	20.527
544.48	19.385
544.82	18.612
545.16	18.545
545.50	18.874
545.84	18.677
546.18	19.074
546.52	19.682
546.86	18.302
547.20	18.830
547.54	18.602
547.88	18.626
548.22	18.889
548.56	18.607
548.90	18.328
549.24	19.271
549.58	18.927
549.92	17.793
550.26	19.353
550.60	19.464
550.94	18.370
551.28	18.284
551.62	19.744
551.96	18.835
552.30	18.738
552.64	18.731
552.98	18.902
553.32	18.135
553.66	17.685
554.00	18.663
554.34	17.053
554.68	17.624
555.02	18.134
555.36	18.277
555.69	17.233
556.03	17.718
556.37	18.210
556.71	18.389
557.05	18.466
557.39	18.049
557.73	17.768
558.07	18.344
558.41	18.339
558.75	17.241
559.08	18.372
559.42	17.695
559.76	17.910
560.10	17.683
560.44	17.942
560.78	17.188
561.12	17.118
561.45	16.727
561.79	17.338
562.13	17.190
562.47	16.523
562.81	17.658
563.15	16.982
563.48	16.346
563.82	16.082
564.16	16.414
564.50	16.985
564.84	16.814
565.17	16.412
565.51	16.974
565.85	16.686
566.19	15.495
566.52	16.325
566.86	16.525
567.20	15.987
567.54	16.516
567.88	17.023
568.21	16.700
568.55	16.307
568.89	16.659
569.23	17.026
569.56	16.764
569.90	16.536
570.24	15.784
570.57	16.004
570.91	15.707
571.25	15.736
571.59	15.725
571.92	15.752
572.26	15.458
572.60	15.315
572.93	15.113
573.27	15.510
573.61	15.590
573.95	15.344
574.28	15.277
574.62	15.007
574.96	15.130
575.29	15.224
575.63	15.292
575.97	15.353
576.30	14.878
576.64	14.913
576.98	15.011
577.31	15.177
577.65	15.126
577.98	15.324
578.32	14.837
578.66	14.606
578.99	15.032
579.33	14.273
579.67	14.619
580.00	14.790
580.34	14.682
580.67	14.519
581.01	14.626
581.35	14.943
581.68	14.658
582.02	14.479
582.35	14.469
582.69	14.728
583.02	14.352
583.36	14.685
583.70	14.269
584.03	14.375
584.37	14.120
584.70	14.181
585.04	13.950
585.37	14.096
585.71	14.132
586.04	13.981
586.38	14.438
586.72	13.988
587.05	13.968
587.39	14.410
587.72	14.139
588.06	14.386
588.39	14.264
588.73	14.180
589.06	14.137
589.40	14.290
589.73	13.946
590.07	14.092
590.40	14.097
590.73	14.210
591.07	14.631
591.40	13.764
591.74	14.388
592.07	14.413
592.41	13.920
592.74	13.774
593.08	14.172
593.41	14.027
593.75	14.023
594.08	13.753
594.41	14.038
594.75	13.584
595.08	13.358
595.42	14.123
595.75	13.852
596.09	14.029
596.42	13.830
596.75	14.126
597.09	13.293
597.42	13.588
597.75	13.328
598.09	13.770
598.42	13.671
598.76	13.451
599.09	13.243
599.42	13.376
599.76	13.404
600.09	13.547
600.42	13.313
600.76	13.012
601.09	13.143
601.42	13.045
601.76	13.414
602.09	13.831
602.42	13.232
602.76	13.579
603.09	13.473
603.42	13.186
603.76	13.390
604.09	13.982
604.42	12.881
604.76	13.052
605.09	12.844
605.42	13.278
605.75	12.769
606.09	12.467
606.42	12.733
606.75	12.519
607.09	12.711
607.42	13.256
607.75	13.130
608.08	12.786
608.42	12.616
608.75	13.516
609.08	12.818
609.41	12.969
609.75	12.768
610.08	13.632
610.41	13.042
610.74	12.731
611.07	13.055
611.41	13.453
611.74	13.487
612.07	13.137
612.40	12.880
612.73	13.007
613.07	12.763
613.40	12.512
613.73	12.133
614.06	12.954
614.39	12.731
614.72	12.033
615.06	12.512
615.39	12.421
615.72	12.749
616.05	12.336
616.38	12.361
616.71	12.539
617.05	11.874
617.38	13.269
617.71	13.931
618.04	12.358
618.37	12.787
618.70	12.726
619.03	12.306
619.36	12.577
619.69	11.595
620.03	12.555
620.36	12.393
620.69	12.955
621.02	13.255
621.35	13.135
621.68	12.943
622.01	13.167
622.34	12.483
622.67	12.440
623.00	11.471
623.33	11.812
623.66	12.062
623.99	10.994
624.32	13.060
624.65	12.033
624.99	12.744
625.32	13.455
625.65	12.407
625.98	12.610
626.31	12.190
626.64	12.601
626.97	12.303
627.30	11.465
627.63	12.153
627.96	13.514
628.29	12.996
628.62	12.678
628.95	11.744
629.28	11.895
629.61	12.963
629.94	12.552
630.26	12.119
630.59	12.694
630.92	12.208
631.25	13.148
631.58	11.111
631.91	12.652
632.24	12.584
632.57	12.334
632.90	12.939
633.23	12.653
633.56	11.735
633.89	11.777
634.22	14.345
634.55	13.361
634.88	11.580
635.20	13.025
635.53	12.429
635.86	12.134
636.19	12.725
636.52	13.080
636.85	12.564
637.18	13.098
637.51	12.151
637.83	13.511
638.16	12.097
638.49	11.033
638.82	11.950
639.15	12.142
639.48	13.164
639.81	11.316
640.13	12.721
640.46	11.030
640.79	11.642
641.12	11.056
641.45	11.167
641.77	13.350
642.10	11.811
642.43	13.564
642.76	11.789
643.09	11.644
643.41	10.924
643.74	12.138
644.07	14.345
644.40	11.315
644.73	11.466
645.05	11.601
645.38	12.086
645.71	13.050
646.04	15.065
646.36	10.949
646.69	10.583
647.02	14.220
647.35	12.824
647.67	12.238
648.00	11.146
648.33	12.913
648.66	11.127
648.98	9.932
649.31	12.720
649.64	11.687
649.96	12.334
650.29	11.822
650.62	12.306
650.94	10.661
651.27	9.880
651.60	12.135
651.92	12.158
652.25	12.012
652.58	11.142
652.90	9.884
653.23	11.690
653.56	11.698
653.88	12.921
654.21	10.563
654.54	11.416
654.86	13.598
655.19	11.167
655.52	11.413
655.84	9.908
656.17	11.850
656.49	16.781
656.82	18.783
657.15	14.700
657.47	10.966
657.80	8.058
658.13	6.386
658.45	8.533
658.78	10.275
659.10	10.281
659.43	10.084
659.75	9.728
660.08	9.412
660.41	9.760
660.73	10.376
661.06	11.601
661.38	10.367
661.71	10.862
662.03	9.877
662.36	12.343
662.68	12.195
663.01	11.504
663.33	13.233
663.66	13.919
663.98	10.769
664.31	11.445
664.63	9.249
664.96	13.249
665.28	9.619
665.61	12.063
665.93	10.714
666.26	11.290
666.58	12.362
666.91	13.271
667.23	12.762
667.56	10.848
667.88	12.600
668.21	8.203
668.53	10.618
668.86	11.591
669.18	8.961
669.50	12.525
669.83	10.600
670.15	10.039
670.48	11.706
670.80	9.369
671.13	11.909
671.45	10.630
671.77	9.228
672.10	11.167
672.42	9.385
672.75	9.217
673.07	9.104
673.39	8.937
673.72	11.745
674.04	12.586
674.37	12.522
674.69	13.228
675.01	9.714
675.34	11.641
675.66	10.861
675.98	11.194
676.31	9.766
676.63	10.837
676.95	9.387
677.28	9.879
677.60	9.252
677.92	11.132
678.25	11.700
678.57	10.854
678.89	11.604
679.22	7.840
679.54	9.744
679.86	8.814
680.18	8.955
680.51	10.220
680.83	9.820
681.15	10.862
681.48	10.881
681.80	12.435
682.12	10.315
682.44	10.017
682.77	10.106
683.09	10.038
683.41	10.853
683.73	10.626
684.06	11.439
684.38	8.229
684.70	11.311
685.02	10.671
685.34	7.321
685.67	9.306
685.99	9.356
686.31	9.012
686.63	11.216
686.96	10.883
687.28	10.098
687.60	9.091
687.92	8.842
688.24	11.686
688.56	10.172
688.89	12.160
689.21	9.002
689.53	7.451
689.85	9.862
690.17	9.074
690.49	8.964
690.82	9.901
691.14	9.717
691.46	9.178
691.78	11.050
692.10	9.725
692.42	10.179
692.74	9.437
693.06	8.148
693.39	9.867
693.71	8.271
694.03	10.223
694.35	9.333
694.67	11.499
694.99	9.149
695.31	9.492
695.63	9.524
695.95	11.180
696.27	8.791
696.59	11.062
696.91	10.586
697.23	10.769
697.56	9.776
697.88	6.818
698.20	9.793
698.52	10.606
698.84	6.861
699.16	10.816
699.48	8.996
699.80	8.085
700.12	10.044
700.44	10.599
700.76	9.739
701.08	9.201
701.40	11.399
701.72	10.945
702.04	8.289
702.36	9.424
702.68	8.068
703.00	9.046
703.32	9.606
703.64	10.513
703.96	10.979
704.28	8.108
704.60	11.646
704.91	6.633
705.23	12.055
705.55	6.407
705.87	10.303
706.19	11.963
706.51	5.723
706.83	8.934
707.15	7.143
707.47	8.879
707.79	9.170
708.11	6.356
708.43	7.097
708.74	7.143
709.06	8.585
709.38	10.094
709.70	8.437
710.02	7.235
710.34	9.574
710.66	4.469
710.98	7.104
711.29	10.440
711.61	9.322
711.93	8.547
712.25	7.838
712.57	14.159
712.89	10.294
713.20	4.734
713.52	11.561
713.84	9.192
714.16	9.474
714.48	10.825
714.80	11.948
715.11	7.612
715.43	10.610
715.75	10.789
716.07	8.564
716.39	10.656
716.70	10.542
717.02	7.213
717.34	4.878
717.66	10.738
717.97	4.452
718.29	6.529
718.61	6.250
718.93	9.385
719.24	12.422
719.56	10.123
719.88	9.309
720.20	7.419
720.51	6.211
720.83	8.125
721.15	5.263
721.46	5.479
721.78	10.333
722.10	4.854
722.42	5.034
722.73	6.452
723.05	11.228
723.37	9.375
723.68	9.319
724.00	8.664
724.32	10.211
724.63	6.993
724.95	10.638
725.27	8.711
725.58	6.714
725.90	8.966
726.22	7.210
726.53	8.442
726.85	10.377
727.16	10.272
727.48	11.621
727.80	11.921
728.11	9.894
728.43	8.081
728.74	10.033
729.06	6.623
729.38	8.442
729.69	7.383
730.01	8.333
730.32	4.545
730.64	7.547
730.96	6.522
731.27	11.173
731.59	10.440
731.90	5.195
732.22	6.771
732.53	6.906
732.85	8.857
733.16	8.504
733.48	8.232
733.80	9.192
734.11	7.692
734.43	7.297
734.74	10.886
735.06	8.040
735.37	8.649
735.69	6.486
736.00	7.910
736.32	8.895
736.63	8.611
736.95	6.322
737.26	7.879
737.58	5.152
737.89	6.765
738.21	2.752
738.52	7.213
738.83	12.628
739.15	10.284
739.46	9.184
739.78	8.896
740.09	5.731
740.41	9.913
740.72	1.000
741.04	11.327
741.35	9.123
741.66	8.627
741.98	5.328
742.29	4.184
742.61	6.140
742.92	7.692
743.23	11.552
743.55	6.589
743.86	6.800
744.18	4.545
744.49	7.595
744.80	10.700
745.12	4.219
745.43	11.789
745.74	5.172
746.06	7.203
746.37	9.283
746.68	8.537
747.00	7.083
747.31	8.584
747.62	10.385
747.94	7.692
748.25	6.426
748.56	7.347
748.88	6.838
749.19	12.931
749.50	3.030
749.82	8.835
750.13	9.609
750.44	3.000
750.75	8.615
751.07	7.385
751.38	7.886
751.69	6.709
752.01	5.178
752.32	5.556
752.63	6.803
752.94	8.997
753.26	8.550
753.57	3.704
753.88	7.491
754.19	5.145
754.51	7.074
754.82	9.325
755.13	9.836
755.44	6.143
755.75	9.868
756.07	10.149
756.38	7.233
756.69	8.735
757.00	4.709
757.31	6.284
757.63	4.604
757.94	6.103
758.25	9.029
758.56	7.625
758.87	10.227
759.18	6.400
759.50	11.048
759.81	7.003
760.12	6.469
760.43	5.469
760.74	7.389
761.05	6.000
761.36	3.133
761.67	7.107
761.99	7.568
762.30	5.183
762.61	6.601
762.92	8.209
763.23	8.614
763.54	7.554
763.85	6.873
764.16	5.724
764.47	7.746
764.78	9.904
765.10	7.918
765.41	10.256
765.72	7.672
766.03	8.475
766.34	5.956
766.65	6.969
766.96	4.781
767.27	4.608
767.58	2.488
767.89	11.538
768.20	7.512
768.51	6.481
768.82	6.024
769.13	6.061
769.44	2.692
769.75	8.303
770.06	8.846
770.37	11.811
770.68	7.234
770.99	2.024
771.30	11.111
771.61	4.183
771.92	7.037
772.23	8.502
772.54	8.796
772.85	10.138
773.16	15.714
773.47	8.995
773.78	0.541
774.09	9.091
774.39	16.500
774.70	6.011
775.01	4.268
775.32	1.765
775.63	10.429
775.94	0.000
776.25	9.032
776.56	5.128
776.87	7.483
777.18	9.655
777.48	2.797
777.79	2.027
778.10	4.412
778.41	6.944
778.72	9.655
779.03	9.877
779.34	6.061
779.65	8.290
779.95	10.556
780.26	10.227
780.57	9.032
780.88	12.319
781.19	12.258
781.50	9.412
781.80	6.452
782.11	11.640
782.42	6.566
782.73	5.389
783.04	8.939
783.34	1.818
783.65	-2.614
783.96	0.000
784.27	11.310
784.57	9.272
784.88	6.429
785.19	6.299
785.50	3.937
785.81	5.263
786.11	6.154
786.42	-2.158
786.73	5.036
787.04	9.023
787.34	2.459
787.65	8.000
787.96	8.955
788.26	4.196
788.57	11.189
788.88	4.605
789.19	6.536
789.49	12.329
789.80	8.511
790.11	0.787
790.41	3.125
790.72	0.847
791.03	-6.796
791.33	4.348
791.64	10.526
791.95	0.893
792.25	8.571
792.56	8.036
792.87	6.250
793.17	13.393
793.48	1.042
793.79	-9.639
794.09	4.587
794.40	-2.752
794.70	2.721
795.01	4.545
795.32	4.110
795.62	4.930
795.93	-2.273
796.23	3.279
796.54	2.679
796.85	5.319
797.15	-8.696
797.46	-5.479
797.76	-6.250
798.07	2.174
798.37	-2.062
798.68	3.896
798.99	5.747
799.29	12.360
799.60	2.128
799.90	12.048
800.21	-3.077
800.51	-2.985
800.82	4.412
801.12	-12.329
801.43	-25.000
801.73	10.169
802.04	-3.030
802.34	-6.667
802.65	5.085
802.95	1.493
803.26	-13.559
803.56	1.370
803.87	10.000
804.17	23.288
804.48	-22.807
804.78	11.111
805.09	-1.724
805.39	9.459
805.70	-5.634
806.00	13.415
806.30	10.843
806.61	-1.370
806.91	13.462
807.22	-5.556
807.52	-9.195
807.83	9.722
808.13	9.639
808.43	11.236
808.74	11.250
809.04	-1.471
809.35	-2.667
809.65	-2.857
809.95	0.000
810.26	-7.018
810.56	8.621
810.86	1.471
811.17	22.807
811.47	-3.279
811.77	-15.556
812.08	6.780
812.38	13.333
812.69	15.517
812.99	0.000
813.29	-23.077
813.59	8.000
813.90	12.281
814.20	1.818
814.50	9.859
814.81	2.564
815.11	11.475
815.41	2.985
815.72	13.793
816.02	12.500
816.32	4.444
816.62	-4.545
816.93	-8.889
817.23	14.815
817.53	0.000
817.84	11.905
818.14	-5.882
818.44	10.204
818.74	13.333
819.04	0.000
819.35	-20.000
819.65	3.846
819.95	-7.547
820.25	0.000
820.56	-23.810
820.86	-3.125
821.16	0.000
821.46	0.000
821.76	-8.000
822.07	8.929
822.37	8.696
822.67	-14.894
822.97	-16.216
823.27	0.000
823.57	14.286
823.88	6.667
824.18	27.500
824.48	-23.333
824.78	-20.000
825.08	-3.030
825.38	26.667
825.69	12.766
825.99	0.000
826.29	-34.286
826.59	-7.692
826.89	-27.907
827.19	-4.000
827.49	-11.765
827.79	29.167
828.09	-2.703
828.39	-6.667
828.70	-12.195
829.00	4.651
829.30	0.000
829.60	26.471
829.90	39.130
830.20	-11.429
830.50	-27.586
830.80	-22.222
831.10	-7.692
831.40	20.588
831.70	-14.286
832.00	3.226
832.30	-100.000
832.60	-50.000
832.90	-69.231
833.20	0.000
833.50	-15.000
833.80	-26.316
834.10	-71.429
834.40	-5.556
834.70	28.125
835.00	-17.143
835.30	5.882
835.60	-16.667
835.90	-16.000
836.20	-59.091
836.50	32.000
836.80	-15.152
837.10	7.407
837.40	25.926
837.70	-50.000
838.00	7.143
838.30	0.000
838.60	41.379
838.90	21.429
839.19	-39.130
839.49	-66.667
839.79	8.696
840.09	-31.250
840.39	-15.000
840.69	32.258
840.99	-50.000
841.29	20.000
841.59	-57.895
841.88	2.564
842.18	-19.231
842.48	10.000
842.78	15.000
843.08	-20.000
843.38	22.581
843.68	0.000
843.97	20.588
844.27	-43.750
844.57	-31.579
844.87	-80.000
845.17	-13.333
845.47	-19.048
845.76	0.000
846.06	-88.889
846.36	-76.471
846.66	-7.692
846.96	-40.000
847.25	-58.824
847.55	26.087
847.85	-35.000
848.15	52.941
848.44	9.091
848.74	4.762
849.04	-54.167
849.34	-37.500
849.63	30.435
849.93	800.000
850.23	-33.333
850.53	7.692
850.82	-9.091
851.12	45.455
851.42	-100.000
851.71	84.615
852.01	-35.000
852.31	0.000
852.61	-52.632
852.90	25.000
853.20	0.000
853.50	-188.889
853.79	-23.810
854.09	-27.273
854.39	-16.667
854.68	-12.903
854.98	-7.692
855.28	-5.556
855.57	-28.571
855.87	-12.000
856.17	-22.727
856.46	3.704
856.76	-16.667
857.05	-21.739
857.35	-20.833
857.65	-84.615
857.94	4.762
858.24	7.407
858.53	47.826
858.83	-47.059
859.13	-41.176
859.42	-11.765
859.72	-35.714
860.01	-20.000
860.31	0.000
860.60	-40.000
860.90	-33.333
861.20	27.778
861.49	-23.077
861.79	23.333
862.08	-53.846
862.38	-9.375
862.67	23.529
862.97	-6.250
863.26	-66.667
863.56	60.000
863.85	-9.091
864.15	0.000
864.44	-400.000
864.74	-35.714
865.03	18.750
865.33	-70.000
865.62	-51.613
865.92	45.455
866.21	0.000
866.51	-21.429
866.80	-180.000
867.10	-16.667
867.39	-83.333
867.69	2500.000
867.98	-57.143
868.27	-11.765
868.57	-1400.000
868.86	-170.000
869.16	-28.571
869.45	29.167
869.75	9.091
870.04	57.143
870.33	-50.000
870.63	-242.857
870.92	75.000
871.22	-162.500
871.51	-54.545
871.80	-133.333
872.10	-700.000
>>>>>End Processed Spectral Data<<<<<
