SpectraSuite Data File
++++++++++++++++++++++++++++++++++++
Date: Thu May 14 16:34:48 PDT 2015
User: schluterlab
Dark Spectrum Present: Yes
Reference Spectrum Present: Yes
Number of Sampled Component Spectra: 1
Spectrometers: USB2E3373
Integration Time (usec): 3000 (USB2E3373)
Spectra Averaged: 3 (USB2E3373)
Boxcar Smoothing: 0 (USB2E3373)
Correct for Electrical Dark: No (USB2E3373)
Strobe/Lamp Enabled: No (USB2E3373)
Correct for Detector Non-linearity: No (USB2E3373)
Correct for Stray Light: No (USB2E3373)
Number of Pixels in Processed Spectrum: 2048
>>>>>Begin Processed Spectral Data<<<<<
178.53	0.000
178.91	57.143
179.29	-1400.000
179.67	-1000.000
180.04	178.571
180.42	70.000
180.80	40.000
181.18	100.000
181.56	300.000
181.94	100.000
182.31	-75.000
182.69	166.667
183.07	50.000
183.45	150.000
183.83	83.333
184.20	-66.667
184.58	600.000
184.96	-275.000
185.34	-33.333
185.72	40.000
186.09	77.778
186.47	450.000
186.85	180.000
187.23	-88.889
187.61	-400.000
187.98	60.000
188.36	100.000
188.74	-175.000
189.12	-200.000
189.49	-25.000
189.87	0.000
190.25	-66.667
190.63	60.000
191.00	-111.111
191.38	0.000
191.76	-250.000
192.14	-33.333
192.51	150.000
192.89	150.000
193.27	0.000
193.65	128.571
194.02	-800.000
194.40	100.000
194.78	128.571
195.15	0.000
195.53	-72.727
195.91	0.000
196.29	-50.000
196.66	-7.692
197.04	-600.000
197.42	-228.571
197.79	-250.000
198.17	-25.000
198.55	42.857
198.92	111.111
199.30	-112.500
199.68	-63.636
200.05	-14.286
200.43	-650.000
200.81	142.857
201.18	0.000
201.56	111.111
201.94	0.000
202.31	400.000
202.69	-88.889
203.07	200.000
203.44	-11.111
203.82	-175.000
204.19	-66.667
204.57	-50.000
204.95	-50.000
205.32	-1200.000
205.70	175.000
206.08	-50.000
206.45	-133.333
206.83	340.000
207.20	50.000
207.58	-160.000
207.96	-266.667
208.33	16.667
208.71	41.667
209.08	83.333
209.46	0.000
209.84	183.333
210.21	350.000
210.59	-0.000
210.96	500.000
211.34	75.000
211.71	-62.500
212.09	-1200.000
212.46	0.000
212.84	1200.000
213.22	-140.000
213.59	50.000
213.97	20.000
214.34	-66.667
214.72	183.333
215.09	-425.000
215.47	0.000
215.84	185.714
216.22	600.000
216.59	0.000
216.97	-20.000
217.34	-250.000
217.72	-187.500
218.09	-75.000
218.47	-325.000
218.84	0.000
219.22	-20.000
219.59	0.000
219.97	-25.000
220.34	400.000
220.72	-100.000
221.09	23.077
221.47	0.000
221.84	-70.000
222.22	-114.286
222.59	0.000
222.97	-12.500
223.34	-140.000
223.72	-500.000
224.09	-275.000
224.46	-275.000
224.84	100.000
225.21	-42.857
225.59	-375.000
225.96	-150.000
226.34	19.231
226.71	166.667
227.08	0.000
227.46	20.000
227.83	25.000
228.21	0.000
228.58	25.000
228.95	650.000
229.33	25.000
229.70	-10.000
230.08	89.474
230.45	190.000
230.82	-33.333
231.20	50.000
231.57	83.333
231.95	-36.364
232.32	0.000
232.69	15.000
233.07	-25.000
233.44	-17.647
233.81	-10.000
234.19	44.444
234.56	-22.727
234.93	34.483
235.31	-36.842
235.68	11.111
236.05	-70.000
236.43	15.385
236.80	28.000
237.17	-22.222
237.55	6.061
237.92	-90.000
238.29	-9.677
238.67	-18.182
239.04	-19.444
239.41	-16.667
239.79	10.870
240.16	1.852
240.53	-23.913
240.91	-29.412
241.28	-8.197
241.65	10.448
242.02	10.811
242.40	-13.846
242.77	1.333
243.14	-6.098
243.51	-9.211
243.89	-20.513
244.26	2.970
244.63	9.804
245.00	9.346
245.38	3.509
245.75	-11.504
246.12	3.968
246.49	-3.101
246.87	-2.143
247.24	9.934
247.61	5.921
247.98	4.027
248.36	3.704
248.73	0.000
249.10	2.732
249.47	7.960
249.84	8.901
250.22	3.627
250.59	2.222
250.96	6.364
251.33	5.102
251.70	5.983
252.08	6.667
252.45	6.557
252.82	2.066
253.19	2.344
253.56	6.084
253.94	1.923
254.31	1.515
254.68	7.692
255.05	8.469
255.42	3.401
255.79	1.294
256.16	4.967
256.54	0.662
256.91	7.213
257.28	1.967
257.65	0.318
258.02	2.065
258.39	4.843
258.76	8.257
259.14	6.609
259.51	4.323
259.88	3.399
260.25	3.611
260.62	3.288
260.99	6.284
261.36	7.775
261.73	2.653
262.10	3.846
262.47	4.021
262.85	6.313
263.22	3.117
263.59	-0.526
263.96	3.836
264.33	1.790
264.70	4.198
265.07	5.251
265.44	8.163
265.81	3.935
266.18	4.308
266.55	5.134
266.92	1.595
267.29	7.877
267.66	4.435
268.03	3.493
268.40	5.428
268.77	2.506
269.14	2.423
269.51	3.728
269.88	7.377
270.25	4.829
270.62	6.962
270.99	7.475
271.36	4.752
271.73	2.947
272.10	4.208
272.47	3.808
272.84	3.815
273.21	4.008
273.58	3.226
273.95	2.115
274.32	4.373
274.69	2.901
275.06	5.678
275.43	3.697
275.80	4.586
276.17	3.519
276.54	5.037
276.91	1.968
277.28	3.255
277.65	2.693
278.02	4.596
278.39	3.442
278.76	5.097
279.13	3.191
279.50	4.124
279.87	5.725
280.23	1.585
280.60	5.254
280.97	5.099
281.34	2.716
281.71	4.907
282.08	4.485
282.45	3.110
282.82	4.553
283.19	1.939
283.56	2.951
283.92	5.405
284.29	5.371
284.66	5.255
285.03	3.045
285.40	6.955
285.77	4.799
286.14	5.802
286.51	3.349
286.87	4.739
287.24	4.217
287.61	4.783
287.98	3.927
288.35	4.438
288.72	5.178
289.08	5.710
289.45	3.846
289.82	5.572
290.19	5.316
290.56	4.366
290.93	5.706
291.29	5.510
291.66	4.821
292.03	4.749
292.40	5.442
292.77	4.043
293.13	6.631
293.50	5.256
293.87	5.235
294.24	7.200
294.60	6.068
294.97	5.503
295.34	6.146
295.71	4.288
296.08	5.556
296.44	6.005
296.81	6.821
297.18	5.479
297.55	5.778
297.91	5.219
298.28	4.147
298.65	6.897
299.02	5.077
299.38	5.721
299.75	7.009
300.12	5.324
300.48	5.760
300.85	5.849
301.22	5.593
301.59	6.279
301.95	4.746
302.32	5.889
302.69	6.572
303.05	5.985
303.42	7.317
303.79	5.938
304.15	5.994
304.52	6.554
304.89	6.597
305.25	5.797
305.62	6.688
305.99	5.979
306.35	5.645
306.72	6.412
307.09	5.584
307.45	6.625
307.82	6.963
308.19	7.568
308.55	7.907
308.92	5.745
309.29	7.375
309.65	6.920
310.02	7.030
310.38	7.579
310.75	7.379
311.12	7.574
311.48	7.527
311.85	8.452
312.22	7.211
312.58	7.981
312.95	7.839
313.31	8.220
313.68	8.059
314.05	8.762
314.41	8.197
314.78	8.629
315.14	8.530
315.51	8.864
315.87	8.641
316.24	8.676
316.61	9.680
316.97	7.783
317.34	7.584
317.70	10.131
318.07	7.407
318.43	9.014
318.80	10.201
319.16	8.498
319.53	9.854
319.89	8.677
320.26	8.986
320.62	9.486
320.99	9.049
321.35	8.780
321.72	10.233
322.08	9.378
322.45	8.220
322.81	8.664
323.18	9.912
323.54	10.000
323.91	10.676
324.27	10.069
324.64	11.419
325.00	10.033
325.37	11.384
325.73	11.157
326.10	9.327
326.46	11.401
326.83	11.449
327.19	11.102
327.56	11.383
327.92	11.094
328.29	10.806
328.65	9.631
329.01	10.914
329.38	10.699
329.74	10.959
330.11	11.216
330.47	11.289
330.84	9.647
331.20	11.000
331.56	11.265
331.93	11.632
332.29	10.932
332.66	11.379
333.02	10.637
333.38	9.983
333.75	10.101
334.11	9.842
334.48	11.551
334.84	11.130
335.20	10.160
335.57	10.287
335.93	10.909
336.29	10.815
336.66	10.849
337.02	10.368
337.38	10.629
337.75	10.413
338.11	10.681
338.47	11.332
338.84	10.491
339.20	9.688
339.56	10.873
339.93	10.755
340.29	9.501
340.65	10.219
341.02	11.173
341.38	10.994
341.74	9.201
342.11	10.780
342.47	10.008
342.83	10.225
343.20	10.221
343.56	11.307
343.92	10.248
344.28	10.625
344.65	10.310
345.01	10.296
345.37	11.042
345.73	9.509
346.10	9.984
346.46	10.285
346.82	10.712
347.19	11.077
347.55	10.319
347.91	9.138
348.27	10.319
348.63	10.358
349.00	9.545
349.36	9.442
349.72	11.235
350.08	9.881
350.45	9.734
350.81	10.030
351.17	9.699
351.53	10.235
351.89	10.099
352.26	9.776
352.62	9.254
352.98	10.763
353.34	9.410
353.70	10.015
354.07	10.432
354.43	9.719
354.79	10.471
355.15	9.713
355.51	10.088
355.87	9.798
356.24	10.266
356.60	9.165
356.96	9.563
357.32	9.665
357.68	8.858
358.04	9.955
358.40	9.925
358.77	9.795
359.13	10.192
359.49	10.037
359.85	9.645
360.21	10.043
360.57	9.548
360.93	10.226
361.29	9.614
361.66	10.210
362.02	10.856
362.38	9.557
362.74	10.265
363.10	11.142
363.46	9.557
363.82	10.937
364.18	9.641
364.54	9.751
364.90	10.301
365.26	9.103
365.62	10.800
365.98	9.803
366.35	10.537
366.71	10.204
367.07	10.081
367.43	10.243
367.79	10.617
368.15	10.569
368.51	10.825
368.87	10.189
369.23	10.133
369.59	9.836
369.95	10.480
370.31	10.939
370.67	10.179
371.03	10.873
371.39	10.208
371.75	10.041
372.11	10.840
372.47	9.885
372.83	11.191
373.19	10.874
373.55	11.043
373.91	10.770
374.27	11.255
374.63	10.690
374.99	10.676
375.35	10.909
375.71	10.258
376.07	10.846
376.42	11.146
376.78	10.814
377.14	10.418
377.50	10.816
377.86	11.392
378.22	11.437
378.58	11.415
378.94	11.150
379.30	11.013
379.66	10.641
380.02	12.002
380.38	11.463
380.74	11.042
381.09	10.453
381.45	11.477
381.81	11.827
382.17	11.461
382.53	11.579
382.89	12.077
383.25	11.547
383.61	10.532
383.97	11.425
384.32	11.842
384.68	11.485
385.04	12.030
385.40	11.668
385.76	11.958
386.12	10.952
386.48	12.294
386.83	10.906
387.19	11.240
387.55	11.620
387.91	11.587
388.27	11.374
388.62	12.257
388.98	11.337
389.34	11.727
389.70	12.609
390.06	12.611
390.42	11.627
390.77	12.402
391.13	11.854
391.49	12.198
391.85	11.818
392.20	12.040
392.56	12.936
392.92	12.595
393.28	12.106
393.64	12.123
393.99	11.912
394.35	12.383
394.71	12.216
395.07	11.976
395.42	12.050
395.78	13.102
396.14	12.181
396.50	12.589
396.85	12.224
397.21	12.308
397.57	12.250
397.92	12.142
398.28	11.407
398.64	12.243
399.00	12.199
399.35	12.565
399.71	11.902
400.07	12.409
400.42	11.991
400.78	11.863
401.14	12.692
401.49	11.825
401.85	12.209
402.21	12.804
402.57	12.617
402.92	12.589
403.28	12.471
403.63	11.814
403.99	12.352
404.35	12.791
404.70	12.408
405.06	11.848
405.42	13.173
405.77	13.195
406.13	11.831
406.49	12.444
406.84	12.576
407.20	11.794
407.55	11.750
407.91	12.948
408.27	12.839
408.62	12.100
408.98	12.826
409.34	11.496
409.69	12.855
410.05	12.720
410.40	13.051
410.76	11.834
411.11	12.449
411.47	13.145
411.83	12.640
412.18	12.892
412.54	11.915
412.89	13.038
413.25	13.093
413.60	12.464
413.96	12.005
414.31	12.521
414.67	12.522
415.03	12.492
415.38	12.106
415.74	13.073
416.09	12.770
416.45	13.087
416.80	12.913
417.16	12.197
417.51	13.325
417.87	13.427
418.22	12.994
418.58	11.710
418.93	13.097
419.29	12.577
419.64	11.765
420.00	13.353
420.35	12.521
420.71	13.038
421.06	11.961
421.42	12.500
421.77	11.578
422.12	12.791
422.48	12.084
422.83	13.636
423.19	12.149
423.54	12.334
423.90	12.258
424.25	12.960
424.61	12.342
424.96	12.521
425.31	12.739
425.67	12.131
426.02	12.839
426.38	12.514
426.73	11.886
427.09	13.379
427.44	11.906
427.79	12.548
428.15	11.416
428.50	11.910
428.85	12.457
429.21	12.872
429.56	12.192
429.92	11.646
430.27	12.386
430.62	13.043
430.98	12.346
431.33	11.437
431.68	11.686
432.04	12.443
432.39	12.105
432.74	11.986
433.10	12.006
433.45	11.483
433.80	12.017
434.16	12.345
434.51	12.898
434.86	12.215
435.22	12.434
435.57	12.972
435.92	11.964
436.28	12.002
436.63	12.889
436.98	12.882
437.34	11.274
437.69	11.833
438.04	12.163
438.39	12.349
438.75	11.843
439.10	12.896
439.45	12.465
439.81	12.316
440.16	12.440
440.51	12.598
440.86	12.229
441.22	12.111
441.57	12.998
441.92	11.542
442.27	12.475
442.63	12.469
442.98	12.327
443.33	12.046
443.68	12.884
444.03	12.324
444.39	12.714
444.74	12.711
445.09	12.772
445.44	12.171
445.79	12.213
446.15	12.436
446.50	12.248
446.85	12.646
447.20	12.573
447.55	12.343
447.91	12.147
448.26	12.104
448.61	11.902
448.96	12.715
449.31	12.195
449.66	12.309
450.02	11.867
450.37	11.987
450.72	11.464
451.07	12.130
451.42	11.554
451.77	11.895
452.12	12.867
452.47	11.586
452.83	12.894
453.18	12.434
453.53	11.488
453.88	12.093
454.23	12.316
454.58	12.246
454.93	11.711
455.28	13.004
455.63	12.109
455.98	11.955
456.34	11.837
456.69	11.052
457.04	12.234
457.39	12.583
457.74	12.584
458.09	11.093
458.44	11.530
458.79	11.501
459.14	11.956
459.49	12.054
459.84	12.225
460.19	11.105
460.54	12.152
460.89	11.646
461.24	11.552
461.59	11.345
461.94	11.580
462.29	11.366
462.64	11.829
462.99	11.551
463.34	11.616
463.69	11.254
464.04	13.118
464.39	11.939
464.74	12.087
465.09	11.938
465.44	11.695
465.79	12.004
466.14	11.516
466.49	12.526
466.84	11.405
467.19	11.850
467.54	11.105
467.89	12.241
468.24	11.634
468.59	11.581
468.94	11.305
469.29	11.278
469.64	11.825
469.99	11.600
470.34	11.262
470.68	11.141
471.03	11.919
471.38	11.053
471.73	10.923
472.08	11.865
472.43	11.258
472.78	11.524
473.13	11.441
473.48	11.541
473.83	11.956
474.17	12.016
474.52	11.245
474.87	11.960
475.22	12.113
475.57	11.319
475.92	12.096
476.27	11.874
476.61	11.890
476.96	11.366
477.31	11.634
477.66	11.595
478.01	11.642
478.36	10.967
478.70	10.788
479.05	11.963
479.40	11.402
479.75	11.960
480.10	11.227
480.45	11.896
480.79	12.245
481.14	11.489
481.49	11.358
481.84	12.097
482.19	11.312
482.53	11.456
482.88	11.786
483.23	11.561
483.58	11.092
483.92	11.170
484.27	11.431
484.62	11.262
484.97	11.392
485.31	11.052
485.66	10.640
486.01	11.099
486.36	11.189
486.70	11.705
487.05	11.886
487.40	11.748
487.75	11.679
488.09	11.468
488.44	11.190
488.79	11.804
489.13	10.862
489.48	10.641
489.83	11.308
490.17	10.814
490.52	11.330
490.87	10.745
491.22	11.049
491.56	11.561
491.91	11.252
492.26	11.380
492.60	11.237
492.95	10.663
493.30	10.444
493.64	10.951
493.99	11.053
494.34	11.063
494.68	10.749
495.03	11.454
495.37	11.096
495.72	10.612
496.07	11.394
496.41	10.725
496.76	11.426
497.11	10.658
497.45	10.962
497.80	11.328
498.14	10.385
498.49	10.892
498.84	11.060
499.18	10.841
499.53	11.211
499.87	10.725
500.22	10.463
500.56	10.796
500.91	10.984
501.26	10.773
501.60	10.782
501.95	10.899
502.29	10.926
502.64	10.931
502.98	11.044
503.33	10.626
503.67	10.205
504.02	10.552
504.36	10.456
504.71	10.749
505.06	10.459
505.40	10.283
505.75	10.565
506.09	10.912
506.44	10.585
506.78	10.917
507.13	11.203
507.47	11.322
507.82	11.222
508.16	10.373
508.51	10.595
508.85	11.101
509.19	11.464
509.54	11.191
509.88	10.636
510.23	10.976
510.57	11.068
510.92	10.934
511.26	11.063
511.61	10.092
511.95	10.542
512.30	11.669
512.64	9.845
512.98	11.106
513.33	10.786
513.67	10.964
514.02	10.935
514.36	11.253
514.70	10.208
515.05	10.688
515.39	11.024
515.74	11.506
516.08	11.252
516.42	11.460
516.77	11.304
517.11	11.501
517.46	11.771
517.80	11.705
518.14	11.371
518.49	11.443
518.83	11.336
519.17	10.985
519.52	11.268
519.86	11.246
520.20	11.448
520.55	11.281
520.89	11.149
521.23	11.279
521.58	11.243
521.92	11.388
522.26	10.481
522.61	10.880
522.95	10.957
523.29	10.460
523.64	10.314
523.98	11.181
524.32	11.347
524.66	11.725
525.01	11.268
525.35	11.028
525.69	11.021
526.04	10.735
526.38	10.920
526.72	10.611
527.06	10.792
527.41	11.953
527.75	10.689
528.09	11.157
528.43	11.782
528.78	10.751
529.12	10.722
529.46	10.174
529.80	11.670
530.15	11.246
530.49	9.964
530.83	11.275
531.17	10.335
531.51	10.770
531.86	11.358
532.20	10.915
532.54	10.592
532.88	10.970
533.22	10.607
533.57	11.656
533.91	10.887
534.25	10.797
534.59	10.977
534.93	10.526
535.27	10.085
535.62	11.200
535.96	11.098
536.30	10.165
536.64	11.111
536.98	11.009
537.32	10.988
537.66	10.044
538.01	10.453
538.35	10.231
538.69	10.096
539.03	10.055
539.37	10.777
539.71	10.751
540.05	10.971
540.39	10.758
540.73	9.897
541.07	10.914
541.42	10.691
541.76	11.447
542.10	10.314
542.44	9.379
542.78	10.462
543.12	11.025
543.46	9.890
543.80	10.492
544.14	9.755
544.48	10.757
544.82	10.772
545.16	11.091
545.50	10.246
545.84	9.982
546.18	10.679
546.52	11.019
546.86	10.692
547.20	10.496
547.54	10.050
547.88	10.006
548.22	10.702
548.56	10.064
548.90	10.269
549.24	10.821
549.58	9.590
549.92	9.503
550.26	10.421
550.60	10.019
550.94	10.673
551.28	9.835
551.62	10.512
551.96	10.097
552.30	10.453
552.64	10.579
552.98	10.667
553.32	10.354
553.66	9.904
554.00	10.782
554.34	9.974
554.68	10.458
555.02	9.921
555.36	10.585
555.69	10.186
556.03	9.899
556.37	10.263
556.71	9.956
557.05	10.160
557.39	9.821
557.73	9.643
558.07	9.536
558.41	9.103
558.75	9.195
559.08	9.534
559.42	8.779
559.76	10.583
560.10	10.382
560.44	9.828
560.78	9.438
561.12	9.483
561.45	10.036
561.79	9.463
562.13	9.797
562.47	9.063
562.81	8.481
563.15	9.533
563.48	10.006
563.82	9.855
564.16	8.964
564.50	9.416
564.84	9.440
565.17	10.176
565.51	9.494
565.85	9.561
566.19	9.332
566.52	9.245
566.86	9.564
567.20	9.679
567.54	9.665
567.88	9.174
568.21	10.128
568.55	9.161
568.89	9.442
569.23	9.548
569.56	8.988
569.90	9.408
570.24	9.713
570.57	9.044
570.91	9.155
571.25	9.372
571.59	9.435
571.92	9.088
572.26	9.370
572.60	9.419
572.93	9.491
573.27	9.357
573.61	9.132
573.95	9.323
574.28	9.180
574.62	8.959
574.96	9.109
575.29	9.033
575.63	9.425
575.97	9.269
576.30	9.030
576.64	9.162
576.98	8.975
577.31	9.242
577.65	9.038
577.98	9.187
578.32	9.009
578.66	8.933
578.99	9.134
579.33	8.982
579.67	9.089
580.00	9.216
580.34	9.293
580.67	8.672
581.01	8.762
581.35	8.884
581.68	9.139
582.02	8.925
582.35	9.092
582.69	9.117
583.02	9.045
583.36	9.160
583.70	8.816
584.03	8.663
584.37	8.615
584.70	8.533
585.04	8.765
585.37	8.926
585.71	8.414
586.04	8.542
586.38	8.705
586.72	8.523
587.05	8.493
587.39	8.651
587.72	8.947
588.06	8.873
588.39	8.887
588.73	8.624
589.06	8.267
589.40	8.605
589.73	8.323
590.07	9.085
590.40	9.060
590.73	8.590
591.07	8.712
591.40	8.126
591.74	8.625
592.07	9.257
592.41	8.517
592.74	8.839
593.08	9.076
593.41	9.303
593.75	8.448
594.08	8.452
594.41	8.846
594.75	8.070
595.08	8.109
595.42	8.214
595.75	8.847
596.09	9.048
596.42	8.241
596.75	8.259
597.09	9.253
597.42	7.906
597.75	8.663
598.09	8.770
598.42	8.967
598.76	8.445
599.09	8.259
599.42	8.012
599.76	8.155
600.09	8.342
600.42	8.742
600.76	8.520
601.09	7.766
601.42	8.617
601.76	8.310
602.09	8.506
602.42	8.252
602.76	8.303
603.09	8.333
603.42	8.562
603.76	7.858
604.09	8.694
604.42	8.550
604.76	8.105
605.09	8.137
605.42	8.054
605.75	8.000
606.09	8.137
606.42	8.099
606.75	7.796
607.09	7.949
607.42	8.208
607.75	8.558
608.08	8.406
608.42	8.464
608.75	8.458
609.08	7.852
609.41	7.808
609.75	8.036
610.08	8.267
610.41	8.199
610.74	7.521
611.07	7.904
611.41	8.789
611.74	8.268
612.07	8.789
612.40	7.510
612.73	7.775
613.07	8.215
613.40	8.614
613.73	7.944
614.06	7.753
614.39	7.580
614.72	8.345
615.06	8.181
615.39	7.202
615.72	7.725
616.05	8.256
616.38	7.921
616.71	8.307
617.05	7.774
617.38	8.882
617.71	7.883
618.04	7.987
618.37	7.760
618.70	8.145
619.03	7.168
619.36	7.398
619.69	8.008
620.03	8.035
620.36	7.669
620.69	7.650
621.02	8.202
621.35	8.200
621.68	8.098
622.01	7.687
622.34	8.996
622.67	7.629
623.00	5.601
623.33	7.299
623.66	7.912
623.99	7.637
624.32	9.227
624.65	6.821
624.99	7.737
625.32	8.752
625.65	8.092
625.98	7.458
626.31	7.654
626.64	8.278
626.97	8.027
627.30	7.593
627.63	7.202
627.96	8.408
628.29	8.327
628.62	7.473
628.95	7.011
629.28	7.392
629.61	7.660
629.94	6.778
630.26	7.627
630.59	7.427
630.92	7.359
631.25	7.156
631.58	7.815
631.91	6.935
632.24	7.493
632.57	7.306
632.90	7.523
633.23	8.061
633.56	7.551
633.89	5.888
634.22	6.341
634.55	7.307
634.88	6.602
635.20	8.611
635.53	7.006
635.86	7.801
636.19	9.438
636.52	7.911
636.85	7.048
637.18	6.965
637.51	7.527
637.83	8.416
638.16	6.106
638.49	7.042
638.82	6.990
639.15	6.758
639.48	8.199
639.81	7.044
640.13	8.952
640.46	5.939
640.79	6.250
641.12	7.329
641.45	7.152
641.77	8.216
642.10	6.168
642.43	8.378
642.76	7.724
643.09	7.123
643.41	6.162
643.74	8.552
644.07	7.448
644.40	5.092
644.73	6.676
645.05	6.021
645.38	7.194
645.71	7.625
646.04	7.891
646.36	7.153
646.69	6.288
647.02	7.951
647.35	8.092
647.67	9.018
648.00	6.688
648.33	7.207
648.66	6.134
648.98	6.259
649.31	6.495
649.64	9.031
649.96	7.029
650.29	4.729
650.62	8.345
650.94	7.658
651.27	5.988
651.60	6.725
651.92	6.231
652.25	7.815
652.58	7.703
652.90	5.233
653.23	7.183
653.56	7.275
653.88	8.146
654.21	8.451
654.54	7.659
654.86	7.224
655.19	5.897
655.52	7.422
655.84	7.263
656.17	8.839
656.49	12.121
656.82	13.515
657.15	10.618
657.47	7.896
657.80	5.869
658.13	4.436
658.45	5.752
658.78	7.033
659.10	6.511
659.43	6.254
659.75	6.486
660.08	6.275
660.41	6.038
660.73	5.245
661.06	4.993
661.38	4.625
661.71	5.690
662.03	4.586
662.36	9.302
662.68	6.191
663.01	7.434
663.33	6.049
663.66	8.791
663.98	5.769
664.31	8.255
664.63	5.780
664.96	7.260
665.28	3.630
665.61	8.566
665.93	6.607
666.26	7.527
666.58	7.011
666.91	8.598
667.23	8.571
667.56	7.890
667.88	7.200
668.21	3.906
668.53	3.861
668.86	5.697
669.18	4.684
669.50	6.958
669.83	6.600
670.15	7.087
670.48	9.524
670.80	6.310
671.13	5.671
671.45	4.724
671.77	8.098
672.10	5.500
672.42	5.016
672.75	6.298
673.07	6.418
673.39	6.317
673.72	5.201
674.04	8.621
674.37	6.261
674.69	7.231
675.01	5.905
675.34	5.344
675.66	6.929
675.98	6.903
676.31	7.227
676.63	7.985
676.95	5.939
677.28	7.258
677.60	5.315
677.92	8.253
678.25	5.850
678.57	6.584
678.89	8.191
679.22	6.446
679.54	6.325
679.86	4.915
680.18	5.970
680.51	6.447
680.83	6.219
681.15	3.793
681.48	8.463
681.80	7.772
682.12	6.818
682.44	7.012
682.77	7.801
683.09	6.250
683.41	6.202
683.73	5.882
684.06	7.011
684.38	5.009
684.70	7.002
685.02	6.368
685.34	5.324
685.67	5.363
685.99	6.595
686.31	5.378
686.63	5.687
686.96	6.782
687.28	7.818
687.60	5.556
687.92	6.431
688.24	8.013
688.56	5.172
688.89	6.171
689.21	6.067
689.53	3.725
689.85	5.523
690.17	5.000
690.49	5.179
690.82	7.327
691.14	4.453
691.46	5.736
691.78	7.366
692.10	7.523
692.42	4.286
692.74	5.445
693.06	3.519
693.39	6.641
693.71	5.827
694.03	5.948
694.35	5.714
694.67	6.160
694.99	6.809
695.31	3.974
695.63	7.576
695.95	6.832
696.27	4.615
696.59	8.186
696.91	5.856
697.23	7.033
697.56	4.888
697.88	5.303
698.20	7.721
698.52	7.765
698.84	5.821
699.16	8.163
699.48	4.812
699.80	4.681
700.12	5.677
700.44	2.995
700.76	3.325
701.08	6.780
701.40	5.699
701.72	5.970
702.04	7.219
702.36	3.141
702.68	3.178
703.00	3.667
703.32	5.665
703.64	5.868
703.96	7.637
704.28	7.617
704.60	7.089
704.91	5.612
705.23	7.671
705.55	4.457
705.87	8.182
706.19	4.294
706.51	3.313
706.83	3.746
707.15	6.614
707.47	4.907
707.79	4.585
708.11	1.483
708.43	4.086
708.74	3.571
709.06	3.248
709.38	7.042
709.70	7.940
710.02	4.393
710.34	7.447
710.66	4.749
710.98	5.738
711.29	5.220
711.61	3.672
711.93	6.553
712.25	5.946
712.57	7.670
712.89	8.529
713.20	5.621
713.52	6.358
713.84	6.407
714.16	8.158
714.48	5.155
714.80	7.532
715.11	3.412
715.43	6.897
715.75	5.263
716.07	5.249
716.39	7.923
716.70	3.916
717.02	5.574
717.34	4.181
717.66	6.376
717.97	3.767
718.29	8.935
718.61	3.618
718.93	4.854
719.24	5.901
719.56	4.294
719.88	6.306
720.20	6.774
720.51	4.658
720.83	4.063
721.15	2.303
721.46	-0.685
721.78	3.000
722.10	5.825
722.42	2.013
722.73	6.129
723.05	1.754
723.37	6.250
723.68	6.452
724.00	3.610
724.32	2.465
724.63	2.448
724.95	6.383
725.27	4.878
725.58	7.067
725.90	3.448
726.22	5.016
726.53	7.143
726.85	7.547
727.16	9.366
727.48	7.339
727.80	6.623
728.11	3.887
728.43	8.754
728.74	7.023
729.06	5.629
729.38	5.195
729.69	7.718
730.01	4.464
730.32	3.636
730.64	6.604
730.96	2.484
731.27	9.218
731.59	4.396
731.90	4.675
732.22	4.948
732.53	4.144
732.85	6.000
733.16	4.985
733.48	1.524
733.80	4.735
734.11	1.994
734.43	6.757
734.74	7.595
735.06	4.523
735.37	4.595
735.69	4.865
736.00	7.345
736.32	5.660
736.63	4.444
736.95	3.736
737.26	6.364
737.58	1.212
737.89	5.588
738.21	3.058
738.52	3.607
738.83	7.167
739.15	3.901
739.46	2.041
739.78	4.601
740.09	5.444
740.41	6.414
740.72	1.333
741.04	4.207
741.35	4.211
741.66	5.098
741.98	7.377
742.29	1.674
742.61	2.632
742.92	6.154
743.23	4.693
743.55	8.140
743.86	0.400
744.18	-0.413
744.49	5.485
744.80	7.819
745.12	6.751
745.43	7.317
745.74	5.172
746.06	5.932
746.37	6.329
746.68	10.569
747.00	0.417
747.31	4.292
747.62	6.538
747.94	7.692
748.25	-0.803
748.56	3.673
748.88	0.855
749.19	6.466
749.50	1.299
749.82	5.221
750.13	6.762
750.44	1.667
750.75	7.077
751.07	8.000
751.38	5.047
751.69	2.236
752.01	7.120
752.32	7.516
752.63	6.463
752.94	4.152
753.26	7.063
753.57	2.593
753.88	4.494
754.19	5.145
754.51	4.823
754.82	4.502
755.13	7.541
755.44	5.119
755.75	4.934
756.07	7.164
756.38	6.289
756.69	6.928
757.00	5.817
757.31	7.104
757.63	5.115
757.94	4.930
758.25	5.643
758.56	3.486
758.87	8.182
759.18	3.200
759.50	5.949
759.81	6.162
760.12	4.852
760.43	5.990
760.74	6.897
761.05	4.750
761.36	6.024
761.67	5.076
761.99	2.703
762.30	6.707
762.61	0.660
762.92	1.493
763.23	5.243
763.54	4.317
763.85	5.498
764.16	7.071
764.47	7.394
764.78	5.112
765.10	4.399
765.41	6.923
765.72	4.762
766.03	3.107
766.34	1.567
766.65	2.787
766.96	3.586
767.27	5.069
767.58	-0.498
767.89	7.692
768.20	2.817
768.51	1.389
768.82	-0.803
769.13	4.924
769.44	-0.769
769.75	7.581
770.06	3.846
770.37	5.906
770.68	0.851
770.99	-1.215
771.30	6.667
771.61	3.422
771.92	1.481
772.23	6.073
772.54	-1.852
772.85	6.452
773.16	7.143
773.47	2.116
773.78	3.784
774.09	5.114
774.39	11.500
774.70	6.557
775.01	0.610
775.32	2.941
775.63	0.613
775.94	0.000
776.25	6.452
776.56	10.256
776.87	6.122
777.18	2.069
777.48	6.294
777.79	0.000
778.10	0.000
778.41	8.333
778.72	3.448
779.03	3.086
779.34	10.909
779.65	9.845
779.95	4.444
780.26	6.818
780.57	4.516
780.88	7.246
781.19	7.097
781.50	7.647
781.80	10.215
782.11	3.175
782.42	7.071
782.73	0.599
783.04	4.469
783.34	2.424
783.65	1.961
783.96	6.211
784.27	1.190
784.57	3.311
784.88	1.429
785.19	-3.937
785.50	3.937
785.81	3.759
786.11	8.462
786.42	3.597
786.73	-0.719
787.04	4.511
787.34	2.459
787.65	-0.800
787.96	2.239
788.26	2.797
788.57	8.392
788.88	3.289
789.19	8.497
789.49	10.274
789.80	6.383
790.11	10.236
790.41	2.344
790.72	-0.847
791.03	-3.883
791.33	2.609
791.64	7.895
791.95	0.000
792.25	-1.905
792.56	9.821
792.87	1.042
793.17	0.000
793.48	-1.042
793.79	-2.410
794.09	5.505
794.40	0.000
794.70	7.483
795.01	5.844
795.32	3.425
795.62	7.042
795.93	-3.788
796.23	4.098
796.54	2.679
796.85	-3.191
797.15	-5.435
797.46	-1.370
797.76	-6.250
798.07	10.870
798.37	-9.278
798.68	5.195
798.99	-1.149
799.29	-7.865
799.60	6.383
799.90	-6.024
800.21	-20.000
800.51	-8.955
800.82	2.941
801.12	-26.027
801.43	-19.118
801.73	-20.339
802.04	6.061
802.34	-6.667
802.65	1.695
802.95	10.448
803.26	-6.780
803.56	-9.589
803.87	5.714
804.17	8.219
804.48	-26.316
804.78	8.333
805.09	-13.793
805.39	5.405
805.70	-8.451
806.00	6.098
806.30	-4.819
806.61	-8.219
806.91	0.962
807.22	0.000
807.52	-5.747
807.83	12.500
808.13	6.024
808.43	2.247
808.74	-1.250
809.04	-13.235
809.35	-5.333
809.65	-10.000
809.95	5.479
810.26	-14.035
810.56	-5.172
810.86	4.412
811.17	-8.772
811.47	-3.279
811.77	-24.444
812.08	0.000
812.38	6.667
812.69	-3.448
812.99	-16.981
813.29	-35.897
813.59	0.000
813.90	-7.018
814.20	10.909
814.50	0.000
814.81	16.667
815.11	6.557
815.41	10.448
815.72	12.069
816.02	3.571
816.32	8.889
816.62	11.364
816.93	-4.444
817.23	7.407
817.53	-2.128
817.84	7.143
818.14	-11.765
818.44	12.245
818.74	-4.444
819.04	-20.513
819.35	-25.714
819.65	-7.692
819.95	3.774
820.25	6.667
820.56	-21.429
820.86	-12.500
821.16	-25.641
821.46	-11.628
821.76	-34.000
822.07	3.571
822.37	-19.565
822.67	8.511
822.97	-29.730
823.27	-12.500
823.57	18.367
823.88	17.778
824.18	10.000
824.48	-16.667
824.78	-8.000
825.08	-6.061
825.38	11.111
825.69	8.511
825.99	16.667
826.29	-51.429
826.59	-25.641
826.89	-27.907
827.19	-8.000
827.49	-17.647
827.79	-2.083
828.09	-24.324
828.39	-33.333
828.70	-9.756
829.00	-32.558
829.30	-21.429
829.60	23.529
829.90	6.522
830.20	8.571
830.50	-37.931
830.80	5.556
831.10	23.077
831.40	0.000
831.70	4.762
832.00	12.903
832.30	-100.000
832.60	-62.500
832.90	-53.846
833.20	10.526
833.50	-20.000
833.80	-10.526
834.10	-66.667
834.40	25.000
834.70	18.750
835.00	-40.000
835.30	-44.118
835.60	-26.667
835.90	8.000
836.20	-100.000
836.50	-28.000
836.80	-21.212
837.10	-11.111
837.40	18.519
837.70	-112.500
838.00	14.286
838.30	-47.826
838.60	-10.345
838.90	-107.143
839.19	-86.957
839.49	-16.667
839.79	4.348
840.09	-87.500
840.39	-70.000
840.69	-6.452
840.99	-7.143
841.29	33.333
841.59	-21.053
841.88	28.205
842.18	-23.077
842.48	-170.000
842.78	-55.000
843.08	-6.667
843.38	6.452
843.68	-16.667
843.97	26.471
844.27	-50.000
844.57	-26.316
844.87	-50.000
845.17	-40.000
845.47	57.143
845.76	-28.571
846.06	-77.778
846.36	-82.353
846.66	-3.846
846.96	-46.667
847.25	-5.882
847.55	30.435
847.85	-25.000
848.15	47.059
848.44	-81.818
848.74	-4.762
849.04	-54.167
849.34	-43.750
849.63	-8.696
849.93	350.000
850.23	0.000
850.53	23.077
850.82	18.182
851.12	13.636
851.42	-81.818
851.71	-30.769
852.01	-45.000
852.31	-84.615
852.61	-68.421
852.90	66.667
853.20	11.111
853.50	-133.333
853.79	-57.143
854.09	-31.818
854.39	-100.000
854.68	-12.903
854.98	-53.846
855.28	-16.667
855.57	10.714
855.87	-12.000
856.17	-9.091
856.46	3.704
856.76	-50.000
857.05	4.348
857.35	-20.833
857.65	-53.846
857.94	-4.762
858.24	33.333
858.53	39.130
858.83	23.529
859.13	-29.412
859.42	17.647
859.72	35.714
860.01	-30.000
860.31	-66.667
860.60	-60.000
860.90	-40.000
861.20	-61.111
861.49	-23.077
861.79	-6.667
862.08	-123.077
862.38	37.500
862.67	5.882
862.97	6.250
863.26	-55.556
863.56	-10.000
863.85	9.091
864.15	22.222
864.44	-300.000
864.74	-57.143
865.03	-131.250
865.33	-180.000
865.62	-29.032
865.92	-9.091
866.21	17.391
866.51	-42.857
866.80	-200.000
867.10	-25.000
867.39	-133.333
867.69	1700.000
867.98	-57.143
868.27	0.000
868.57	-1900.000
868.86	-140.000
869.16	-66.667
869.45	29.167
869.75	27.273
870.04	0.000
870.33	-33.333
870.63	-85.714
870.92	25.000
871.22	-137.500
871.51	-72.727
871.80	-566.667
872.10	-250.000
>>>>>End Processed Spectral Data<<<<<
