SpectraSuite Data File
++++++++++++++++++++++++++++++++++++
Date: Thu May 14 16:36:40 PDT 2015
User: schluterlab
Dark Spectrum Present: Yes
Reference Spectrum Present: Yes
Number of Sampled Component Spectra: 1
Spectrometers: USB2E3373
Integration Time (usec): 3000 (USB2E3373)
Spectra Averaged: 3 (USB2E3373)
Boxcar Smoothing: 0 (USB2E3373)
Correct for Electrical Dark: No (USB2E3373)
Strobe/Lamp Enabled: No (USB2E3373)
Correct for Detector Non-linearity: No (USB2E3373)
Correct for Stray Light: No (USB2E3373)
Number of Pixels in Processed Spectrum: 2048
>>>>>Begin Processed Spectral Data<<<<<
178.53	0.000
178.91	71.429
179.29	-600.000
179.67	-1100.000
180.04	157.143
180.42	70.000
180.80	160.000
181.18	-1000.000
181.56	-100.000
181.94	50.000
182.31	-100.000
182.69	-33.333
183.07	-600.000
183.45	425.000
183.83	-150.000
184.20	-166.667
184.58	400.000
184.96	-100.000
185.34	-133.333
185.72	-160.000
186.09	122.222
186.47	450.000
186.85	300.000
187.23	-22.222
187.61	-600.000
187.98	220.000
188.36	75.000
188.74	-75.000
189.12	-133.333
189.49	-6.250
189.87	-37.500
190.25	0.000
190.63	-160.000
191.00	-111.111
191.38	0.000
191.76	-225.000
192.14	-133.333
192.51	550.000
192.89	-16.667
193.27	0.000
193.65	-28.571
194.02	-1100.000
194.40	14.286
194.78	128.571
195.15	0.000
195.53	-118.182
195.91	0.000
196.29	-50.000
196.66	-30.769
197.04	-1100.000
197.42	14.286
197.79	-350.000
198.17	-112.500
198.55	-242.857
198.92	-11.111
199.30	-112.500
199.68	54.545
200.05	-42.857
200.43	-150.000
200.81	200.000
201.18	0.000
201.56	166.667
201.94	0.000
202.31	233.333
202.69	-100.000
203.07	400.000
203.44	22.222
203.82	-350.000
204.19	-33.333
204.57	-50.000
204.95	-37.500
205.32	0.000
205.70	50.000
206.08	-100.000
206.45	-100.000
206.83	240.000
207.20	-66.667
207.58	-180.000
207.96	-166.667
208.33	150.000
208.71	83.333
209.08	-33.333
209.46	0.000
209.84	150.000
210.21	100.000
210.59	-50.000
210.96	500.000
211.34	25.000
211.71	-37.500
212.09	-1300.000
212.46	0.000
212.84	400.000
213.22	-80.000
213.59	-300.000
213.97	40.000
214.34	-233.333
214.72	166.667
215.09	-75.000
215.47	0.000
215.84	-0.000
216.22	650.000
216.59	-40.000
216.97	-120.000
217.34	25.000
217.72	87.500
218.09	-25.000
218.47	-175.000
218.84	0.000
219.22	80.000
219.59	11.765
219.97	15.000
220.34	650.000
220.72	-111.111
221.09	46.154
221.47	-266.667
221.84	-60.000
222.22	-271.429
222.59	0.000
222.97	62.500
223.34	-320.000
223.72	-1700.000
224.09	-150.000
224.46	-300.000
224.84	-120.000
225.21	-185.714
225.59	-225.000
225.96	-225.000
226.34	-7.692
226.71	300.000
227.08	-300.000
227.46	20.000
227.83	25.000
228.21	-5.263
228.58	62.500
228.95	450.000
229.33	-16.667
229.70	70.000
230.08	42.105
230.45	110.000
230.82	66.667
231.20	-50.000
231.57	-41.667
231.95	-36.364
232.32	-63.636
232.69	-15.000
233.07	25.000
233.44	11.765
233.81	-140.000
234.19	-5.556
234.56	-54.545
234.93	31.034
235.31	-10.526
235.68	-50.000
236.05	-35.000
236.43	34.615
236.80	32.000
237.17	7.407
237.55	39.394
237.92	-110.000
238.29	-9.677
238.67	-15.909
239.04	-25.000
239.41	-19.048
239.79	-23.913
240.16	-7.407
240.53	-4.348
240.91	-19.608
241.28	4.918
241.65	-7.463
242.02	13.514
242.40	-23.077
242.77	-4.000
243.14	-12.195
243.51	-22.368
243.89	-10.256
244.26	13.861
244.63	1.961
245.00	0.935
245.38	-4.386
245.75	-7.080
246.12	-2.381
246.49	-6.977
246.87	5.714
247.24	7.285
247.61	3.947
247.98	-3.356
248.36	-0.617
248.73	-7.362
249.10	-3.279
249.47	5.473
249.84	2.094
250.22	-0.518
250.59	2.222
250.96	5.000
251.33	-2.551
251.70	1.709
252.08	4.167
252.45	4.918
252.82	-4.545
253.19	0.781
253.56	1.901
253.94	1.538
254.31	2.652
254.68	0.699
255.05	2.606
255.42	1.701
255.79	2.589
256.16	0.000
256.54	-3.974
256.91	3.607
257.28	2.295
257.65	-3.185
258.02	-3.540
258.39	0.855
258.76	2.141
259.14	3.736
259.51	2.017
259.88	-1.983
260.25	-0.278
260.62	1.918
260.99	3.279
261.36	1.340
261.73	-1.061
262.10	-1.923
262.47	0.804
262.85	4.040
263.22	-1.039
263.59	-2.368
263.96	0.767
264.33	0.256
264.70	1.728
265.07	3.103
265.44	2.948
265.81	1.389
266.18	2.948
266.55	1.786
266.92	-1.139
267.29	4.595
267.66	-0.665
268.03	0.437
268.40	0.418
268.77	-1.822
269.14	-1.542
269.51	0.877
269.88	3.074
270.25	2.616
270.62	2.532
270.99	4.040
271.36	4.356
271.73	1.768
272.10	2.204
272.47	0.401
272.84	0.803
273.21	1.403
273.58	-1.008
273.95	1.923
274.32	-0.951
274.69	-0.580
275.06	1.099
275.43	0.000
275.80	2.646
276.17	0.370
276.54	1.119
276.91	-1.073
277.28	0.904
277.65	0.898
278.02	1.471
278.39	1.630
278.76	1.230
279.13	1.418
279.50	3.093
279.87	1.789
280.23	0.704
280.60	2.203
280.97	0.493
281.34	0.849
281.71	3.046
282.08	1.495
282.45	1.146
282.82	0.000
283.19	-0.485
283.56	0.820
283.92	3.303
284.29	4.423
284.66	2.791
285.03	1.122
285.40	2.009
285.77	2.012
286.14	3.359
286.51	0.913
286.87	0.474
287.24	2.560
287.61	0.747
287.98	0.906
288.35	1.036
288.72	1.775
289.08	1.611
289.45	2.219
289.82	3.012
290.19	1.006
290.56	1.549
290.93	2.710
291.29	1.240
291.66	1.653
292.03	0.271
292.40	2.313
292.77	1.078
293.13	2.030
293.50	1.051
293.87	1.208
294.24	2.667
294.60	3.161
294.97	0.134
295.34	2.561
295.71	1.135
296.08	1.680
296.44	1.225
296.81	1.583
297.18	0.374
297.55	1.297
297.91	1.779
298.28	-0.592
298.65	0.951
299.02	0.826
299.38	2.632
299.75	1.636
300.12	1.157
300.48	2.074
300.85	2.587
301.22	1.902
301.59	0.228
301.95	1.695
302.32	3.556
302.69	0.986
303.05	1.850
303.42	1.441
303.79	1.979
304.15	1.472
304.52	0.951
304.89	1.885
305.25	1.967
305.62	2.090
305.99	1.856
306.35	1.310
306.72	1.551
307.09	1.421
307.45	2.381
307.82	2.220
308.19	1.917
308.55	1.543
308.92	0.974
309.29	2.299
309.65	1.949
310.02	1.980
310.38	2.559
310.75	2.621
311.12	2.876
311.48	2.248
311.85	2.564
312.22	1.992
312.58	2.911
312.95	2.868
313.31	3.884
313.68	3.571
314.05	3.975
314.41	3.825
314.78	3.633
315.14	4.991
315.51	4.709
315.87	5.131
316.24	5.845
316.61	6.217
316.97	4.615
317.34	5.820
317.70	6.550
318.07	6.526
318.43	7.738
318.80	8.194
319.16	8.841
319.53	7.027
319.89	9.202
320.26	10.676
320.62	9.131
320.99	10.434
321.35	9.427
321.72	11.721
322.08	10.460
322.45	10.930
322.81	11.733
323.18	12.301
323.54	13.362
323.91	14.413
324.27	15.232
324.64	15.869
325.00	15.091
325.37	17.199
325.73	17.107
326.10	18.005
326.46	18.567
326.83	19.376
327.19	19.921
327.56	20.316
327.92	20.850
328.29	21.210
328.65	21.608
329.01	22.843
329.38	22.831
329.74	22.089
330.11	23.459
330.47	23.757
330.84	23.514
331.20	25.583
331.56	25.130
331.93	25.105
332.29	26.695
332.66	26.495
333.02	24.958
333.38	26.007
333.75	26.768
334.11	26.939
334.48	27.888
334.84	27.613
335.20	26.868
335.57	27.572
335.93	28.678
336.29	26.539
336.66	27.250
337.02	28.261
337.38	29.082
337.75	27.438
338.11	29.521
338.47	29.198
338.84	29.188
339.20	28.475
339.56	28.336
339.93	28.325
340.29	28.663
340.65	29.684
341.02	29.848
341.38	30.154
341.74	29.701
342.11	29.525
342.47	29.150
342.83	29.469
343.20	29.518
343.56	29.591
343.92	29.624
344.28	30.703
344.65	31.318
345.01	31.279
345.37	30.871
345.73	30.242
346.10	30.733
346.46	30.142
346.82	31.236
347.19	29.947
347.55	32.094
347.91	30.832
348.27	32.473
348.63	32.521
349.00	31.245
349.36	31.524
349.72	31.994
350.08	31.947
350.45	32.395
350.81	32.127
351.17	32.331
351.53	34.041
351.89	32.574
352.26	32.015
352.62	33.209
352.98	34.046
353.34	32.786
353.70	32.743
354.07	31.744
354.43	33.637
354.79	32.536
355.15	33.481
355.51	33.699
355.87	33.358
356.24	33.992
356.60	33.481
356.96	34.322
357.32	34.201
357.68	33.089
358.04	33.234
358.40	35.000
358.77	35.526
359.13	33.752
359.49	34.647
359.85	35.968
360.21	35.007
360.57	34.602
360.93	36.178
361.29	36.070
361.66	36.133
362.02	35.908
362.38	37.245
362.74	37.081
363.10	36.657
363.46	38.019
363.82	37.287
364.18	37.016
364.54	37.414
364.90	37.793
365.26	36.966
365.62	37.867
365.98	38.189
366.35	37.248
366.71	37.823
367.07	38.295
367.43	38.674
367.79	38.620
368.15	39.064
368.51	39.175
368.87	39.125
369.23	38.867
369.59	39.139
369.95	39.824
370.31	40.378
370.67	39.890
371.03	41.136
371.39	40.564
371.75	40.578
372.11	40.244
372.47	41.706
372.83	41.427
373.19	41.294
373.55	40.921
373.91	41.104
374.27	41.203
374.63	42.625
374.99	41.711
375.35	42.727
375.71	41.548
376.07	41.575
376.42	42.506
376.78	42.635
377.14	42.670
377.50	44.529
377.86	41.379
378.22	44.012
378.58	43.282
378.94	43.369
379.30	43.117
379.66	43.974
380.02	43.739
380.38	45.276
380.74	45.070
381.09	44.715
381.45	44.545
381.81	46.077
382.17	45.724
382.53	44.269
382.89	44.582
383.25	45.428
383.61	44.965
383.97	44.111
384.32	45.993
384.68	44.432
385.04	46.559
385.40	46.376
385.76	45.545
386.12	45.601
386.48	45.647
386.83	47.139
387.19	46.466
387.55	46.890
387.91	47.203
388.27	47.113
388.62	46.392
388.98	46.701
389.34	47.496
389.70	46.833
390.06	46.004
390.42	46.566
390.77	48.104
391.13	48.239
391.49	48.249
391.85	47.879
392.20	49.110
392.56	47.844
392.92	48.528
393.28	47.816
393.64	47.542
393.99	49.157
394.35	49.708
394.71	48.802
395.07	48.683
395.42	47.915
395.78	49.543
396.14	49.138
396.50	48.872
396.85	49.016
397.21	47.633
397.57	48.881
397.92	47.938
398.28	48.452
398.64	48.169
399.00	47.382
399.35	48.848
399.71	48.424
400.07	48.287
400.42	49.185
400.78	49.826
401.14	48.150
401.49	49.346
401.85	50.233
402.21	50.116
402.57	50.000
402.92	48.641
403.28	48.009
403.63	49.284
403.99	49.941
404.35	48.721
404.70	49.235
405.06	47.880
405.42	49.239
405.77	50.273
406.13	48.622
406.49	50.113
406.84	49.363
407.20	49.357
407.55	48.940
407.91	49.151
408.27	47.880
408.62	50.494
408.98	48.810
409.34	49.501
409.69	50.309
410.05	49.297
410.40	50.000
410.76	49.860
411.11	50.555
411.47	49.570
411.83	49.794
412.18	50.964
412.54	49.496
412.89	49.593
413.25	48.251
413.60	49.397
413.96	50.699
414.31	49.178
414.67	49.911
415.03	49.354
415.38	50.694
415.74	49.908
416.09	50.154
416.45	48.028
416.80	50.245
417.16	51.149
417.51	49.813
417.87	50.031
418.22	51.317
418.58	49.380
418.93	50.000
419.29	50.308
419.64	48.559
420.00	50.564
420.35	49.747
420.71	48.708
421.06	48.879
421.42	49.427
421.77	48.411
422.12	48.520
422.48	49.718
422.83	49.836
423.19	49.125
423.54	49.723
423.90	48.647
424.25	49.813
424.61	48.393
424.96	48.819
425.31	50.531
425.67	48.846
426.02	50.636
426.38	49.885
426.73	49.498
427.09	51.615
427.44	48.880
427.79	49.088
428.15	49.543
428.50	48.764
428.85	48.794
429.21	50.638
429.56	50.099
429.92	49.042
430.27	48.964
430.62	49.389
430.98	49.926
431.33	49.365
431.68	48.228
432.04	48.807
432.39	49.545
432.74	49.429
433.10	50.352
433.45	49.275
433.80	48.230
434.16	50.517
434.51	50.874
434.86	50.380
435.22	50.797
435.57	49.705
435.92	49.583
436.28	51.081
436.63	51.229
436.98	48.417
437.34	49.662
437.69	49.422
438.04	49.656
438.39	50.316
438.75	50.194
439.10	50.211
439.45	49.134
439.81	49.605
440.16	48.365
440.51	49.721
440.86	48.471
441.22	48.660
441.57	49.423
441.92	48.691
442.27	49.192
442.63	48.584
442.98	49.947
443.33	49.342
443.68	49.752
444.03	49.389
444.39	49.330
444.74	49.668
445.09	48.099
445.44	48.999
445.79	49.473
446.15	48.767
446.50	48.837
446.85	49.222
447.20	47.776
447.55	48.431
447.91	48.691
448.26	48.414
448.61	48.618
448.96	49.195
449.31	49.099
449.66	49.074
450.02	49.051
450.37	48.748
450.72	49.031
451.07	49.260
451.42	48.816
451.77	48.471
452.12	48.928
452.47	47.831
452.83	49.324
453.18	46.935
453.53	48.650
453.88	46.715
454.23	49.605
454.58	49.042
454.93	48.301
455.28	48.284
455.63	46.561
455.98	47.933
456.34	47.291
456.69	47.795
457.04	48.522
457.39	47.783
457.74	48.154
458.09	48.325
458.44	47.899
458.79	47.499
459.14	47.352
459.49	47.765
459.84	47.429
460.19	47.529
460.54	47.303
460.89	48.280
461.24	48.333
461.59	47.648
461.94	45.807
462.29	47.368
462.64	46.952
462.99	47.583
463.34	48.021
463.69	46.249
464.04	47.471
464.39	47.814
464.74	45.724
465.09	44.925
465.44	46.567
465.79	45.796
466.14	45.388
466.49	45.842
466.84	46.501
467.19	45.376
467.54	44.595
467.89	45.862
468.24	46.316
468.59	45.918
468.94	45.221
469.29	46.671
469.64	45.900
469.99	45.953
470.34	46.349
470.68	46.958
471.03	45.645
471.38	46.174
471.73	44.538
472.08	45.558
472.43	44.732
472.78	45.655
473.13	45.765
473.48	44.230
473.83	45.096
474.17	44.959
474.52	44.678
474.87	44.131
475.22	44.000
475.57	44.393
475.92	44.898
476.27	43.823
476.61	43.718
476.96	43.222
477.31	43.564
477.66	44.648
478.01	42.959
478.36	43.121
478.70	43.054
479.05	44.121
479.40	43.682
479.75	43.900
480.10	43.250
480.45	42.707
480.79	42.676
481.14	42.325
481.49	42.617
481.84	42.211
482.19	42.280
482.53	42.938
482.88	43.066
483.23	42.197
483.58	41.747
483.92	41.578
484.27	41.660
484.62	40.677
484.97	41.757
485.31	40.549
485.66	38.293
486.01	37.544
486.36	38.558
486.70	39.338
487.05	40.273
487.40	40.469
487.75	40.483
488.09	40.180
488.44	39.673
488.79	40.236
489.13	40.007
489.48	39.922
489.83	39.879
490.17	39.895
490.52	38.711
490.87	39.763
491.22	39.601
491.56	40.102
491.91	39.555
492.26	39.853
492.60	39.091
492.95	39.491
493.30	39.892
493.64	39.290
493.99	38.465
494.34	38.415
494.68	38.887
495.03	39.559
495.37	38.970
495.72	38.912
496.07	39.614
496.41	37.709
496.76	38.574
497.11	38.429
497.45	38.110
497.80	38.561
498.14	38.367
498.49	37.730
498.84	37.843
499.18	38.507
499.53	37.713
499.87	37.846
500.22	37.044
500.56	37.382
500.91	37.162
501.26	37.091
501.60	36.500
501.95	36.561
502.29	36.902
502.64	37.035
502.98	35.677
503.33	36.026
503.67	36.677
504.02	36.340
504.36	36.997
504.71	36.059
505.06	35.789
505.40	36.060
505.75	35.291
506.09	35.267
506.44	36.165
506.78	36.009
507.13	35.869
507.47	36.239
507.82	35.227
508.16	34.608
508.51	34.787
508.85	35.097
509.19	34.770
509.54	35.783
509.88	34.046
510.23	35.357
510.57	34.848
510.92	34.785
511.26	34.247
511.61	34.476
511.95	34.407
512.30	34.712
512.64	34.383
512.98	33.967
513.33	35.030
513.67	33.860
514.02	34.236
514.36	33.913
514.70	33.854
515.05	34.984
515.39	33.858
515.74	34.571
516.08	33.386
516.42	33.438
516.77	33.491
517.11	33.058
517.46	34.199
517.80	33.832
518.14	34.331
518.49	33.134
518.83	32.624
519.17	32.418
519.52	32.128
519.86	32.946
520.20	32.535
520.55	32.202
520.89	32.432
521.23	33.222
521.58	32.147
521.92	32.465
522.26	31.730
522.61	32.407
522.95	32.411
523.29	32.356
523.64	31.670
523.98	32.402
524.32	32.894
524.66	32.157
525.01	30.974
525.35	30.729
525.69	31.961
526.04	30.999
526.38	31.609
526.72	30.681
527.06	30.850
527.41	30.787
527.75	31.235
528.09	31.169
528.43	30.373
528.78	29.942
529.12	29.644
529.46	29.005
529.80	30.034
530.15	30.609
530.49	29.656
530.83	29.575
531.17	29.809
531.51	30.205
531.86	28.425
532.20	28.598
532.54	29.503
532.88	29.212
533.22	28.698
533.57	29.140
533.91	28.844
534.25	28.434
534.59	27.816
534.93	27.165
535.27	28.113
535.62	28.027
535.96	28.356
536.30	27.732
536.64	28.589
536.98	28.536
537.32	28.519
537.66	28.447
538.01	28.097
538.35	27.954
538.69	26.683
539.03	28.326
539.37	27.091
539.71	27.327
540.05	27.158
540.39	27.200
540.73	27.019
541.07	26.732
541.42	27.230
541.76	26.631
542.10	25.513
542.44	26.188
542.78	27.433
543.12	25.626
543.46	25.275
543.80	25.300
544.14	25.494
544.48	25.296
544.82	25.434
545.16	25.641
545.50	25.704
545.84	24.556
546.18	26.852
546.52	25.096
546.86	25.220
547.20	25.700
547.54	24.782
547.88	23.810
548.22	25.556
548.56	24.576
548.90	24.657
549.24	25.106
549.58	24.227
549.92	24.171
550.26	25.307
550.60	23.931
550.94	24.838
551.28	24.620
551.62	24.259
551.96	23.754
552.30	24.665
552.64	23.584
552.98	24.454
553.32	24.116
553.66	24.244
554.00	24.653
554.34	23.037
554.68	23.241
555.02	23.653
555.36	23.932
555.69	22.870
556.03	23.392
556.37	24.093
556.71	23.272
557.05	24.217
557.39	23.822
557.73	22.391
558.07	23.245
558.41	24.186
558.75	22.989
559.08	23.452
559.42	22.771
559.76	23.813
560.10	23.577
560.44	22.098
560.78	21.750
561.12	22.475
561.45	22.993
561.79	21.734
562.13	22.489
562.47	21.948
562.81	22.532
563.15	21.591
563.48	21.877
563.82	21.705
564.16	21.926
564.50	21.275
564.84	20.708
565.17	22.294
565.51	21.231
565.85	21.615
566.19	20.565
566.52	20.948
566.86	20.600
567.20	20.718
567.54	21.030
567.88	20.438
568.21	20.010
568.55	20.096
568.89	20.200
569.23	20.025
569.56	19.031
569.90	19.138
570.24	19.325
570.57	18.987
570.91	18.157
571.25	18.745
571.59	18.592
571.92	17.591
572.26	18.634
572.60	18.892
572.93	18.926
573.27	18.882
573.61	18.158
573.95	17.796
574.28	17.659
574.62	18.008
574.96	17.358
575.29	17.317
575.63	17.602
575.97	18.084
576.30	17.789
576.64	17.609
576.98	17.335
577.31	17.302
577.65	17.809
577.98	17.056
578.32	16.492
578.66	16.830
578.99	17.243
579.33	16.919
579.67	17.112
580.00	17.285
580.34	16.863
580.67	16.946
581.01	16.357
581.35	16.852
581.68	16.131
582.02	16.661
582.35	16.541
582.69	16.524
583.02	16.838
583.36	16.821
583.70	16.746
584.03	16.895
584.37	16.268
584.70	16.406
585.04	15.810
585.37	16.262
585.71	16.268
586.04	15.962
586.38	16.643
586.72	16.069
587.05	16.347
587.39	16.081
587.72	16.148
588.06	16.223
588.39	16.181
588.73	15.661
589.06	16.337
589.40	16.195
589.73	16.581
590.07	16.578
590.40	17.039
590.73	16.366
591.07	16.828
591.40	16.019
591.74	16.693
592.07	16.443
592.41	16.088
592.74	15.619
593.08	16.115
593.41	16.390
593.75	15.489
594.08	15.510
594.41	15.865
594.75	15.842
595.08	15.915
595.42	15.747
595.75	16.177
596.09	16.028
596.42	16.302
596.75	16.480
597.09	16.202
597.42	15.971
597.75	15.641
598.09	15.794
598.42	16.084
598.76	15.170
599.09	15.664
599.42	15.320
599.76	15.352
600.09	15.549
600.42	15.549
600.76	15.125
601.09	14.769
601.42	15.173
601.76	15.345
602.09	14.939
602.42	14.867
602.76	15.387
603.09	15.822
603.42	14.993
603.76	14.623
604.09	15.649
604.42	16.110
604.76	14.802
605.09	14.759
605.42	15.351
605.75	15.077
606.09	15.230
606.42	14.885
606.75	15.217
607.09	14.593
607.42	15.183
607.75	14.342
608.08	15.193
608.42	15.075
608.75	15.133
609.08	14.686
609.41	14.689
609.75	14.777
610.08	15.743
610.41	14.359
610.74	14.328
611.07	14.920
611.41	15.022
611.74	14.827
612.07	14.586
612.40	14.306
612.73	14.572
613.07	14.425
613.40	14.822
613.73	14.733
614.06	14.720
614.39	14.820
614.72	14.410
615.06	14.389
615.39	14.016
615.72	14.645
616.05	14.522
616.38	14.884
616.71	14.577
617.05	14.430
617.38	15.463
617.71	16.091
618.04	14.031
618.37	14.317
618.70	15.045
619.03	14.576
619.36	14.735
619.69	15.567
620.03	15.129
620.36	13.620
620.69	14.867
621.02	15.814
621.35	16.110
621.68	15.184
622.01	15.302
622.34	15.551
622.67	14.433
623.00	14.103
623.33	13.869
623.66	15.370
623.99	14.417
624.32	15.335
624.65	13.514
624.99	14.954
625.32	14.958
625.65	14.835
625.98	14.237
626.31	15.096
626.64	15.165
626.97	15.229
627.30	14.199
627.63	15.229
627.96	16.592
628.29	14.475
628.62	14.777
628.95	15.337
629.28	15.208
629.61	15.404
629.94	13.891
630.26	14.661
630.59	14.508
630.92	15.325
631.25	15.564
631.58	15.913
631.91	14.433
632.24	15.562
632.57	15.085
632.90	15.547
633.23	14.592
633.56	15.714
633.89	14.463
634.22	15.593
634.55	15.449
634.88	15.584
635.20	15.608
635.53	16.836
635.86	14.843
636.19	15.695
636.52	14.873
636.85	14.300
637.18	14.345
637.51	15.591
637.83	15.947
638.16	15.207
638.49	14.202
638.82	15.558
639.15	14.204
639.48	15.473
639.81	16.166
640.13	15.901
640.46	14.061
640.79	14.093
641.12	16.646
641.45	15.809
641.77	16.945
642.10	13.648
642.43	15.426
642.76	15.583
643.09	16.027
643.41	14.986
643.74	14.483
644.07	17.103
644.40	14.003
644.73	14.949
645.05	14.978
645.38	16.691
645.71	13.050
646.04	15.638
646.36	13.577
646.69	16.564
647.02	16.667
647.35	17.099
647.67	16.264
648.00	15.924
648.33	16.366
648.66	16.690
648.98	15.782
649.31	14.208
649.64	14.608
649.96	14.456
650.29	12.796
650.62	14.427
650.94	15.165
651.27	13.323
651.60	14.035
651.92	13.982
652.25	14.182
652.58	13.755
652.90	13.517
653.23	15.070
653.56	13.267
653.88	14.888
654.21	16.056
654.54	13.150
654.86	16.006
655.19	13.049
655.52	14.046
655.84	11.288
656.17	13.088
656.49	18.403
656.82	20.005
657.15	15.583
657.47	11.958
657.80	8.728
658.13	6.853
658.45	9.283
658.78	11.330
659.10	11.265
659.43	10.862
659.75	11.228
660.08	11.148
660.41	12.076
660.73	12.087
661.06	11.160
661.38	12.281
661.71	13.966
662.03	12.875
662.36	17.174
662.68	14.071
663.01	16.283
663.33	13.800
663.66	16.850
663.98	13.462
664.31	13.508
664.63	13.873
664.96	14.338
665.28	13.975
665.61	16.783
665.93	14.286
666.26	14.158
666.58	13.653
666.91	15.888
667.23	14.857
667.56	14.793
667.88	13.800
668.21	12.305
668.53	11.776
668.86	13.163
669.18	13.035
669.50	13.917
669.83	14.800
670.15	15.157
670.48	14.087
670.80	13.002
671.13	13.422
671.45	12.008
671.77	15.443
672.10	10.833
672.42	12.783
672.75	12.442
673.07	13.433
673.39	10.940
673.72	13.255
674.04	12.759
674.37	14.490
674.69	14.991
675.01	13.524
675.34	12.786
675.66	12.360
675.98	13.433
676.31	14.062
676.63	14.259
676.95	13.410
677.28	13.710
677.60	12.205
677.92	14.012
678.25	14.625
678.57	13.701
678.89	16.041
679.22	13.066
679.54	10.940
679.86	10.508
680.18	11.111
680.51	13.050
680.83	11.620
681.15	12.414
681.48	13.817
681.80	12.263
682.12	14.510
682.44	14.858
682.77	12.234
683.09	12.121
683.41	13.566
683.73	13.093
684.06	13.469
684.38	11.628
684.70	12.926
685.02	12.565
685.34	11.481
685.67	11.041
685.99	11.196
686.31	11.919
686.63	12.164
686.96	11.356
687.28	12.378
687.60	11.953
687.92	10.772
688.24	10.351
688.56	9.828
688.89	14.156
689.21	10.763
689.53	11.176
689.85	9.467
690.17	12.407
690.49	9.960
690.82	13.069
691.14	11.538
691.46	12.046
691.78	14.917
692.10	12.294
692.42	10.357
692.74	10.526
693.06	10.370
693.39	13.472
693.71	10.902
694.03	13.011
694.35	12.762
694.67	11.499
694.99	10.851
695.31	13.687
695.63	14.286
695.95	11.180
696.27	13.407
696.59	14.381
696.91	10.811
697.23	15.165
697.56	10.794
697.88	9.280
698.20	12.429
698.52	11.932
698.84	10.187
699.16	13.265
699.48	11.506
699.80	12.979
700.12	12.227
700.44	13.364
700.76	11.164
701.08	12.591
701.40	9.845
701.72	12.935
702.04	12.032
702.36	10.995
702.68	11.980
703.00	9.291
703.32	12.808
703.64	12.225
703.96	12.172
704.28	8.600
704.60	13.671
704.91	10.969
705.23	9.315
705.55	15.042
705.87	12.727
706.19	14.417
706.51	7.229
706.83	10.663
707.15	12.169
707.47	10.514
707.79	10.699
708.11	9.746
708.43	10.108
708.74	8.482
709.06	10.673
709.38	10.329
709.70	15.385
710.02	11.370
710.34	9.840
710.66	9.497
710.98	9.016
711.29	7.967
711.61	11.299
711.93	11.111
712.25	11.081
712.57	14.749
712.89	11.765
713.20	8.876
713.52	13.295
713.84	9.471
714.16	11.842
714.48	11.598
714.80	13.506
715.11	11.286
715.43	8.488
715.75	12.105
716.07	12.707
716.39	14.481
716.70	7.530
717.02	12.787
717.34	12.544
717.66	9.732
717.97	6.164
718.29	7.560
718.61	11.842
718.93	10.680
719.24	12.422
719.56	7.975
719.88	8.408
720.20	10.968
720.51	10.870
720.83	6.562
721.15	8.882
721.46	6.507
721.78	12.000
722.10	7.767
722.42	10.403
722.73	9.032
723.05	9.825
723.37	9.375
723.68	17.921
724.00	10.830
724.32	8.451
724.63	10.490
724.95	12.411
725.27	9.408
725.58	9.187
725.90	8.966
726.22	10.972
726.53	11.688
726.85	11.950
727.16	10.876
727.48	11.621
727.80	8.940
728.11	7.774
728.43	11.785
728.74	9.699
729.06	8.609
729.38	9.740
729.69	10.738
730.01	10.417
730.32	10.000
730.64	11.321
730.96	7.764
731.27	11.173
731.59	10.440
731.90	10.130
732.22	9.896
732.53	6.630
732.85	9.429
733.16	8.504
733.48	8.232
733.80	8.357
734.11	12.251
734.43	8.108
734.74	9.620
735.06	7.538
735.37	11.622
735.69	9.730
736.00	11.017
736.32	8.356
736.63	11.944
736.95	10.920
737.26	13.030
737.58	8.485
737.89	10.882
738.21	8.257
738.52	6.230
738.83	8.874
739.15	11.348
739.46	8.844
739.78	8.896
740.09	11.175
740.41	11.662
740.72	10.000
741.04	10.032
741.35	9.474
741.66	11.765
741.98	7.377
742.29	6.695
742.61	9.211
742.92	6.154
743.23	13.718
743.55	6.977
743.86	12.000
744.18	5.785
744.49	8.861
744.80	11.523
745.12	11.392
745.43	6.911
745.74	5.603
746.06	9.322
746.37	8.861
746.68	16.260
747.00	7.500
747.31	7.725
747.62	9.231
747.94	7.287
748.25	5.221
748.56	6.531
748.88	7.692
749.19	9.914
749.50	7.359
749.82	14.859
750.13	13.523
750.44	6.000
750.75	8.308
751.07	10.769
751.38	10.726
751.69	9.265
752.01	7.443
752.32	6.863
752.63	6.463
752.94	6.228
753.26	4.461
753.57	9.630
753.88	5.618
754.19	8.039
754.51	9.325
754.82	12.540
755.13	12.131
755.44	8.191
755.75	8.882
756.07	11.343
756.38	9.119
756.69	8.434
757.00	6.648
757.31	9.290
757.63	8.440
757.94	8.216
758.25	10.384
758.56	8.061
758.87	9.773
759.18	6.400
759.50	12.465
759.81	8.403
760.12	12.129
760.43	9.635
760.74	10.345
761.05	7.750
761.36	8.193
761.67	9.391
761.99	8.108
762.30	8.841
762.61	4.290
762.92	9.328
763.23	11.236
763.54	6.475
763.85	7.560
764.16	8.418
764.47	9.859
764.78	9.904
765.10	7.918
765.41	9.744
765.72	6.878
766.03	7.345
766.34	5.016
766.65	4.530
766.96	4.781
767.27	11.521
767.58	8.955
767.89	11.538
768.20	7.512
768.51	6.944
768.82	9.639
769.13	7.576
769.44	1.154
769.75	9.386
770.06	11.154
770.37	13.780
770.68	6.383
770.99	5.668
771.30	14.444
771.61	6.464
771.92	2.593
772.23	8.502
772.54	3.704
772.85	10.138
773.16	9.524
773.47	5.820
773.78	-0.541
774.09	13.068
774.39	9.500
774.70	10.383
775.01	-1.829
775.32	7.647
775.63	7.975
775.94	-5.096
776.25	9.677
776.56	9.615
776.87	9.524
777.18	7.586
777.48	2.797
777.79	2.703
778.10	2.941
778.41	4.861
778.72	9.655
779.03	4.938
779.34	8.485
779.65	9.326
779.95	11.111
780.26	3.409
780.57	13.548
780.88	12.319
781.19	10.968
781.50	9.412
781.80	6.989
782.11	10.582
782.42	0.000
782.73	5.389
783.04	3.911
783.34	3.636
783.65	0.000
783.96	5.590
784.27	6.548
784.57	5.960
784.88	11.429
785.19	9.449
785.50	12.598
785.81	3.759
786.11	8.462
786.42	7.194
786.73	10.072
787.04	8.271
787.34	4.918
787.65	6.400
787.96	8.209
788.26	11.888
788.57	5.594
788.88	7.237
789.19	5.229
789.49	8.904
789.80	9.929
790.11	6.299
790.41	10.938
790.72	12.712
791.03	-6.796
791.33	10.435
791.64	9.649
791.95	8.036
792.25	3.810
792.56	6.250
792.87	5.208
793.17	7.143
793.48	1.042
793.79	-9.639
794.09	-3.670
794.40	8.257
794.70	6.122
795.01	5.844
795.32	2.740
795.62	6.338
795.93	2.273
796.23	3.279
796.54	8.929
796.85	2.128
797.15	1.087
797.46	0.000
797.76	3.750
798.07	-2.174
798.37	-9.278
798.68	2.597
798.99	-4.598
799.29	14.607
799.60	5.319
799.90	-2.410
800.21	-3.077
800.51	7.463
800.82	-10.294
801.12	-12.329
801.43	-16.176
801.73	-11.864
802.04	6.061
802.34	-6.667
802.65	10.169
802.95	5.970
803.26	0.000
803.56	0.000
803.87	4.286
804.17	10.959
804.48	-14.035
804.78	-5.556
805.09	-17.241
805.39	0.000
805.70	-19.718
806.00	13.415
806.30	-2.410
806.61	-9.589
806.91	6.731
807.22	8.889
807.52	-3.448
807.83	4.167
808.13	1.205
808.43	1.124
808.74	-6.250
809.04	-8.824
809.35	-2.667
809.65	-5.714
809.95	-2.740
810.26	-19.298
810.56	-12.069
810.86	0.000
811.17	-21.053
811.47	1.639
811.77	-15.556
812.08	10.169
812.38	8.333
812.69	-1.724
812.99	-22.642
813.29	-41.026
813.59	-14.000
813.90	12.281
814.20	-12.727
814.50	11.268
814.81	16.667
815.11	-6.557
815.41	10.448
815.72	-1.724
816.02	-1.786
816.32	15.556
816.62	2.273
816.93	6.667
817.23	9.259
817.53	6.383
817.84	14.286
818.14	20.588
818.44	18.367
818.74	22.222
819.04	-12.821
819.35	-14.286
819.65	-19.231
819.95	0.000
820.25	13.333
820.56	-7.143
820.86	-21.875
821.16	2.564
821.46	-18.605
821.76	-10.000
822.07	8.929
822.37	0.000
822.67	-8.511
822.97	-21.622
823.27	5.000
823.57	8.163
823.88	13.333
824.18	-7.500
824.48	-23.333
824.78	-24.000
825.08	-3.030
825.38	8.889
825.69	-19.149
825.99	-22.222
826.29	-28.571
826.59	-10.256
826.89	-11.628
827.19	12.000
827.49	14.706
827.79	16.667
828.09	-10.811
828.39	-16.667
828.70	19.512
829.00	-6.977
829.30	7.143
829.60	8.824
829.90	-10.870
830.20	-11.429
830.50	-44.828
830.80	-33.333
831.10	-19.231
831.40	2.941
831.70	4.762
832.00	16.129
832.30	-76.471
832.60	-20.833
832.90	-38.462
833.20	-5.263
833.50	-35.000
833.80	-63.158
834.10	-90.476
834.40	8.333
834.70	6.250
835.00	-40.000
835.30	-5.882
835.60	-10.000
835.90	-4.000
836.20	-45.455
836.50	-28.000
836.80	-12.121
837.10	-3.704
837.40	-22.222
837.70	-81.250
838.00	-28.571
838.30	-21.739
838.60	-3.448
838.90	-57.143
839.19	-86.957
839.49	-166.667
839.79	-30.435
840.09	-43.750
840.39	-35.000
840.69	19.355
840.99	-25.000
841.29	-26.667
841.59	-26.316
841.88	10.256
842.18	-7.692
842.48	20.000
842.78	-5.000
843.08	3.333
843.38	-6.452
843.68	-83.333
843.97	-2.941
844.27	31.250
844.57	-26.316
844.87	-50.000
845.17	-73.333
845.47	4.762
845.76	-19.048
846.06	-77.778
846.36	-11.765
846.66	-23.077
846.96	-73.333
847.25	-64.706
847.55	4.348
847.85	-25.000
848.15	-11.765
848.44	-100.000
848.74	4.762
849.04	-41.667
849.34	-12.500
849.63	-21.739
849.93	550.000
850.23	0.000
850.53	19.231
850.82	-45.455
851.12	9.091
851.42	-118.182
851.71	53.846
852.01	-55.000
852.31	-61.538
852.61	0.000
852.90	8.333
853.20	-38.889
853.50	-166.667
853.79	-33.333
854.09	-31.818
854.39	-91.667
854.68	-3.226
854.98	-46.154
855.28	16.667
855.57	-35.714
855.87	12.000
856.17	9.091
856.46	18.519
856.76	-61.111
857.05	-26.087
857.35	-33.333
857.65	-92.308
857.94	33.333
858.24	0.000
858.53	-17.391
858.83	35.294
859.13	-17.647
859.42	23.529
859.72	-21.429
860.01	5.000
860.31	-100.000
860.60	-40.000
860.90	-13.333
861.20	-27.778
861.49	-61.538
861.79	33.333
862.08	-61.538
862.38	6.250
862.67	11.765
862.97	-43.750
863.26	-177.778
863.56	-30.000
863.85	-9.091
864.15	22.222
864.44	-300.000
864.74	7.143
865.03	-12.500
865.33	-210.000
865.62	-6.452
865.92	50.000
866.21	8.696
866.51	-28.571
866.80	140.000
867.10	-41.667
867.39	-33.333
867.69	1000.000
867.98	14.286
868.27	23.529
868.57	-1300.000
868.86	-180.000
869.16	9.524
869.45	4.167
869.75	-54.545
870.04	-242.857
870.33	0.000
870.63	-57.143
870.92	-75.000
871.22	-225.000
871.51	-109.091
871.80	-433.333
872.10	-600.000
>>>>>End Processed Spectral Data<<<<<
