SpectraSuite Data File
++++++++++++++++++++++++++++++++++++
Date: Thu May 14 16:24:41 PDT 2015
User: schluterlab
Dark Spectrum Present: Yes
Reference Spectrum Present: Yes
Number of Sampled Component Spectra: 1
Spectrometers: USB2E3373
Integration Time (usec): 3000 (USB2E3373)
Spectra Averaged: 3 (USB2E3373)
Boxcar Smoothing: 0 (USB2E3373)
Correct for Electrical Dark: No (USB2E3373)
Strobe/Lamp Enabled: No (USB2E3373)
Correct for Detector Non-linearity: No (USB2E3373)
Correct for Stray Light: No (USB2E3373)
Number of Pixels in Processed Spectrum: 2048
>>>>>Begin Processed Spectral Data<<<<<
178.53	0.000
178.91	42.857
179.29	-2000.000
179.67	-1000.000
180.04	100.000
180.42	90.000
180.80	180.000
181.18	-800.000
181.56	1000.000
181.94	125.000
182.31	-125.000
182.69	33.333
183.07	-550.000
183.45	200.000
183.83	-66.667
184.20	-100.000
184.58	-300.000
184.96	-75.000
185.34	-88.889
185.72	60.000
186.09	200.000
186.47	750.000
186.85	20.000
187.23	-100.000
187.61	-700.000
187.98	60.000
188.36	-0.000
188.74	-25.000
189.12	0.000
189.49	56.250
189.87	25.000
190.25	77.778
190.63	200.000
191.00	-11.111
191.38	0.000
191.76	-250.000
192.14	-33.333
192.51	250.000
192.89	33.333
193.27	0.000
193.65	85.714
194.02	-1000.000
194.40	14.286
194.78	-28.571
195.15	0.000
195.53	63.636
195.91	0.000
196.29	25.000
196.66	0.000
197.04	-500.000
197.42	-28.571
197.79	-350.000
198.17	-37.500
198.55	0.000
198.92	33.333
199.30	-100.000
199.68	27.273
200.05	14.286
200.43	-750.000
200.81	157.143
201.18	0.000
201.56	166.667
201.94	0.000
202.31	233.333
202.69	-55.556
203.07	-0.000
203.44	77.778
203.82	175.000
204.19	-8.333
204.57	-116.667
204.95	-100.000
205.32	-800.000
205.70	175.000
206.08	-116.667
206.45	66.667
206.83	360.000
207.20	-50.000
207.58	-320.000
207.96	-116.667
208.33	116.667
208.71	25.000
209.08	100.000
209.46	0.000
209.84	50.000
210.21	-300.000
210.59	-400.000
210.96	533.333
211.34	-25.000
211.71	0.000
212.09	-500.000
212.46	0.000
212.84	850.000
213.22	-160.000
213.59	50.000
213.97	30.000
214.34	33.333
214.72	133.333
215.09	-200.000
215.47	0.000
215.84	42.857
216.22	850.000
216.59	-240.000
216.97	-200.000
217.34	25.000
217.72	62.500
218.09	-100.000
218.47	-150.000
218.84	0.000
219.22	180.000
219.59	35.294
219.97	0.000
220.34	550.000
220.72	-22.222
221.09	-7.692
221.47	-133.333
221.84	-70.000
222.22	-214.286
222.59	0.000
222.97	-12.500
223.34	-120.000
223.72	-100.000
224.09	0.000
224.46	-150.000
224.84	160.000
225.21	-14.286
225.59	-175.000
225.96	-50.000
226.34	34.615
226.71	166.667
227.08	-600.000
227.46	53.333
227.83	-75.000
228.21	0.000
228.58	12.500
228.95	-300.000
229.33	-75.000
229.70	-70.000
230.08	68.421
230.45	130.000
230.82	0.000
231.20	-28.571
231.57	50.000
231.95	-72.727
232.32	9.091
232.69	55.000
233.07	-150.000
233.44	-23.529
233.81	-30.000
234.19	38.889
234.56	27.273
234.93	13.793
235.31	15.789
235.68	-11.111
236.05	-10.000
236.43	19.231
236.80	28.000
237.17	18.519
237.55	15.152
237.92	20.000
238.29	6.452
238.67	6.818
239.04	41.667
239.41	30.952
239.79	13.043
240.16	16.667
240.53	10.870
240.91	0.000
241.28	27.869
241.65	34.328
242.02	24.324
242.40	16.923
242.77	24.000
243.14	17.073
243.51	7.895
243.89	30.769
244.26	30.693
244.63	28.431
245.00	26.168
245.38	27.193
245.75	22.124
246.12	36.508
246.49	28.682
246.87	27.143
247.24	35.099
247.61	26.316
247.98	26.846
248.36	24.691
248.73	30.061
249.10	28.415
249.47	33.333
249.84	32.461
250.22	25.907
250.59	30.556
250.96	30.000
251.33	27.551
251.70	30.769
252.08	32.083
252.45	27.049
252.82	26.860
253.19	27.734
253.56	31.939
253.94	27.308
254.31	25.758
254.68	33.566
255.05	28.339
255.42	27.891
255.79	32.686
256.16	26.490
256.54	27.483
256.91	31.803
257.28	28.525
257.65	23.885
258.02	26.549
258.39	29.345
258.76	32.722
259.14	28.736
259.51	33.429
259.88	30.028
260.25	28.333
260.62	30.685
260.99	33.060
261.36	30.831
261.73	26.525
262.10	28.297
262.47	30.831
262.85	35.101
263.22	26.234
263.59	29.211
263.96	34.015
264.33	30.179
264.70	29.630
265.07	30.788
265.44	29.252
265.81	28.241
266.18	30.612
266.55	29.241
266.92	28.474
267.29	30.635
267.66	29.933
268.03	29.694
268.40	29.854
268.77	26.651
269.14	25.110
269.51	31.360
269.88	29.098
270.25	29.577
270.62	31.013
270.99	29.293
271.36	28.911
271.73	28.487
272.10	29.459
272.47	28.056
272.84	25.904
273.21	27.856
273.58	28.427
273.95	27.500
274.32	26.046
274.69	25.145
275.06	29.304
275.43	26.802
275.80	26.631
276.17	27.963
276.54	25.560
276.91	26.834
277.28	26.040
277.65	28.725
278.02	28.676
278.39	26.087
278.76	27.944
279.13	28.014
279.50	26.976
279.87	28.086
280.23	25.000
280.60	28.136
280.97	27.796
281.34	25.806
281.71	27.919
282.08	26.080
282.45	25.205
282.82	26.845
283.19	25.687
283.56	26.721
283.92	26.727
284.29	27.646
284.66	27.750
285.03	24.199
285.40	25.966
285.77	26.006
286.14	25.954
286.51	26.180
286.87	25.434
287.24	26.355
287.61	26.457
287.98	26.586
288.35	25.296
288.72	27.071
289.08	26.794
289.45	24.112
289.82	24.247
290.19	26.293
290.56	26.197
290.93	24.536
291.29	24.793
291.66	23.829
292.03	24.830
292.40	25.442
292.77	24.394
293.13	25.981
293.50	22.865
293.87	24.161
294.24	26.000
294.60	24.779
294.97	23.624
295.34	24.200
295.71	23.455
296.08	23.256
296.44	23.407
296.81	23.386
297.18	22.790
297.55	21.934
297.91	22.539
298.28	21.919
298.65	22.235
299.02	23.731
299.38	23.570
299.75	22.196
300.12	24.074
300.48	22.005
300.85	23.397
301.22	22.595
301.59	21.689
301.95	21.582
302.32	23.222
302.69	22.782
303.05	22.524
303.42	22.949
303.79	21.771
304.15	21.872
304.52	21.564
304.89	22.408
305.25	21.325
305.62	22.048
305.99	23.093
306.35	21.472
306.72	22.751
307.09	21.320
307.45	22.671
307.82	22.200
308.19	22.704
308.55	23.433
308.92	22.590
309.29	23.276
309.65	22.027
310.02	22.970
310.38	21.260
310.75	23.883
311.12	22.435
311.48	21.994
311.85	22.507
312.22	21.537
312.58	22.254
312.95	21.415
313.31	22.855
313.68	22.711
314.05	23.758
314.41	23.588
314.78	23.887
315.14	22.505
315.51	23.546
315.87	22.682
316.24	24.110
316.61	23.890
316.97	23.801
317.34	21.869
317.70	24.192
318.07	23.104
318.43	22.704
318.80	23.495
319.16	23.090
319.53	22.108
319.89	22.086
320.26	22.776
320.62	23.138
320.99	23.084
321.35	22.643
321.72	23.907
322.08	24.707
322.45	23.848
322.81	23.466
323.18	24.867
323.54	22.759
323.91	23.932
324.27	23.580
324.64	23.929
325.00	24.046
325.37	24.488
325.73	23.884
326.10	25.385
326.46	24.267
326.83	24.820
327.19	25.433
327.56	24.190
327.92	24.626
328.29	24.677
328.65	24.707
329.01	25.635
329.38	24.431
329.74	26.199
330.11	25.000
330.47	25.358
330.84	24.548
331.20	26.083
331.56	26.083
331.93	24.686
332.29	26.610
332.66	25.415
333.02	25.293
333.38	25.168
333.75	25.421
334.11	24.354
334.48	24.917
334.84	26.083
335.20	25.273
335.57	26.138
335.93	25.372
336.29	25.874
336.66	25.484
337.02	25.334
337.38	25.000
337.75	24.463
338.11	25.736
338.47	24.731
338.84	25.127
339.20	23.926
339.56	24.712
339.93	25.287
340.29	25.684
340.65	25.142
341.02	24.900
341.38	26.112
341.74	24.617
342.11	25.020
342.47	23.511
342.83	26.329
343.20	24.857
343.56	25.742
343.92	25.460
344.28	25.703
344.65	26.202
345.01	25.351
345.37	24.806
345.73	24.786
346.10	26.365
346.46	24.684
346.82	25.843
347.19	25.516
347.55	25.114
347.91	25.557
348.27	25.341
348.63	25.666
349.00	24.981
349.36	26.245
349.72	25.372
350.08	26.523
350.45	25.779
350.81	24.962
351.17	25.714
351.53	26.156
351.89	25.816
352.26	25.970
352.62	25.597
352.98	26.794
353.34	26.139
353.70	26.117
354.07	26.528
354.43	26.803
354.79	26.402
355.15	26.049
355.51	26.389
355.87	26.253
356.24	26.768
356.60	25.647
356.96	27.131
357.32	26.320
357.68	27.086
358.04	25.898
358.40	26.567
358.77	26.608
359.13	26.366
359.49	26.840
359.85	27.121
360.21	27.475
360.57	27.279
360.93	27.786
361.29	27.579
361.66	27.371
362.02	28.114
362.38	29.234
362.74	28.003
363.10	29.092
363.46	27.493
363.82	28.125
364.18	28.431
364.54	28.216
364.90	28.963
365.26	28.138
365.62	28.800
365.98	28.659
366.35	29.463
366.71	28.571
367.07	29.432
367.43	28.234
367.79	30.458
368.15	29.164
368.51	29.296
368.87	29.654
369.23	29.533
369.59	30.396
369.95	30.291
370.31	31.533
370.67	30.124
371.03	30.263
371.39	29.886
371.75	31.843
372.11	31.233
372.47	31.618
372.83	30.825
373.19	29.953
373.55	30.691
373.91	31.629
374.27	31.177
374.63	31.867
374.99	31.167
375.35	31.039
375.71	31.871
376.07	32.214
376.42	32.683
376.78	32.753
377.14	32.002
377.50	33.270
377.86	33.682
378.22	33.533
378.58	33.115
378.94	32.570
379.30	33.685
379.66	33.921
380.02	33.872
380.38	34.908
380.74	33.859
381.09	34.727
381.45	34.659
381.81	35.422
382.17	35.036
382.53	35.731
382.89	34.989
383.25	36.460
383.61	35.475
383.97	35.984
384.32	37.201
384.68	34.919
385.04	35.917
385.40	37.419
385.76	37.222
386.12	36.625
386.48	37.824
386.83	37.783
387.19	36.501
387.55	37.383
387.91	38.071
388.27	38.222
388.62	38.373
388.98	37.958
389.34	39.010
389.70	38.698
390.06	38.188
390.42	38.253
390.77	40.217
391.13	38.732
391.49	40.036
391.85	39.273
392.20	39.739
392.56	40.106
392.92	39.531
393.28	39.967
393.64	39.385
393.99	42.127
394.35	40.888
394.71	42.275
395.07	41.617
395.42	41.405
395.78	42.535
396.14	42.127
396.50	41.449
396.85	40.250
397.21	41.302
397.57	41.755
397.92	42.440
398.28	41.608
398.64	41.991
399.00	40.890
399.35	42.042
399.71	42.391
400.07	43.796
400.42	42.549
400.78	43.287
401.14	42.743
401.49	43.206
401.85	43.779
402.21	44.148
402.57	44.601
402.92	43.853
403.28	43.735
403.63	45.167
403.99	44.359
404.35	44.059
404.70	44.136
405.06	44.891
405.42	43.794
405.77	45.038
406.13	44.949
406.49	45.833
406.84	45.263
407.20	45.947
407.55	45.790
407.91	46.574
408.27	45.878
408.62	46.306
408.98	46.837
409.34	45.279
409.69	47.590
410.05	47.069
410.40	47.158
410.76	46.719
411.11	47.925
411.47	46.253
411.83	47.913
412.18	48.795
412.54	47.896
412.89	47.264
413.25	47.573
413.60	47.329
413.96	48.368
414.31	47.819
414.67	47.943
415.03	46.954
415.38	48.928
415.74	48.259
416.09	47.995
416.45	47.965
416.80	49.266
417.16	49.425
417.51	47.945
417.87	48.130
418.22	48.922
418.58	47.770
418.93	49.010
419.29	49.753
419.64	47.599
420.00	47.656
420.35	48.737
420.71	48.478
421.06	47.844
421.42	48.796
421.77	47.173
422.12	48.679
422.48	48.387
422.83	50.000
423.19	48.223
423.54	49.668
423.90	48.592
424.25	49.067
424.61	49.024
424.96	48.215
425.31	48.195
425.67	48.417
426.02	48.700
426.38	47.819
426.73	48.326
427.09	49.942
427.44	47.242
427.79	48.867
428.15	48.345
428.50	49.382
428.85	48.852
429.21	48.617
429.56	48.667
429.92	48.059
430.27	47.711
430.62	48.705
430.98	48.451
431.33	47.801
431.68	47.126
432.04	47.689
432.39	47.831
432.74	47.203
433.10	47.810
433.45	47.603
433.80	48.766
434.16	48.089
434.51	48.715
434.86	49.023
435.22	48.512
435.57	49.116
435.92	48.414
436.28	48.407
436.63	50.082
436.98	47.343
437.34	48.929
437.69	48.266
438.04	48.493
438.39	48.995
438.75	48.478
439.10	48.890
439.45	48.239
439.81	47.853
440.16	48.954
440.51	49.331
440.86	47.248
441.22	47.588
441.57	48.795
441.92	47.333
442.27	48.889
442.63	47.591
442.98	47.652
443.33	47.870
443.68	48.167
444.03	47.977
444.39	48.359
444.74	48.188
445.09	47.998
445.44	49.104
445.79	48.467
446.15	48.201
446.50	47.545
446.85	48.298
447.20	47.776
447.55	48.849
447.91	47.853
448.26	47.569
448.61	48.778
448.96	49.785
449.31	47.773
449.66	47.113
450.02	46.835
450.37	47.416
450.72	48.332
451.07	48.064
451.42	47.140
451.77	47.693
452.12	47.799
452.47	47.415
452.83	48.930
453.18	46.994
453.53	48.076
453.88	47.322
454.23	46.554
454.58	48.288
454.93	46.905
455.28	47.381
455.63	47.527
455.98	47.263
456.34	46.349
456.69	46.678
457.04	47.222
457.39	46.508
457.74	46.868
458.09	45.909
458.44	46.713
458.79	46.622
459.14	46.408
459.49	47.538
459.84	46.852
460.19	45.808
460.54	47.359
460.89	46.903
461.24	45.287
461.59	47.205
461.94	46.035
462.29	46.473
462.64	46.107
462.99	47.018
463.34	47.177
463.69	45.428
464.04	45.636
464.39	46.300
464.74	46.009
465.09	46.367
465.44	46.084
465.79	45.955
466.14	46.222
466.49	46.000
466.84	45.344
467.19	45.896
467.54	46.005
467.89	44.943
468.24	46.205
468.59	45.223
468.94	45.105
469.29	46.731
469.64	45.963
469.99	47.610
470.34	47.030
470.68	46.617
471.03	48.527
471.38	47.024
471.73	46.164
472.08	46.574
472.43	46.839
472.78	45.970
473.13	46.776
473.48	47.190
473.83	46.605
474.17	46.542
474.52	47.084
474.87	45.736
475.22	46.085
475.57	45.846
475.92	45.893
476.27	45.527
476.61	45.639
476.96	46.038
477.31	47.079
477.66	47.324
478.01	46.568
478.36	47.159
478.70	47.241
479.05	46.677
479.40	46.051
479.75	45.965
480.10	46.566
480.45	46.490
480.79	46.122
481.14	45.450
481.49	45.752
481.84	46.127
482.19	46.409
482.53	46.261
482.88	45.148
483.23	46.776
483.58	45.502
483.92	44.371
484.27	45.301
484.62	44.142
484.97	44.246
485.31	44.245
485.66	42.317
486.01	41.182
486.36	42.033
486.70	42.823
487.05	44.374
487.40	44.579
487.75	44.173
488.09	44.181
488.44	43.681
488.79	44.013
489.13	43.845
489.48	43.301
489.83	43.501
490.17	42.527
490.52	43.144
490.87	43.274
491.22	43.588
491.56	43.729
491.91	42.564
492.26	43.531
492.60	43.463
492.95	43.133
493.30	42.716
493.64	43.320
493.99	43.158
494.34	42.726
494.68	42.141
495.03	43.304
495.37	42.521
495.72	42.313
496.07	42.463
496.41	42.128
496.76	42.952
497.11	42.378
497.45	42.339
497.80	42.559
498.14	42.268
498.49	42.371
498.84	42.824
499.18	42.330
499.53	42.870
499.87	42.022
500.22	41.585
500.56	41.655
500.91	42.471
501.26	43.273
501.60	41.847
501.95	43.118
502.29	42.475
502.64	41.627
502.98	42.019
503.33	41.339
503.67	40.994
504.02	41.419
504.36	42.359
504.71	42.536
505.06	41.428
505.40	42.002
505.75	42.441
506.09	42.035
506.44	42.665
506.78	42.569
507.13	42.877
507.47	42.634
507.82	42.756
508.16	42.686
508.51	42.382
508.85	42.513
509.19	43.013
509.54	42.747
509.88	42.448
510.23	43.371
510.57	44.176
510.92	42.380
511.26	41.943
511.61	41.864
511.95	42.753
512.30	43.427
512.64	43.028
512.98	42.821
513.33	43.347
513.67	43.039
514.02	43.689
514.36	43.376
514.70	44.427
515.05	44.369
515.39	43.727
515.74	44.592
516.08	43.582
516.42	44.689
516.77	44.111
517.11	43.424
517.46	44.168
517.80	43.880
518.14	43.852
518.49	43.709
518.83	43.747
519.17	43.457
519.52	43.291
519.86	44.034
520.20	43.876
520.55	44.359
520.89	43.750
521.23	44.277
521.58	44.350
521.92	44.759
522.26	44.559
522.61	44.618
522.95	44.406
523.29	44.828
523.64	44.114
523.98	44.153
524.32	45.845
524.66	45.077
525.01	43.658
525.35	42.906
525.69	43.387
526.04	44.604
526.38	45.057
526.72	44.752
527.06	43.636
527.41	44.490
527.75	44.477
528.09	45.336
528.43	44.701
528.78	43.815
529.12	44.266
529.46	44.126
529.80	43.650
530.15	44.174
530.49	43.476
530.83	44.333
531.17	43.728
531.51	44.164
531.86	44.591
532.20	43.232
532.54	42.190
532.88	43.091
533.22	43.371
533.57	42.816
533.91	42.593
534.25	42.623
534.59	43.448
534.93	42.445
535.27	42.310
535.62	42.524
535.96	43.405
536.30	41.363
536.64	43.123
536.98	42.558
537.32	42.284
537.66	41.672
538.01	41.329
538.35	41.596
538.69	42.849
539.03	41.447
539.37	41.225
539.71	41.922
540.05	42.086
540.39	41.198
540.73	40.437
541.07	41.079
541.42	41.465
541.76	40.688
542.10	42.099
542.44	40.621
542.78	40.754
543.12	39.750
543.46	40.659
543.80	40.767
544.14	40.096
544.48	41.135
544.82	41.053
545.16	39.535
545.50	39.664
545.84	40.478
546.18	40.802
546.52	40.064
546.86	40.566
547.20	40.967
547.54	39.326
547.88	39.060
548.22	39.591
548.56	39.672
548.90	39.701
549.24	38.237
549.58	39.811
549.92	39.860
550.26	40.777
550.60	39.694
550.94	38.939
551.28	39.010
551.62	39.151
551.96	38.706
552.30	40.217
552.64	37.897
552.98	38.677
553.32	39.614
553.66	38.714
554.00	38.588
554.34	38.160
554.68	37.702
555.02	38.962
555.36	38.790
555.69	37.092
556.03	37.642
556.37	38.924
556.71	37.603
557.05	38.083
557.39	38.222
557.73	37.252
558.07	38.940
558.41	38.073
558.75	37.525
559.08	37.230
559.42	37.723
559.76	37.110
560.10	37.575
560.44	37.005
560.78	37.437
561.12	36.392
561.45	37.348
561.79	36.081
562.13	37.092
562.47	35.450
562.81	36.392
563.15	37.626
563.48	37.290
563.82	36.457
564.16	35.191
564.50	35.101
564.84	35.339
565.17	36.588
565.51	35.213
565.85	35.451
566.19	34.908
566.52	35.225
566.86	36.220
567.20	34.149
567.54	35.582
567.88	35.270
568.21	35.474
568.55	34.772
568.89	34.589
569.23	34.052
569.56	33.959
569.90	33.607
570.24	33.794
570.57	33.034
570.91	32.486
571.25	32.514
571.59	32.869
571.92	32.836
572.26	32.875
572.60	32.078
572.93	32.396
573.27	32.650
573.61	32.345
573.95	32.387
574.28	31.698
574.62	31.492
574.96	31.429
575.29	31.174
575.63	31.878
575.97	31.760
576.30	31.384
576.64	31.234
576.98	31.481
577.31	31.472
577.65	31.572
577.98	31.118
578.32	30.906
578.66	30.494
578.99	31.006
579.33	31.014
579.67	31.618
580.00	31.108
580.34	30.934
580.67	30.583
581.01	31.199
581.35	30.197
581.68	30.665
582.02	30.440
582.35	30.566
582.69	30.773
583.02	30.574
583.36	30.848
583.70	30.925
584.03	30.742
584.37	31.128
584.70	30.342
585.04	30.109
585.37	30.093
585.71	29.838
586.04	30.097
586.38	30.037
586.72	29.932
587.05	29.854
587.39	30.616
587.72	30.526
588.06	30.319
588.39	30.471
588.73	29.974
589.06	30.220
589.40	30.639
589.73	30.270
590.07	30.869
590.40	30.730
590.73	31.142
591.07	30.566
591.40	30.599
591.74	30.962
592.07	30.369
592.41	30.008
592.74	29.428
593.08	30.032
593.41	29.688
593.75	29.195
594.08	29.143
594.41	29.776
594.75	29.193
595.08	29.273
595.42	30.227
595.75	29.642
596.09	29.922
596.42	29.810
596.75	29.448
597.09	30.465
597.42	30.552
597.75	29.322
598.09	30.119
598.42	30.398
598.76	29.308
599.09	29.512
599.42	27.958
599.76	28.359
600.09	28.495
600.42	28.595
600.76	27.873
601.09	28.875
601.42	28.802
601.76	28.448
602.09	28.949
602.42	28.717
602.76	28.376
603.09	28.928
603.42	28.829
603.76	28.189
604.09	28.247
604.42	28.954
604.76	28.729
605.09	28.839
605.42	28.708
605.75	28.769
606.09	28.630
606.42	27.982
606.75	28.148
607.09	28.187
607.42	28.863
607.75	28.449
608.08	28.453
608.42	28.456
608.75	28.980
609.08	28.014
609.41	28.496
609.75	28.036
610.08	29.024
610.41	28.929
610.74	27.983
611.07	28.508
611.41	28.610
611.74	28.499
612.07	28.845
612.40	27.852
612.73	28.313
613.07	27.971
613.40	28.200
613.73	28.840
614.06	28.459
614.39	27.017
614.72	27.559
615.06	28.778
615.39	27.888
615.72	27.393
616.05	27.926
616.38	28.305
616.71	28.736
617.05	28.009
617.38	28.785
617.71	28.294
618.04	28.602
618.37	28.743
618.70	28.563
619.03	28.495
619.36	28.545
619.69	28.251
620.03	27.997
620.36	28.037
620.69	28.254
621.02	28.018
621.35	29.463
621.68	29.573
622.01	28.256
622.34	27.336
622.67	28.179
623.00	27.395
623.33	27.804
623.66	28.729
623.99	27.057
624.32	28.655
624.65	27.928
624.99	28.999
625.32	29.197
625.65	28.051
625.98	28.610
626.31	29.199
626.64	28.718
626.97	28.357
627.30	27.639
627.63	28.207
627.96	28.679
628.29	27.704
628.62	27.204
628.95	28.659
629.28	27.782
629.61	28.872
629.94	27.531
630.26	28.644
630.59	29.188
630.92	28.571
631.25	29.249
631.58	29.473
631.91	28.585
632.24	28.915
632.57	28.178
632.90	28.786
633.23	29.082
633.56	27.755
633.89	29.442
634.22	29.626
634.55	28.810
634.88	27.273
635.20	30.032
635.53	30.847
635.86	28.927
636.19	28.420
636.52	27.848
636.85	27.783
637.18	28.482
637.51	27.742
637.83	28.904
638.16	29.493
638.49	29.108
638.82	27.283
639.15	29.210
639.48	29.677
639.81	28.176
640.13	29.329
640.46	26.182
640.79	27.696
641.12	29.565
641.45	27.604
641.77	30.809
642.10	26.903
642.43	29.122
642.76	28.997
643.09	27.808
643.41	27.871
643.74	28.276
644.07	31.172
644.40	29.844
644.73	29.753
645.05	28.928
645.38	28.777
645.71	28.886
646.04	28.264
646.36	27.883
646.69	27.607
647.02	29.205
647.35	27.786
647.67	30.435
648.00	29.140
648.33	27.778
648.66	29.244
648.98	26.122
649.31	29.093
649.64	28.818
649.96	27.719
650.29	25.869
650.62	27.016
650.94	27.928
651.27	25.599
651.60	27.339
651.92	25.988
652.25	27.931
652.58	26.685
652.90	27.180
653.23	29.437
653.56	26.676
653.88	27.949
654.21	27.324
654.54	28.757
654.86	25.779
655.19	26.349
655.52	25.858
655.84	23.447
656.17	27.636
656.49	38.757
656.82	42.988
657.15	33.246
657.47	25.689
657.80	18.855
658.13	14.910
658.45	20.106
658.78	24.810
659.10	24.895
659.43	24.865
659.75	25.375
660.08	24.818
660.41	23.739
660.73	24.287
661.06	24.963
661.38	25.997
661.71	29.310
662.03	27.337
662.36	27.013
662.68	28.330
663.01	27.611
663.33	26.843
663.66	28.938
663.98	27.692
664.31	27.580
664.63	24.470
664.96	27.405
665.28	25.227
665.61	28.147
665.93	27.500
666.26	26.882
666.58	25.461
666.91	29.907
667.23	27.048
667.56	27.811
667.88	28.400
668.21	27.734
668.53	22.587
668.86	29.470
669.18	27.291
669.50	29.423
669.83	26.600
670.15	25.787
670.48	25.198
670.80	29.063
671.13	25.520
671.45	27.559
671.77	27.495
672.10	24.833
672.42	24.757
672.75	24.117
673.07	27.612
673.39	23.267
673.72	26.678
674.04	26.034
674.37	29.517
674.69	27.690
675.01	24.952
675.34	24.809
675.66	25.468
675.98	28.545
676.31	24.805
676.63	26.046
676.95	28.352
677.28	27.823
677.60	25.000
677.92	26.296
678.25	24.863
678.57	26.868
678.89	26.451
679.22	25.958
679.54	27.521
679.86	23.220
680.18	24.544
680.51	25.629
680.83	24.714
681.15	26.034
681.48	26.770
681.80	24.870
682.12	28.497
682.44	23.706
682.77	22.518
683.09	25.189
683.41	25.969
683.73	22.581
684.06	27.306
684.38	23.971
684.70	25.673
685.02	25.301
685.34	23.128
685.67	21.924
685.99	22.546
686.31	22.093
686.63	23.855
686.96	23.502
687.28	26.221
687.60	25.589
687.92	23.633
688.24	25.876
688.56	25.172
688.89	23.775
689.21	27.593
689.53	23.137
689.85	25.247
690.17	24.074
690.49	24.701
690.82	23.168
691.14	23.279
691.46	24.474
691.78	24.309
692.10	23.486
692.42	21.964
692.74	22.686
693.06	21.481
693.39	23.719
693.71	22.556
694.03	23.978
694.35	23.048
694.67	23.614
694.99	24.255
695.31	24.724
695.63	25.325
695.95	25.259
696.27	26.154
696.59	24.779
696.91	22.297
697.23	26.593
697.56	23.829
697.88	21.591
698.20	24.859
698.52	25.758
698.84	25.780
699.16	24.490
699.48	23.849
699.80	23.191
700.12	24.236
700.44	23.272
700.76	25.653
701.08	25.666
701.40	23.575
701.72	26.368
702.04	22.193
702.36	23.822
702.68	21.271
703.00	21.271
703.32	24.138
703.64	23.961
703.96	21.002
704.28	23.833
704.60	24.557
704.91	23.469
705.23	24.932
705.55	21.448
705.87	26.970
706.19	25.153
706.51	21.988
706.83	20.461
707.15	23.545
707.47	22.196
707.79	21.397
708.11	20.339
708.43	20.000
708.74	18.750
709.06	23.666
709.38	24.178
709.70	26.055
710.02	22.222
710.34	24.734
710.66	23.184
710.98	23.497
711.29	21.703
711.61	23.729
711.93	23.932
712.25	22.162
712.57	26.844
712.89	25.588
713.20	24.556
713.52	25.723
713.84	21.448
714.16	26.316
714.48	21.907
714.80	23.636
715.11	19.948
715.43	21.220
715.75	22.632
716.07	21.271
716.39	24.317
716.70	22.590
717.02	21.967
717.34	23.693
717.66	20.470
717.97	20.205
718.29	20.619
718.61	26.316
718.93	21.359
719.24	23.913
719.56	19.325
719.88	24.324
720.20	20.000
720.51	21.739
720.83	22.813
721.15	20.395
721.46	20.890
721.78	20.000
722.10	22.977
722.42	19.128
722.73	19.355
723.05	23.158
723.37	23.264
723.68	27.240
724.00	21.300
724.32	21.831
724.63	19.930
724.95	25.532
725.27	20.557
725.58	21.201
725.90	23.448
726.22	22.571
726.53	23.377
726.85	25.157
727.16	23.263
727.48	22.936
727.80	21.192
728.11	19.435
728.43	25.589
728.74	21.405
729.06	17.550
729.38	20.130
729.69	26.174
730.01	21.131
730.32	18.182
730.64	22.642
730.96	20.186
731.27	22.626
731.59	21.154
731.90	21.039
732.22	19.792
732.53	18.232
732.85	21.143
733.16	19.355
733.48	20.427
733.80	21.727
734.11	19.373
734.43	24.054
734.74	21.013
735.06	21.106
735.37	22.162
735.69	19.730
736.00	22.034
736.32	21.294
736.63	22.500
736.95	18.678
737.26	20.909
737.58	19.394
737.89	21.765
738.21	18.654
738.52	24.262
738.83	23.549
739.15	18.794
739.46	20.748
739.78	21.166
740.09	19.198
740.41	22.741
740.72	19.000
741.04	22.654
741.35	21.053
741.66	23.922
741.98	20.492
742.29	20.084
742.61	28.947
742.92	16.923
743.23	24.188
743.55	16.667
743.86	25.600
744.18	14.876
744.49	19.409
744.80	23.457
745.12	19.831
745.43	23.171
745.74	21.983
746.06	22.458
746.37	21.941
746.68	26.423
747.00	21.667
747.31	19.313
747.62	20.385
747.94	21.457
748.25	20.080
748.56	18.776
748.88	20.513
749.19	25.431
749.50	22.511
749.82	21.285
750.13	19.929
750.44	17.667
750.75	20.308
751.07	19.385
751.38	19.558
751.69	18.530
752.01	22.977
752.32	20.261
752.63	21.769
752.94	15.917
753.26	18.216
753.57	19.259
753.88	18.727
754.19	20.900
754.51	15.756
754.82	21.865
755.13	20.984
755.44	20.137
755.75	18.750
756.07	24.478
756.38	14.465
756.69	21.084
757.00	18.837
757.31	19.126
757.63	18.414
757.94	18.075
758.25	20.542
758.56	18.954
758.87	19.773
759.18	22.400
759.50	21.246
759.81	22.129
760.12	18.059
760.43	17.187
760.74	20.443
761.05	17.750
761.36	17.108
761.67	19.543
761.99	16.757
762.30	20.427
762.61	19.142
762.92	20.149
763.23	21.348
763.54	17.266
763.85	17.526
764.16	17.845
764.47	20.070
764.78	19.489
765.10	22.287
765.41	21.282
765.72	19.577
766.03	22.599
766.34	17.868
766.65	14.983
766.96	20.717
767.27	15.668
767.58	16.915
767.89	24.519
768.20	19.718
768.51	19.907
768.82	22.490
769.13	16.288
769.44	17.308
769.75	18.051
770.06	19.231
770.37	20.472
770.68	18.723
770.99	12.551
771.30	24.444
771.61	19.772
771.92	14.444
772.23	21.862
772.54	15.741
772.85	23.502
773.16	22.381
773.47	18.519
773.78	15.135
774.09	18.182
774.39	25.500
774.70	23.497
775.01	13.415
775.32	12.353
775.63	19.632
775.94	12.102
776.25	23.226
776.56	25.641
776.87	14.286
777.18	15.172
777.48	18.881
777.79	18.243
778.10	19.853
778.41	27.083
778.72	14.483
779.03	25.309
779.34	18.182
779.65	16.062
779.95	24.444
780.26	21.023
780.57	20.645
780.88	19.565
781.19	25.806
781.50	25.882
781.80	20.430
782.11	20.635
782.42	15.657
782.73	13.174
783.04	22.346
783.34	14.545
783.65	13.725
783.96	17.391
784.27	17.262
784.57	15.232
784.88	17.143
785.19	23.622
785.50	18.898
785.81	22.556
786.11	19.231
786.42	12.950
786.73	15.827
787.04	18.797
787.34	18.852
787.65	17.600
787.96	17.910
788.26	30.769
788.57	21.678
788.88	17.105
789.19	23.529
789.49	19.178
789.80	14.184
790.11	18.110
790.41	19.531
790.72	16.949
791.03	0.000
791.33	11.304
791.64	18.421
791.95	23.214
792.25	20.952
792.56	18.750
792.87	25.000
793.17	25.893
793.48	13.542
793.79	3.614
794.09	4.587
794.40	16.514
794.70	22.449
795.01	13.636
795.32	13.699
795.62	20.423
795.93	15.909
796.23	13.115
796.54	8.036
796.85	13.830
797.15	21.739
797.46	1.370
797.76	13.750
798.07	11.957
798.37	16.495
798.68	15.584
798.99	18.391
799.29	14.607
799.60	22.340
799.90	19.277
800.21	4.615
800.51	14.925
800.82	10.294
801.12	5.479
801.43	7.353
801.73	11.864
802.04	13.636
802.34	10.000
802.65	22.034
802.95	17.910
803.26	18.644
803.56	31.507
803.87	27.143
804.17	15.068
804.48	8.772
804.78	29.167
805.09	-3.448
805.39	16.216
805.70	0.000
806.00	9.756
806.30	13.253
806.61	17.808
806.91	25.962
807.22	13.333
807.52	16.092
807.83	18.056
808.13	31.325
808.43	10.112
808.74	16.250
809.04	-2.941
809.35	-2.667
809.65	14.286
809.95	20.548
810.26	3.509
810.56	8.621
810.86	22.059
811.17	0.000
811.47	4.918
811.77	0.000
812.08	1.695
812.38	38.333
812.69	18.966
812.99	5.660
813.29	-25.641
813.59	2.000
813.90	28.070
814.20	9.091
814.50	11.268
814.81	21.795
815.11	18.033
815.41	5.970
815.72	29.310
816.02	0.000
816.32	8.889
816.62	18.182
816.93	0.000
817.23	7.407
817.53	23.404
817.84	42.857
818.14	-20.588
818.44	10.204
818.74	8.889
819.04	17.949
819.35	17.143
819.65	-11.538
819.95	20.755
820.25	2.222
820.56	0.000
820.86	-21.875
821.16	-10.256
821.46	-9.302
821.76	2.000
822.07	23.214
822.37	4.348
822.67	-10.638
822.97	-16.216
823.27	10.000
823.57	28.571
823.88	13.333
824.18	0.000
824.48	16.667
824.78	-24.000
825.08	3.030
825.38	31.111
825.69	21.277
825.99	16.667
826.29	-28.571
826.59	-5.128
826.89	-16.279
827.19	14.000
827.49	0.000
827.79	29.167
828.09	-5.405
828.39	-13.333
828.70	26.829
829.00	-6.977
829.30	-10.714
829.60	23.529
829.90	10.870
830.20	17.143
830.50	-10.345
830.80	-38.889
831.10	-11.538
831.40	-8.824
831.70	-4.762
832.00	29.032
832.30	-111.765
832.60	4.167
832.90	-30.769
833.20	21.053
833.50	-15.000
833.80	0.000
834.10	-71.429
834.40	27.778
834.70	28.125
835.00	-5.714
835.30	2.941
835.60	13.333
835.90	0.000
836.20	-68.182
836.50	16.000
836.80	-3.030
837.10	7.407
837.40	-29.630
837.70	-50.000
838.00	3.571
838.30	8.696
838.60	41.379
838.90	42.857
839.19	-43.478
839.49	-25.000
839.79	8.696
840.09	-31.250
840.39	-60.000
840.69	32.258
840.99	-3.571
841.29	0.000
841.59	-36.842
841.88	20.513
842.18	-15.385
842.48	-50.000
842.78	0.000
843.08	26.667
843.38	22.581
843.68	-5.556
843.97	-14.706
844.27	25.000
844.57	-31.579
844.87	-100.000
845.17	-40.000
845.47	38.095
845.76	14.286
846.06	-66.667
846.36	-23.529
846.66	11.538
846.96	-40.000
847.25	-58.824
847.55	17.391
847.85	5.000
848.15	11.765
848.44	0.000
848.74	4.762
849.04	0.000
849.34	-37.500
849.63	-26.087
849.93	250.000
850.23	40.000
850.53	-3.846
850.82	27.273
851.12	13.636
851.42	-136.364
851.71	0.000
852.01	-45.000
852.31	-23.077
852.61	-15.789
852.90	33.333
853.20	33.333
853.50	-66.667
853.79	-9.524
854.09	-68.182
854.39	-108.333
854.68	-9.677
854.98	-11.538
855.28	33.333
855.57	-7.143
855.87	12.000
856.17	-36.364
856.46	7.407
856.76	-11.111
857.05	8.696
857.35	-4.167
857.65	0.000
857.94	42.857
858.24	37.037
858.53	39.130
858.83	11.765
859.13	-17.647
859.42	11.765
859.72	7.143
860.01	-5.000
860.31	-66.667
860.60	30.000
860.90	-26.667
861.20	5.556
861.49	-38.462
861.79	16.667
862.08	-7.692
862.38	18.750
862.67	23.529
862.97	18.750
863.26	-88.889
863.56	0.000
863.85	-27.273
864.15	27.778
864.44	33.333
864.74	-21.429
865.03	6.250
865.33	-130.000
865.62	0.000
865.92	40.909
866.21	17.391
866.51	-21.429
866.80	-260.000
867.10	-50.000
867.39	-150.000
867.69	1600.000
867.98	-100.000
868.27	41.176
868.57	-1800.000
868.86	-30.000
869.16	4.762
869.45	-20.833
869.75	27.273
870.04	-14.286
870.33	-66.667
870.63	-242.857
870.92	-25.000
871.22	-175.000
871.51	-63.636
871.80	-233.333
872.10	-150.000
>>>>>End Processed Spectral Data<<<<<
