SpectraSuite Data File
++++++++++++++++++++++++++++++++++++
Date: Thu May 14 16:30:32 PDT 2015
User: schluterlab
Dark Spectrum Present: Yes
Reference Spectrum Present: Yes
Number of Sampled Component Spectra: 1
Spectrometers: USB2E3373
Integration Time (usec): 3000 (USB2E3373)
Spectra Averaged: 3 (USB2E3373)
Boxcar Smoothing: 0 (USB2E3373)
Correct for Electrical Dark: No (USB2E3373)
Strobe/Lamp Enabled: No (USB2E3373)
Correct for Detector Non-linearity: No (USB2E3373)
Correct for Stray Light: No (USB2E3373)
Number of Pixels in Processed Spectrum: 2048
>>>>>Begin Processed Spectral Data<<<<<
178.53	0.000
178.91	114.286
179.29	-100.000
179.67	-300.000
180.04	171.429
180.42	-70.000
180.80	120.000
181.18	-600.000
181.56	500.000
181.94	-50.000
182.31	-25.000
182.69	166.667
183.07	50.000
183.45	-50.000
183.83	150.000
184.20	-133.333
184.58	-100.000
184.96	0.000
185.34	22.222
185.72	-60.000
186.09	122.222
186.47	300.000
186.85	240.000
187.23	-111.111
187.61	-900.000
187.98	20.000
188.36	-175.000
188.74	50.000
189.12	200.000
189.49	6.250
189.87	0.000
190.25	-22.222
190.63	-20.000
191.00	66.667
191.38	0.000
191.76	-175.000
192.14	0.000
192.51	100.000
192.89	133.333
193.27	0.000
193.65	-71.429
194.02	-1000.000
194.40	128.571
194.78	100.000
195.15	0.000
195.53	90.909
195.91	0.000
196.29	125.000
196.66	23.077
197.04	0.000
197.42	14.286
197.79	-150.000
198.17	-25.000
198.55	28.571
198.92	0.000
199.30	-12.500
199.68	-36.364
200.05	42.857
200.43	100.000
200.81	28.571
201.18	0.000
201.56	66.667
201.94	0.000
202.31	233.333
202.69	-11.111
203.07	-100.000
203.44	0.000
203.82	-325.000
204.19	-50.000
204.57	-150.000
204.95	50.000
205.32	-300.000
205.70	-50.000
206.08	50.000
206.45	-16.667
206.83	320.000
207.20	83.333
207.58	-20.000
207.96	-50.000
208.33	33.333
208.71	91.667
209.08	100.000
209.46	0.000
209.84	150.000
210.21	200.000
210.59	300.000
210.96	266.667
211.34	50.000
211.71	12.500
212.09	-200.000
212.46	0.000
212.84	800.000
213.22	-60.000
213.59	-75.000
213.97	80.000
214.34	133.333
214.72	183.333
215.09	-50.000
215.47	0.000
215.84	28.571
216.22	50.000
216.59	-40.000
216.97	-40.000
217.34	0.000
217.72	25.000
218.09	-100.000
218.47	-150.000
218.84	0.000
219.22	40.000
219.59	-23.529
219.97	5.000
220.34	50.000
220.72	33.333
221.09	7.692
221.47	0.000
221.84	-10.000
222.22	-128.571
222.59	0.000
222.97	162.500
223.34	-60.000
223.72	-900.000
224.09	75.000
224.46	-75.000
224.84	160.000
225.21	-57.143
225.59	-125.000
225.96	-250.000
226.34	50.000
226.71	33.333
227.08	-600.000
227.46	-33.333
227.83	-325.000
228.21	-26.316
228.58	87.500
228.95	100.000
229.33	33.333
229.70	150.000
230.08	89.474
230.45	-10.000
230.82	-33.333
231.20	21.429
231.57	25.000
231.95	9.091
232.32	0.000
232.69	25.000
233.07	-300.000
233.44	41.176
233.81	-80.000
234.19	-11.111
234.56	27.273
234.93	62.069
235.31	0.000
235.68	44.444
236.05	-25.000
236.43	7.692
236.80	52.000
237.17	-11.111
237.55	-3.030
237.92	-80.000
238.29	-22.581
238.67	-9.091
239.04	13.889
239.41	-7.143
239.79	6.522
240.16	3.704
240.53	0.000
240.91	-1.961
241.28	-3.279
241.65	5.970
242.02	9.459
242.40	-9.231
242.77	-1.333
243.14	3.659
243.51	-14.474
243.89	-2.564
244.26	0.990
244.63	4.902
245.00	8.411
245.38	5.263
245.75	-8.850
246.12	8.730
246.49	0.775
246.87	8.571
247.24	4.636
247.61	1.974
247.98	9.396
248.36	1.235
248.73	-4.908
249.10	0.546
249.47	6.468
249.84	6.806
250.22	-1.036
250.59	5.000
250.96	4.545
251.33	4.082
251.70	4.701
252.08	4.583
252.45	2.459
252.82	1.653
253.19	6.641
253.56	4.183
253.94	1.923
254.31	5.682
254.68	1.748
255.05	6.189
255.42	2.721
255.79	1.942
256.16	0.331
256.54	1.987
256.91	3.279
257.28	2.951
257.65	1.592
258.02	2.950
258.39	1.425
258.76	7.339
259.14	5.460
259.51	2.882
259.88	1.983
260.25	1.389
260.62	4.384
260.99	4.645
261.36	4.558
261.73	2.653
262.10	1.374
262.47	1.340
262.85	6.566
263.22	1.558
263.59	0.789
263.96	1.790
264.33	1.279
264.70	1.975
265.07	4.535
265.44	5.669
265.81	3.241
266.18	3.628
266.55	3.571
266.92	-0.228
267.29	4.376
267.66	3.326
268.03	-0.218
268.40	4.802
268.77	-0.456
269.14	-2.643
269.51	2.193
269.88	3.484
270.25	3.622
270.62	2.954
270.99	4.444
271.36	1.980
271.73	2.161
272.10	1.002
272.47	1.002
272.84	1.004
273.21	2.004
273.58	3.427
273.95	2.500
274.32	1.711
274.69	0.774
275.06	3.114
275.43	0.370
275.80	1.411
276.17	-0.926
276.54	1.119
276.91	0.716
277.28	2.170
277.65	2.334
278.02	1.654
278.39	0.362
278.76	0.176
279.13	0.355
279.50	1.890
279.87	1.610
280.23	-1.408
280.60	3.051
280.97	0.329
281.34	-0.170
281.71	4.061
282.08	0.498
282.45	1.146
282.82	3.140
283.19	0.162
283.56	0.656
283.92	3.453
284.29	2.212
284.66	1.806
285.03	0.000
285.40	1.855
285.77	1.084
286.14	3.053
286.51	1.674
286.87	1.738
287.24	2.861
287.61	1.943
287.98	0.453
288.35	1.775
288.72	0.592
289.08	1.171
289.45	1.331
289.82	0.301
290.19	0.862
290.56	1.549
290.93	1.141
291.29	0.964
291.66	2.342
292.03	0.543
292.40	2.313
292.77	0.943
293.13	2.165
293.50	1.183
293.87	1.208
294.24	2.800
294.60	3.413
294.97	0.134
295.34	2.561
295.71	1.639
296.08	0.775
296.44	1.961
296.81	1.827
297.18	1.619
297.55	2.123
297.91	0.712
298.28	0.237
298.65	1.427
299.02	1.063
299.38	1.602
299.75	1.636
300.12	0.579
300.48	2.650
300.85	1.687
301.22	1.678
301.59	1.142
301.95	1.243
302.32	2.333
302.69	1.972
303.05	2.067
303.42	0.998
303.79	1.979
304.15	1.472
304.52	2.114
304.89	2.199
305.25	1.967
305.62	1.567
305.99	1.443
306.35	1.008
306.72	2.482
307.09	1.218
307.45	3.106
307.82	2.018
308.19	2.220
308.55	3.182
308.92	2.045
309.29	2.395
309.65	1.657
310.02	1.287
310.38	2.756
310.75	2.816
311.12	3.068
311.48	1.857
311.85	2.944
312.22	2.087
312.58	2.254
312.95	2.294
313.31	2.529
313.68	2.839
314.05	2.258
314.41	4.098
314.78	3.451
315.14	3.267
315.51	3.416
315.87	4.050
316.24	2.922
316.61	4.796
316.97	3.439
317.34	3.086
317.70	4.716
318.07	4.409
318.43	5.527
318.80	6.104
319.16	6.180
319.53	5.056
319.89	6.310
320.26	6.495
320.62	5.142
320.99	6.094
321.35	6.192
321.72	7.628
322.08	7.124
322.45	7.859
322.81	8.032
323.18	8.230
323.54	7.672
323.91	8.541
324.27	9.380
324.64	9.572
325.00	8.706
325.37	9.419
325.73	10.579
326.10	10.300
326.46	11.319
326.83	11.449
327.19	11.575
327.56	12.016
327.92	11.015
328.29	12.258
328.65	11.809
329.01	12.183
329.38	12.553
329.74	12.928
330.11	13.955
330.47	13.227
330.84	13.178
331.20	14.333
331.56	12.825
331.93	14.393
332.29	14.831
332.66	14.701
333.02	13.819
333.38	13.842
333.75	14.141
334.11	14.762
334.48	14.356
334.84	15.548
335.20	15.113
335.57	15.261
335.93	14.876
336.29	14.476
336.66	14.718
337.02	14.381
337.38	15.221
337.75	14.711
338.11	15.055
338.47	16.625
338.84	14.721
339.20	14.996
339.56	15.321
339.93	15.107
340.29	14.493
340.65	14.842
341.02	15.084
341.38	16.249
341.74	14.205
342.11	15.205
342.47	16.044
342.83	15.700
343.20	15.372
343.56	14.675
343.92	15.452
344.28	15.547
344.65	15.504
345.01	15.289
345.37	15.630
345.73	15.355
346.10	16.459
346.46	14.794
346.82	16.779
347.19	15.890
347.55	17.147
347.91	15.082
348.27	16.237
348.63	15.308
349.00	15.362
349.36	15.836
349.72	16.369
350.08	15.007
350.45	15.589
350.81	15.611
351.17	15.489
351.53	16.073
351.89	16.021
352.26	16.343
352.62	15.299
352.98	15.878
353.34	15.609
353.70	15.331
354.07	16.319
354.43	16.249
354.79	16.006
355.15	16.409
355.51	16.447
355.87	15.931
356.24	16.122
356.60	15.447
356.96	16.901
357.32	15.688
357.68	15.081
358.04	15.644
358.40	15.746
358.77	16.447
359.13	16.248
359.49	16.059
359.85	17.114
360.21	16.284
360.57	16.152
360.93	16.291
361.29	16.281
361.66	16.727
362.02	16.771
362.38	16.585
362.74	16.411
363.10	16.781
363.46	17.313
363.82	17.116
364.18	17.101
364.54	17.842
364.90	16.923
365.26	16.207
365.62	17.467
365.98	16.950
366.35	17.517
366.71	17.075
367.07	18.133
367.43	17.925
367.79	18.381
368.15	17.726
368.51	17.456
368.87	17.309
369.23	17.867
369.59	17.281
369.95	17.715
370.31	17.826
370.67	17.538
371.03	16.967
371.39	17.126
371.75	18.088
372.11	17.547
372.47	17.739
372.83	18.325
373.19	17.211
373.55	17.615
373.91	17.178
374.27	18.499
374.63	17.930
374.99	17.639
375.35	18.961
375.71	19.032
376.07	17.883
376.42	17.884
376.78	18.645
377.14	17.467
377.50	17.457
377.86	19.273
378.22	18.862
378.58	19.560
378.94	19.190
379.30	17.926
379.66	17.989
380.02	18.061
380.38	18.548
380.74	18.423
381.09	17.944
381.45	18.693
381.81	19.555
382.17	18.943
382.53	18.070
382.89	19.244
383.25	18.757
383.61	18.576
383.97	18.963
384.32	19.079
384.68	18.097
385.04	19.202
385.40	19.564
385.76	19.519
386.12	18.731
386.48	19.235
386.83	19.547
387.19	18.946
387.55	19.366
387.91	19.007
388.27	19.342
388.62	19.244
388.98	18.895
389.34	19.800
389.70	18.942
390.06	20.189
390.42	18.855
390.77	19.446
391.13	19.190
391.49	19.565
391.85	19.576
392.20	19.336
392.56	19.965
392.92	20.338
393.28	18.905
393.64	19.162
393.99	19.465
394.35	19.860
394.71	20.060
395.07	19.461
395.42	19.417
395.78	19.196
396.14	19.133
396.50	18.765
396.85	19.201
397.21	19.290
397.57	19.081
397.92	19.359
398.28	18.903
398.64	18.822
399.00	19.058
399.35	19.424
399.71	18.859
400.07	19.315
400.42	18.626
400.78	18.924
401.14	19.010
401.49	18.988
401.85	18.721
402.21	19.003
402.57	19.777
402.92	19.326
403.28	18.560
403.63	19.153
403.99	18.527
404.35	18.988
404.70	19.490
405.06	19.022
405.42	19.614
405.77	18.866
406.13	18.639
406.49	18.525
406.84	18.947
407.20	18.837
407.55	18.655
407.91	18.982
408.27	19.022
408.62	18.499
408.98	18.456
409.34	18.592
409.69	18.850
410.05	19.578
410.40	18.677
410.76	18.845
411.11	19.287
411.47	19.656
411.83	19.106
412.18	19.036
412.54	19.443
412.89	19.616
413.25	18.679
413.60	18.093
413.96	18.648
414.31	18.357
414.67	19.022
415.03	18.585
415.38	18.789
415.74	18.754
416.09	18.507
416.45	18.660
416.80	18.482
417.16	19.604
417.51	19.365
417.87	18.945
418.22	19.581
418.58	19.207
418.93	19.383
419.29	18.989
419.64	19.208
420.00	19.347
420.35	18.641
420.71	18.725
421.06	18.746
421.42	19.610
421.77	18.632
422.12	19.239
422.48	18.587
422.83	19.715
423.19	19.629
423.54	19.967
423.90	19.216
424.25	20.053
424.61	18.255
424.96	20.099
425.31	20.117
425.67	20.021
426.02	19.867
426.38	19.575
426.73	19.029
427.09	21.165
427.44	19.771
427.79	19.900
428.15	20.091
428.50	18.989
428.85	19.862
429.21	19.840
429.56	20.582
429.92	19.803
430.27	19.807
430.62	19.834
430.98	20.020
431.33	20.626
431.68	19.971
432.04	20.569
432.39	19.925
432.74	20.205
433.10	20.930
433.45	19.565
433.80	20.011
434.16	20.093
434.51	21.017
434.86	21.227
435.22	20.563
435.57	20.519
435.92	20.200
436.28	20.762
436.63	20.863
436.98	20.451
437.34	20.124
437.69	20.693
438.04	20.624
438.39	20.850
438.75	20.255
439.10	21.036
439.45	21.465
439.81	20.678
440.16	21.501
440.51	21.070
440.86	20.567
441.22	20.900
441.57	20.126
441.92	20.320
442.27	21.616
442.63	20.815
442.98	21.131
443.33	20.989
443.68	21.110
444.03	21.214
444.39	20.804
444.74	21.491
445.09	21.490
445.44	22.181
445.79	20.881
446.15	21.429
446.50	21.085
446.85	20.331
447.20	21.712
447.55	21.234
447.91	21.152
448.26	20.825
448.61	20.935
448.96	21.406
449.31	20.573
449.66	20.534
450.02	20.939
450.37	21.097
450.72	21.098
451.07	22.267
451.42	21.202
451.77	21.512
452.12	21.275
452.47	21.153
452.83	21.171
453.18	20.841
453.53	21.424
453.88	20.707
454.23	21.921
454.58	21.880
454.93	20.692
455.28	21.493
455.63	21.262
455.98	22.067
456.34	21.084
456.69	21.634
457.04	21.395
457.39	21.452
457.74	21.365
458.09	21.472
458.44	21.390
458.79	20.681
459.14	20.661
459.49	21.336
459.84	21.249
460.19	21.044
460.54	21.295
460.89	21.652
461.24	20.920
461.59	21.859
461.94	19.509
462.29	20.717
462.64	20.217
462.99	21.846
463.34	21.999
463.69	21.102
464.04	20.901
464.39	20.964
464.74	21.152
465.09	21.050
465.44	20.655
465.79	20.941
466.14	19.698
466.49	21.526
466.84	20.716
467.19	20.867
467.54	20.270
467.89	19.770
468.24	20.277
468.59	19.456
468.94	19.755
469.29	19.916
469.64	20.725
469.99	20.586
470.34	20.978
470.68	21.258
471.03	21.349
471.38	20.536
471.73	20.156
472.08	20.812
472.43	20.650
472.78	20.403
473.13	20.291
473.48	20.665
473.83	21.242
474.17	20.750
474.52	20.505
474.87	20.819
475.22	20.169
475.57	19.990
475.92	20.010
476.27	20.181
476.61	20.145
476.96	19.656
477.31	19.851
477.66	20.462
478.01	20.691
478.36	19.442
478.70	20.591
479.05	20.194
479.40	20.336
479.75	20.173
480.10	19.848
480.45	19.781
480.79	20.091
481.14	19.577
481.49	19.537
481.84	20.061
482.19	19.183
482.53	19.851
482.88	19.761
483.23	19.342
483.58	19.607
483.92	19.548
484.27	19.433
484.62	18.358
484.97	19.323
485.31	19.113
485.66	17.742
486.01	17.913
486.36	18.139
486.70	18.802
487.05	19.116
487.40	18.923
487.75	19.059
488.09	18.597
488.44	18.619
488.79	19.157
489.13	18.899
489.48	18.058
489.83	18.068
490.17	18.550
490.52	18.760
490.87	18.528
491.22	18.934
491.56	18.558
491.91	18.927
492.26	18.044
492.60	18.846
492.95	19.131
493.30	18.781
493.64	18.528
493.99	18.202
494.34	18.075
494.68	18.116
495.03	18.855
495.37	19.396
495.72	18.503
496.07	18.493
496.41	18.447
496.76	18.724
497.11	18.089
497.45	18.213
497.80	18.036
498.14	17.959
498.49	18.382
498.84	17.733
499.18	18.399
499.53	18.341
499.87	18.637
500.22	17.231
500.56	18.489
500.91	18.398
501.26	18.318
501.60	17.190
501.95	17.803
502.29	17.815
502.64	17.840
502.98	17.472
503.33	17.322
503.67	17.226
504.02	17.382
504.36	18.007
504.71	17.869
505.06	17.690
505.40	18.053
505.75	17.896
506.09	17.634
506.44	17.874
506.78	18.257
507.13	17.750
507.47	16.911
507.82	17.566
508.16	17.591
508.51	17.253
508.85	16.863
509.19	17.575
509.54	17.051
509.88	16.707
510.23	17.630
510.57	17.835
510.92	17.707
511.26	16.450
511.61	17.286
511.95	17.765
512.30	17.036
512.64	16.892
512.98	17.059
513.33	17.238
513.67	16.879
514.02	17.425
514.36	16.726
514.70	17.031
515.05	16.058
515.39	17.533
515.74	17.073
516.08	16.218
516.42	17.268
516.77	17.087
517.11	15.420
517.46	17.179
517.80	18.226
518.14	17.737
518.49	16.540
518.83	16.871
519.17	16.640
519.52	17.138
519.86	16.737
520.20	16.880
520.55	16.320
520.89	16.104
521.23	17.253
521.58	16.949
521.92	16.544
522.26	15.922
522.61	17.072
522.95	16.494
523.29	16.552
523.64	15.639
523.98	17.056
524.32	16.562
524.66	16.733
525.01	15.629
525.35	15.853
525.69	15.545
526.04	15.729
526.38	16.207
526.72	16.724
527.06	16.833
527.41	16.035
527.75	16.508
528.09	15.880
528.43	15.571
528.78	15.607
529.12	14.851
529.46	15.852
529.80	15.675
530.15	15.536
530.49	15.302
530.83	15.466
531.17	15.352
531.51	15.223
531.86	16.226
532.20	16.463
532.54	15.739
532.88	15.091
533.22	15.910
533.57	15.465
533.91	15.769
534.25	14.924
534.59	14.943
534.93	14.544
535.27	15.437
535.62	15.520
535.96	15.049
536.30	14.924
536.64	15.135
536.98	15.621
537.32	15.556
537.66	14.847
538.01	15.045
538.35	14.251
538.69	14.964
539.03	14.838
539.37	14.134
539.71	14.715
540.05	14.928
540.39	14.181
540.73	14.026
541.07	14.592
541.42	13.703
541.76	13.167
542.10	14.113
542.44	13.276
542.78	14.659
543.12	13.528
543.46	14.774
543.80	14.329
544.14	13.824
544.48	13.771
544.82	14.243
545.16	14.192
545.50	13.841
545.84	14.085
546.18	14.753
546.52	13.439
546.86	14.088
547.20	14.059
547.54	13.858
547.88	13.442
548.22	13.158
548.56	13.107
548.90	13.194
549.24	13.617
549.58	14.006
549.92	13.457
550.26	12.816
550.60	14.231
550.94	13.907
551.28	13.069
551.62	13.477
551.96	12.816
552.30	14.085
552.64	14.499
552.98	13.412
553.32	12.797
553.66	12.347
554.00	13.304
554.34	12.934
554.68	13.234
555.02	12.878
555.36	13.675
555.69	12.300
556.03	12.295
556.37	12.829
556.71	13.253
557.05	12.971
557.39	12.873
557.73	12.351
558.07	13.046
558.41	13.223
558.75	13.252
559.08	11.830
559.42	13.169
559.76	13.501
560.10	12.659
560.44	12.203
560.78	12.875
561.12	12.685
561.45	12.530
561.79	13.187
562.13	12.384
562.47	12.577
562.81	12.468
563.15	11.679
563.48	12.803
563.82	11.790
564.16	11.872
564.50	11.979
564.84	11.858
565.17	12.235
565.51	12.140
565.85	11.164
566.19	11.694
566.52	11.937
566.86	11.488
567.20	12.072
567.54	11.630
567.88	11.519
568.21	12.154
568.55	11.463
568.89	11.530
569.23	11.703
569.56	10.864
569.90	10.478
570.24	10.624
570.57	10.359
570.91	10.655
571.25	10.443
571.59	10.186
571.92	10.528
572.26	10.191
572.60	10.456
572.93	10.493
573.27	10.003
573.61	10.191
573.95	10.391
574.28	10.114
574.62	10.255
574.96	9.749
575.29	10.090
575.63	9.725
575.97	9.725
576.30	9.795
576.64	9.759
576.98	9.932
577.31	9.877
577.65	9.678
577.98	9.827
578.32	9.708
578.66	9.499
578.99	9.789
579.33	9.471
579.67	9.565
580.00	9.553
580.34	9.860
580.67	9.312
581.01	9.563
581.35	9.410
581.68	9.459
582.02	9.365
582.35	9.487
582.69	9.545
583.02	9.138
583.36	9.571
583.70	9.089
584.03	9.263
584.37	9.380
584.70	9.169
585.04	8.858
585.37	8.970
585.71	9.299
586.04	9.225
586.38	9.448
586.72	9.301
587.05	8.621
587.39	9.000
587.72	9.258
588.06	9.284
588.39	9.261
588.73	9.233
589.06	9.227
589.40	9.619
589.73	9.190
590.07	9.582
590.40	9.432
590.73	9.191
591.07	9.531
591.40	9.020
591.74	9.459
592.07	9.622
592.41	9.148
592.74	9.194
593.08	8.822
593.41	9.857
593.75	8.966
594.08	9.179
594.41	8.686
594.75	8.535
595.08	9.085
595.42	8.701
595.75	8.880
596.09	9.861
596.42	8.563
596.75	8.993
597.09	9.131
597.42	9.178
597.75	9.486
598.09	9.365
598.42	8.926
598.76	8.903
599.09	8.330
599.42	8.884
599.76	8.584
600.09	8.876
600.42	8.742
600.76	8.719
601.09	8.862
601.42	8.514
601.76	8.345
602.09	8.792
602.42	8.506
602.76	8.708
603.09	8.554
603.42	8.418
603.76	8.351
604.09	8.872
604.42	8.661
604.76	8.524
605.09	9.095
605.42	8.772
605.75	8.538
606.09	8.697
606.42	8.428
606.75	8.096
607.09	7.949
607.42	8.593
607.75	8.206
608.08	8.485
608.42	8.706
608.75	8.416
609.08	8.829
609.41	8.425
609.75	8.259
610.08	8.531
610.41	8.199
610.74	8.193
611.07	8.615
611.41	8.834
611.74	8.545
612.07	8.789
612.40	8.270
612.73	8.411
613.07	8.606
613.40	8.133
613.73	8.089
614.06	8.243
614.39	8.552
614.72	8.443
615.06	7.700
615.39	7.637
615.72	8.057
616.05	8.159
616.38	8.527
616.71	8.359
617.05	7.987
617.38	9.042
617.71	8.477
618.04	8.743
618.37	8.361
618.70	8.767
619.03	7.288
619.36	8.076
619.69	8.456
620.03	7.972
620.36	7.485
620.69	8.452
621.02	8.661
621.35	8.055
621.68	8.388
622.01	7.687
622.34	8.647
622.67	8.454
623.00	7.018
623.33	8.693
623.66	9.339
623.99	7.900
624.32	9.097
624.65	7.722
624.99	7.997
625.32	8.883
625.65	7.889
625.98	8.136
626.31	8.079
626.64	8.352
626.97	8.177
627.30	7.821
627.63	7.127
627.96	10.060
628.29	8.327
628.62	7.053
628.95	8.238
629.28	8.836
629.61	8.249
629.94	7.029
630.26	8.220
630.59	7.945
630.92	7.619
631.25	8.676
631.58	8.851
631.91	7.123
632.24	9.222
632.57	8.159
632.90	8.124
633.23	9.082
633.56	7.551
633.89	7.748
634.22	9.356
634.55	8.559
634.88	7.576
635.20	8.611
635.53	7.910
635.86	10.401
636.19	9.862
636.52	10.021
636.85	8.478
637.18	7.796
637.51	7.849
637.83	8.638
638.16	8.641
638.49	8.568
638.82	7.215
639.15	7.331
639.48	8.083
639.81	8.083
640.13	9.305
640.46	6.061
640.79	7.598
641.12	9.317
641.45	7.528
641.77	8.858
642.10	8.661
642.43	9.176
642.76	8.537
643.09	8.356
643.41	9.244
643.74	7.862
644.07	8.966
644.40	9.901
644.73	5.660
645.05	9.398
645.38	8.058
645.71	7.771
646.04	9.182
646.36	8.029
646.69	7.055
647.02	9.786
647.35	8.244
647.67	7.407
648.00	7.166
648.33	9.910
648.66	7.703
648.98	6.939
649.31	8.119
649.64	8.367
649.96	7.958
650.29	7.371
650.62	7.214
650.94	9.009
651.27	8.084
651.60	5.994
651.92	7.903
652.25	8.104
652.58	8.666
652.90	6.541
653.23	7.887
653.56	7.275
653.88	8.567
654.21	8.451
654.54	6.647
654.86	6.657
655.19	7.026
655.52	7.422
655.84	6.293
656.17	7.363
656.49	10.415
656.82	11.284
657.15	8.810
657.47	6.564
657.80	4.758
658.13	3.808
658.45	5.153
658.78	5.880
659.10	5.597
659.43	5.745
659.75	5.513
660.08	5.714
660.41	5.542
660.73	6.385
661.06	6.608
661.38	7.815
661.71	6.897
662.03	7.407
662.36	10.018
662.68	8.630
663.01	8.319
663.33	6.427
663.66	10.073
663.98	7.500
664.31	8.443
664.63	6.358
664.96	6.534
665.28	6.534
665.61	9.965
665.93	7.321
666.26	7.706
666.58	6.827
666.91	7.290
667.23	7.619
667.56	6.509
667.88	7.000
668.21	4.297
668.53	5.212
668.86	7.073
669.18	6.110
669.50	7.753
669.83	6.400
670.15	8.465
670.48	8.730
670.80	7.075
671.13	6.616
671.45	7.677
671.77	8.098
672.10	5.667
672.42	7.767
672.75	5.530
673.07	7.015
673.39	6.471
673.72	7.886
674.04	7.241
674.37	6.440
674.69	9.347
675.01	5.333
675.34	6.870
675.66	6.180
675.98	7.836
676.31	7.422
676.63	7.605
676.95	7.663
677.28	6.048
677.60	3.937
677.92	8.637
678.25	5.119
678.57	7.295
678.89	8.874
679.22	7.666
679.54	5.812
679.86	5.085
680.18	6.302
680.51	8.019
680.83	6.547
681.15	4.310
681.48	8.290
681.80	6.218
682.12	6.119
682.44	6.344
682.77	7.979
683.09	7.765
683.41	6.783
683.73	6.641
684.06	8.303
684.38	6.261
684.70	6.643
685.02	4.991
685.34	6.489
685.67	3.312
685.99	5.368
686.31	2.762
686.63	5.529
686.96	5.678
687.28	6.026
687.60	5.387
687.92	6.592
688.24	7.679
688.56	5.690
688.89	8.530
689.21	6.458
689.53	2.549
689.85	3.945
690.17	6.852
690.49	5.777
690.82	5.941
691.14	4.251
691.46	5.354
691.78	7.182
692.10	4.954
692.42	5.179
692.74	5.445
693.06	3.704
693.39	4.744
693.71	5.451
694.03	5.948
694.35	7.810
694.67	4.928
694.99	5.745
695.31	8.609
695.63	8.225
695.95	4.141
696.27	4.176
696.59	6.858
696.91	5.856
697.23	6.593
697.56	1.629
697.88	4.924
698.20	7.721
698.52	7.955
698.84	6.445
699.16	7.959
699.48	4.393
699.80	4.468
700.12	4.367
700.44	5.760
700.76	7.838
701.08	6.538
701.40	6.218
701.72	6.965
702.04	6.952
702.36	4.712
702.68	4.890
703.00	6.357
703.32	6.650
703.64	7.824
703.96	5.489
704.28	5.405
704.60	8.101
704.91	4.337
705.23	5.753
705.55	6.685
705.87	5.152
706.19	8.896
706.51	1.506
706.83	4.323
707.15	4.233
707.47	3.972
707.79	4.148
708.11	4.025
708.43	3.226
708.74	4.688
709.06	3.016
709.38	6.808
709.70	8.189
710.02	5.685
710.34	6.649
710.66	3.073
710.98	5.738
711.29	4.121
711.61	5.650
711.93	6.268
712.25	5.405
712.57	9.735
712.89	9.412
713.20	4.438
713.52	6.647
713.84	5.292
714.16	8.158
714.48	3.608
714.80	8.312
715.11	5.512
715.43	5.040
715.75	6.053
716.07	6.630
716.39	7.377
716.70	2.711
717.02	7.541
717.34	5.575
717.66	6.376
717.97	1.712
718.29	6.529
718.61	3.947
718.93	1.618
719.24	8.075
719.56	7.669
719.88	4.505
720.20	3.226
720.51	7.453
720.83	5.000
721.15	3.618
721.46	1.370
721.78	4.000
722.10	4.531
722.42	5.369
722.73	4.516
723.05	7.368
723.37	7.639
723.68	6.093
724.00	3.971
724.32	3.521
724.63	1.049
724.95	5.319
725.27	9.408
725.58	7.067
725.90	8.621
726.22	5.016
726.53	3.571
726.85	6.604
727.16	6.949
727.48	6.422
727.80	7.285
728.11	-0.353
728.43	8.081
728.74	0.000
729.06	4.636
729.38	3.571
729.69	6.040
730.01	9.524
730.32	1.818
730.64	3.774
730.96	1.863
731.27	5.587
731.59	4.121
731.90	6.234
732.22	5.990
732.53	0.276
732.85	4.286
733.16	5.865
733.48	2.744
733.80	5.850
734.11	4.843
734.43	4.595
734.74	9.114
735.06	5.276
735.37	5.676
735.69	5.676
736.00	4.520
736.32	7.008
736.63	4.444
736.95	3.736
737.26	3.636
737.58	1.515
737.89	5.000
738.21	-0.306
738.52	5.246
738.83	7.167
739.15	4.610
739.46	3.401
739.78	4.294
740.09	2.865
740.41	5.831
740.72	4.333
741.04	4.854
741.35	5.614
741.66	9.020
741.98	4.918
742.29	3.766
742.61	7.018
742.92	6.538
743.23	7.581
743.55	8.140
743.86	6.000
744.18	2.479
744.49	5.485
744.80	5.350
745.12	3.797
745.43	9.756
745.74	0.862
746.06	0.000
746.37	8.861
746.68	7.724
747.00	6.667
747.31	5.150
747.62	7.692
747.94	3.644
748.25	6.426
748.56	1.224
748.88	2.137
749.19	8.190
749.50	1.732
749.82	7.229
750.13	6.762
750.44	2.667
750.75	4.923
751.07	6.154
751.38	4.416
751.69	4.153
752.01	2.589
752.32	3.922
752.63	5.442
752.94	3.806
753.26	2.602
753.57	3.704
753.88	1.124
754.19	6.752
754.51	2.251
754.82	4.180
755.13	6.557
755.44	3.072
755.75	5.921
756.07	8.358
756.38	3.774
756.69	7.831
757.00	2.770
757.31	2.459
757.63	2.046
757.94	3.756
758.25	4.515
758.56	5.664
758.87	6.136
759.18	4.533
759.50	5.949
759.81	5.322
760.12	2.695
760.43	4.687
760.74	2.709
761.05	3.500
761.36	2.892
761.67	2.792
761.99	2.162
762.30	3.659
762.61	3.300
762.92	2.985
763.23	2.996
763.54	6.835
763.85	4.467
764.16	3.704
764.47	4.930
764.78	6.390
765.10	4.399
765.41	6.410
765.72	0.529
766.03	5.932
766.34	4.075
766.65	-0.348
766.96	2.390
767.27	0.461
767.58	0.000
767.89	6.250
768.20	2.817
768.51	8.333
768.82	6.827
769.13	3.409
769.44	0.769
769.75	5.415
770.06	2.692
770.37	6.693
770.68	-1.277
770.99	-6.073
771.30	7.037
771.61	3.422
771.92	5.926
772.23	9.717
772.54	-5.556
772.85	9.217
773.16	7.619
773.47	-3.175
773.78	-2.703
774.09	6.818
774.39	12.500
774.70	9.836
775.01	1.220
775.32	0.588
775.63	4.908
775.94	-3.822
776.25	5.161
776.56	6.410
776.87	5.442
777.18	8.966
777.48	2.797
777.79	0.676
778.10	-3.676
778.41	6.250
778.72	4.828
779.03	9.259
779.34	1.212
779.65	8.808
779.95	6.667
780.26	5.114
780.57	7.097
780.88	7.246
781.19	8.387
781.50	10.000
781.80	4.839
782.11	3.704
782.42	1.515
782.73	5.389
783.04	5.028
783.34	0.000
783.65	3.922
783.96	4.348
784.27	4.167
784.57	-0.662
784.88	3.571
785.19	1.575
785.50	6.299
785.81	6.015
786.11	9.231
786.42	-1.439
786.73	5.755
787.04	6.767
787.34	-5.738
787.65	5.600
787.96	-1.493
788.26	8.392
788.57	9.091
788.88	5.263
789.19	1.961
789.49	4.110
789.80	9.220
790.11	8.661
790.41	14.062
790.72	1.695
791.03	-3.883
791.33	3.478
791.64	8.772
791.95	7.143
792.25	0.952
792.56	8.036
792.87	2.083
793.17	13.393
793.48	11.458
793.79	6.024
794.09	5.505
794.40	-2.752
794.70	3.401
795.01	0.000
795.32	1.370
795.62	6.338
795.93	2.273
796.23	8.197
796.54	1.786
796.85	-1.064
797.15	1.087
797.46	-4.110
797.76	-3.750
798.07	11.957
798.37	-10.309
798.68	0.000
798.99	-9.195
799.29	4.494
799.60	-3.191
799.90	-7.229
800.21	-4.615
800.51	5.970
800.82	-5.882
801.12	-8.219
801.43	-16.176
801.73	-13.559
802.04	-1.515
802.34	-23.333
802.65	1.695
802.95	10.448
803.26	10.169
803.56	1.370
803.87	-1.429
804.17	19.178
804.48	-14.035
804.78	12.500
805.09	-13.793
805.39	12.162
805.70	5.634
806.00	19.512
806.30	1.205
806.61	-8.219
806.91	7.692
807.22	4.444
807.52	3.448
807.83	4.167
808.13	-1.205
808.43	7.865
808.74	-8.750
809.04	-5.882
809.35	8.000
809.65	7.143
809.95	5.479
810.26	0.000
810.56	-3.448
810.86	22.059
811.17	7.018
811.47	-8.197
811.77	-15.556
812.08	-13.559
812.38	3.333
812.69	5.172
812.99	-22.642
813.29	-25.641
813.59	-2.000
813.90	24.561
814.20	5.455
814.50	22.535
814.81	8.974
815.11	4.918
815.41	2.985
815.72	5.172
816.02	10.714
816.32	-6.667
816.62	4.545
816.93	-6.667
817.23	11.111
817.53	12.766
817.84	4.762
818.14	-8.824
818.44	0.000
818.74	-2.222
819.04	-15.385
819.35	-8.571
819.65	-46.154
819.95	-1.887
820.25	13.333
820.56	16.667
820.86	-18.750
821.16	0.000
821.46	-25.581
821.76	-24.000
822.07	1.786
822.37	0.000
822.67	-21.277
822.97	-32.432
823.27	-7.500
823.57	8.163
823.88	26.667
824.18	15.000
824.48	-23.333
824.78	-24.000
825.08	15.152
825.38	2.222
825.69	-2.128
825.99	13.889
826.29	-40.000
826.59	-12.821
826.89	0.000
827.19	-8.000
827.49	2.941
827.79	12.500
828.09	-8.108
828.39	-30.000
828.70	12.195
829.00	-32.558
829.30	-39.286
829.60	17.647
829.90	-4.348
830.20	-5.714
830.50	-27.586
830.80	11.111
831.10	-11.538
831.40	-5.882
831.70	-19.048
832.00	9.677
832.30	-100.000
832.60	-12.500
832.90	-15.385
833.20	10.526
833.50	-50.000
833.80	15.789
834.10	-61.905
834.40	8.333
834.70	21.875
835.00	-22.857
835.30	11.765
835.60	-13.333
835.90	8.000
836.20	-72.727
836.50	12.000
836.80	0.000
837.10	-33.333
837.40	33.333
837.70	-50.000
838.00	-21.429
838.30	-17.391
838.60	37.931
838.90	-21.429
839.19	-17.391
839.49	-83.333
839.79	-17.391
840.09	-93.750
840.39	-40.000
840.69	54.839
840.99	-7.143
841.29	-6.667
841.59	15.789
841.88	35.897
842.18	-38.462
842.48	-60.000
842.78	-65.000
843.08	-3.333
843.38	19.355
843.68	-33.333
843.97	20.588
844.27	-25.000
844.57	-10.526
844.87	-100.000
845.17	-40.000
845.47	33.333
845.76	-9.524
846.06	-66.667
846.36	0.000
846.66	11.538
846.96	-26.667
847.25	-17.647
847.55	21.739
847.85	-15.000
848.15	-11.765
848.44	-54.545
848.74	0.000
849.04	-4.167
849.34	-12.500
849.63	17.391
849.93	400.000
850.23	6.667
850.53	38.462
850.82	18.182
851.12	9.091
851.42	-72.727
851.71	15.385
852.01	-30.000
852.31	-107.692
852.61	-63.158
852.90	66.667
853.20	-55.556
853.50	-166.667
853.79	-76.190
854.09	-50.000
854.39	-58.333
854.68	6.452
854.98	0.000
855.28	33.333
855.57	-21.429
855.87	4.000
856.17	13.636
856.46	33.333
856.76	-22.222
857.05	-47.826
857.35	-45.833
857.65	-46.154
857.94	19.048
858.24	0.000
858.53	8.696
858.83	-29.412
859.13	-23.529
859.42	-29.412
859.72	-42.857
860.01	20.000
860.31	-22.222
860.60	-10.000
860.90	-46.667
861.20	-27.778
861.49	-30.769
861.79	26.667
862.08	-100.000
862.38	25.000
862.67	-58.824
862.97	-12.500
863.26	-66.667
863.56	-20.000
863.85	-90.909
864.15	44.444
864.44	-500.000
864.74	-35.714
865.03	-18.750
865.33	-50.000
865.62	12.903
865.92	31.818
866.21	-4.348
866.51	-28.571
866.80	-80.000
867.10	-25.000
867.39	-41.667
867.69	1300.000
867.98	-14.286
868.27	35.294
868.57	-1500.000
868.86	-120.000
869.16	-42.857
869.45	20.833
869.75	45.455
870.04	-57.143
870.33	58.333
870.63	-242.857
870.92	25.000
871.22	-150.000
871.51	-27.273
871.80	-500.000
872.10	-100.000
>>>>>End Processed Spectral Data<<<<<
