SpectraSuite Data File
++++++++++++++++++++++++++++++++++++
Date: Thu May 14 16:24:45 PDT 2015
User: schluterlab
Dark Spectrum Present: Yes
Reference Spectrum Present: Yes
Number of Sampled Component Spectra: 1
Spectrometers: USB2E3373
Integration Time (usec): 3000 (USB2E3373)
Spectra Averaged: 3 (USB2E3373)
Boxcar Smoothing: 0 (USB2E3373)
Correct for Electrical Dark: No (USB2E3373)
Strobe/Lamp Enabled: No (USB2E3373)
Correct for Detector Non-linearity: No (USB2E3373)
Correct for Stray Light: No (USB2E3373)
Number of Pixels in Processed Spectrum: 2048
>>>>>Begin Processed Spectral Data<<<<<
178.53	0.000
178.91	57.143
179.29	-1800.000
179.67	-1100.000
180.04	164.286
180.42	130.000
180.80	100.000
181.18	-500.000
181.56	-500.000
181.94	275.000
182.31	-100.000
182.69	333.333
183.07	0.000
183.45	75.000
183.83	33.333
184.20	0.000
184.58	-900.000
184.96	-200.000
185.34	22.222
185.72	-40.000
186.09	188.889
186.47	550.000
186.85	260.000
187.23	-55.556
187.61	-1000.000
187.98	180.000
188.36	200.000
188.74	75.000
189.12	0.000
189.49	62.500
189.87	-62.500
190.25	-11.111
190.63	60.000
191.00	-22.222
191.38	0.000
191.76	-50.000
192.14	50.000
192.51	150.000
192.89	33.333
193.27	0.000
193.65	0.000
194.02	-1100.000
194.40	0.000
194.78	100.000
195.15	0.000
195.53	72.727
195.91	0.000
196.29	150.000
196.66	-61.538
197.04	-600.000
197.42	57.143
197.79	-500.000
198.17	87.500
198.55	-42.857
198.92	-11.111
199.30	-162.500
199.68	72.727
200.05	28.571
200.43	-450.000
200.81	171.429
201.18	0.000
201.56	177.778
201.94	0.000
202.31	466.667
202.69	55.556
203.07	700.000
203.44	-44.444
203.82	-125.000
204.19	-16.667
204.57	-200.000
204.95	-87.500
205.32	-100.000
205.70	125.000
206.08	-16.667
206.45	-116.667
206.83	260.000
207.20	-33.333
207.58	-180.000
207.96	-166.667
208.33	-33.333
208.71	91.667
209.08	133.333
209.46	0.000
209.84	200.000
210.21	400.000
210.59	300.000
210.96	233.333
211.34	-25.000
211.71	-12.500
212.09	-1100.000
212.46	0.000
212.84	1000.000
213.22	-320.000
213.59	-225.000
213.97	-40.000
214.34	-266.667
214.72	116.667
215.09	-175.000
215.47	0.000
215.84	114.286
216.22	400.000
216.59	-220.000
216.97	-120.000
217.34	-25.000
217.72	75.000
218.09	-75.000
218.47	-100.000
218.84	0.000
219.22	20.000
219.59	47.059
219.97	-20.000
220.34	400.000
220.72	-22.222
221.09	-7.692
221.47	-300.000
221.84	20.000
222.22	-85.714
222.59	0.000
222.97	62.500
223.34	-60.000
223.72	-1300.000
224.09	-25.000
224.46	-100.000
224.84	-20.000
225.21	71.429
225.59	25.000
225.96	25.000
226.34	19.231
226.71	200.000
227.08	-250.000
227.46	13.333
227.83	-175.000
228.21	47.368
228.58	-0.000
228.95	450.000
229.33	58.333
229.70	-10.000
230.08	52.632
230.45	90.000
230.82	-66.667
231.20	-14.286
231.57	33.333
231.95	-36.364
232.32	54.545
232.69	5.000
233.07	-125.000
233.44	-17.647
233.81	-90.000
234.19	16.667
234.56	13.636
234.93	27.586
235.31	10.526
235.68	-44.444
236.05	-80.000
236.43	42.308
236.80	56.000
237.17	-44.444
237.55	-3.030
237.92	-100.000
238.29	-19.355
238.67	6.818
239.04	5.556
239.41	-4.762
239.79	-6.522
240.16	-9.259
240.53	-8.696
240.91	-13.725
241.28	-8.197
241.65	11.940
242.02	2.703
242.40	-7.692
242.77	-8.000
243.14	-13.415
243.51	-11.842
243.89	-7.692
244.26	3.960
244.63	2.941
245.00	-2.804
245.38	-3.509
245.75	-10.619
246.12	2.381
246.49	-5.426
246.87	-0.714
247.24	0.662
247.61	3.947
247.98	-2.685
248.36	-1.852
248.73	2.454
249.10	2.732
249.47	2.985
249.84	6.283
250.22	0.000
250.59	-1.667
250.96	3.636
251.33	-2.041
251.70	1.282
252.08	4.167
252.45	3.279
252.82	-0.826
253.19	0.000
253.56	0.380
253.94	1.154
254.31	0.758
254.68	4.895
255.05	2.606
255.42	4.082
255.79	2.913
256.16	3.311
256.54	0.000
256.91	2.623
257.28	-0.984
257.65	0.318
258.02	-0.885
258.39	1.425
258.76	2.141
259.14	1.724
259.51	0.288
259.88	0.000
260.25	-0.278
260.62	1.370
260.99	4.372
261.36	3.217
261.73	0.000
262.10	1.374
262.47	1.609
262.85	6.313
263.22	0.260
263.59	-1.579
263.96	1.535
264.33	-1.279
264.70	1.235
265.07	1.193
265.44	4.535
265.81	1.620
266.18	3.628
266.55	2.455
266.92	1.367
267.29	1.532
267.66	0.000
268.03	5.240
268.40	0.626
268.77	-1.139
269.14	0.661
269.51	0.877
269.88	2.869
270.25	2.817
270.62	1.688
270.99	3.838
271.36	3.564
271.73	1.965
272.10	3.006
272.47	2.204
272.84	1.205
273.21	1.603
273.58	3.226
273.95	-0.577
274.32	0.000
274.69	0.387
275.06	3.114
275.43	-0.185
275.80	2.998
276.17	2.407
276.54	1.119
276.91	2.504
277.28	2.712
277.65	4.309
278.02	4.044
278.39	1.268
278.76	-0.176
279.13	3.014
279.50	3.093
279.87	1.968
280.23	-0.704
280.60	3.729
280.97	2.303
281.34	-0.509
281.71	3.892
282.08	1.329
282.45	2.291
282.82	0.471
283.19	1.292
283.56	1.311
283.92	4.204
284.29	2.686
284.66	3.120
285.03	0.321
285.40	2.782
285.77	2.167
286.14	3.664
286.51	1.522
286.87	2.054
287.24	2.259
287.61	0.448
287.98	-1.208
288.35	1.627
288.72	2.071
289.08	2.343
289.45	2.367
289.82	2.108
290.19	3.017
290.56	3.380
290.93	1.141
291.29	2.893
291.66	2.342
292.03	1.085
292.40	3.673
292.77	2.022
293.13	2.706
293.50	2.760
293.87	2.819
294.24	3.600
294.60	4.298
294.97	2.282
295.34	3.969
295.71	2.144
296.08	3.747
296.44	4.289
296.81	3.045
297.18	2.491
297.55	3.184
297.91	4.389
298.28	2.725
298.65	3.805
299.02	3.542
299.38	3.661
299.75	3.972
300.12	3.241
300.48	3.687
300.85	4.724
301.22	5.034
301.59	3.082
301.95	4.294
302.32	5.444
302.69	4.162
303.05	4.026
303.42	3.769
303.79	4.479
304.15	4.522
304.52	4.228
304.89	5.236
305.25	5.383
305.62	5.852
305.99	7.010
306.35	6.552
306.72	4.964
307.09	4.975
307.45	5.901
307.82	5.853
308.19	5.853
308.55	7.232
308.92	6.816
309.29	5.843
309.65	5.945
310.02	7.228
310.38	7.480
310.75	6.893
311.12	7.191
311.48	6.940
311.85	6.933
312.22	6.926
312.58	7.136
312.95	6.310
313.31	7.678
313.68	7.875
314.05	8.762
314.41	8.652
314.78	8.265
315.14	9.710
315.51	8.864
315.87	9.091
316.24	9.954
316.61	10.302
316.97	9.231
317.34	8.995
317.70	10.568
318.07	11.111
318.43	11.224
318.80	11.538
319.16	11.245
319.53	10.968
319.89	11.218
320.26	10.943
320.62	11.436
320.99	12.373
321.35	12.569
321.72	12.372
322.08	12.534
322.45	13.369
322.81	13.267
323.18	12.566
323.54	14.138
323.91	13.879
324.27	14.716
324.64	15.197
325.00	15.423
325.37	16.462
325.73	15.207
326.10	15.815
326.46	16.694
326.83	17.294
327.19	17.008
327.56	17.154
327.92	16.208
328.29	17.016
328.65	16.248
329.01	17.936
329.38	18.703
329.74	18.750
330.11	19.007
330.47	17.860
330.84	18.346
331.20	18.917
331.56	18.111
331.93	18.326
332.29	18.390
332.66	20.183
333.02	17.337
333.38	18.792
333.75	18.266
334.11	19.016
334.48	19.472
334.84	18.522
335.20	18.724
335.57	19.646
335.93	20.744
336.29	17.637
336.66	17.494
337.02	18.896
337.38	20.153
337.75	19.917
338.11	19.344
338.47	19.189
338.84	18.951
339.20	18.871
339.56	19.110
339.93	18.801
340.29	18.680
340.65	17.194
341.02	20.032
341.38	19.725
341.74	19.532
342.11	18.986
342.47	18.507
342.83	19.404
343.20	19.624
343.56	19.166
343.92	19.696
344.28	19.375
344.65	18.837
345.01	18.799
345.37	19.285
345.73	18.005
346.10	19.891
346.46	18.038
346.82	19.625
347.19	19.404
347.55	21.093
347.91	19.316
348.27	18.513
348.63	19.269
349.00	19.687
349.36	19.405
349.72	19.345
350.08	19.465
350.45	18.935
350.81	19.608
351.17	19.398
351.53	19.409
351.89	20.501
352.26	19.104
352.62	18.433
352.98	17.710
353.34	18.447
353.70	19.492
354.07	19.225
354.43	19.438
354.79	19.073
355.15	19.132
355.51	20.687
355.87	18.549
356.24	18.859
356.60	19.660
356.96	18.532
357.32	19.331
357.68	19.400
358.04	19.910
358.40	18.955
358.77	20.029
359.13	20.015
359.49	18.141
359.85	18.999
360.21	19.440
360.57	19.454
360.93	19.041
361.29	19.298
361.66	20.130
362.02	20.529
362.38	19.044
362.74	19.064
363.10	20.220
363.46	20.152
363.82	20.241
364.18	20.197
364.54	19.779
364.90	21.405
365.26	19.379
365.62	19.933
365.98	20.014
366.35	20.000
366.71	19.864
367.07	20.095
367.43	19.567
367.79	20.372
368.15	20.401
368.51	19.824
368.87	19.856
369.23	21.067
369.59	20.833
369.95	20.149
370.31	20.594
370.67	20.770
371.03	20.845
371.39	19.073
371.75	20.564
372.11	20.528
372.47	20.921
372.83	21.335
373.19	20.280
373.55	20.122
373.91	20.518
374.27	20.440
374.63	21.719
374.99	20.491
375.35	20.844
375.71	20.581
376.07	21.240
376.42	20.277
376.78	21.690
377.14	20.774
377.50	20.683
377.86	21.244
378.22	21.437
378.58	21.344
378.94	20.833
379.30	20.621
379.66	21.105
380.02	20.889
380.38	21.256
380.74	20.845
381.09	22.474
381.45	21.080
381.81	21.370
382.17	21.318
382.53	21.462
382.89	20.824
383.25	21.161
383.61	20.775
383.97	20.789
384.32	20.933
384.68	20.534
385.04	21.747
385.40	21.921
385.76	22.392
386.12	21.544
386.48	21.647
386.83	22.288
387.19	21.553
387.55	21.009
387.91	21.347
388.27	21.651
388.62	21.420
388.98	21.263
389.34	22.392
389.70	21.383
390.06	22.084
390.42	21.807
390.77	22.938
391.13	21.244
391.49	22.283
391.85	21.576
392.20	21.945
392.56	22.327
392.92	21.865
393.28	21.946
393.64	21.173
393.99	21.964
394.35	22.488
394.71	22.695
395.07	20.180
395.42	22.444
395.78	22.060
396.14	21.450
396.50	21.081
396.85	22.719
397.21	22.189
397.57	21.673
397.92	22.394
398.28	20.532
398.64	20.595
399.00	21.571
399.35	20.890
399.71	22.554
400.07	21.842
400.42	21.478
400.78	22.280
401.14	21.172
401.49	22.172
401.85	22.209
402.21	22.538
402.57	22.770
402.92	21.395
403.28	20.667
403.63	22.375
403.99	21.021
404.35	21.092
404.70	22.040
405.06	20.707
405.42	21.253
405.77	21.429
406.13	21.286
406.49	22.072
406.84	21.607
407.20	21.576
407.55	21.139
407.91	21.496
408.27	21.025
408.62	21.408
408.98	21.532
409.34	20.235
409.69	21.755
410.05	21.630
410.40	21.984
410.76	22.042
411.11	21.508
411.47	21.929
411.83	21.282
412.18	21.988
412.54	21.458
412.89	21.711
413.25	21.388
413.60	21.022
413.96	21.212
414.31	21.756
414.67	22.182
415.03	21.046
415.38	21.375
415.74	20.525
416.09	21.407
416.45	20.664
416.80	20.930
417.16	21.009
417.51	20.797
417.87	20.294
418.22	21.198
418.58	21.128
418.93	22.002
419.29	19.790
419.64	21.369
420.00	20.593
420.35	21.392
420.71	21.597
421.06	20.529
421.42	20.872
421.77	20.732
422.12	20.825
422.48	20.379
422.83	21.632
423.19	21.114
423.54	21.460
423.90	20.486
424.25	22.027
424.61	20.207
424.96	21.801
425.31	21.709
425.67	20.719
426.02	21.804
426.38	21.010
426.73	20.424
427.09	22.261
427.44	20.918
427.79	21.725
428.15	21.176
428.50	20.787
428.85	20.953
429.21	21.543
429.56	21.224
429.92	20.344
430.27	21.108
430.62	20.616
430.98	20.807
431.33	20.235
431.68	20.738
432.04	21.178
432.39	21.425
432.74	20.776
433.10	21.363
433.45	20.067
433.80	20.815
434.16	21.229
434.51	21.531
434.86	21.118
435.22	21.360
435.57	20.814
435.92	21.480
436.28	21.274
436.63	20.808
436.98	20.773
437.34	21.082
437.69	20.804
438.04	20.201
438.39	21.367
438.75	20.255
439.10	21.195
439.45	21.185
439.81	21.243
440.16	21.126
440.51	22.352
440.86	20.456
441.22	21.168
441.57	21.384
441.92	20.708
442.27	21.566
442.63	20.219
442.98	21.131
443.33	20.621
443.68	21.011
444.03	21.355
444.39	21.036
444.74	21.695
445.09	20.983
445.44	20.601
445.79	21.216
446.15	20.915
446.50	21.137
446.85	20.963
447.20	21.663
447.55	21.234
447.91	20.314
448.26	20.032
448.61	21.148
448.96	21.406
449.31	20.944
449.66	19.935
450.02	21.150
450.37	21.470
450.72	20.936
451.07	21.014
451.42	20.566
451.77	19.622
452.12	21.219
452.47	20.380
452.83	21.171
453.18	20.899
453.53	20.678
453.88	20.928
454.23	20.000
454.58	21.242
454.93	19.539
455.28	21.011
455.63	21.092
455.98	20.726
456.34	20.141
456.69	20.106
457.04	21.277
457.39	20.455
457.74	21.029
458.09	20.264
458.44	20.420
458.79	19.752
459.14	20.556
459.49	21.279
459.84	20.619
460.19	19.545
460.54	20.897
460.89	20.222
461.24	19.195
461.59	20.255
461.94	19.738
462.29	20.773
462.64	20.579
462.99	19.774
463.34	19.987
463.69	20.223
464.04	20.901
464.39	19.675
464.74	20.525
465.09	20.704
465.44	19.903
465.79	20.095
466.14	19.541
466.49	19.474
466.84	19.284
467.19	19.711
467.54	19.330
467.89	19.943
468.24	19.612
468.59	19.456
468.94	18.939
469.29	19.256
469.64	19.517
469.99	19.885
470.34	19.369
470.68	19.344
471.03	19.515
471.38	18.901
471.73	18.921
472.08	19.416
472.43	19.446
472.78	19.773
473.13	18.394
473.48	19.456
473.83	20.429
474.17	19.637
474.52	19.302
474.87	19.435
475.22	19.549
475.57	19.315
475.92	19.462
476.27	19.169
476.61	18.380
476.96	17.570
477.31	18.911
477.66	20.514
478.01	19.014
478.36	19.093
478.70	19.015
479.05	19.836
479.40	19.595
479.75	19.212
480.10	18.759
480.45	19.189
480.79	18.730
481.14	18.704
481.49	18.310
481.84	18.799
482.19	18.194
482.53	19.239
482.88	18.786
483.23	18.453
483.58	18.297
483.92	18.174
484.27	18.501
484.62	18.069
484.97	18.351
485.31	17.529
485.66	17.580
486.01	16.676
486.36	17.312
486.70	18.080
487.05	18.185
487.40	18.110
487.75	17.964
488.09	17.921
488.44	18.002
488.79	17.943
489.13	18.139
489.48	17.282
489.83	17.827
490.17	18.307
490.52	17.693
490.87	17.005
491.22	17.461
491.56	17.108
491.91	18.099
492.26	17.482
492.60	17.272
492.95	18.166
493.30	17.705
493.64	17.608
493.99	17.193
494.34	17.770
494.68	17.302
495.03	17.665
495.37	17.577
495.72	17.778
496.07	17.134
496.41	17.718
496.76	17.139
497.11	17.537
497.45	17.566
497.80	17.237
498.14	17.370
498.49	16.774
498.84	17.687
499.18	17.454
499.53	16.996
499.87	17.319
500.22	16.296
500.56	16.419
500.91	16.613
501.26	17.364
501.60	16.880
501.95	16.848
502.29	16.893
502.64	17.228
502.98	16.739
503.33	16.544
503.67	16.703
504.02	16.550
504.36	17.024
504.71	17.088
505.06	16.189
505.40	16.088
505.75	16.940
506.09	16.621
506.44	16.620
506.78	17.202
507.13	16.690
507.47	16.438
507.82	16.667
508.16	16.348
508.51	16.128
508.85	16.438
509.19	16.769
509.54	16.282
509.88	16.076
510.23	16.999
510.57	16.530
510.92	16.497
511.26	16.546
511.61	15.983
511.95	15.910
512.30	16.691
512.64	15.692
512.98	16.458
513.33	16.129
513.67	15.961
514.02	16.505
514.36	16.164
514.70	16.354
515.05	15.902
515.39	16.220
515.74	16.384
516.08	16.323
516.42	17.111
516.77	16.667
517.11	15.678
517.46	17.073
517.80	16.836
518.14	16.866
518.49	15.998
518.83	16.764
519.17	16.101
519.52	16.090
519.86	15.839
520.20	15.442
520.55	15.936
520.89	15.766
521.23	15.690
521.58	16.384
521.92	16.147
522.26	15.407
522.61	14.988
522.95	15.456
523.29	16.782
523.64	15.527
523.98	15.973
524.32	16.504
524.66	15.424
525.01	14.213
525.35	14.302
525.69	15.081
526.04	14.638
526.38	15.920
526.72	15.167
527.06	15.308
527.41	15.510
527.75	15.321
528.09	14.876
528.43	15.275
528.78	14.451
529.12	14.794
529.46	14.334
529.80	14.989
530.15	14.957
530.49	15.836
530.83	15.053
531.17	15.233
531.51	14.862
531.86	14.904
532.20	15.305
532.54	15.021
532.88	14.424
533.22	14.378
533.57	14.887
533.91	13.973
534.25	14.585
534.59	14.770
534.93	14.658
535.27	14.986
535.62	15.009
535.96	14.585
536.30	14.395
536.64	13.994
536.98	15.006
537.32	14.877
537.66	14.847
538.01	14.139
538.35	14.495
538.69	14.423
539.03	14.040
539.37	13.545
539.71	14.535
540.05	14.388
540.39	14.364
540.73	13.418
541.07	13.673
541.42	13.526
541.76	13.879
542.10	13.571
542.44	12.850
542.78	14.903
543.12	13.945
543.46	14.957
543.80	13.429
544.14	13.585
544.48	13.830
544.82	13.585
545.16	13.536
545.50	13.661
545.84	13.166
546.18	14.877
546.52	13.185
546.86	14.277
547.20	13.868
547.54	12.672
547.88	13.080
548.22	12.924
548.56	13.166
548.90	13.134
549.24	13.495
549.58	12.997
549.92	12.819
550.26	14.045
550.60	13.529
550.94	13.519
551.28	13.663
551.62	13.881
551.96	12.880
552.30	14.468
552.64	13.877
552.98	13.225
553.32	13.633
553.66	12.862
554.00	12.989
554.34	13.707
554.68	13.041
555.02	13.075
555.36	13.149
555.69	12.172
556.03	12.232
556.37	12.891
556.71	12.492
557.05	12.971
557.39	12.276
557.73	12.682
558.07	12.185
558.41	13.355
558.75	12.644
559.08	12.735
559.42	12.277
559.76	13.569
560.10	13.262
560.44	13.325
560.78	13.125
561.12	12.131
561.45	12.774
561.79	13.126
562.13	13.494
562.47	12.454
562.81	12.848
563.15	12.247
563.48	12.306
563.82	11.850
564.16	11.508
564.50	12.396
564.84	12.743
565.17	12.235
565.51	11.738
565.85	12.411
566.19	11.175
566.52	12.580
566.86	11.602
567.20	11.854
567.54	12.108
567.88	11.264
568.21	12.055
568.55	11.607
568.89	11.711
569.23	11.745
569.56	11.645
569.90	11.618
570.24	11.602
570.57	11.065
570.91	10.778
571.25	11.513
571.59	11.244
571.92	11.087
572.26	10.429
572.60	10.483
572.93	10.882
573.27	11.099
573.61	11.011
573.95	10.682
574.28	11.025
574.62	10.664
574.96	10.388
575.29	10.641
575.63	10.672
575.97	10.635
576.30	10.535
576.64	10.212
576.98	10.615
577.31	10.403
577.65	10.442
577.98	10.730
578.32	10.204
578.66	10.290
578.99	10.260
579.33	10.471
579.67	10.539
580.00	10.609
580.34	10.908
580.67	10.194
581.01	10.190
581.35	10.403
581.68	10.364
582.02	10.147
582.35	10.474
582.69	10.024
583.02	10.222
583.36	10.577
583.70	10.134
584.03	10.199
584.37	10.269
584.70	10.147
585.04	9.928
585.37	10.075
585.71	10.291
586.04	9.996
586.38	9.958
586.72	9.852
587.05	9.517
587.39	9.948
587.72	10.096
588.06	9.913
588.39	10.157
588.73	9.815
589.06	10.327
589.40	9.711
589.73	10.315
590.07	10.577
590.40	10.514
590.73	10.286
591.07	10.424
591.40	9.603
591.74	9.976
592.07	9.866
592.41	9.897
592.74	10.188
593.08	9.650
593.41	9.974
593.75	10.029
594.08	10.148
594.41	10.224
594.75	10.063
595.08	9.354
595.42	9.935
595.75	10.300
596.09	10.098
596.42	9.781
596.75	10.228
597.09	10.020
597.42	9.932
597.75	9.643
598.09	9.802
598.42	9.972
598.76	9.744
599.09	9.790
599.42	9.722
599.76	9.079
600.09	9.710
600.42	9.576
600.76	9.214
601.09	9.691
601.42	9.372
601.76	9.517
602.09	9.543
602.42	9.415
602.76	9.668
603.09	9.508
603.42	9.610
603.76	9.338
604.09	9.936
604.42	9.541
604.76	9.285
605.09	9.214
605.42	9.609
605.75	9.577
606.09	9.406
606.42	9.595
606.75	9.070
607.09	8.794
607.42	9.287
607.75	9.261
608.08	9.550
608.42	8.988
608.75	9.370
609.08	9.380
609.41	9.440
609.75	9.107
610.08	9.323
610.41	9.601
610.74	9.874
611.07	9.680
611.41	9.865
611.74	9.515
612.07	9.163
612.40	9.363
612.73	9.291
613.07	9.535
613.40	9.865
613.73	8.811
614.06	9.715
614.39	9.475
614.72	9.170
615.06	8.855
615.39	9.473
615.72	8.957
616.05	9.082
616.38	9.334
616.71	9.509
617.05	9.105
617.38	9.631
617.71	9.179
618.04	9.822
618.37	9.617
618.70	9.333
619.03	9.140
619.36	9.679
619.69	9.737
620.03	9.542
620.36	8.834
620.69	9.068
621.02	9.514
621.35	8.926
621.68	9.834
622.01	9.466
622.34	8.787
622.67	8.866
623.00	9.109
623.33	9.688
623.66	9.533
623.99	9.151
624.32	10.201
624.65	8.237
624.99	9.558
625.32	9.732
625.65	9.575
625.98	8.407
626.31	9.426
626.64	9.377
626.97	8.777
627.30	8.504
627.63	8.702
627.96	10.360
628.29	9.105
628.62	8.648
628.95	8.677
629.28	7.732
629.61	9.596
629.94	7.782
630.26	8.814
630.59	8.895
630.92	8.831
631.25	10.286
631.58	9.605
631.91	9.185
632.24	9.030
632.57	10.152
632.90	9.829
633.23	8.673
633.56	9.694
633.89	8.471
634.22	8.524
634.55	10.752
634.88	8.766
635.20	10.334
635.53	9.831
635.86	9.859
636.19	10.180
636.52	9.599
636.85	9.295
637.18	8.628
637.51	9.247
637.83	7.641
638.16	9.217
638.49	9.155
638.82	9.357
639.15	7.789
639.48	10.508
639.81	8.776
640.13	10.601
640.46	7.152
640.79	8.824
641.12	9.565
641.45	8.407
641.77	11.040
642.10	8.268
642.43	10.106
642.76	8.537
643.09	9.178
643.41	7.703
643.74	9.241
644.07	9.931
644.40	7.779
644.73	9.579
645.05	9.398
645.38	9.496
645.71	8.358
646.04	10.617
646.36	8.467
646.69	8.742
647.02	10.398
647.35	10.229
647.67	9.984
648.00	10.191
648.33	9.610
648.66	8.845
648.98	7.755
649.31	8.390
649.64	8.632
649.96	8.621
650.29	8.484
650.62	7.779
650.94	7.207
651.27	7.934
651.60	9.649
651.92	7.599
652.25	9.117
652.58	10.041
652.90	6.977
653.23	10.563
653.56	9.130
653.88	8.989
654.21	7.887
654.54	8.815
654.86	9.065
655.19	6.148
655.52	8.540
655.84	6.770
656.17	8.712
656.49	12.028
656.82	13.294
657.15	10.423
657.47	7.887
657.80	5.946
658.13	4.639
658.45	6.148
658.78	7.658
659.10	7.564
659.43	7.121
659.75	7.094
660.08	7.283
660.41	7.527
660.73	8.438
661.06	7.342
661.38	7.974
661.71	9.310
662.03	8.113
662.36	11.628
662.68	9.381
663.01	7.788
663.33	7.561
663.66	10.256
663.98	8.654
664.31	9.193
664.63	5.202
664.96	7.260
665.28	8.530
665.61	9.790
665.93	7.321
666.26	8.961
666.58	7.196
666.91	10.654
667.23	9.714
667.56	9.270
667.88	11.000
668.21	7.031
668.53	7.336
668.86	10.413
669.18	7.128
669.50	9.344
669.83	7.400
670.15	8.465
670.48	10.317
670.80	8.413
671.13	8.507
671.45	6.890
671.77	7.721
672.10	7.500
672.42	7.443
672.75	8.295
673.07	7.910
673.39	5.855
673.72	8.725
674.04	7.414
674.37	8.587
674.69	9.524
675.01	7.429
675.34	8.015
675.66	7.116
675.98	10.634
676.31	5.469
676.63	10.837
676.95	9.962
677.28	9.073
677.60	6.102
677.92	8.061
678.25	8.592
678.57	9.431
678.89	8.703
679.22	6.794
679.54	8.889
679.86	6.610
680.18	6.965
680.51	6.447
680.83	8.838
681.15	6.034
681.48	8.463
681.80	8.636
682.12	6.643
682.44	7.179
682.77	8.333
683.09	8.144
683.41	8.915
683.73	7.400
684.06	7.196
684.38	5.903
684.70	8.259
685.02	8.262
685.34	5.657
685.67	6.625
685.99	6.595
686.31	6.541
686.63	6.793
686.96	7.571
687.28	7.003
687.60	7.071
687.92	5.627
688.24	7.846
688.56	6.207
688.89	7.985
689.21	6.458
689.53	5.294
689.85	5.720
690.17	8.148
690.49	6.972
690.82	6.733
691.14	4.656
691.46	8.222
691.78	8.656
692.10	7.156
692.42	7.143
692.74	6.534
693.06	6.667
693.39	9.488
693.71	7.331
694.03	8.736
694.35	7.810
694.67	8.214
694.99	7.660
695.31	6.402
695.63	5.628
695.95	6.625
696.27	7.033
696.59	7.965
696.91	6.982
697.23	6.813
697.56	6.314
697.88	7.386
698.20	6.026
698.52	10.417
698.84	8.524
699.16	7.755
699.48	8.577
699.80	7.660
700.12	5.677
700.44	7.834
700.76	8.551
701.08	7.990
701.40	6.477
701.72	5.970
702.04	6.952
702.36	3.141
702.68	6.357
703.00	5.868
703.32	7.635
703.64	9.780
703.96	6.205
704.28	6.143
704.60	8.354
704.91	7.398
705.23	9.315
705.55	6.128
705.87	6.364
706.19	8.896
706.51	2.410
706.83	1.441
707.15	5.026
707.47	7.944
707.79	5.895
708.11	4.449
708.43	5.161
708.74	4.464
709.06	5.568
709.38	6.338
709.70	6.203
710.02	4.910
710.34	6.915
710.66	3.911
710.98	5.738
711.29	5.495
711.61	3.955
711.93	8.262
712.25	7.838
712.57	10.324
712.89	8.235
713.20	6.805
713.52	6.936
713.84	7.799
714.16	6.842
714.48	6.959
714.80	8.571
715.11	4.462
715.43	7.427
715.75	7.368
716.07	4.972
716.39	6.557
716.70	3.614
717.02	7.541
717.34	4.181
717.66	5.369
717.97	2.740
718.29	7.216
718.61	4.276
718.93	4.531
719.24	7.764
719.56	6.135
719.88	6.306
720.20	2.581
720.51	5.280
720.83	5.625
721.15	4.934
721.46	1.712
721.78	7.000
722.10	4.531
722.42	6.040
722.73	5.161
723.05	4.211
723.37	4.861
723.68	6.093
724.00	8.303
724.32	4.225
724.63	5.245
724.95	11.702
725.27	6.272
725.58	6.714
725.90	7.241
726.22	5.016
726.53	6.818
726.85	5.031
727.16	5.136
727.48	9.786
727.80	5.629
728.11	2.473
728.43	2.694
728.74	3.010
729.06	4.305
729.38	4.870
729.69	7.047
730.01	9.821
730.32	1.212
730.64	9.119
730.96	4.658
731.27	5.028
731.59	4.945
731.90	3.636
732.22	6.510
732.53	1.934
732.85	6.857
733.16	7.918
733.48	4.573
733.80	6.407
734.11	5.698
734.43	7.838
734.74	8.608
735.06	6.281
735.37	4.324
735.69	6.486
736.00	6.497
736.32	6.469
736.63	6.111
736.95	5.460
737.26	3.636
737.58	4.848
737.89	8.235
738.21	1.529
738.52	4.590
738.83	4.437
739.15	1.773
739.46	5.102
739.78	6.135
740.09	5.731
740.41	4.665
740.72	2.000
741.04	4.207
741.35	7.719
741.66	2.745
741.98	6.148
742.29	4.184
742.61	0.877
742.92	5.000
743.23	7.220
743.55	0.775
743.86	2.800
744.18	3.306
744.49	1.688
744.80	4.938
745.12	5.907
745.43	11.382
745.74	0.431
746.06	4.237
746.37	4.641
746.68	8.943
747.00	7.500
747.31	5.150
747.62	6.154
747.94	2.834
748.25	6.024
748.56	1.224
748.88	2.137
749.19	7.759
749.50	4.762
749.82	6.024
750.13	6.762
750.44	2.000
750.75	5.846
751.07	4.000
751.38	4.101
751.69	7.668
752.01	4.854
752.32	4.575
752.63	3.061
752.94	4.498
753.26	2.602
753.57	2.963
753.88	2.996
754.19	8.360
754.51	4.180
754.82	2.894
755.13	7.869
755.44	2.389
755.75	5.592
756.07	8.955
756.38	4.403
756.69	7.831
757.00	2.216
757.31	6.284
757.63	2.558
757.94	3.052
758.25	4.966
758.56	1.961
758.87	4.773
759.18	3.467
759.50	5.099
759.81	3.922
760.12	2.695
760.43	3.125
760.74	5.665
761.05	3.500
761.36	4.578
761.67	4.822
761.99	3.514
762.30	3.049
762.61	3.960
762.92	1.866
763.23	8.240
763.54	9.353
763.85	5.498
764.16	4.040
764.47	4.930
764.78	3.834
765.10	2.639
765.41	8.205
765.72	0.000
766.03	4.802
766.34	3.762
766.65	3.136
766.96	3.984
767.27	8.295
767.58	0.000
767.89	7.212
768.20	7.512
768.51	-1.389
768.82	4.016
769.13	3.030
769.44	-3.462
769.75	4.693
770.06	7.308
770.37	2.362
770.68	2.979
770.99	-2.429
771.30	8.889
771.61	4.563
771.92	2.222
772.23	4.858
772.54	4.630
772.85	7.834
773.16	7.619
773.47	-1.058
773.78	-2.162
774.09	5.114
774.39	7.000
774.70	3.279
775.01	-2.439
775.32	-2.941
775.63	2.454
775.94	-7.643
776.25	4.516
776.56	11.538
776.87	6.803
777.18	2.759
777.48	2.797
777.79	2.703
778.10	2.206
778.41	-2.778
778.72	2.759
779.03	6.790
779.34	2.424
779.65	5.699
779.95	9.444
780.26	1.136
780.57	6.452
780.88	10.145
781.19	7.097
781.50	7.059
781.80	4.301
782.11	7.407
782.42	0.000
782.73	1.198
783.04	1.676
783.34	-2.424
783.65	-1.307
783.96	3.106
784.27	1.190
784.57	2.649
784.88	4.286
785.19	-3.150
785.50	-1.575
785.81	-3.759
786.11	7.692
786.42	3.597
786.73	4.317
787.04	0.000
787.34	0.000
787.65	4.000
787.96	5.224
788.26	9.091
788.57	15.385
788.88	5.921
789.19	8.497
789.49	0.000
789.80	0.000
790.11	3.937
790.41	3.125
790.72	-0.847
791.03	2.913
791.33	6.087
791.64	13.158
791.95	6.250
792.25	2.857
792.56	2.679
792.87	-2.083
793.17	11.607
793.48	-9.375
793.79	-4.819
794.09	8.257
794.40	0.917
794.70	2.721
795.01	3.896
795.32	4.795
795.62	2.817
795.93	-0.758
796.23	6.557
796.54	-9.821
796.85	1.064
797.15	0.000
797.46	-6.849
797.76	-2.500
798.07	6.522
798.37	-4.124
798.68	-9.091
798.99	-4.598
799.29	1.124
799.60	4.255
799.90	-2.410
800.21	-7.692
800.51	-11.940
800.82	-17.647
801.12	-24.658
801.43	-1.471
801.73	-6.780
802.04	-4.545
802.34	-13.333
802.65	8.475
802.95	0.000
803.26	0.000
803.56	6.849
803.87	10.000
804.17	-1.370
804.48	-29.825
804.78	-4.167
805.09	-6.897
805.39	-2.703
805.70	-8.451
806.00	2.439
806.30	-2.410
806.61	-2.740
806.91	5.769
807.22	0.000
807.52	1.149
807.83	4.167
808.13	21.687
808.43	2.247
808.74	-2.500
809.04	-16.176
809.35	-1.333
809.65	0.000
809.95	6.849
810.26	-10.526
810.56	-3.448
810.86	14.706
811.17	-5.263
811.47	-1.639
811.77	-33.333
812.08	6.780
812.38	3.333
812.69	8.621
812.99	0.000
813.29	-12.821
813.59	14.000
813.90	12.281
814.20	-23.636
814.50	22.535
814.81	3.846
815.11	-6.557
815.41	4.478
815.72	17.241
816.02	8.929
816.32	24.444
816.62	-2.273
816.93	-20.000
817.23	3.704
817.53	-6.383
817.84	2.381
818.14	-2.941
818.44	2.041
818.74	11.111
819.04	-20.513
819.35	-34.286
819.65	-46.154
819.95	9.434
820.25	-2.222
820.56	-28.571
820.86	6.250
821.16	-17.949
821.46	-4.651
821.76	-30.000
822.07	-12.500
822.37	-19.565
822.67	-10.638
822.97	-24.324
823.27	-10.000
823.57	10.204
823.88	17.778
824.18	10.000
824.48	-40.000
824.78	-40.000
825.08	18.182
825.38	17.778
825.69	-2.128
825.99	-13.889
826.29	-60.000
826.59	-10.256
826.89	-9.302
827.19	6.000
827.49	-2.941
827.79	2.083
828.09	-27.027
828.39	-43.333
828.70	-19.512
829.00	-13.953
829.30	-42.857
829.60	2.941
829.90	-15.217
830.20	-31.429
830.50	-27.586
830.80	0.000
831.10	-42.308
831.40	-11.765
831.70	-42.857
832.00	9.677
832.30	-76.471
832.60	-16.667
832.90	-115.385
833.20	-47.368
833.50	-75.000
833.80	-84.211
834.10	-85.714
834.40	5.556
834.70	31.250
835.00	-42.857
835.30	-29.412
835.60	0.000
835.90	8.000
836.20	-40.909
836.50	-12.000
836.80	-18.182
837.10	-44.444
837.40	-7.407
837.70	-75.000
838.00	-7.143
838.30	-43.478
838.60	-3.448
838.90	-71.429
839.19	-34.783
839.49	-100.000
839.79	-21.739
840.09	-43.750
840.39	5.000
840.69	22.581
840.99	-35.714
841.29	-20.000
841.59	5.263
841.88	5.128
842.18	-3.846
842.48	-20.000
842.78	-75.000
843.08	-3.333
843.38	-12.903
843.68	-44.444
843.97	11.765
844.27	6.250
844.57	-5.263
844.87	-30.000
845.17	-66.667
845.47	9.524
845.76	9.524
846.06	-66.667
846.36	-58.824
846.66	-11.538
846.96	-33.333
847.25	-5.882
847.55	4.348
847.85	-10.000
848.15	-17.647
848.44	-27.273
848.74	-9.524
849.04	-54.167
849.34	-37.500
849.63	-13.043
849.93	400.000
850.23	26.667
850.53	0.000
850.82	-27.273
851.12	22.727
851.42	-72.727
851.71	7.692
852.01	-20.000
852.31	-7.692
852.61	-47.368
852.90	83.333
853.20	11.111
853.50	-100.000
853.79	-57.143
854.09	-31.818
854.39	-75.000
854.68	-16.129
854.98	-3.846
855.28	38.889
855.57	-28.571
855.87	-4.000
856.17	-36.364
856.46	29.630
856.76	-38.889
857.05	-4.348
857.35	-29.167
857.65	-23.077
857.94	19.048
858.24	-3.704
858.53	0.000
858.83	-41.176
859.13	-11.765
859.42	-29.412
859.72	0.000
860.01	-20.000
860.31	-177.778
860.60	0.000
860.90	-46.667
861.20	38.889
861.49	-76.923
861.79	-20.000
862.08	-23.077
862.38	-3.125
862.67	-47.059
862.97	-6.250
863.26	-133.333
863.56	-100.000
863.85	-18.182
864.15	-83.333
864.44	-233.333
864.74	14.286
865.03	-37.500
865.33	-100.000
865.62	-12.903
865.92	36.364
866.21	-8.696
866.51	-71.429
866.80	-140.000
867.10	-50.000
867.39	-25.000
867.69	600.000
867.98	28.571
868.27	-11.765
868.57	-1500.000
868.86	-110.000
869.16	-9.524
869.45	16.667
869.75	36.364
870.04	42.857
870.33	-83.333
870.63	-271.429
870.92	-100.000
871.22	-212.500
871.51	-27.273
871.80	-333.333
872.10	-650.000
>>>>>End Processed Spectral Data<<<<<
