SpectraSuite Data File
++++++++++++++++++++++++++++++++++++
Date: Thu May 14 16:26:07 PDT 2015
User: schluterlab
Dark Spectrum Present: Yes
Reference Spectrum Present: Yes
Number of Sampled Component Spectra: 1
Spectrometers: USB2E3373
Integration Time (usec): 3000 (USB2E3373)
Spectra Averaged: 3 (USB2E3373)
Boxcar Smoothing: 0 (USB2E3373)
Correct for Electrical Dark: No (USB2E3373)
Strobe/Lamp Enabled: No (USB2E3373)
Correct for Detector Non-linearity: No (USB2E3373)
Correct for Stray Light: No (USB2E3373)
Number of Pixels in Processed Spectrum: 2048
>>>>>Begin Processed Spectral Data<<<<<
178.53	0.000
178.91	57.143
179.29	-300.000
179.67	-600.000
180.04	78.571
180.42	40.000
180.80	80.000
181.18	-200.000
181.56	400.000
181.94	150.000
182.31	25.000
182.69	133.333
183.07	250.000
183.45	50.000
183.83	83.333
184.20	0.000
184.58	200.000
184.96	-175.000
185.34	-144.444
185.72	0.000
186.09	133.333
186.47	300.000
186.85	240.000
187.23	-111.111
187.61	-800.000
187.98	200.000
188.36	150.000
188.74	125.000
189.12	-200.000
189.49	-12.500
189.87	-112.500
190.25	122.222
190.63	-20.000
191.00	-88.889
191.38	0.000
191.76	-250.000
192.14	-16.667
192.51	-0.000
192.89	133.333
193.27	0.000
193.65	28.571
194.02	-400.000
194.40	114.286
194.78	142.857
195.15	0.000
195.53	54.545
195.91	0.000
196.29	100.000
196.66	30.769
197.04	-400.000
197.42	-14.286
197.79	50.000
198.17	-25.000
198.55	-114.286
198.92	22.222
199.30	-62.500
199.68	18.182
200.05	42.857
200.43	-450.000
200.81	-28.571
201.18	0.000
201.56	133.333
201.94	0.000
202.31	100.000
202.69	-66.667
203.07	300.000
203.44	77.778
203.82	-150.000
204.19	-8.333
204.57	-150.000
204.95	-87.500
205.32	-500.000
205.70	-75.000
206.08	100.000
206.45	66.667
206.83	420.000
207.20	100.000
207.58	-100.000
207.96	-83.333
208.33	-33.333
208.71	41.667
209.08	0.000
209.46	0.000
209.84	83.333
210.21	-100.000
210.59	200.000
210.96	200.000
211.34	25.000
211.71	-12.500
212.09	100.000
212.46	0.000
212.84	600.000
213.22	0.000
213.59	100.000
213.97	20.000
214.34	-233.333
214.72	166.667
215.09	-150.000
215.47	0.000
215.84	28.571
216.22	900.000
216.59	-120.000
216.97	-160.000
217.34	-75.000
217.72	-100.000
218.09	-325.000
218.47	-225.000
218.84	0.000
219.22	-0.000
219.59	11.765
219.97	30.000
220.34	250.000
220.72	-22.222
221.09	0.000
221.47	233.333
221.84	10.000
222.22	71.429
222.59	0.000
222.97	-50.000
223.34	-220.000
223.72	-400.000
224.09	-50.000
224.46	-400.000
224.84	-80.000
225.21	-57.143
225.59	-300.000
225.96	-25.000
226.34	19.231
226.71	83.333
227.08	200.000
227.46	46.667
227.83	-150.000
228.21	15.789
228.58	100.000
228.95	200.000
229.33	25.000
229.70	-30.000
230.08	26.316
230.45	130.000
230.82	0.000
231.20	-28.571
231.57	-8.333
231.95	54.545
232.32	36.364
232.69	20.000
233.07	-150.000
233.44	-17.647
233.81	-40.000
234.19	11.111
234.56	18.182
234.93	41.379
235.31	26.316
235.68	0.000
236.05	-15.000
236.43	38.462
236.80	48.000
237.17	3.704
237.55	18.182
237.92	-90.000
238.29	-12.903
238.67	-2.273
239.04	-8.333
239.41	-21.429
239.79	-4.348
240.16	-1.852
240.53	-15.217
240.91	-19.608
241.28	3.279
241.65	11.940
242.02	14.865
242.40	9.231
242.77	-1.333
243.14	-10.976
243.51	-15.789
243.89	-23.077
244.26	4.950
244.63	-4.902
245.00	-5.607
245.38	-6.140
245.75	-21.239
246.12	0.000
246.49	-4.651
246.87	0.714
247.24	0.662
247.61	-1.316
247.98	0.671
248.36	0.617
248.73	-8.589
249.10	2.186
249.47	3.483
249.84	2.618
250.22	-2.591
250.59	0.000
250.96	1.364
251.33	-3.571
251.70	4.701
252.08	0.833
252.45	2.459
252.82	-0.413
253.19	-0.781
253.56	-0.380
253.94	-1.154
254.31	1.894
254.68	3.497
255.05	1.629
255.42	0.000
255.79	0.647
256.16	0.662
256.54	-2.649
256.91	3.934
257.28	-2.295
257.65	0.000
258.02	-0.590
258.39	-3.134
258.76	0.306
259.14	0.862
259.51	-0.576
259.88	-4.249
260.25	-1.944
260.62	1.918
260.99	1.093
261.36	0.000
261.73	1.592
262.10	-1.923
262.47	2.145
262.85	2.273
263.22	-3.377
263.59	-3.947
263.96	0.000
264.33	0.767
264.70	0.988
265.07	2.625
265.44	2.948
265.81	0.463
266.18	1.587
266.55	2.455
266.92	-2.050
267.29	0.438
267.66	0.000
268.03	2.183
268.40	1.879
268.77	-1.595
269.14	-1.542
269.51	0.658
269.88	1.434
270.25	-0.201
270.62	-0.633
270.99	1.818
271.36	1.584
271.73	0.393
272.10	-0.401
272.47	0.601
272.84	0.803
273.21	1.603
273.58	1.613
273.95	1.538
274.32	0.190
274.69	0.000
275.06	0.549
275.43	-0.555
275.80	2.469
276.17	-1.667
276.54	-1.119
276.91	0.716
277.28	1.447
277.65	1.077
278.02	0.000
278.39	-1.812
278.76	-1.054
279.13	0.177
279.50	2.577
279.87	1.252
280.23	0.528
280.60	1.356
280.97	0.329
281.34	-1.019
281.71	2.538
282.08	1.827
282.45	1.146
282.82	0.471
283.19	-1.292
283.56	-0.492
283.92	1.802
284.29	2.528
284.66	0.821
285.03	1.603
285.40	1.391
285.77	-0.310
286.14	-0.153
286.51	1.065
286.87	-0.632
287.24	1.205
287.61	-1.345
287.98	0.000
288.35	0.888
288.72	0.888
289.08	1.171
289.45	0.148
289.82	-0.602
290.19	0.287
290.56	0.282
290.93	1.284
291.29	0.826
291.66	0.000
292.03	0.678
292.40	1.361
292.77	1.348
293.13	0.812
293.50	0.394
293.87	0.268
294.24	1.200
294.60	1.896
294.97	0.000
295.34	1.793
295.71	0.631
296.08	0.646
296.44	0.858
296.81	1.583
297.18	0.498
297.55	-0.354
297.91	-0.119
298.28	-0.711
298.65	0.832
299.02	0.472
299.38	1.373
299.75	0.467
300.12	-0.231
300.48	0.922
300.85	1.687
301.22	2.013
301.59	0.000
301.95	-0.678
302.32	1.222
302.69	0.000
303.05	1.523
303.42	0.443
303.79	0.833
304.15	0.736
304.52	-0.423
304.89	1.047
305.25	-0.311
305.62	0.731
305.99	1.753
306.35	0.403
306.72	0.310
307.09	0.203
307.45	1.139
307.82	1.110
308.19	0.404
308.55	1.254
308.92	0.682
309.29	0.670
309.65	0.487
310.02	0.792
310.38	0.787
310.75	0.777
311.12	0.575
311.48	0.196
311.85	0.000
312.22	-0.285
312.58	0.657
312.95	1.147
313.31	0.542
313.68	0.916
314.05	2.258
314.41	1.913
314.78	0.908
315.14	2.269
315.51	1.662
315.87	1.350
316.24	1.461
316.61	1.954
316.97	1.267
317.34	0.088
317.70	1.135
318.07	1.499
318.43	1.020
318.80	2.007
319.16	0.858
319.53	0.514
319.89	1.490
320.26	1.690
320.62	1.418
320.99	2.031
321.35	1.294
321.72	2.884
322.08	1.713
322.45	2.349
322.81	1.986
323.18	2.124
323.54	2.241
323.91	2.135
324.27	2.668
324.64	3.107
325.00	1.741
325.37	2.785
325.73	2.562
326.10	3.569
326.46	4.397
326.83	4.083
327.19	3.543
327.56	3.320
327.92	2.675
328.29	1.935
328.65	3.266
329.01	3.046
329.38	2.864
329.74	3.853
330.11	3.682
330.47	3.286
330.84	2.842
331.20	3.417
331.56	2.600
331.93	3.933
332.29	3.729
332.66	3.405
333.02	4.020
333.38	3.523
333.75	3.199
334.11	3.670
334.48	4.208
334.84	3.653
335.20	3.275
335.57	3.541
335.93	3.967
336.29	2.995
336.66	3.532
337.02	3.177
337.38	4.847
337.75	3.388
338.11	3.280
338.47	3.722
338.84	3.384
339.20	3.033
339.56	4.036
339.93	3.941
340.29	3.945
340.65	3.650
341.02	4.070
341.38	3.961
341.74	4.358
342.11	3.862
342.47	2.383
342.83	3.221
343.20	3.679
343.56	3.849
343.92	4.083
344.28	3.984
344.65	3.953
345.01	4.056
345.37	4.977
345.73	2.650
346.10	3.198
346.46	3.560
346.82	4.045
347.19	3.209
347.55	4.401
347.91	3.120
348.27	2.883
348.63	4.950
349.00	2.983
349.36	3.717
349.72	3.497
350.08	4.160
350.45	3.194
350.81	3.243
351.17	3.835
351.53	3.412
351.89	4.632
352.26	4.627
352.62	3.060
352.98	3.359
353.34	3.286
353.70	3.236
354.07	4.247
354.43	3.569
354.79	3.740
355.15	3.974
355.51	4.240
355.87	3.665
356.24	3.726
356.60	3.178
356.96	3.484
357.32	4.387
357.68	3.514
358.04	3.293
358.40	3.806
358.77	3.874
359.13	3.176
359.49	2.602
359.85	3.263
360.21	4.161
360.57	3.877
360.93	3.103
361.29	4.211
361.66	3.838
362.02	4.175
362.38	4.006
362.74	2.165
363.10	4.264
363.46	3.255
363.82	3.551
364.18	3.308
364.54	3.181
364.90	4.080
365.26	3.103
365.62	4.400
365.98	3.131
366.35	4.094
366.71	3.401
367.07	3.721
367.43	3.940
367.79	4.247
368.15	4.013
368.51	3.857
368.87	4.637
369.23	4.000
369.59	3.074
369.95	3.854
370.31	3.376
370.67	3.576
371.03	4.017
371.39	3.156
371.75	4.608
372.11	3.794
372.47	3.385
372.83	3.665
373.19	4.069
373.55	3.117
373.91	3.545
374.27	4.269
374.63	3.586
374.99	3.846
375.35	4.286
375.71	3.742
376.07	3.163
376.42	3.778
376.78	4.972
377.14	4.304
377.50	4.428
377.86	5.357
378.22	4.790
378.58	4.875
378.94	4.108
379.30	4.218
379.66	4.056
380.02	4.616
380.38	4.781
380.74	4.451
381.09	4.297
381.45	4.261
381.81	5.504
382.17	5.107
382.53	4.678
382.89	5.023
383.25	4.513
383.61	3.935
383.97	4.947
384.32	4.665
384.68	4.350
385.04	5.610
385.40	4.478
385.76	5.041
386.12	4.847
386.48	5.235
386.83	5.185
387.19	5.214
387.55	4.988
387.91	4.966
388.27	5.716
388.62	5.269
388.98	5.020
389.34	4.773
389.70	4.997
390.06	6.098
390.42	5.120
390.77	6.201
391.13	5.516
391.49	5.314
391.85	4.606
392.20	5.991
392.56	5.966
392.92	6.489
393.28	5.030
393.64	5.475
393.99	6.508
394.35	6.308
394.71	6.407
395.07	5.389
395.42	5.711
395.78	6.703
396.14	6.358
396.50	5.879
396.85	6.738
397.21	5.976
397.57	6.360
397.92	6.357
398.28	5.486
398.64	5.950
399.00	5.602
399.35	6.178
399.71	6.467
400.07	6.232
400.42	5.879
400.78	5.150
401.14	6.147
401.49	6.254
401.85	6.047
402.21	6.025
402.57	6.690
402.92	6.206
403.28	6.206
403.63	5.847
403.99	6.235
404.35	5.571
404.70	6.459
405.06	6.304
405.42	6.148
405.77	6.434
406.13	7.239
406.49	6.419
406.84	7.368
407.20	6.316
407.55	5.754
407.91	6.223
408.27	7.244
408.62	6.748
408.98	7.023
409.34	5.689
409.69	6.737
410.05	7.327
410.40	8.179
410.76	6.618
411.11	7.656
411.47	6.880
411.83	7.701
412.18	7.289
412.54	8.180
412.89	7.392
413.25	7.675
413.60	6.835
413.96	7.867
414.31	7.139
414.67	6.559
415.03	7.938
415.38	7.062
415.74	7.697
416.09	8.143
416.45	7.827
416.80	7.589
417.16	7.663
417.51	8.344
417.87	7.725
418.22	8.383
418.58	7.497
418.93	8.440
419.29	7.953
419.64	8.764
420.00	8.190
420.35	8.591
420.71	8.156
421.06	8.626
421.42	7.970
421.77	8.347
422.12	8.985
422.48	8.756
422.83	8.927
423.19	8.912
423.54	8.850
423.90	8.835
424.25	8.640
424.61	8.726
424.96	8.237
425.31	9.713
425.67	8.749
426.02	8.301
426.38	9.070
426.73	9.431
427.09	10.150
427.44	9.175
427.79	9.508
428.15	8.505
428.50	9.494
428.85	10.448
429.21	10.532
429.56	9.279
429.92	9.779
430.27	10.169
430.62	10.405
430.98	9.592
431.33	9.580
431.68	9.866
432.04	10.107
432.39	9.963
432.74	10.388
433.10	10.168
433.45	9.420
433.80	10.944
434.16	10.382
434.51	10.534
434.86	10.423
435.22	10.308
435.57	10.731
435.92	11.018
436.28	11.547
436.63	11.251
436.98	10.682
437.34	10.936
437.69	10.732
438.04	10.894
438.39	11.488
438.75	11.179
439.10	11.575
439.45	11.571
439.81	11.695
440.16	11.689
440.51	11.427
440.86	11.117
441.22	12.219
441.57	11.111
441.92	11.494
442.27	11.313
442.63	12.320
442.98	11.846
443.33	12.415
443.68	12.389
444.03	12.324
444.39	11.697
444.74	12.302
445.09	11.961
445.44	12.223
445.79	11.877
446.15	12.539
446.50	11.370
446.85	12.354
447.20	11.847
447.55	12.291
447.91	11.780
448.26	12.104
448.61	12.752
448.96	12.232
449.31	12.513
449.66	11.601
450.02	12.447
450.37	12.946
450.72	11.948
451.07	12.927
451.42	12.478
451.77	12.285
452.12	13.431
452.47	12.062
452.83	13.063
453.18	12.726
453.53	12.636
453.88	11.982
454.23	13.051
454.58	12.072
454.93	12.015
455.28	12.402
455.63	12.905
455.98	12.179
456.34	12.426
456.69	12.463
457.04	12.411
457.39	11.696
457.74	13.367
458.09	11.203
458.44	13.039
458.79	12.326
459.14	12.952
459.49	12.620
459.84	13.221
460.19	12.826
460.54	12.663
460.89	12.652
461.24	12.184
461.59	12.562
461.94	11.523
462.29	13.606
462.64	12.311
462.99	12.053
463.34	12.524
463.69	12.309
464.04	13.396
464.39	12.668
464.74	13.455
465.09	11.995
465.44	12.285
465.79	12.692
466.14	13.132
466.49	12.789
466.84	13.003
467.19	12.023
467.54	11.340
467.89	12.126
468.24	12.410
468.59	12.276
468.94	11.597
469.29	11.338
469.64	12.206
469.99	11.855
470.34	12.871
470.68	12.509
471.03	12.705
471.38	12.492
471.73	11.899
472.08	11.992
472.43	11.680
472.78	11.776
473.13	12.832
473.48	13.112
473.83	12.536
474.17	12.192
474.52	11.606
474.87	13.123
475.22	12.169
475.57	12.201
475.92	11.697
476.27	12.034
476.61	12.098
476.96	11.053
477.31	12.030
477.66	11.542
478.01	11.998
478.36	12.612
478.70	13.103
479.05	12.423
479.40	12.586
479.75	12.344
480.10	12.506
480.45	12.716
480.79	12.834
481.14	12.316
481.49	10.995
481.84	12.663
482.19	12.000
482.53	11.762
482.88	12.096
483.23	11.961
483.58	11.310
483.92	11.613
484.27	11.685
484.62	12.170
484.97	12.170
485.31	11.756
485.66	11.261
486.01	11.394
486.36	11.587
486.70	12.187
487.05	12.381
487.40	12.073
487.75	12.036
488.09	12.003
488.44	11.621
488.79	11.939
489.13	12.129
489.48	11.068
489.83	11.509
490.17	11.179
490.52	11.658
490.87	11.125
491.22	12.002
491.56	12.159
491.91	11.688
492.26	12.159
492.60	11.762
492.95	11.409
493.30	11.206
493.64	11.213
493.99	11.096
494.34	11.411
494.68	11.649
495.03	11.806
495.37	11.318
495.72	11.927
496.07	11.788
496.41	11.068
496.76	11.134
497.11	11.762
497.45	11.178
497.80	12.084
498.14	11.338
498.49	11.305
498.84	11.426
499.18	11.516
499.53	11.256
499.87	11.956
500.22	10.285
500.56	11.426
500.91	10.847
501.26	11.591
501.60	10.915
501.95	11.246
502.29	10.926
502.64	11.194
502.98	11.605
503.33	10.713
503.67	10.772
504.02	10.639
504.36	11.573
504.71	10.932
505.06	11.096
505.40	11.015
505.75	10.474
506.09	11.188
506.44	11.281
506.78	11.560
507.13	10.927
507.47	11.180
507.82	10.653
508.16	10.134
508.51	10.502
508.85	10.250
509.19	11.085
509.54	10.711
509.88	10.685
510.23	10.928
510.57	11.020
510.92	10.837
511.26	10.245
511.61	9.947
511.95	10.444
512.30	10.241
512.64	10.045
512.98	10.705
513.33	10.484
513.67	9.944
514.02	10.782
514.36	10.588
514.70	9.896
515.05	10.740
515.39	10.551
515.74	10.392
516.08	10.777
516.42	10.466
516.77	10.463
517.11	10.521
517.46	10.657
517.80	10.476
518.14	10.718
518.49	11.063
518.83	10.165
519.17	9.855
519.52	10.220
519.86	10.929
520.20	10.437
520.55	9.967
520.89	10.360
521.23	9.604
521.58	10.452
521.92	9.858
522.26	9.507
522.61	9.549
522.95	9.862
523.29	10.230
523.64	10.258
523.98	10.211
524.32	10.258
524.66	10.586
525.01	9.626
525.35	9.190
525.69	10.325
526.04	9.701
526.38	9.368
526.72	10.381
527.06	10.088
527.41	10.204
527.75	9.501
528.09	10.213
528.43	9.947
528.78	9.249
529.12	9.690
529.46	9.612
529.80	9.725
530.15	9.797
530.49	9.668
530.83	9.445
531.17	9.080
531.51	9.567
531.86	9.856
532.20	10.854
532.54	9.276
532.88	10.061
533.22	9.841
533.57	9.867
533.91	9.933
534.25	10.062
534.59	9.885
534.93	9.281
535.27	9.690
535.62	10.063
535.96	10.052
536.30	9.401
536.64	9.429
536.98	10.025
537.32	9.506
537.66	9.545
538.01	8.882
538.35	8.831
538.69	8.834
539.03	9.319
539.37	9.894
539.71	9.069
540.05	9.772
540.39	9.108
540.73	7.832
541.07	9.074
541.42	9.923
541.76	9.193
542.10	8.745
542.44	9.257
542.78	9.489
543.12	9.654
543.46	10.012
543.80	9.053
544.14	9.276
544.48	9.043
544.82	9.635
545.16	9.123
545.50	8.928
545.84	9.063
546.18	9.877
546.52	9.236
546.86	9.371
547.20	8.969
547.54	8.989
547.88	9.042
548.22	8.889
548.56	9.538
548.90	8.299
549.24	8.815
549.58	9.653
549.92	8.546
550.26	9.709
550.60	8.934
550.94	9.379
551.28	8.977
551.62	9.636
551.96	9.709
552.30	8.859
552.64	9.272
552.98	8.671
553.32	8.232
553.66	8.746
554.00	8.890
554.34	9.138
554.68	8.328
555.02	8.476
555.36	9.139
555.69	7.239
556.03	8.323
556.37	9.449
556.71	9.004
557.05	9.010
557.39	8.958
557.73	8.983
558.07	8.079
558.41	9.369
558.75	8.249
559.08	8.838
559.42	8.230
559.76	9.023
560.10	8.774
560.44	8.641
560.78	8.563
561.12	8.990
561.45	9.185
561.79	8.852
562.13	9.181
562.47	7.768
562.81	7.911
563.15	8.333
563.48	8.204
563.82	8.222
564.16	7.087
564.50	9.118
564.84	8.142
565.17	8.588
565.51	8.573
565.85	8.314
566.19	7.258
566.52	7.548
566.86	7.527
567.20	8.374
567.54	7.860
567.88	7.747
568.21	7.955
568.55	7.578
568.89	8.171
569.23	7.900
569.56	7.737
569.90	7.840
570.24	7.825
570.57	7.280
570.91	6.920
571.25	7.434
571.59	7.709
571.92	6.903
572.26	7.385
572.60	7.180
572.93	7.682
573.27	7.053
573.61	7.279
573.95	7.720
574.28	7.685
574.62	7.003
574.96	7.036
575.29	7.204
575.63	6.930
575.97	7.305
576.30	7.303
576.64	7.134
576.98	7.039
577.31	7.008
577.65	6.954
577.98	7.041
578.32	6.913
578.66	6.917
578.99	7.270
579.33	7.181
579.67	7.140
580.00	7.058
580.34	7.155
580.67	6.598
581.01	6.815
581.35	7.052
581.68	6.939
582.02	7.068
582.35	6.889
582.69	6.979
583.02	6.989
583.36	7.127
583.70	6.862
584.03	6.815
584.37	7.282
584.70	6.577
585.04	6.557
585.37	6.938
585.71	6.645
586.04	6.473
586.38	6.917
586.72	6.844
587.05	6.907
587.39	7.081
587.72	7.249
588.06	7.302
588.39	7.045
588.73	7.063
589.06	7.139
589.40	6.484
589.73	7.134
590.07	7.195
590.40	7.302
590.73	7.105
591.07	6.925
591.40	6.921
591.74	7.035
592.07	6.983
592.41	6.822
592.74	6.780
593.08	7.420
593.41	7.407
593.75	6.868
594.08	6.998
594.41	6.667
594.75	6.775
595.08	6.696
595.42	7.305
595.75	6.781
596.09	7.353
596.42	6.808
596.75	6.831
597.09	7.273
597.42	6.834
597.75	6.468
598.09	6.746
598.42	6.956
598.76	6.763
599.09	6.515
599.42	6.805
599.76	6.537
600.09	6.907
600.42	7.140
600.76	6.638
601.09	6.903
601.42	6.454
601.76	6.724
602.09	6.290
602.42	6.034
602.76	6.347
603.09	6.718
603.42	6.684
603.76	6.166
604.09	7.381
604.42	6.679
604.76	6.659
605.09	6.901
605.42	6.699
605.75	6.385
606.09	6.756
606.42	6.530
606.75	6.222
607.09	6.413
607.42	6.050
607.75	6.135
608.08	6.472
608.42	6.328
608.75	6.633
609.08	5.772
609.41	6.440
609.75	6.161
610.08	6.420
610.41	6.032
610.74	6.176
611.07	6.083
611.41	6.547
611.74	6.744
612.07	6.498
612.40	6.511
612.73	6.553
613.07	6.650
613.40	6.208
613.73	6.259
614.06	6.428
614.39	6.122
614.72	6.405
615.06	5.919
615.39	6.138
615.72	6.066
616.05	6.314
616.38	6.609
616.71	6.374
617.05	5.431
617.38	6.956
617.71	6.425
618.04	6.530
618.37	6.393
618.70	6.448
619.03	5.496
619.36	5.919
619.69	5.701
620.03	6.717
620.36	5.890
620.69	5.676
621.02	6.430
621.35	6.386
621.68	6.725
622.01	6.762
622.34	5.439
622.67	5.704
623.00	4.656
623.33	6.437
623.66	6.161
623.99	5.530
624.32	7.147
624.65	5.598
624.99	6.177
625.32	6.074
625.65	6.271
625.98	6.102
626.31	5.882
626.64	6.447
626.97	5.851
627.30	5.239
627.63	5.701
627.96	6.907
628.29	7.082
628.62	5.038
628.95	6.223
629.28	5.268
629.61	5.724
629.94	6.192
630.26	5.763
630.59	5.959
630.92	5.368
631.25	5.098
631.58	6.215
631.91	5.061
632.24	5.956
632.57	5.693
632.90	5.817
633.23	5.306
633.56	5.714
633.89	5.475
634.22	5.821
634.55	7.098
634.88	4.545
635.20	5.597
635.53	5.424
635.86	4.984
636.19	6.151
636.52	6.013
636.85	6.129
637.18	5.821
637.51	6.022
637.83	5.648
638.16	6.567
638.49	5.516
638.82	5.750
639.15	5.384
639.48	6.467
639.81	7.275
640.13	5.654
640.46	5.212
640.79	6.127
641.12	7.453
641.45	4.893
641.77	6.932
642.10	6.299
642.43	5.851
642.76	5.014
643.09	6.438
643.41	5.602
643.74	5.517
644.07	7.448
644.40	5.375
644.73	5.080
645.05	5.580
645.38	5.899
645.71	6.745
646.04	7.891
646.36	4.818
646.69	5.828
647.02	5.657
647.35	6.107
647.67	5.153
648.00	5.892
648.33	5.706
648.66	5.706
648.98	4.626
649.31	5.142
649.64	6.109
649.96	5.438
650.29	4.590
650.62	5.233
650.94	4.505
651.27	3.892
651.60	6.140
651.92	5.927
652.25	5.065
652.58	6.327
652.90	3.924
653.23	5.211
653.56	4.708
653.88	7.725
654.21	5.211
654.54	6.503
654.86	6.091
655.19	4.391
655.52	5.347
655.84	5.028
656.17	5.683
656.49	7.920
656.82	8.917
657.15	6.917
657.47	5.411
657.80	4.046
658.13	3.130
658.45	4.321
658.78	5.587
659.10	4.848
659.43	5.117
659.75	4.864
660.08	4.482
660.41	5.542
660.73	4.675
661.06	4.112
661.38	5.423
661.71	5.862
662.03	6.349
662.36	5.009
662.68	5.066
663.01	6.372
663.33	7.561
663.66	6.960
663.98	4.615
664.31	7.129
664.63	4.239
664.96	4.719
665.28	4.356
665.61	7.343
665.93	4.464
666.26	5.197
666.58	2.214
666.91	4.860
667.23	5.333
667.56	5.917
667.88	5.600
668.21	2.930
668.53	5.019
668.86	5.108
669.18	4.684
669.50	4.175
669.83	2.000
670.15	5.118
670.48	3.770
670.80	4.015
671.13	6.049
671.45	6.496
671.77	4.896
672.10	4.167
672.42	3.883
672.75	3.226
673.07	4.627
673.39	5.393
673.72	5.201
674.04	6.552
674.37	2.862
674.69	6.349
675.01	5.143
675.34	5.725
675.66	4.682
675.98	6.343
676.31	6.250
676.63	7.034
676.95	7.088
677.28	2.823
677.60	3.937
677.92	4.990
678.25	6.216
678.57	5.516
678.89	5.973
679.22	3.310
679.54	4.957
679.86	3.729
680.18	5.473
680.51	5.189
680.83	5.237
681.15	4.483
681.48	5.181
681.80	4.663
682.12	3.147
682.44	3.840
682.77	5.496
683.09	4.545
683.41	4.845
683.73	4.744
684.06	4.244
684.38	3.220
684.70	4.309
685.02	5.680
685.34	3.161
685.67	2.839
685.99	4.755
686.31	3.779
686.63	3.476
686.96	5.678
687.28	7.166
687.60	3.704
687.92	3.698
688.24	4.674
688.56	4.138
688.89	3.993
689.21	5.479
689.53	1.373
689.85	2.564
690.17	4.259
690.49	5.378
690.82	5.743
691.14	1.822
691.46	5.545
691.78	5.709
692.10	3.303
692.42	4.107
692.74	3.993
693.06	2.963
693.39	4.364
693.71	4.135
694.03	4.647
694.35	3.619
694.67	4.928
694.99	5.532
695.31	1.545
695.63	6.061
695.95	4.348
696.27	3.297
696.59	3.761
696.91	4.279
697.23	6.374
697.56	3.055
697.88	4.545
698.20	4.331
698.52	7.765
698.84	4.574
699.16	5.714
699.48	3.347
699.80	2.553
700.12	4.803
700.44	4.839
700.76	4.988
701.08	4.600
701.40	2.591
701.72	1.244
702.04	4.545
702.36	1.309
702.68	3.423
703.00	2.934
703.32	4.187
703.64	5.868
703.96	5.728
704.28	1.229
704.60	6.329
704.91	5.357
705.23	6.301
705.55	6.407
705.87	3.636
706.19	3.681
706.51	-0.602
706.83	0.865
707.15	0.794
707.47	2.570
707.79	3.275
708.11	2.119
708.43	3.441
708.74	0.000
709.06	3.944
709.38	6.103
709.70	2.233
710.02	4.910
710.34	6.915
710.66	1.397
710.98	3.825
711.29	3.571
711.61	3.107
711.93	2.849
712.25	5.405
712.57	6.195
712.89	6.765
713.20	4.438
713.52	5.780
713.84	2.228
714.16	7.895
714.48	3.866
714.80	4.156
715.11	3.937
715.43	2.122
715.75	3.684
716.07	1.657
716.39	5.464
716.70	1.506
717.02	1.967
717.34	2.439
717.66	2.349
717.97	1.712
718.29	6.186
718.61	2.632
718.93	3.236
719.24	3.106
719.56	5.215
719.88	1.201
720.20	1.935
720.51	2.484
720.83	2.813
721.15	0.987
721.46	-0.685
721.78	4.000
722.10	1.294
722.42	4.362
722.73	3.226
723.05	2.456
723.37	4.167
723.68	5.376
724.00	6.859
724.32	1.056
724.63	4.196
724.95	6.738
725.27	3.833
725.58	-0.353
725.90	3.103
726.22	3.448
726.53	3.571
726.85	2.201
727.16	1.511
727.48	6.422
727.80	5.298
728.11	0.000
728.43	3.704
728.74	4.682
729.06	2.980
729.38	3.896
729.69	4.362
730.01	3.571
730.32	0.303
730.64	4.088
730.96	0.621
731.27	8.101
731.59	5.220
731.90	1.558
732.22	2.604
732.53	1.381
732.85	1.714
733.16	4.692
733.48	0.000
733.80	3.343
734.11	6.553
734.43	4.054
734.74	5.570
735.06	2.513
735.37	3.514
735.69	2.703
736.00	2.260
736.32	6.199
736.63	4.444
736.95	2.874
737.26	3.939
737.58	0.303
737.89	1.471
738.21	4.281
738.52	2.295
738.83	3.754
739.15	-0.355
739.46	2.721
739.78	6.135
740.09	2.292
740.41	4.665
740.72	2.667
741.04	2.265
741.35	5.965
741.66	1.569
741.98	1.639
742.29	-0.418
742.61	3.947
742.92	4.231
743.23	4.332
743.55	0.775
743.86	0.400
744.18	-1.240
744.49	-1.688
744.80	4.938
745.12	-0.422
745.43	5.285
745.74	2.155
746.06	2.119
746.37	5.907
746.68	3.659
747.00	3.333
747.31	3.863
747.62	4.231
747.94	-2.429
748.25	-2.008
748.56	-1.224
748.88	-2.137
749.19	5.603
749.50	0.433
749.82	0.402
750.13	4.626
750.44	-0.333
750.75	3.077
751.07	5.846
751.38	1.893
751.69	1.597
752.01	2.265
752.32	2.614
752.63	0.680
752.94	6.574
753.26	-1.859
753.57	0.741
753.88	2.247
754.19	4.823
754.51	2.894
754.82	3.537
755.13	1.967
755.44	2.389
755.75	2.303
756.07	6.866
756.38	2.516
756.69	6.024
757.00	1.385
757.31	3.005
757.63	1.535
757.94	3.286
758.25	5.418
758.56	3.050
758.87	6.136
759.18	4.533
759.50	3.683
759.81	1.681
760.12	2.156
760.43	2.083
760.74	6.404
761.05	2.250
761.36	1.687
761.67	3.046
761.99	1.892
762.30	3.354
762.61	-0.330
762.92	4.478
763.23	5.618
763.54	6.475
763.85	4.811
764.16	4.714
764.47	3.873
764.78	2.236
765.10	3.812
765.41	6.667
765.72	3.439
766.03	3.390
766.34	-0.313
766.65	-1.742
766.96	2.390
767.27	-0.461
767.58	0.498
767.89	5.769
768.20	2.347
768.51	5.556
768.82	7.229
769.13	3.409
769.44	-3.462
769.75	3.971
770.06	2.308
770.37	9.055
770.68	3.404
770.99	-1.619
771.30	5.926
771.61	4.183
771.92	-0.370
772.23	5.668
772.54	-0.926
772.85	9.677
773.16	3.333
773.47	-4.233
773.78	-4.865
774.09	-2.273
774.39	6.000
774.70	3.825
775.01	2.439
775.32	-2.941
775.63	1.840
775.94	-5.096
776.25	4.516
776.56	8.974
776.87	7.483
777.18	4.828
777.48	7.692
777.79	6.757
778.10	0.735
778.41	2.083
778.72	3.448
779.03	1.852
779.34	2.424
779.65	2.591
779.95	2.778
780.26	6.250
780.57	5.161
780.88	6.522
781.19	12.903
781.50	8.235
781.80	9.140
782.11	2.116
782.42	6.061
782.73	-0.599
783.04	7.821
783.34	-4.848
783.65	-7.843
783.96	-3.106
784.27	6.548
784.57	3.311
784.88	6.429
785.19	3.150
785.50	3.937
785.81	0.752
786.11	3.077
786.42	-6.475
786.73	-5.755
787.04	2.256
787.34	0.820
787.65	-6.400
787.96	5.970
788.26	2.797
788.57	13.287
788.88	0.658
789.19	6.536
789.49	0.685
789.80	-0.709
790.11	3.937
790.41	2.344
790.72	2.542
791.03	-5.825
791.33	-0.870
791.64	1.754
791.95	-8.929
792.25	3.810
792.56	6.250
792.87	-1.042
793.17	15.179
793.48	-6.250
793.79	-4.819
794.09	-0.917
794.40	-3.670
794.70	2.721
795.01	-1.948
795.32	2.055
795.62	1.408
795.93	2.273
796.23	3.279
796.54	-2.679
796.85	4.255
797.15	-11.957
797.46	-8.219
797.76	-5.000
798.07	3.261
798.37	-3.093
798.68	-3.896
798.99	-4.598
799.29	6.742
799.60	9.574
799.90	-9.639
800.21	-12.308
800.51	-8.955
800.82	-2.941
801.12	-10.959
801.43	-23.529
801.73	-11.864
802.04	-13.636
802.34	-26.667
802.65	-11.864
802.95	10.448
803.26	-11.864
803.56	-12.329
803.87	-8.571
804.17	9.589
804.48	-10.526
804.78	-1.389
805.09	-13.793
805.39	-2.703
805.70	-4.225
806.00	4.878
806.30	-3.614
806.61	-6.849
806.91	10.577
807.22	-6.667
807.52	-5.747
807.83	-5.556
808.13	3.614
808.43	-4.494
808.74	3.750
809.04	-14.706
809.35	4.000
809.65	-5.714
809.95	5.479
810.26	0.000
810.56	5.172
810.86	8.824
811.17	10.526
811.47	-1.639
811.77	-28.889
812.08	-1.695
812.38	8.333
812.69	6.897
812.99	-5.660
813.29	10.256
813.59	12.000
813.90	3.509
814.20	-5.455
814.50	11.268
814.81	7.692
815.11	6.557
815.41	1.493
815.72	0.000
816.02	10.714
816.32	-6.667
816.62	-6.818
816.93	-33.333
817.23	-11.111
817.53	-17.021
817.84	4.762
818.14	-5.882
818.44	2.041
818.74	-20.000
819.04	-30.769
819.35	-37.143
819.65	-53.846
819.95	15.094
820.25	4.444
820.56	4.762
820.86	-25.000
821.16	-2.564
821.46	-9.302
821.76	-16.000
822.07	-7.143
822.37	-15.217
822.67	-14.894
822.97	-45.946
823.27	0.000
823.57	8.163
823.88	2.222
824.18	12.500
824.48	-10.000
824.78	-16.000
825.08	0.000
825.38	2.222
825.69	-8.511
825.99	-8.333
826.29	-45.714
826.59	0.000
826.89	-23.256
827.19	-4.000
827.49	-5.882
827.79	8.333
828.09	-8.108
828.39	-3.333
828.70	-26.829
829.00	-4.651
829.30	-10.714
829.60	-2.941
829.90	-10.870
830.20	-11.429
830.50	0.000
830.80	-33.333
831.10	-11.538
831.40	-23.529
831.70	19.048
832.00	-16.129
832.30	-141.176
832.60	-37.500
832.90	-100.000
833.20	-47.368
833.50	-75.000
833.80	-52.632
834.10	-61.905
834.40	11.111
834.70	9.375
835.00	-45.714
835.30	11.765
835.60	-26.667
835.90	-16.000
836.20	-40.909
836.50	0.000
836.80	-27.273
837.10	-14.815
837.40	11.111
837.70	-75.000
838.00	-17.857
838.30	-47.826
838.60	3.448
838.90	-42.857
839.19	-26.087
839.49	-91.667
839.79	-47.826
840.09	-43.750
840.39	-40.000
840.69	6.452
840.99	-7.143
841.29	-80.000
841.59	-42.105
841.88	33.333
842.18	7.692
842.48	-40.000
842.78	-10.000
843.08	-6.667
843.38	3.226
843.68	-5.556
843.97	0.000
844.27	6.250
844.57	-15.789
844.87	-110.000
845.17	-53.333
845.47	14.286
845.76	-33.333
846.06	11.111
846.36	-23.529
846.66	-19.231
846.96	-40.000
847.25	-29.412
847.55	8.696
847.85	-10.000
848.15	-5.882
848.44	-27.273
848.74	-4.762
849.04	-8.333
849.34	-43.750
849.63	26.087
849.93	550.000
850.23	0.000
850.53	7.692
850.82	0.000
851.12	31.818
851.42	-27.273
851.71	7.692
852.01	-35.000
852.31	-15.385
852.61	42.105
852.90	41.667
853.20	-33.333
853.50	-100.000
853.79	-80.952
854.09	-68.182
854.39	8.333
854.68	9.677
854.98	-15.385
855.28	-16.667
855.57	-7.143
855.87	0.000
856.17	-36.364
856.46	40.741
856.76	-38.889
857.05	-34.783
857.35	-16.667
857.65	-23.077
857.94	-14.286
858.24	18.519
858.53	17.391
858.83	52.941
859.13	-58.824
859.42	-11.765
859.72	-7.143
860.01	-35.000
860.31	-77.778
860.60	-70.000
860.90	20.000
861.20	-16.667
861.49	-23.077
861.79	13.333
862.08	-61.538
862.38	12.500
862.67	-11.765
862.97	62.500
863.26	-155.556
863.56	-20.000
863.85	-54.545
864.15	11.111
864.44	-100.000
864.74	-35.714
865.03	-18.750
865.33	-150.000
865.62	-6.452
865.92	-9.091
866.21	30.435
866.51	78.571
866.80	-200.000
867.10	41.667
867.39	-8.333
867.69	1100.000
867.98	-71.429
868.27	58.824
868.57	-1200.000
868.86	-90.000
869.16	-14.286
869.45	4.167
869.75	-9.091
870.04	-157.143
870.33	0.000
870.63	-185.714
870.92	-200.000
871.22	-125.000
871.51	-54.545
871.80	-233.333
872.10	-350.000
>>>>>End Processed Spectral Data<<<<<
