SpectraSuite Data File
++++++++++++++++++++++++++++++++++++
Date: Thu May 14 16:37:55 PDT 2015
User: schluterlab
Dark Spectrum Present: Yes
Reference Spectrum Present: Yes
Number of Sampled Component Spectra: 1
Spectrometers: USB2E3373
Integration Time (usec): 3000 (USB2E3373)
Spectra Averaged: 3 (USB2E3373)
Boxcar Smoothing: 0 (USB2E3373)
Correct for Electrical Dark: No (USB2E3373)
Strobe/Lamp Enabled: No (USB2E3373)
Correct for Detector Non-linearity: No (USB2E3373)
Correct for Stray Light: No (USB2E3373)
Number of Pixels in Processed Spectrum: 2048
>>>>>Begin Processed Spectral Data<<<<<
178.53	0.000
178.91	-14.286
179.29	-2000.000
179.67	-1500.000
180.04	164.286
180.42	30.000
180.80	100.000
181.18	0.000
181.56	400.000
181.94	150.000
182.31	-100.000
182.69	33.333
183.07	-300.000
183.45	75.000
183.83	0.000
184.20	-200.000
184.58	800.000
184.96	-150.000
185.34	-22.222
185.72	100.000
186.09	66.667
186.47	600.000
186.85	200.000
187.23	11.111
187.61	-800.000
187.98	200.000
188.36	175.000
188.74	-150.000
189.12	100.000
189.49	25.000
189.87	-75.000
190.25	77.778
190.63	80.000
191.00	-55.556
191.38	0.000
191.76	-150.000
192.14	-33.333
192.51	-50.000
192.89	50.000
193.27	0.000
193.65	57.143
194.02	-1000.000
194.40	-28.571
194.78	-28.571
195.15	0.000
195.53	-63.636
195.91	0.000
196.29	275.000
196.66	53.846
197.04	-900.000
197.42	-157.143
197.79	-500.000
198.17	37.500
198.55	-85.714
198.92	11.111
199.30	-125.000
199.68	-9.091
200.05	0.000
200.43	-900.000
200.81	214.286
201.18	0.000
201.56	211.111
201.94	0.000
202.31	266.667
202.69	11.111
203.07	500.000
203.44	33.333
203.82	-150.000
204.19	33.333
204.57	-150.000
204.95	-37.500
205.32	-900.000
205.70	300.000
206.08	-183.333
206.45	16.667
206.83	240.000
207.20	0.000
207.58	-220.000
207.96	-250.000
208.33	16.667
208.71	58.333
209.08	83.333
209.46	0.000
209.84	116.667
210.21	150.000
210.59	100.000
210.96	266.667
211.34	-25.000
211.71	-62.500
212.09	0.000
212.46	0.000
212.84	1100.000
213.22	-240.000
213.59	-25.000
213.97	-20.000
214.34	-133.333
214.72	233.333
215.09	-225.000
215.47	0.000
215.84	214.286
216.22	550.000
216.59	-20.000
216.97	-40.000
217.34	-375.000
217.72	37.500
218.09	-200.000
218.47	-150.000
218.84	0.000
219.22	140.000
219.59	0.000
219.97	5.000
220.34	600.000
220.72	33.333
221.09	76.923
221.47	266.667
221.84	-10.000
222.22	-114.286
222.59	0.000
222.97	-100.000
223.34	-200.000
223.72	-1200.000
224.09	0.000
224.46	-375.000
224.84	-20.000
225.21	-85.714
225.59	-250.000
225.96	75.000
226.34	-11.538
226.71	83.333
227.08	-250.000
227.46	-20.000
227.83	-150.000
228.21	36.842
228.58	175.000
228.95	50.000
229.33	33.333
229.70	-30.000
230.08	36.842
230.45	60.000
230.82	-66.667
231.20	14.286
231.57	16.667
231.95	36.364
232.32	-18.182
232.69	35.000
233.07	-125.000
233.44	-29.412
233.81	-10.000
234.19	66.667
234.56	-4.545
234.93	58.621
235.31	36.842
235.68	-11.111
236.05	-20.000
236.43	65.385
236.80	44.000
237.17	0.000
237.55	-6.061
237.92	-50.000
238.29	-6.452
238.67	-6.818
239.04	-2.778
239.41	-16.667
239.79	-8.696
240.16	5.556
240.53	-6.522
240.91	-27.451
241.28	16.393
241.65	28.358
242.02	20.270
242.40	10.769
242.77	18.667
243.14	1.220
243.51	-2.632
243.89	1.282
244.26	7.921
244.63	19.608
245.00	4.673
245.38	7.895
245.75	13.274
246.12	14.286
246.49	8.527
246.87	17.143
247.24	15.232
247.61	13.158
247.98	15.436
248.36	16.667
248.73	7.975
249.10	14.754
249.47	16.418
249.84	21.990
250.22	15.544
250.59	11.667
250.96	15.455
251.33	11.224
251.70	13.675
252.08	17.917
252.45	13.115
252.82	14.463
253.19	15.234
253.56	12.167
253.94	11.154
254.31	16.288
254.68	16.084
255.05	16.287
255.42	16.667
255.79	13.916
256.16	12.583
256.54	11.921
256.91	17.049
257.28	17.705
257.65	14.968
258.02	13.274
258.39	15.670
258.76	18.654
259.14	19.253
259.51	15.274
259.88	15.014
260.25	14.444
260.62	15.890
260.99	18.579
261.36	11.796
261.73	15.385
262.10	16.209
262.47	17.158
262.85	20.202
263.22	14.286
263.59	11.316
263.96	18.670
264.33	11.765
264.70	16.296
265.07	16.229
265.44	16.780
265.81	15.509
266.18	19.048
266.55	18.080
266.92	14.351
267.29	17.287
267.66	13.969
268.03	12.882
268.40	14.823
268.77	14.579
269.14	15.419
269.51	15.351
269.88	15.369
270.25	17.103
270.62	17.511
270.99	16.162
271.36	15.248
271.73	14.145
272.10	16.433
272.47	15.431
272.84	18.675
273.21	16.232
273.58	17.339
273.95	15.000
274.32	14.259
274.69	15.667
275.06	15.201
275.43	14.603
275.80	16.755
276.17	16.111
276.54	15.672
276.91	15.564
277.28	15.732
277.65	15.799
278.02	14.890
278.39	15.036
278.76	14.060
279.13	15.603
279.50	16.495
279.87	14.669
280.23	15.141
280.60	14.915
280.97	14.145
281.34	15.959
281.71	16.582
282.08	17.276
282.45	14.239
282.82	16.327
283.19	14.055
283.56	13.115
283.92	16.366
284.29	16.114
284.66	16.585
285.03	14.263
285.40	15.147
285.77	14.241
286.14	15.573
286.51	14.612
286.87	14.218
287.24	14.307
287.61	14.649
287.98	14.955
288.35	13.609
288.72	14.349
289.08	13.763
289.45	14.053
289.82	14.006
290.19	14.080
290.56	14.085
290.93	12.981
291.29	13.774
291.66	13.774
292.03	12.890
292.40	15.510
292.77	14.151
293.13	12.855
293.50	12.878
293.87	12.752
294.24	12.667
294.60	12.010
294.97	11.141
295.34	13.828
295.71	13.619
296.08	11.757
296.44	12.377
296.81	12.180
297.18	11.831
297.55	12.500
297.91	11.981
298.28	10.190
298.65	13.555
299.02	12.161
299.38	12.243
299.75	11.565
300.12	11.574
300.48	11.060
300.85	10.911
301.22	11.186
301.59	11.073
301.95	11.299
302.32	11.778
302.69	11.720
303.05	12.949
303.42	10.865
303.79	12.083
304.15	10.726
304.52	10.465
304.89	10.681
305.25	12.733
305.62	11.808
305.99	10.515
306.35	10.685
306.72	11.686
307.09	10.355
307.45	11.284
307.82	10.595
308.19	11.403
308.55	11.283
308.92	11.003
309.29	10.824
309.65	10.429
310.02	11.881
310.38	10.138
310.75	10.680
311.12	10.834
311.48	10.166
311.85	11.016
312.22	10.531
312.58	9.953
312.95	10.516
313.31	11.292
313.68	11.355
314.05	11.292
314.41	11.384
314.78	10.990
315.14	12.069
315.51	11.727
315.87	11.071
316.24	12.329
316.61	11.101
316.97	10.769
317.34	10.053
317.70	10.393
318.07	11.287
318.43	10.969
318.80	11.120
319.16	9.614
319.53	10.797
319.89	10.517
320.26	11.477
320.62	10.727
320.99	10.619
321.35	10.536
321.72	11.907
322.08	10.370
322.45	10.027
322.81	11.552
323.18	10.531
323.54	10.603
323.91	11.121
324.27	10.241
324.64	11.923
325.00	10.365
325.37	10.811
325.73	11.074
326.10	10.949
326.46	11.319
326.83	11.769
327.19	11.339
327.56	11.304
327.92	11.015
328.29	10.887
328.65	10.553
329.01	11.083
329.38	10.615
329.74	11.901
330.11	11.301
330.47	11.289
330.84	10.767
331.20	11.167
331.56	11.958
331.93	11.213
332.29	10.254
332.66	12.375
333.02	10.804
333.38	10.151
333.75	10.269
334.11	11.510
334.48	10.644
334.84	11.470
335.20	10.411
335.57	11.551
335.93	10.165
336.29	10.566
336.66	10.261
337.02	10.284
337.38	11.480
337.75	10.909
338.11	10.429
338.47	10.174
338.84	9.814
339.20	10.025
339.56	11.203
339.93	11.576
340.29	9.742
340.65	10.219
341.02	10.774
341.38	11.560
341.74	11.138
342.11	11.263
342.47	8.737
342.83	10.386
343.20	11.611
343.56	10.024
343.92	10.248
344.28	10.547
344.65	10.233
345.01	10.218
345.37	10.964
345.73	9.041
346.10	10.530
346.46	9.810
346.82	11.311
347.19	10.237
347.55	10.395
347.91	10.550
348.27	10.015
348.63	10.053
349.00	9.471
349.36	10.483
349.72	10.119
350.08	10.030
350.45	9.582
350.81	9.879
351.17	9.925
351.53	10.614
351.89	10.934
352.26	10.000
352.62	10.299
352.98	9.771
353.34	10.007
353.70	10.015
354.07	10.507
354.43	9.871
354.79	10.396
355.15	9.860
355.51	9.722
355.87	10.172
356.24	9.810
356.60	9.091
356.96	10.082
357.32	9.145
357.68	9.517
358.04	8.907
358.40	9.776
358.77	10.819
359.13	9.749
359.49	8.699
359.85	9.862
360.21	9.684
360.57	9.045
360.93	10.367
361.29	9.263
361.66	9.776
362.02	10.438
362.38	10.260
362.74	8.799
363.10	9.972
363.46	9.072
363.82	8.878
364.18	9.711
364.54	9.267
364.90	9.967
365.26	8.345
365.62	10.400
365.98	10.143
366.35	10.000
366.71	9.320
367.07	9.540
367.43	9.258
367.79	10.484
368.15	10.100
368.51	9.202
368.87	9.340
369.23	9.467
369.59	10.109
369.95	10.074
370.31	9.926
370.67	9.078
371.03	10.111
371.39	8.932
371.75	8.941
372.11	9.688
372.47	9.208
372.83	10.275
373.19	10.207
373.55	9.621
373.91	8.316
374.27	9.573
374.63	9.066
374.99	9.218
375.35	9.805
375.71	8.516
376.07	8.844
376.42	8.816
376.78	10.255
377.14	9.732
377.50	8.539
377.86	10.099
378.22	9.521
378.58	9.156
378.94	9.214
379.30	8.905
379.66	9.406
380.02	8.252
380.38	8.929
380.74	9.634
381.09	9.698
381.45	9.261
381.81	9.368
382.17	9.501
382.53	8.947
382.89	9.424
383.25	9.555
383.61	9.144
383.97	8.775
384.32	9.689
384.68	8.875
385.04	9.601
385.40	9.075
385.76	9.261
386.12	9.455
386.48	8.471
386.83	9.178
387.19	9.212
387.55	8.099
387.91	8.562
388.27	9.642
388.62	9.278
388.98	9.475
389.34	9.311
389.70	9.006
390.06	9.236
390.42	9.157
390.77	9.272
391.13	8.803
391.49	9.783
391.85	9.394
392.20	9.015
392.56	10.396
392.92	8.942
393.28	8.955
393.64	8.436
393.99	9.297
394.35	9.054
394.71	9.940
395.07	8.802
395.42	8.681
395.78	8.958
396.14	8.437
396.50	8.373
396.85	8.587
397.21	9.290
397.57	9.187
397.92	9.049
398.28	8.419
398.64	8.524
399.00	8.325
399.35	8.901
399.71	8.533
400.07	9.545
400.42	9.022
400.78	7.812
401.14	8.367
401.49	9.096
401.85	9.186
402.21	10.197
402.57	8.979
402.92	9.338
403.28	9.192
403.63	8.353
403.99	9.026
404.35	9.153
404.70	8.782
405.06	8.478
405.42	8.431
405.77	8.833
406.13	9.616
406.49	9.009
406.84	9.197
407.20	9.447
407.55	8.722
407.91	8.485
408.27	8.775
408.62	8.842
408.98	9.054
409.34	8.152
409.69	9.333
410.05	8.617
410.40	8.991
410.76	8.861
411.11	8.591
411.47	8.170
411.83	9.465
412.18	9.759
412.54	8.714
412.89	9.371
413.25	8.804
413.60	8.558
413.96	8.683
414.31	9.235
414.67	8.646
415.03	9.231
415.38	8.197
415.74	8.613
416.09	9.068
416.45	8.892
416.80	8.690
417.16	8.685
417.51	8.406
417.87	8.706
418.22	8.862
418.58	8.612
418.93	8.906
419.29	8.878
419.64	9.184
420.00	8.546
420.35	8.703
420.71	9.075
421.06	8.511
421.42	8.142
421.77	9.316
422.12	9.672
422.48	9.370
422.83	8.598
423.19	8.700
423.54	8.352
423.90	8.614
424.25	8.800
424.61	8.553
424.96	9.336
425.31	9.554
425.67	8.803
426.02	8.965
426.38	9.127
426.73	8.817
427.09	9.343
427.44	8.520
427.79	9.011
428.15	8.333
428.50	8.596
428.85	8.496
429.21	9.255
429.56	9.279
429.92	8.550
430.27	8.867
430.62	8.500
430.98	8.510
431.33	8.211
431.68	8.429
432.04	9.497
432.39	8.623
432.74	8.904
433.10	9.248
433.45	7.971
433.80	8.530
434.16	9.194
434.51	9.044
434.86	9.283
435.22	9.458
435.57	9.257
435.92	8.904
436.28	8.817
436.63	7.646
436.98	8.803
437.34	8.625
437.69	8.641
438.04	8.408
438.39	9.650
438.75	8.356
439.10	9.197
439.45	9.111
439.81	8.475
440.16	8.257
440.51	8.082
440.86	8.116
441.22	8.950
441.57	8.438
441.92	9.457
442.27	8.838
442.63	8.594
442.98	9.285
443.33	8.785
443.68	9.316
444.03	9.595
444.39	9.108
444.74	9.086
445.09	8.768
445.44	8.746
445.79	8.908
446.15	8.890
446.50	8.682
446.85	9.047
447.20	9.574
447.55	9.414
447.91	8.010
448.26	8.298
448.61	9.245
448.96	8.906
449.31	9.385
449.66	9.096
450.02	8.755
450.37	9.643
450.72	9.257
451.07	9.055
451.42	8.897
451.77	8.338
452.12	9.086
452.47	7.724
452.83	9.178
453.18	7.706
453.53	8.558
453.88	8.724
454.23	8.814
454.58	8.648
454.93	7.524
455.28	9.874
455.63	8.869
455.98	8.547
456.34	9.246
456.69	8.524
457.04	8.688
457.39	9.368
457.74	8.557
458.09	8.731
458.44	9.213
458.79	8.819
459.14	8.600
459.49	8.715
459.84	8.499
460.19	9.328
460.54	8.972
460.89	9.370
461.24	8.391
461.59	9.186
461.94	8.100
462.29	9.462
462.64	9.234
462.99	8.851
463.34	9.539
463.69	9.027
464.04	9.227
464.39	8.857
464.74	9.350
465.09	9.285
465.44	8.906
465.79	9.201
466.14	9.119
466.49	9.053
466.84	8.926
467.19	8.844
467.54	8.461
467.89	7.931
468.24	9.252
468.59	9.091
468.94	8.275
469.29	8.458
469.64	8.137
469.99	8.094
470.34	9.097
470.68	8.954
471.03	8.579
471.38	8.371
471.73	8.453
472.08	8.693
472.43	8.308
472.78	9.320
473.13	8.597
473.48	8.761
473.83	9.344
474.17	9.789
474.52	8.599
474.87	9.247
475.22	9.239
475.57	8.930
475.92	8.910
476.27	8.413
476.61	8.411
476.96	8.759
477.31	9.307
477.66	8.709
478.01	8.643
478.36	8.724
478.70	8.670
479.05	9.100
479.40	8.490
479.75	9.222
480.10	8.716
480.45	9.070
480.79	9.206
481.14	8.272
481.49	8.769
481.84	9.312
482.19	8.903
482.53	9.051
482.88	8.994
483.23	8.448
483.58	8.690
483.92	8.466
484.27	8.594
484.62	8.581
484.97	8.709
485.31	8.694
485.66	8.993
486.01	9.030
486.36	9.705
486.70	9.698
487.05	9.608
487.40	9.380
487.75	8.855
488.09	8.256
488.44	8.385
488.79	8.634
489.13	8.726
489.48	8.311
489.83	7.928
490.17	8.181
490.52	8.456
490.87	8.629
491.22	8.232
491.56	8.703
491.91	9.115
492.26	8.654
492.60	8.701
492.95	8.951
493.30	8.113
493.64	9.023
493.99	8.772
494.34	7.970
494.68	8.522
495.03	8.018
495.37	8.034
495.72	8.073
496.07	8.940
496.41	8.022
496.76	9.133
497.11	8.238
497.45	8.761
497.80	8.307
498.14	8.209
498.49	8.686
498.84	8.684
499.18	8.637
499.53	8.969
499.87	9.319
500.22	8.281
500.56	8.322
500.91	8.284
501.26	8.545
501.60	8.661
501.95	9.032
502.29	8.995
502.64	8.745
502.98	8.456
503.33	8.467
503.67	8.112
504.02	8.231
504.36	8.624
504.71	8.130
505.06	9.004
505.40	8.227
505.75	8.789
506.09	8.748
506.44	8.589
506.78	8.578
507.13	8.529
507.47	8.716
507.82	8.854
508.16	8.413
508.51	8.392
508.85	8.266
509.19	8.290
509.54	9.414
509.88	7.916
510.23	8.936
510.57	8.990
510.92	8.128
511.26	7.359
511.61	8.112
511.95	8.443
512.30	8.666
512.64	7.946
512.98	8.704
513.33	8.972
513.67	8.159
514.02	8.278
514.36	8.593
514.70	8.750
515.05	8.081
515.39	8.136
515.74	8.696
516.08	8.875
516.42	8.896
516.77	8.202
517.11	8.045
517.46	9.014
517.80	9.033
518.14	8.977
518.49	8.026
518.83	8.568
519.17	7.701
519.52	8.805
519.86	8.765
520.20	8.253
520.55	8.269
520.89	8.727
521.23	8.878
521.58	8.362
521.92	8.442
522.26	7.732
522.61	9.375
522.95	8.478
523.29	8.908
523.64	8.408
523.98	8.899
524.32	9.398
524.66	8.480
525.01	8.664
525.35	7.524
525.69	8.353
526.04	8.209
526.38	8.276
526.72	9.112
527.06	8.152
527.41	9.096
527.75	8.907
528.09	8.678
528.43	8.644
528.78	7.688
529.12	8.486
529.46	8.544
529.80	8.410
530.15	8.986
530.49	8.066
530.83	8.914
531.17	8.184
531.51	8.243
531.86	8.774
532.20	9.146
532.54	8.498
532.88	8.182
533.22	8.839
533.57	9.175
533.91	8.979
534.25	8.988
534.59	9.195
534.93	8.149
535.27	8.282
535.62	8.926
535.96	8.600
536.30	8.578
536.64	9.009
536.98	8.610
537.32	8.951
537.66	8.609
538.01	8.399
538.35	8.952
538.69	7.813
539.03	9.197
539.37	9.128
539.71	9.249
540.05	8.573
540.39	8.252
540.73	8.500
541.07	9.319
541.42	9.037
541.76	8.719
542.10	8.866
542.44	8.222
542.78	9.124
543.12	9.297
543.46	8.242
543.80	8.633
544.14	9.156
544.48	9.634
544.82	8.977
545.16	9.422
545.50	8.628
545.84	9.063
546.18	9.568
546.52	8.344
546.86	8.491
547.20	8.842
547.54	8.801
547.88	8.620
548.22	8.772
548.56	8.426
548.90	8.119
549.24	9.544
549.58	8.076
549.92	8.418
550.26	8.608
550.60	8.615
550.94	8.862
551.28	8.845
551.62	8.423
551.96	9.061
552.30	8.668
552.64	9.459
552.98	8.546
553.32	9.582
553.66	9.325
554.00	8.134
554.34	8.687
554.68	8.909
555.02	8.476
555.36	9.862
555.69	8.392
556.03	8.638
556.37	9.387
556.71	8.878
557.05	8.882
557.39	8.096
557.73	8.719
558.07	8.146
558.41	7.907
558.75	7.505
559.08	8.072
559.42	9.122
559.76	10.041
560.10	9.109
560.44	8.509
560.78	9.750
561.12	8.682
561.45	9.915
561.79	8.669
562.13	9.550
562.47	8.816
562.81	8.354
563.15	8.333
563.48	9.198
563.82	8.706
564.16	8.298
564.50	8.760
564.84	9.381
565.17	8.882
565.51	9.033
565.85	8.729
566.19	8.641
566.52	8.777
566.86	9.111
567.20	8.918
567.54	8.816
567.88	8.970
568.21	9.042
568.55	8.969
568.89	9.124
569.23	9.759
569.56	9.535
569.90	9.444
570.24	9.376
570.57	9.750
570.91	9.645
571.25	9.893
571.59	10.186
571.92	9.355
572.26	9.873
572.60	9.610
572.93	9.741
573.27	9.160
573.61	9.635
573.95	9.614
574.28	10.044
574.62	9.709
574.96	9.771
575.29	9.540
575.63	9.818
575.97	9.868
576.30	9.499
576.64	9.568
576.98	9.362
577.31	10.009
577.65	10.194
577.98	9.733
578.32	9.800
578.66	9.687
578.99	9.564
579.33	9.649
579.67	9.248
580.00	9.553
580.34	9.533
580.67	9.510
581.01	9.650
581.35	9.760
581.68	9.796
582.02	10.065
582.35	10.062
582.69	9.784
583.02	9.849
583.36	9.756
583.70	9.384
584.03	9.287
584.37	9.627
584.70	9.218
585.04	9.347
585.37	9.876
585.71	9.795
586.04	9.687
586.38	9.865
586.72	9.200
587.05	9.517
587.39	9.499
587.72	9.833
588.06	9.671
588.39	9.908
588.73	9.418
589.06	9.932
589.40	9.342
589.73	9.704
590.07	9.615
590.40	10.007
590.73	9.191
591.07	9.531
591.40	8.942
591.74	9.261
592.07	9.907
592.41	9.267
592.74	9.620
593.08	10.159
593.41	10.411
593.75	10.086
594.08	9.846
594.41	9.551
594.75	9.266
595.08	9.219
595.42	9.838
595.75	9.558
596.09	9.793
596.42	9.280
596.75	9.224
597.09	9.818
597.42	9.615
597.75	9.878
598.09	9.405
598.42	9.851
598.76	9.324
599.09	9.434
599.42	9.487
599.76	9.541
600.09	9.776
600.42	9.643
600.76	9.808
601.09	9.658
601.42	9.337
601.76	9.483
602.09	9.685
602.42	8.870
602.76	9.742
603.09	9.435
603.42	10.079
603.76	9.338
604.09	9.617
604.42	9.394
604.76	9.589
605.09	9.134
605.42	9.769
605.75	9.500
606.09	9.220
606.42	9.413
606.75	9.258
607.09	9.409
607.42	9.441
607.75	9.457
608.08	9.669
608.42	9.230
608.75	9.536
609.08	9.126
609.41	9.396
609.75	8.929
610.08	9.807
610.41	9.813
610.74	9.538
611.07	9.591
611.41	9.776
611.74	9.931
612.07	9.070
612.40	8.603
612.73	9.242
613.07	9.389
613.40	9.432
613.73	9.003
614.06	9.176
614.39	9.135
614.72	8.782
615.06	8.903
615.39	9.715
615.72	9.147
616.05	9.131
616.38	9.738
616.71	8.986
617.05	9.105
617.38	9.310
617.71	9.719
618.04	9.822
618.37	8.852
618.70	8.710
619.03	8.303
619.36	8.446
619.69	8.584
620.03	8.286
620.36	8.405
620.69	9.130
621.02	9.383
621.35	8.418
621.68	8.966
622.01	8.826
622.34	8.229
622.67	8.797
623.00	8.435
623.33	8.494
623.66	9.468
623.99	8.427
624.32	10.526
624.65	8.687
624.99	9.428
625.32	10.124
625.65	9.575
625.98	8.407
626.31	7.938
626.64	9.084
626.97	8.552
627.30	7.062
627.63	8.702
627.96	10.060
628.29	8.794
628.62	7.976
628.95	8.238
629.28	7.477
629.61	8.165
629.94	7.866
630.26	7.203
630.59	8.117
630.92	8.658
631.25	8.945
631.58	7.910
631.91	7.966
632.24	7.589
632.57	6.072
632.90	7.121
633.23	7.959
633.56	7.041
633.89	7.748
634.22	8.212
634.55	7.516
634.88	6.494
635.20	8.611
635.53	8.023
635.86	8.776
636.19	9.014
636.52	7.278
636.85	7.252
637.18	7.484
637.51	7.849
637.83	8.306
638.16	7.719
638.49	7.981
638.82	7.892
639.15	6.873
639.48	9.700
639.81	7.852
640.13	8.245
640.46	7.273
640.79	6.373
641.12	7.453
641.45	8.030
641.77	8.729
642.10	8.005
642.43	9.707
642.76	8.537
643.09	6.986
643.41	6.583
643.74	8.414
644.07	8.690
644.40	7.638
644.73	6.967
645.05	8.223
645.38	7.914
645.71	6.598
646.04	8.752
646.36	7.153
646.69	7.055
647.02	8.257
647.35	8.855
647.67	8.535
648.00	7.325
648.33	8.108
648.66	8.702
648.98	7.483
649.31	8.254
649.64	8.632
649.96	8.886
650.29	6.537
650.62	8.062
650.94	8.258
651.27	5.838
651.60	7.749
651.92	8.511
652.25	7.236
652.58	9.491
652.90	6.395
653.23	10.563
653.56	7.133
653.88	9.831
654.21	7.606
654.54	7.081
654.86	8.357
655.19	9.410
655.52	9.737
655.84	10.976
656.17	13.937
656.49	19.336
656.82	20.752
657.15	14.972
657.47	10.712
657.80	7.540
658.13	5.530
658.45	7.088
658.78	8.459
659.10	7.518
659.43	7.211
659.75	7.580
660.08	7.283
660.41	6.948
660.73	5.587
661.06	5.727
661.38	5.901
661.71	6.034
662.03	5.467
662.36	9.660
662.68	6.567
663.01	7.611
663.33	8.129
663.66	6.777
663.98	5.962
664.31	6.567
664.63	4.624
664.96	6.534
665.28	5.445
665.61	10.490
665.93	6.964
666.26	8.961
666.58	6.089
666.91	9.720
667.23	9.714
667.56	6.706
667.88	8.000
668.21	3.320
668.53	5.212
668.86	8.251
669.18	5.295
669.50	6.163
669.83	6.400
670.15	7.283
670.48	5.952
670.80	6.310
671.13	4.537
671.45	5.709
671.77	6.780
672.10	7.667
672.42	5.987
672.75	6.452
673.07	8.209
673.39	7.242
673.72	7.886
674.04	8.103
674.37	7.871
674.69	7.584
675.01	5.714
675.34	4.962
675.66	6.929
675.98	7.463
676.31	7.031
676.63	7.034
676.95	7.088
677.28	6.855
677.60	5.906
677.92	7.294
678.25	7.861
678.57	8.719
678.89	9.556
679.22	5.052
679.54	8.034
679.86	8.305
680.18	7.794
680.51	8.333
680.83	9.820
681.15	6.724
681.48	7.772
681.80	9.154
682.12	5.594
682.44	8.514
682.77	8.688
683.09	7.955
683.41	7.171
683.73	6.452
684.06	7.565
684.38	6.798
684.70	8.797
685.02	8.778
685.34	8.486
685.67	6.940
685.99	7.055
686.31	7.413
686.63	7.899
686.96	7.886
687.28	7.166
687.60	6.902
687.92	5.145
688.24	8.514
688.56	7.931
688.89	7.623
689.21	7.241
689.53	4.118
689.85	5.523
690.17	5.556
690.49	6.972
690.82	8.119
691.14	6.275
691.46	8.987
691.78	9.392
692.10	7.890
692.42	6.429
692.74	7.260
693.06	5.185
693.39	7.590
693.71	5.827
694.03	9.294
694.35	8.000
694.67	8.419
694.99	9.149
695.31	5.740
695.63	8.009
695.95	8.903
696.27	5.714
696.59	7.522
696.91	9.234
697.23	10.989
697.56	6.110
697.88	6.629
698.20	7.910
698.52	11.174
698.84	8.732
699.16	7.755
699.48	7.531
699.80	8.085
700.12	6.550
700.44	5.991
700.76	8.076
701.08	9.443
701.40	5.181
701.72	9.453
702.04	5.882
702.36	3.927
702.68	7.090
703.00	6.112
703.32	7.635
703.64	8.313
703.96	6.205
704.28	5.651
704.60	10.380
704.91	7.143
705.23	7.397
705.55	3.343
705.87	10.909
706.19	6.442
706.51	3.012
706.83	7.493
707.15	6.614
707.47	5.607
707.79	6.114
708.11	5.085
708.43	5.591
708.74	4.688
709.06	5.568
709.38	7.512
709.70	11.414
710.02	6.977
710.34	7.181
710.66	5.028
710.98	4.918
711.29	4.396
711.61	4.237
711.93	4.843
712.25	8.919
712.57	7.375
712.89	5.000
713.20	5.325
713.52	9.538
713.84	9.749
714.16	6.842
714.48	8.763
714.80	9.091
715.11	4.987
715.43	8.223
715.75	7.895
716.07	6.906
716.39	9.563
716.70	4.217
717.02	6.557
717.34	6.620
717.66	5.705
717.97	5.137
718.29	2.405
718.61	4.605
718.93	9.385
719.24	6.832
719.56	7.975
719.88	9.009
720.20	7.419
720.51	5.590
720.83	3.438
721.15	6.579
721.46	1.027
721.78	3.667
722.10	1.294
722.42	6.040
722.73	6.452
723.05	4.561
723.37	6.250
723.68	9.319
724.00	9.025
724.32	4.930
724.63	8.392
724.95	10.638
725.27	6.969
725.58	4.594
725.90	5.862
726.22	7.524
726.53	7.792
726.85	9.119
727.16	8.761
727.48	11.315
727.80	6.954
728.11	2.827
728.43	9.428
728.74	7.023
729.06	6.291
729.38	7.143
729.69	3.020
730.01	7.440
730.32	4.545
730.64	7.547
730.96	5.590
731.27	11.453
731.59	9.066
731.90	5.195
732.22	9.635
732.53	4.696
732.85	5.714
733.16	9.091
733.48	5.793
733.80	7.799
734.11	4.274
734.43	9.189
734.74	11.899
735.06	8.291
735.37	9.189
735.69	5.676
736.00	5.085
736.32	5.930
736.63	8.889
736.95	4.310
737.26	6.970
737.58	4.242
737.89	7.941
738.21	5.505
738.52	5.246
738.83	10.239
739.15	6.738
739.46	5.442
739.78	7.669
740.09	6.017
740.41	6.414
740.72	6.667
741.04	8.414
741.35	9.123
741.66	4.706
741.98	7.787
742.29	3.347
742.61	6.140
742.92	8.077
743.23	7.942
743.55	7.364
743.86	5.600
744.18	2.479
744.49	1.688
744.80	9.465
745.12	2.110
745.43	8.943
745.74	4.310
746.06	2.119
746.37	11.814
746.68	9.350
747.00	6.667
747.31	3.863
747.62	7.692
747.94	2.024
748.25	3.614
748.56	6.531
748.88	5.128
749.19	12.069
749.50	3.896
749.82	8.032
750.13	10.676
750.44	5.667
750.75	7.077
751.07	8.308
751.38	6.940
751.69	7.029
752.01	2.913
752.32	6.209
752.63	6.122
752.94	7.266
753.26	4.461
753.57	1.481
753.88	2.247
754.19	9.325
754.51	7.717
754.82	11.576
755.13	9.180
755.44	5.802
755.75	7.237
756.07	11.045
756.38	6.289
756.69	8.735
757.00	6.094
757.31	8.197
757.63	4.604
757.94	10.094
758.25	9.707
758.56	9.368
758.87	7.955
759.18	3.467
759.50	10.198
759.81	7.843
760.12	8.356
760.43	9.896
760.74	9.113
761.05	7.750
761.36	5.301
761.67	6.853
761.99	10.000
762.30	5.793
762.61	4.950
762.92	6.343
763.23	7.116
763.54	6.475
763.85	5.842
764.16	10.774
764.47	7.394
764.78	9.265
765.10	5.572
765.41	10.256
765.72	7.143
766.03	8.192
766.34	6.897
766.65	4.878
766.96	4.382
767.27	5.991
767.58	0.995
767.89	8.173
768.20	8.920
768.51	7.407
768.82	6.426
769.13	5.303
769.44	3.077
769.75	9.747
770.06	11.154
770.37	9.843
770.68	3.404
770.99	4.049
771.30	9.259
771.61	9.125
771.92	11.111
772.23	12.955
772.54	3.704
772.85	9.677
773.16	12.857
773.47	7.407
773.78	0.000
774.09	2.841
774.39	13.500
774.70	11.475
775.01	4.268
775.32	8.824
775.63	6.748
775.94	-3.822
776.25	5.806
776.56	3.846
776.87	9.524
777.18	4.138
777.48	3.497
777.79	6.757
778.10	-5.147
778.41	2.083
778.72	7.586
779.03	9.877
779.34	6.667
779.65	9.845
779.95	10.556
780.26	2.841
780.57	4.516
780.88	1.449
781.19	5.806
781.50	7.647
781.80	8.065
782.11	5.291
782.42	5.556
782.73	5.389
783.04	7.263
783.34	0.000
783.65	2.614
783.96	8.696
784.27	9.524
784.57	6.623
784.88	-1.429
785.19	3.937
785.50	3.150
785.81	4.511
786.11	6.154
786.42	0.719
786.73	8.633
787.04	11.278
787.34	1.639
787.65	-3.200
787.96	7.463
788.26	17.483
788.57	7.692
788.88	9.868
789.19	13.725
789.49	7.534
789.80	7.801
790.11	11.024
790.41	7.813
790.72	0.000
791.03	3.883
791.33	0.000
791.64	6.140
791.95	2.679
792.25	4.762
792.56	0.000
792.87	2.083
793.17	11.607
793.48	3.125
793.79	-12.048
794.09	0.917
794.40	5.505
794.70	10.204
795.01	9.091
795.32	0.000
795.62	4.930
795.93	3.030
796.23	8.197
796.54	7.143
796.85	2.128
797.15	-6.522
797.46	-5.479
797.76	3.750
798.07	3.261
798.37	-3.093
798.68	9.091
798.99	12.644
799.29	10.112
799.60	8.511
799.90	6.024
800.21	-4.615
800.51	-11.940
800.82	2.941
801.12	1.370
801.43	-16.176
801.73	-8.475
802.04	10.606
802.34	-11.667
802.65	-13.559
802.95	5.970
803.26	-11.864
803.56	-8.219
803.87	7.143
804.17	-2.740
804.48	-17.544
804.78	18.056
805.09	-8.621
805.39	12.162
805.70	-14.085
806.00	10.976
806.30	-1.205
806.61	-12.329
806.91	6.731
807.22	1.111
807.52	-1.149
807.83	15.278
808.13	10.843
808.43	5.618
808.74	5.000
809.04	-5.882
809.35	2.667
809.65	0.000
809.95	-9.589
810.26	-17.544
810.56	-12.069
810.86	11.765
811.17	3.509
811.47	-3.279
811.77	-8.889
812.08	3.390
812.38	16.667
812.69	12.069
812.99	-11.321
813.29	-28.205
813.59	18.000
813.90	8.772
814.20	0.000
814.50	-1.408
814.81	25.641
815.11	1.639
815.41	4.478
815.72	15.517
816.02	14.286
816.32	6.667
816.62	-18.182
816.93	-15.556
817.23	9.259
817.53	-14.894
817.84	14.286
818.14	-26.471
818.44	10.204
818.74	-24.444
819.04	-10.256
819.35	-42.857
819.65	-19.231
819.95	15.094
820.25	20.000
820.56	-2.381
820.86	-3.125
821.16	-7.692
821.46	-13.953
821.76	-12.000
822.07	16.071
822.37	-8.696
822.67	-8.511
822.97	-29.730
823.27	-2.500
823.57	8.163
823.88	17.778
824.18	-10.000
824.48	6.667
824.78	8.000
825.08	-15.152
825.38	2.222
825.69	4.255
825.99	-2.778
826.29	-37.143
826.59	-12.821
826.89	6.977
827.19	10.000
827.49	-14.706
827.79	4.167
828.09	-13.514
828.39	-23.333
828.70	0.000
829.00	-2.326
829.30	-39.286
829.60	-11.765
829.90	-2.174
830.20	-17.143
830.50	-37.931
830.80	-11.111
831.10	-23.077
831.40	20.588
831.70	0.000
832.00	9.677
832.30	-135.294
832.60	-54.167
832.90	-76.923
833.20	0.000
833.50	-35.000
833.80	-47.368
834.10	-71.429
834.40	-16.667
834.70	12.500
835.00	-31.429
835.30	-26.471
835.60	6.667
835.90	-32.000
836.20	-40.909
836.50	12.000
836.80	-33.333
837.10	-3.704
837.40	-3.704
837.70	-106.250
838.00	32.143
838.30	-26.087
838.60	-3.448
838.90	14.286
839.19	-26.087
839.49	-150.000
839.79	-13.043
840.09	-43.750
840.39	-25.000
840.69	3.226
840.99	-25.000
841.29	-13.333
841.59	-68.421
841.88	7.692
842.18	0.000
842.48	-80.000
842.78	0.000
843.08	23.333
843.38	22.581
843.68	-50.000
843.97	5.882
844.27	-50.000
844.57	0.000
844.87	-110.000
845.17	-6.667
845.47	-23.810
845.76	-14.286
846.06	-11.111
846.36	-82.353
846.66	-15.385
846.96	-20.000
847.25	17.647
847.55	4.348
847.85	0.000
848.15	29.412
848.44	72.727
848.74	42.857
849.04	4.167
849.34	-12.500
849.63	-4.348
849.93	850.000
850.23	-26.667
850.53	7.692
850.82	-9.091
851.12	54.545
851.42	-90.909
851.71	38.462
852.01	-70.000
852.31	-53.846
852.61	-5.263
852.90	-8.333
853.20	27.778
853.50	-122.222
853.79	-95.238
854.09	-54.545
854.39	-91.667
854.68	32.258
854.98	-30.769
855.28	-16.667
855.57	0.000
855.87	44.000
856.17	-45.455
856.46	7.407
856.76	-11.111
857.05	8.696
857.35	12.500
857.65	-76.923
857.94	19.048
858.24	-3.704
858.53	8.696
858.83	0.000
859.13	-29.412
859.42	11.765
859.72	0.000
860.01	-40.000
860.31	-11.111
860.60	10.000
860.90	6.667
861.20	-66.667
861.49	-7.692
861.79	16.667
862.08	-100.000
862.38	12.500
862.67	29.412
862.97	-56.250
863.26	-55.556
863.56	-70.000
863.85	-127.273
864.15	11.111
864.44	-200.000
864.74	-78.571
865.03	-43.750
865.33	-180.000
865.62	-45.161
865.92	4.545
866.21	-4.348
866.51	-64.286
866.80	-240.000
867.10	-25.000
867.39	-41.667
867.69	1100.000
867.98	-42.857
868.27	-47.059
868.57	-2000.000
868.86	-140.000
869.16	-4.762
869.45	-8.333
869.75	9.091
870.04	0.000
870.33	-58.333
870.63	-285.714
870.92	-25.000
871.22	-200.000
871.51	-54.545
871.80	-466.667
872.10	-450.000
>>>>>End Processed Spectral Data<<<<<
