SpectraSuite Data File
++++++++++++++++++++++++++++++++++++
Date: Thu May 14 16:24:50 PDT 2015
User: schluterlab
Dark Spectrum Present: Yes
Reference Spectrum Present: Yes
Number of Sampled Component Spectra: 1
Spectrometers: USB2E3373
Integration Time (usec): 3000 (USB2E3373)
Spectra Averaged: 3 (USB2E3373)
Boxcar Smoothing: 0 (USB2E3373)
Correct for Electrical Dark: No (USB2E3373)
Strobe/Lamp Enabled: No (USB2E3373)
Correct for Detector Non-linearity: No (USB2E3373)
Correct for Stray Light: No (USB2E3373)
Number of Pixels in Processed Spectrum: 2048
>>>>>Begin Processed Spectral Data<<<<<
178.53	0.000
178.91	71.429
179.29	-1400.000
179.67	-100.000
180.04	100.000
180.42	60.000
180.80	300.000
181.18	-600.000
181.56	-100.000
181.94	225.000
182.31	-50.000
182.69	266.667
183.07	-100.000
183.45	200.000
183.83	-50.000
184.20	-300.000
184.58	-200.000
184.96	-300.000
185.34	-111.111
185.72	-40.000
186.09	133.333
186.47	50.000
186.85	200.000
187.23	-22.222
187.61	-500.000
187.98	-40.000
188.36	150.000
188.74	-50.000
189.12	133.333
189.49	18.750
189.87	-75.000
190.25	22.222
190.63	60.000
191.00	-88.889
191.38	0.000
191.76	-50.000
192.14	-33.333
192.51	100.000
192.89	133.333
193.27	0.000
193.65	-14.286
194.02	-800.000
194.40	-71.429
194.78	42.857
195.15	0.000
195.53	-9.091
195.91	0.000
196.29	50.000
196.66	-84.615
197.04	-1700.000
197.42	-100.000
197.79	-350.000
198.17	-37.500
198.55	-142.857
198.92	44.444
199.30	-100.000
199.68	54.545
200.05	50.000
200.43	-400.000
200.81	142.857
201.18	0.000
201.56	155.556
201.94	0.000
202.31	433.333
202.69	-100.000
203.07	400.000
203.44	22.222
203.82	-75.000
204.19	-33.333
204.57	-233.333
204.95	-75.000
205.32	-1400.000
205.70	150.000
206.08	-16.667
206.45	100.000
206.83	160.000
207.20	50.000
207.58	-200.000
207.96	-133.333
208.33	250.000
208.71	25.000
209.08	100.000
209.46	0.000
209.84	250.000
210.21	350.000
210.59	400.000
210.96	-0.000
211.34	-225.000
211.71	-75.000
212.09	-900.000
212.46	0.000
212.84	500.000
213.22	-320.000
213.59	75.000
213.97	60.000
214.34	33.333
214.72	283.333
215.09	100.000
215.47	0.000
215.84	-85.714
216.22	400.000
216.59	-120.000
216.97	-20.000
217.34	50.000
217.72	-75.000
218.09	-125.000
218.47	75.000
218.84	0.000
219.22	160.000
219.59	5.882
219.97	-5.000
220.34	250.000
220.72	-55.556
221.09	-15.385
221.47	-166.667
221.84	50.000
222.22	-71.429
222.59	0.000
222.97	-62.500
223.34	-220.000
223.72	-300.000
224.09	-125.000
224.46	-450.000
224.84	60.000
225.21	-85.714
225.59	-325.000
225.96	150.000
226.34	7.692
226.71	-33.333
227.08	150.000
227.46	-13.333
227.83	50.000
228.21	105.263
228.58	25.000
228.95	500.000
229.33	25.000
229.70	-120.000
230.08	31.579
230.45	80.000
230.82	-66.667
231.20	35.714
231.57	-25.000
231.95	-9.091
232.32	0.000
232.69	-60.000
233.07	-100.000
233.44	-5.882
233.81	-190.000
234.19	88.889
234.56	68.182
234.93	31.034
235.31	-15.789
235.68	0.000
236.05	-70.000
236.43	30.769
236.80	52.000
237.17	-3.704
237.55	3.030
237.92	-130.000
238.29	-38.710
238.67	-6.818
239.04	13.889
239.41	-14.286
239.79	-21.739
240.16	0.000
240.53	4.348
240.91	-19.608
241.28	4.918
241.65	5.970
242.02	-2.703
242.40	-7.692
242.77	-6.667
243.14	20.732
243.51	-1.316
243.89	-5.128
244.26	11.881
244.63	5.882
245.00	6.542
245.38	0.000
245.75	0.000
246.12	5.556
246.49	7.752
246.87	2.143
247.24	3.311
247.61	8.553
247.98	7.383
248.36	8.642
248.73	2.454
249.10	1.639
249.47	10.448
249.84	10.995
250.22	6.736
250.59	5.000
250.96	13.636
251.33	1.020
251.70	6.838
252.08	8.333
252.45	11.475
252.82	4.959
253.19	5.078
253.56	5.323
253.94	5.000
254.31	7.576
254.68	9.091
255.05	8.795
255.42	4.082
255.79	4.854
256.16	2.649
256.54	3.642
256.91	7.541
257.28	3.279
257.65	5.732
258.02	4.425
258.39	4.274
258.76	8.257
259.14	8.333
259.51	6.628
259.88	5.099
260.25	4.444
260.62	8.219
260.99	8.197
261.36	9.383
261.73	3.183
262.10	5.220
262.47	4.290
262.85	10.101
263.22	3.636
263.59	4.474
263.96	7.673
264.33	5.371
264.70	5.432
265.07	9.785
265.44	9.524
265.81	7.176
266.18	5.442
266.55	5.804
266.92	3.872
267.29	7.221
267.66	5.543
268.03	7.424
268.40	6.889
268.77	3.872
269.14	2.863
269.51	5.702
269.88	6.352
270.25	5.835
270.62	6.962
270.99	7.273
271.36	9.109
271.73	6.483
272.10	6.413
272.47	6.413
272.84	5.020
273.21	6.212
273.58	5.040
273.95	5.385
274.32	4.183
274.69	5.416
275.06	5.495
275.43	5.915
275.80	7.584
276.17	3.704
276.54	3.172
276.91	5.188
277.28	6.329
277.65	6.104
278.02	6.801
278.39	5.072
278.76	3.339
279.13	3.723
279.50	6.529
279.87	6.261
280.23	2.113
280.60	6.441
280.97	5.592
281.34	4.414
281.71	8.799
282.08	3.987
282.45	4.092
282.82	5.651
283.19	4.039
283.56	3.770
283.92	7.207
284.29	6.951
284.66	6.240
285.03	3.045
285.40	5.255
285.77	3.870
286.14	6.870
286.51	4.718
286.87	6.477
287.24	7.530
287.61	5.979
287.98	6.042
288.35	6.657
288.72	7.396
289.08	8.931
289.45	6.065
289.82	7.229
290.19	8.333
290.56	8.310
290.93	7.418
291.29	8.540
291.66	7.300
292.03	6.920
292.40	8.707
292.77	6.604
293.13	9.066
293.50	7.227
293.87	8.591
294.24	7.867
294.60	9.355
294.97	6.174
295.34	7.939
295.71	8.071
296.08	9.173
296.44	9.069
296.81	8.770
297.18	9.215
297.55	8.491
297.91	7.711
298.28	9.242
298.65	10.107
299.02	9.563
299.38	8.924
299.75	9.229
300.12	9.028
300.48	9.562
300.85	9.336
301.22	11.409
301.59	9.703
301.95	10.847
302.32	11.333
302.69	9.091
303.05	10.446
303.42	9.756
303.79	11.042
304.15	10.831
304.52	10.254
304.89	12.147
305.25	10.766
305.62	10.136
305.99	12.371
306.35	11.290
306.72	12.099
307.09	12.487
307.45	12.008
307.82	11.806
308.19	12.109
308.55	12.247
308.92	12.171
309.29	13.506
309.65	12.378
310.02	12.376
310.38	11.319
310.75	13.981
311.12	13.615
311.48	13.587
311.85	13.485
312.22	13.567
312.58	13.991
312.95	13.958
313.31	15.266
313.68	14.286
314.05	16.260
314.41	14.936
314.78	16.258
315.14	15.154
315.51	15.697
315.87	16.202
316.24	16.347
316.61	16.696
316.97	16.018
317.34	16.843
317.70	17.467
318.07	16.843
318.43	17.857
318.80	18.227
319.16	17.082
319.53	16.538
319.89	16.915
320.26	18.861
320.62	17.110
320.99	18.283
321.35	18.762
321.72	20.744
322.08	19.206
322.45	21.048
322.81	18.682
323.18	20.619
323.54	19.741
323.91	20.819
324.27	20.568
324.64	21.243
325.00	22.056
325.37	22.523
325.73	21.488
326.10	23.682
326.46	22.883
326.83	24.980
327.19	23.307
327.56	24.743
327.92	23.761
328.29	23.952
328.65	24.204
329.01	24.450
329.38	25.021
329.74	25.000
330.11	26.199
330.47	25.105
330.84	24.978
331.20	24.833
331.56	25.823
331.93	25.356
332.29	26.356
332.66	27.159
333.02	25.293
333.38	25.923
333.75	24.832
334.11	27.440
334.48	26.650
334.84	26.593
335.20	26.868
335.57	26.644
335.93	26.612
336.29	25.624
336.66	25.820
337.02	26.756
337.38	27.806
337.75	25.868
338.11	28.595
338.47	26.468
338.84	26.142
339.20	26.453
339.56	26.030
339.93	26.929
340.29	26.329
340.65	27.494
341.02	26.736
341.38	28.537
341.74	27.441
342.11	26.870
342.47	27.244
342.83	27.778
343.20	28.536
343.56	27.506
343.92	28.343
344.28	27.344
344.65	28.372
345.01	27.613
345.37	28.538
345.73	26.968
346.10	29.095
346.46	27.611
346.82	28.390
347.19	28.113
347.55	29.363
347.91	28.083
348.27	28.149
348.63	28.789
349.00	28.784
349.36	29.145
349.72	28.571
350.08	28.678
350.45	28.593
350.81	29.713
351.17	29.699
351.53	29.265
351.89	29.916
352.26	30.522
352.62	30.746
352.98	29.389
353.34	28.454
353.70	29.969
354.07	29.881
354.43	30.068
354.79	31.114
355.15	30.464
355.51	31.506
355.87	31.414
356.24	30.494
356.60	30.303
356.96	31.208
357.32	31.227
357.68	31.259
358.04	30.913
358.40	31.194
358.77	32.456
359.13	32.201
359.49	30.781
359.85	31.980
360.21	32.568
360.57	31.874
360.93	32.722
361.29	32.211
361.66	32.947
362.02	34.168
362.38	33.169
362.74	33.729
363.10	34.388
363.46	33.726
363.82	33.878
364.18	34.412
364.54	34.440
364.90	34.247
365.26	34.552
365.62	34.133
365.98	35.330
366.35	35.302
366.71	33.605
367.07	35.453
367.43	36.113
367.79	35.899
368.15	35.920
368.51	36.401
368.87	36.185
369.23	36.867
369.59	37.158
369.95	36.308
370.31	37.137
370.67	37.483
371.03	36.704
371.39	36.266
371.75	37.552
372.11	37.873
372.47	37.982
372.83	37.696
373.19	36.891
373.55	37.940
373.91	37.628
374.27	38.810
374.63	38.836
374.99	39.125
375.35	39.026
375.71	39.484
376.07	39.509
376.42	38.854
376.78	39.279
377.14	39.364
377.50	40.101
377.86	40.333
378.22	39.581
378.58	40.309
378.94	38.967
379.30	41.066
379.66	40.682
380.02	42.354
380.38	40.956
380.74	40.169
381.09	41.115
381.45	41.080
381.81	41.628
382.17	42.874
382.53	41.404
382.89	41.704
383.25	41.618
383.61	41.782
383.97	41.519
384.32	42.584
384.68	42.227
385.04	42.510
385.40	43.665
385.76	43.376
386.12	42.190
386.48	42.882
386.83	43.683
387.19	42.468
387.55	42.371
387.91	43.493
388.27	43.072
388.62	43.643
388.98	41.568
389.34	42.664
389.70	43.870
390.06	42.570
390.42	43.193
390.77	43.227
391.13	43.192
391.49	43.841
391.85	43.636
392.20	43.060
392.56	43.887
392.92	44.547
393.28	44.776
393.64	43.073
393.99	43.870
394.35	45.152
394.71	43.473
395.07	43.234
395.42	44.375
395.78	45.887
396.14	45.276
396.50	43.527
396.85	43.888
397.21	43.846
397.57	44.700
397.92	44.215
398.28	44.378
398.64	43.364
399.00	43.822
399.35	44.817
399.71	44.022
400.07	44.076
400.42	43.539
400.78	44.387
401.14	43.426
401.49	44.514
401.85	44.186
402.21	45.249
402.57	44.718
402.92	44.149
403.28	43.384
403.63	45.346
403.99	44.002
404.35	42.524
404.70	43.966
405.06	43.587
405.42	45.609
405.77	44.875
406.13	43.004
406.49	44.651
406.84	43.767
407.20	44.382
407.55	43.428
407.91	43.495
408.27	43.463
408.62	44.561
408.98	43.587
409.34	43.167
409.69	43.881
410.05	44.666
410.40	44.374
410.76	42.849
411.11	44.185
411.47	44.533
411.83	43.563
412.18	43.916
412.54	43.509
412.89	42.666
413.25	43.962
413.60	43.308
413.96	43.881
414.31	42.663
414.67	43.828
415.03	42.769
415.38	43.253
415.74	43.005
416.09	43.924
416.45	42.830
416.80	42.962
417.16	42.720
417.51	42.715
417.87	42.735
418.22	43.772
418.58	42.565
418.93	43.248
419.29	42.910
419.64	42.857
420.00	43.680
420.35	42.392
420.71	42.791
421.06	43.186
421.42	42.431
421.77	42.003
422.12	43.076
422.48	42.755
422.83	43.045
423.19	42.281
423.54	43.639
423.90	42.684
424.25	42.293
424.61	41.848
424.96	41.625
425.31	43.471
425.67	43.049
426.02	42.612
426.38	43.226
426.73	41.406
427.09	42.791
427.44	42.163
427.79	42.731
428.15	41.667
428.50	42.865
428.85	41.734
429.21	42.128
429.56	42.004
429.92	41.818
430.27	42.169
430.62	42.599
430.98	40.876
431.33	41.105
431.68	41.331
432.04	42.357
432.39	42.796
432.74	42.409
433.10	42.401
433.45	41.137
433.80	42.006
434.16	41.890
434.51	41.418
434.86	42.182
435.22	40.967
435.57	42.158
435.92	42.627
436.28	41.809
436.63	42.818
436.98	41.331
437.34	41.319
437.69	41.387
438.04	41.089
438.39	40.839
438.75	41.561
439.10	41.649
439.45	41.252
439.81	41.412
440.16	40.161
440.51	41.527
440.86	40.689
441.22	40.729
441.57	41.090
441.92	40.883
442.27	40.253
442.63	40.537
442.98	41.089
443.33	41.557
443.68	41.080
444.03	42.286
444.39	41.285
444.74	41.501
445.09	40.750
445.44	41.570
445.79	41.475
446.15	40.904
446.50	40.620
446.85	41.732
447.20	41.634
447.55	40.481
447.91	40.785
448.26	40.645
448.61	39.851
448.96	41.309
449.31	40.403
449.66	39.978
450.02	40.243
450.37	40.490
450.72	40.474
451.07	40.376
451.42	39.688
451.77	38.911
452.12	40.237
452.47	40.582
452.83	40.653
453.18	39.288
453.53	39.690
453.88	39.536
454.23	39.435
454.58	40.511
454.93	39.624
455.28	40.157
455.63	39.966
455.98	40.000
456.34	40.047
456.69	39.036
457.04	39.243
457.39	39.412
457.74	39.206
458.09	38.331
458.44	39.763
458.79	38.422
459.14	38.647
459.49	38.710
459.84	38.195
460.19	37.091
460.54	38.217
460.89	38.539
461.24	38.391
461.59	38.628
461.94	37.707
462.29	38.410
462.64	37.900
462.99	37.602
463.34	38.546
463.69	36.811
464.04	37.298
464.39	37.780
464.74	36.659
465.09	36.851
465.44	37.232
465.79	37.123
466.14	37.363
466.49	37.211
466.84	36.419
467.19	36.763
467.54	35.311
467.89	36.264
468.24	36.122
468.59	35.843
468.94	35.839
469.29	35.273
469.64	35.474
469.99	35.245
470.34	35.025
470.68	35.475
471.03	36.542
471.38	34.598
471.73	35.631
472.08	35.787
472.43	35.340
472.78	35.705
473.13	35.398
473.48	34.743
473.83	34.939
474.17	34.232
474.52	35.238
474.87	34.828
475.22	34.479
475.57	33.956
475.92	34.146
476.27	34.558
476.61	33.541
476.96	33.994
477.31	34.406
477.66	33.945
478.01	34.215
478.36	32.951
478.70	33.498
479.05	33.793
479.40	33.268
479.75	33.381
480.10	33.207
480.45	33.227
480.79	32.971
481.14	32.077
481.49	32.213
481.84	32.724
482.19	32.516
482.53	32.575
482.88	33.097
483.23	31.347
483.58	31.441
483.92	30.496
484.27	31.626
484.62	30.941
484.97	31.765
485.31	31.151
485.66	30.273
486.01	30.231
486.36	30.905
486.70	31.663
487.05	31.616
487.40	31.716
487.75	31.018
488.09	30.966
488.44	30.549
488.79	30.860
489.13	29.870
489.48	29.864
489.83	29.336
490.17	29.526
490.52	29.926
490.87	29.695
491.22	29.463
491.56	29.735
491.91	30.092
492.26	29.598
492.60	29.383
492.95	28.960
493.30	28.463
493.64	28.734
493.99	28.070
494.34	28.049
494.68	27.794
495.03	28.722
495.37	28.673
495.72	28.209
496.07	28.659
496.41	28.571
496.76	27.690
497.11	28.493
497.45	28.485
497.80	27.454
498.14	27.302
498.49	27.987
498.84	27.102
499.18	27.036
499.53	27.040
499.87	27.209
500.22	26.046
500.56	27.081
500.91	27.185
501.26	26.455
501.60	26.072
501.95	26.400
502.29	26.591
502.64	25.973
502.98	26.316
503.33	25.011
503.67	25.164
504.02	25.788
504.36	26.229
504.71	25.907
505.06	25.875
505.40	25.777
505.75	25.137
506.09	25.184
506.44	25.673
506.78	25.138
507.13	24.896
507.47	25.533
507.82	24.858
508.16	24.379
508.51	24.191
508.85	24.705
509.19	24.633
509.54	24.928
509.88	23.944
510.23	24.041
510.57	24.360
510.92	24.286
511.26	23.761
511.61	23.708
511.95	23.914
512.30	24.028
512.64	23.788
512.98	23.362
513.33	24.899
513.67	24.222
514.02	23.301
514.36	23.478
514.70	23.906
515.05	23.358
515.39	23.412
515.74	24.019
516.08	22.610
516.42	23.967
516.77	22.818
517.11	22.383
517.46	22.959
517.80	22.982
518.14	22.579
518.49	22.885
518.83	22.299
519.17	21.055
519.52	22.642
519.86	21.859
520.20	22.364
520.55	22.508
520.89	22.016
521.23	21.776
521.58	21.864
521.92	21.926
522.26	21.191
522.61	21.354
522.95	21.626
523.29	21.667
523.64	21.020
523.98	21.677
524.32	22.178
524.66	21.172
525.01	20.781
525.35	20.678
525.69	21.056
526.04	20.666
526.38	21.379
526.72	20.473
527.06	21.232
527.41	20.350
527.75	20.903
528.09	20.307
528.43	20.545
528.78	20.347
529.12	20.356
529.46	19.674
529.80	20.252
530.15	20.232
530.49	19.454
530.83	20.189
531.17	20.131
531.51	19.856
531.86	19.892
532.20	20.366
532.54	20.048
532.88	19.152
533.22	19.859
533.57	18.984
533.91	19.865
534.25	18.937
534.59	18.736
534.93	18.959
535.27	19.099
535.62	19.329
535.96	19.640
536.30	18.801
536.64	19.580
536.98	19.127
537.32	19.630
537.66	18.715
538.01	17.402
538.35	18.879
538.69	18.570
539.03	18.455
539.37	18.728
539.71	18.559
540.05	18.705
540.39	17.604
540.73	17.243
541.07	18.210
541.42	17.307
541.76	16.963
542.10	18.938
542.44	18.149
542.78	18.796
543.12	17.640
543.46	18.193
543.80	17.446
544.14	17.534
544.48	18.085
544.82	18.612
545.16	17.412
545.50	17.256
545.84	17.514
546.18	17.346
546.52	16.943
546.86	17.107
547.20	18.511
547.54	16.792
547.88	16.757
548.22	15.731
548.56	16.910
548.90	16.537
549.24	16.474
549.58	16.972
549.92	16.263
550.26	17.217
550.60	17.103
550.94	16.624
551.28	16.898
551.62	16.577
551.96	16.505
552.30	16.826
552.64	16.366
552.98	16.157
553.32	16.785
553.66	16.206
554.00	17.591
554.34	15.701
554.68	15.688
555.02	15.637
555.36	16.437
555.69	15.183
556.03	16.330
556.37	15.832
556.71	15.155
557.05	16.038
557.39	14.599
557.73	16.116
558.07	15.497
558.41	15.482
558.75	16.160
559.08	15.936
559.42	14.815
559.76	15.807
560.10	14.601
560.44	15.501
560.78	16.062
561.12	15.086
561.45	15.572
561.79	14.896
562.13	15.712
562.47	14.735
562.81	15.063
563.15	14.773
563.48	15.351
563.82	15.054
564.16	14.173
564.50	14.184
564.84	15.339
565.17	14.647
565.51	14.845
565.85	14.549
566.19	14.401
566.52	14.570
566.86	14.375
567.20	14.573
567.54	14.764
567.88	14.781
568.21	14.773
568.55	14.676
568.89	14.980
569.23	14.280
569.56	13.990
569.90	14.041
570.24	14.030
570.57	14.208
570.91	13.809
571.25	14.232
571.59	13.972
571.92	13.646
572.26	13.579
572.60	13.868
572.93	13.749
573.27	13.712
573.61	13.420
573.95	13.814
574.28	13.945
574.62	13.552
574.96	13.366
575.29	13.241
575.63	13.490
575.97	13.772
576.30	13.546
576.64	13.338
576.98	13.212
577.31	13.382
577.65	13.558
577.98	13.328
578.32	12.925
578.66	13.193
578.99	13.004
579.33	13.250
579.67	13.305
580.00	13.554
580.34	13.089
580.67	12.445
581.01	12.960
581.35	12.936
581.68	12.866
582.02	13.257
582.35	13.104
582.69	12.932
583.02	12.745
583.36	13.329
583.70	12.838
584.03	12.383
584.37	12.861
584.70	12.396
585.04	12.741
585.37	12.483
585.71	12.535
586.04	12.506
586.38	12.535
586.72	12.108
587.05	12.331
587.39	12.690
587.72	12.967
588.06	12.693
588.39	12.298
588.73	12.249
589.06	12.359
589.40	12.538
589.73	12.596
590.07	12.931
590.40	12.677
590.73	12.195
591.07	12.509
591.40	12.131
591.74	12.202
592.07	11.774
592.41	11.987
592.74	12.496
593.08	12.420
593.41	12.190
593.75	11.839
594.08	11.784
594.41	11.923
594.75	11.790
595.08	11.978
595.42	11.266
595.75	12.238
596.09	12.064
596.42	11.680
596.75	12.814
597.09	12.323
597.42	12.078
597.75	12.152
598.09	12.381
598.42	11.902
598.76	11.311
599.09	11.356
599.42	11.498
599.76	11.357
600.09	11.678
600.42	11.912
600.76	11.493
601.09	11.583
601.42	11.432
601.76	11.345
602.09	11.258
602.42	11.341
602.76	12.140
603.09	11.527
603.42	11.525
603.76	11.064
604.09	11.462
604.42	11.413
604.76	11.377
605.09	11.169
605.42	11.005
605.75	11.346
606.09	10.825
606.42	10.945
606.75	10.495
607.09	10.868
607.42	11.407
607.75	11.059
608.08	11.168
608.42	11.165
608.75	11.650
609.08	10.484
609.41	10.984
609.75	11.161
610.08	10.994
610.41	10.535
610.74	11.218
611.07	11.101
611.41	11.525
611.74	11.547
612.07	11.407
612.40	11.549
612.73	11.345
613.07	10.709
613.40	11.550
613.73	10.303
614.06	10.697
614.39	10.204
614.72	10.092
615.06	10.539
615.39	10.633
615.72	10.711
616.05	10.879
616.38	11.352
616.71	10.502
617.05	9.904
617.38	11.289
617.71	10.799
618.04	10.631
618.37	10.765
618.70	11.256
619.03	10.275
619.36	10.173
619.69	10.890
620.03	10.232
620.36	10.491
620.69	10.179
621.02	10.564
621.35	10.740
621.68	11.280
622.01	9.893
622.34	9.972
622.67	9.966
623.00	9.379
623.33	10.551
623.66	10.960
623.99	9.677
624.32	10.721
624.65	9.717
624.99	10.143
625.32	11.365
625.65	9.777
625.98	9.492
626.31	10.276
626.64	10.476
626.97	9.227
627.30	9.112
627.63	10.053
627.96	11.186
628.29	10.428
628.62	9.656
628.95	10.955
629.28	10.365
629.61	10.101
629.94	9.038
630.26	9.153
630.59	9.240
630.92	9.351
631.25	11.002
631.58	10.358
631.91	10.122
632.24	10.375
632.57	9.677
632.90	10.130
633.23	9.592
633.56	10.408
633.89	9.504
634.22	10.915
634.55	9.186
634.88	9.091
635.20	10.118
635.53	10.395
635.86	9.534
636.19	10.710
636.52	10.021
636.85	8.989
637.18	10.603
637.51	9.785
637.83	11.185
638.16	8.641
638.49	9.038
638.82	9.357
639.15	8.362
639.48	11.547
639.81	10.046
640.13	9.541
640.46	7.879
640.79	9.191
641.12	10.062
641.45	9.787
641.77	12.067
642.10	8.661
642.43	10.638
642.76	8.943
643.09	9.178
643.41	8.683
643.74	9.517
644.07	11.034
644.40	9.760
644.73	9.579
645.05	8.517
645.38	11.223
645.71	9.677
646.04	10.760
646.36	9.051
646.69	9.816
647.02	10.092
647.35	10.076
647.67	10.950
648.00	9.395
648.33	10.210
648.66	9.272
648.98	10.068
649.31	8.931
649.64	10.226
649.96	9.151
650.29	7.650
650.62	9.901
650.94	8.408
651.27	7.485
651.60	8.480
651.92	10.334
652.25	9.262
652.58	9.078
652.90	8.140
653.23	9.014
653.56	8.845
653.88	10.815
654.21	8.873
654.54	7.514
654.86	9.632
655.19	7.403
655.52	10.056
655.84	8.429
656.17	10.162
656.49	14.736
656.82	16.018
657.15	12.638
657.47	9.439
657.80	7.226
658.13	5.589
658.45	7.497
658.78	9.240
659.10	8.993
659.43	8.857
659.75	8.269
660.08	8.459
660.41	7.361
660.73	7.754
661.06	8.076
661.38	10.367
661.71	6.897
662.03	8.642
662.36	10.555
662.68	8.818
663.01	7.611
663.33	9.641
663.66	10.256
663.98	9.231
664.31	8.443
664.63	5.395
664.96	10.526
665.28	8.530
665.61	10.490
665.93	7.143
666.26	10.394
666.58	6.827
666.91	9.907
667.23	9.333
667.56	11.440
667.88	8.200
668.21	6.055
668.53	5.985
668.86	9.823
669.18	7.128
669.50	9.145
669.83	6.800
670.15	8.071
670.48	10.119
670.80	6.692
671.13	8.885
671.45	7.874
671.77	8.475
672.10	8.833
672.42	6.634
672.75	7.373
673.07	7.910
673.39	7.858
673.72	8.389
674.04	10.000
674.37	9.660
674.69	10.053
675.01	7.048
675.34	6.679
675.66	8.801
675.98	8.582
676.31	9.961
676.63	7.985
676.95	9.004
677.28	7.056
677.60	8.071
677.92	7.486
678.25	10.055
678.57	10.676
678.89	9.727
679.22	7.317
679.54	6.838
679.86	6.102
680.18	8.126
680.51	8.648
680.83	9.329
681.15	6.897
681.48	7.772
681.80	8.290
682.12	6.818
682.44	8.848
682.77	9.220
683.09	8.902
683.41	9.690
683.73	7.021
684.06	7.749
684.38	6.977
684.70	8.259
685.02	9.122
685.34	5.657
685.67	7.413
685.99	6.902
686.31	7.994
686.63	7.741
686.96	7.571
687.28	8.632
687.60	7.407
687.92	7.235
688.24	8.013
688.56	5.000
688.89	8.167
689.21	7.436
689.53	6.667
689.85	6.706
690.17	9.444
690.49	7.570
690.82	7.525
691.14	6.883
691.46	8.987
691.78	8.656
692.10	6.055
692.42	6.964
692.74	7.260
693.06	6.667
693.39	8.729
693.71	9.398
694.03	8.364
694.35	7.429
694.67	7.187
694.99	7.872
695.31	7.506
695.63	7.576
695.95	9.317
696.27	7.253
696.59	8.186
696.91	7.658
697.23	8.571
697.56	6.517
697.88	7.008
698.20	6.968
698.52	10.795
698.84	8.316
699.16	9.592
699.48	7.531
699.80	7.021
700.12	7.424
700.44	6.221
700.76	5.226
701.08	5.811
701.40	5.959
701.72	8.706
702.04	8.021
702.36	8.115
702.68	8.068
703.00	6.112
703.32	4.187
703.64	8.313
703.96	5.967
704.28	8.354
704.60	8.608
704.91	6.888
705.23	9.041
705.55	7.799
705.87	6.970
706.19	8.896
706.51	5.120
706.83	5.187
707.15	5.291
707.47	6.075
707.79	5.459
708.11	4.025
708.43	4.946
708.74	3.795
709.06	6.729
709.38	9.155
709.70	7.692
710.02	6.460
710.34	7.713
710.66	4.190
710.98	4.372
711.29	5.769
711.61	5.367
711.93	7.407
712.25	7.568
712.57	12.094
712.89	10.588
713.20	7.101
713.52	6.069
713.84	5.571
714.16	6.842
714.48	7.732
714.80	8.831
715.11	5.249
715.43	5.836
715.75	6.842
716.07	9.392
716.39	8.470
716.70	1.807
717.02	8.525
717.34	2.787
717.66	7.383
717.97	1.027
718.29	4.467
718.61	7.566
718.93	6.149
719.24	3.727
719.56	6.135
719.88	9.009
720.20	5.161
720.51	7.143
720.83	4.063
721.15	0.987
721.46	2.740
721.78	5.667
722.10	2.589
722.42	5.034
722.73	5.806
723.05	8.070
723.37	8.681
723.68	8.244
724.00	8.303
724.32	7.746
724.63	9.790
724.95	9.574
725.27	5.923
725.58	4.594
725.90	7.241
726.22	7.524
726.53	7.143
726.85	5.660
727.16	4.532
727.48	7.339
727.80	6.954
728.11	2.473
728.43	8.081
728.74	7.023
729.06	4.967
729.38	5.519
729.69	7.047
730.01	8.929
730.32	4.545
730.64	5.346
730.96	1.863
731.27	8.380
731.59	4.396
731.90	5.195
732.22	6.771
732.53	4.144
732.85	5.429
733.16	5.572
733.48	1.220
733.80	4.735
734.11	6.838
734.43	2.973
734.74	7.848
735.06	7.035
735.37	5.405
735.69	5.676
736.00	3.955
736.32	6.739
736.63	7.222
736.95	5.460
737.26	4.242
737.58	2.424
737.89	4.706
738.21	6.422
738.52	4.918
738.83	4.437
739.15	3.191
739.46	6.122
739.78	8.589
740.09	3.438
740.41	9.038
740.72	3.333
741.04	3.883
741.35	6.316
741.66	7.451
741.98	10.656
742.29	8.368
742.61	6.140
742.92	3.846
743.23	7.942
743.55	7.752
743.86	4.000
744.18	0.413
744.49	4.219
744.80	11.934
745.12	4.641
745.43	8.130
745.74	2.586
746.06	1.271
746.37	5.485
746.68	7.317
747.00	3.750
747.31	4.721
747.62	9.231
747.94	2.024
748.25	3.213
748.56	0.816
748.88	4.701
749.19	7.328
749.50	4.329
749.82	8.835
750.13	9.253
750.44	3.667
750.75	4.923
751.07	7.077
751.38	5.363
751.69	5.112
752.01	0.971
752.32	4.575
752.63	3.741
752.94	4.498
753.26	4.089
753.57	3.704
753.88	4.494
754.19	3.859
754.51	2.894
754.82	4.823
755.13	9.836
755.44	2.389
755.75	4.934
756.07	5.075
756.38	5.346
756.69	5.120
757.00	3.324
757.31	4.918
757.63	3.069
757.94	4.695
758.25	6.546
758.56	6.972
758.87	6.364
759.18	8.000
759.50	7.365
759.81	5.042
760.12	5.391
760.43	4.948
760.74	5.172
761.05	4.750
761.36	3.855
761.67	5.838
761.99	6.486
762.30	5.488
762.61	3.960
762.92	5.597
763.23	6.742
763.54	6.835
763.85	2.749
764.16	7.071
764.47	3.169
764.78	5.751
765.10	4.985
765.41	6.923
765.72	5.556
766.03	6.215
766.34	5.016
766.65	1.045
766.96	6.773
767.27	5.530
767.58	2.488
767.89	6.250
768.20	7.042
768.51	0.926
768.82	6.024
769.13	4.545
769.44	-0.769
769.75	6.859
770.06	4.231
770.37	8.268
770.68	0.851
770.99	1.619
771.30	5.926
771.61	5.703
771.92	0.741
772.23	7.692
772.54	-1.852
772.85	10.599
773.16	5.238
773.47	-0.529
773.78	-1.081
774.09	4.545
774.39	12.500
774.70	3.825
775.01	3.049
775.32	4.118
775.63	8.589
775.94	7.006
776.25	3.871
776.56	10.256
776.87	12.925
777.18	2.069
777.48	5.594
777.79	1.351
778.10	3.676
778.41	4.167
778.72	4.828
779.03	2.469
779.34	8.485
779.65	6.736
779.95	7.222
780.26	7.386
780.57	-0.645
780.88	1.449
781.19	10.323
781.50	11.765
781.80	9.140
782.11	4.233
782.42	3.535
782.73	-2.395
783.04	7.821
783.34	2.424
783.65	3.268
783.96	6.211
784.27	2.976
784.57	9.934
784.88	2.143
785.19	-3.937
785.50	-0.787
785.81	-5.263
786.11	2.308
786.42	7.914
786.73	5.036
787.04	10.526
787.34	0.000
787.65	10.400
787.96	4.478
788.26	11.189
788.57	8.392
788.88	6.579
789.19	7.843
789.49	0.685
789.80	3.546
790.11	9.449
790.41	11.719
790.72	-1.695
791.03	-2.913
791.33	9.565
791.64	9.649
791.95	0.000
792.25	-3.810
792.56	9.821
792.87	8.333
793.17	2.679
793.48	-3.125
793.79	-13.253
794.09	1.835
794.40	0.917
794.70	4.082
795.01	2.597
795.32	4.795
795.62	0.000
795.93	-3.788
796.23	6.557
796.54	-3.571
796.85	3.191
797.15	2.174
797.46	-9.589
797.76	-7.500
798.07	-1.087
798.37	-7.216
798.68	-1.299
798.99	3.448
799.29	4.494
799.60	3.191
799.90	2.410
800.21	-7.692
800.51	-16.418
800.82	-33.824
801.12	-17.808
801.43	-26.471
801.73	-18.644
802.04	-1.515
802.34	-18.333
802.65	1.695
802.95	-5.970
803.26	13.559
803.56	-1.370
803.87	1.429
804.17	-1.370
804.48	-19.298
804.78	-8.333
805.09	1.724
805.39	8.108
805.70	-12.676
806.00	12.195
806.30	0.000
806.61	-10.959
806.91	-6.731
807.22	4.444
807.52	1.149
807.83	11.111
808.13	0.000
808.43	8.989
808.74	11.250
809.04	-5.882
809.35	0.000
809.65	4.286
809.95	6.849
810.26	-8.772
810.56	-3.448
810.86	13.235
811.17	0.000
811.47	-19.672
811.77	-22.222
812.08	1.695
812.38	-6.667
812.69	22.414
812.99	-13.208
813.29	-10.256
813.59	8.000
813.90	-1.754
814.20	3.636
814.50	8.451
814.81	14.103
815.11	-4.918
815.41	2.985
815.72	18.966
816.02	5.357
816.32	6.667
816.62	15.909
816.93	-6.667
817.23	-7.407
817.53	-4.255
817.84	14.286
818.14	-14.706
818.44	-8.163
818.74	-15.556
819.04	-23.077
819.35	-42.857
819.65	-34.615
819.95	7.547
820.25	33.333
820.56	-4.762
820.86	-25.000
821.16	-7.692
821.46	2.326
821.76	-22.000
822.07	-3.571
822.37	-13.043
822.67	-4.255
822.97	-48.649
823.27	-12.500
823.57	36.735
823.88	11.111
824.18	-5.000
824.48	-16.667
824.78	8.000
825.08	-9.091
825.38	2.222
825.69	12.766
825.99	0.000
826.29	-45.714
826.59	-12.821
826.89	-23.256
827.19	4.000
827.49	-11.765
827.79	-2.083
828.09	0.000
828.39	-36.667
828.70	-14.634
829.00	-6.977
829.30	-14.286
829.60	23.529
829.90	2.174
830.20	-11.429
830.50	-17.241
830.80	-16.667
831.10	-19.231
831.40	-8.824
831.70	-4.762
832.00	25.806
832.30	-100.000
832.60	-29.167
832.90	-76.923
833.20	-31.579
833.50	20.000
833.80	-57.895
834.10	-61.905
834.40	22.222
834.70	21.875
835.00	-34.286
835.30	-8.824
835.60	-20.000
835.90	4.000
836.20	-50.000
836.50	12.000
836.80	-24.242
837.10	-29.630
837.40	-33.333
837.70	-87.500
838.00	-3.571
838.30	-26.087
838.60	27.586
838.90	-78.571
839.19	-60.870
839.49	-116.667
839.79	-30.435
840.09	-50.000
840.39	-80.000
840.69	0.000
840.99	-14.286
841.29	0.000
841.59	-31.579
841.88	15.385
842.18	-19.231
842.48	-80.000
842.78	-50.000
843.08	-13.333
843.38	0.000
843.68	-61.111
843.97	5.882
844.27	-25.000
844.57	-26.316
844.87	-10.000
845.17	-26.667
845.47	19.048
845.76	-23.810
846.06	-55.556
846.36	-17.647
846.66	-23.077
846.96	-73.333
847.25	-29.412
847.55	8.696
847.85	10.000
848.15	52.941
848.44	18.182
848.74	-33.333
849.04	-50.000
849.34	-56.250
849.63	-34.783
849.93	650.000
850.23	0.000
850.53	-15.385
850.82	-45.455
851.12	-13.636
851.42	-36.364
851.71	38.462
852.01	-75.000
852.31	-46.154
852.61	-31.579
852.90	66.667
853.20	-33.333
853.50	-211.111
853.79	-52.381
854.09	-18.182
854.39	-158.333
854.68	-16.129
854.98	-7.692
855.28	5.556
855.57	-3.571
855.87	-8.000
856.17	-36.364
856.46	7.407
856.76	-11.111
857.05	-21.739
857.35	-20.833
857.65	-46.154
857.94	33.333
858.24	0.000
858.53	0.000
858.83	-5.882
859.13	-52.941
859.42	11.765
859.72	35.714
860.01	0.000
860.31	-77.778
860.60	20.000
860.90	46.667
861.20	-22.222
861.49	-38.462
861.79	-26.667
862.08	-84.615
862.38	-9.375
862.67	23.529
862.97	25.000
863.26	-55.556
863.56	100.000
863.85	-90.909
864.15	-33.333
864.44	-400.000
864.74	-50.000
865.03	-75.000
865.33	-50.000
865.62	-9.677
865.92	4.545
866.21	0.000
866.51	-7.143
866.80	-100.000
867.10	-66.667
867.39	-41.667
867.69	400.000
867.98	14.286
868.27	11.765
868.57	-1100.000
868.86	-120.000
869.16	-9.524
869.45	12.500
869.75	45.455
870.04	-85.714
870.33	-33.333
870.63	-85.714
870.92	-100.000
871.22	-137.500
871.51	-127.273
871.80	-566.667
872.10	-200.000
>>>>>End Processed Spectral Data<<<<<
