SpectraSuite Data File
++++++++++++++++++++++++++++++++++++
Date: Thu May 14 16:30:44 PDT 2015
User: schluterlab
Dark Spectrum Present: Yes
Reference Spectrum Present: Yes
Number of Sampled Component Spectra: 1
Spectrometers: USB2E3373
Integration Time (usec): 3000 (USB2E3373)
Spectra Averaged: 3 (USB2E3373)
Boxcar Smoothing: 0 (USB2E3373)
Correct for Electrical Dark: No (USB2E3373)
Strobe/Lamp Enabled: No (USB2E3373)
Correct for Detector Non-linearity: No (USB2E3373)
Correct for Stray Light: No (USB2E3373)
Number of Pixels in Processed Spectrum: 2048
>>>>>Begin Processed Spectral Data<<<<<
178.53	0.000
178.91	-42.857
179.29	-1100.000
179.67	-800.000
180.04	142.857
180.42	-0.000
180.80	100.000
181.18	600.000
181.56	1100.000
181.94	-100.000
182.31	-25.000
182.69	366.667
183.07	-150.000
183.45	300.000
183.83	-83.333
184.20	66.667
184.58	-0.000
184.96	-50.000
185.34	-44.444
185.72	60.000
186.09	155.556
186.47	350.000
186.85	220.000
187.23	11.111
187.61	300.000
187.98	-0.000
188.36	225.000
188.74	-50.000
189.12	66.667
189.49	0.000
189.87	-25.000
190.25	66.667
190.63	60.000
191.00	-88.889
191.38	0.000
191.76	-125.000
192.14	-116.667
192.51	250.000
192.89	116.667
193.27	0.000
193.65	0.000
194.02	-100.000
194.40	28.571
194.78	-85.714
195.15	0.000
195.53	18.182
195.91	0.000
196.29	-25.000
196.66	30.769
197.04	-500.000
197.42	-14.286
197.79	0.000
198.17	-12.500
198.55	28.571
198.92	-11.111
199.30	0.000
199.68	-54.545
200.05	0.000
200.43	-350.000
200.81	185.714
201.18	0.000
201.56	111.111
201.94	0.000
202.31	166.667
202.69	-11.111
203.07	-700.000
203.44	-66.667
203.82	-75.000
204.19	-8.333
204.57	-100.000
204.95	0.000
205.32	-200.000
205.70	275.000
206.08	83.333
206.45	-66.667
206.83	200.000
207.20	0.000
207.58	-60.000
207.96	-283.333
208.33	0.000
208.71	58.333
209.08	0.000
209.46	0.000
209.84	166.667
210.21	150.000
210.59	50.000
210.96	133.333
211.34	50.000
211.71	0.000
212.09	-400.000
212.46	0.000
212.84	350.000
213.22	-80.000
213.59	150.000
213.97	40.000
214.34	-466.667
214.72	183.333
215.09	-150.000
215.47	0.000
215.84	-42.857
216.22	200.000
216.59	60.000
216.97	20.000
217.34	50.000
217.72	-37.500
218.09	-25.000
218.47	-25.000
218.84	0.000
219.22	-60.000
219.59	29.412
219.97	25.000
220.34	50.000
220.72	-22.222
221.09	92.308
221.47	100.000
221.84	40.000
222.22	-85.714
222.59	0.000
222.97	62.500
223.34	-160.000
223.72	1500.000
224.09	150.000
224.46	-100.000
224.84	60.000
225.21	-100.000
225.59	-125.000
225.96	-100.000
226.34	23.077
226.71	16.667
227.08	-500.000
227.46	6.667
227.83	-175.000
228.21	57.895
228.58	87.500
228.95	-0.000
229.33	0.000
229.70	20.000
230.08	68.421
230.45	60.000
230.82	333.333
231.20	-14.286
231.57	33.333
231.95	-54.545
232.32	27.273
232.69	80.000
233.07	25.000
233.44	17.647
233.81	10.000
234.19	72.222
234.56	-4.545
234.93	34.483
235.31	26.316
235.68	16.667
236.05	-5.000
236.43	30.769
236.80	44.000
237.17	14.815
237.55	21.212
237.92	-100.000
238.29	12.903
238.67	2.273
239.04	-2.778
239.41	-4.762
239.79	-4.348
240.16	22.222
240.53	15.217
240.91	11.765
241.28	0.000
241.65	7.463
242.02	20.270
242.40	1.538
242.77	16.000
243.14	13.415
243.51	9.211
243.89	6.410
244.26	23.762
244.63	8.824
245.00	14.953
245.38	16.667
245.75	4.425
246.12	11.905
246.49	13.953
246.87	14.286
247.24	17.219
247.61	5.263
247.98	9.396
248.36	16.049
248.73	11.656
249.10	10.929
249.47	19.900
249.84	18.848
250.22	12.435
250.59	17.222
250.96	14.091
251.33	7.143
251.70	10.684
252.08	12.500
252.45	11.885
252.82	14.050
253.19	12.109
253.56	12.928
253.94	14.231
254.31	18.561
254.68	20.280
255.05	17.264
255.42	14.966
255.79	9.385
256.16	11.921
256.54	7.947
256.91	17.377
257.28	13.770
257.65	12.420
258.02	9.440
258.39	13.105
258.76	17.125
259.14	14.943
259.51	14.121
259.88	10.765
260.25	14.444
260.62	13.699
260.99	17.213
261.36	13.405
261.73	14.854
262.10	12.363
262.47	10.992
262.85	14.646
263.22	13.247
263.59	11.316
263.96	12.788
264.33	12.532
264.70	15.062
265.07	14.797
265.44	14.966
265.81	13.889
266.18	14.059
266.55	13.839
266.92	12.528
267.29	14.442
267.66	14.412
268.03	13.537
268.40	15.449
268.77	11.162
269.14	9.912
269.51	12.281
269.88	14.344
270.25	14.085
270.62	12.869
270.99	13.333
271.36	12.673
271.73	13.752
272.10	15.631
272.47	13.828
272.84	14.056
273.21	13.226
273.58	12.702
273.95	11.154
274.32	13.118
274.69	12.186
275.06	12.821
275.43	10.166
275.80	14.462
276.17	11.111
276.54	13.060
276.91	12.165
277.28	12.839
277.65	12.208
278.02	12.316
278.39	14.130
278.76	12.830
279.13	12.411
279.50	14.605
279.87	13.238
280.23	8.275
280.60	12.542
280.97	11.678
281.34	10.696
281.71	12.690
282.08	13.787
282.45	12.602
282.82	11.617
283.19	9.855
283.56	11.639
283.92	13.514
284.29	13.586
284.66	14.943
285.03	11.058
285.40	13.447
285.77	11.610
286.14	11.298
286.51	9.893
286.87	12.480
287.24	11.295
287.61	13.004
287.98	10.876
288.35	13.166
288.72	12.722
289.08	11.567
289.45	12.130
289.82	9.940
290.19	10.632
290.56	10.141
290.93	10.556
291.29	12.948
291.66	11.019
292.03	11.126
292.40	11.565
292.77	10.243
293.13	11.502
293.50	10.775
293.87	12.349
294.24	12.400
294.60	11.378
294.97	10.067
295.34	12.036
295.71	9.710
296.08	11.240
296.44	11.029
296.81	11.328
297.18	10.585
297.55	9.906
297.91	10.558
298.28	9.360
298.65	11.177
299.02	11.688
299.38	10.412
299.75	12.033
300.12	10.069
300.48	10.714
300.85	10.236
301.22	12.752
301.59	10.616
301.95	10.847
302.32	10.778
302.69	10.405
303.05	11.317
303.42	11.530
303.79	10.833
304.15	10.726
304.52	10.571
304.89	10.471
305.25	12.008
305.62	10.136
305.99	10.825
306.35	11.593
306.72	11.892
307.09	10.152
307.45	10.248
307.82	10.595
308.19	12.614
308.55	11.958
308.92	11.392
309.29	12.548
309.65	9.844
310.02	9.901
310.38	11.614
310.75	11.845
311.12	13.327
311.48	11.144
311.85	11.871
312.22	11.765
312.58	11.643
312.95	11.185
313.31	12.647
313.68	12.729
314.05	13.731
314.41	13.570
314.78	12.080
315.14	12.704
315.51	14.958
315.87	14.401
316.24	13.790
316.61	14.210
316.97	13.303
317.34	14.198
317.70	13.886
318.07	14.903
318.43	15.051
318.80	16.806
319.16	15.451
319.53	14.053
319.89	15.250
320.26	15.658
320.62	14.539
320.99	15.974
321.35	15.342
321.72	16.930
322.08	15.329
322.45	17.435
322.81	15.433
323.18	17.611
323.54	16.983
323.91	17.794
324.27	17.126
324.64	18.220
325.00	17.247
325.37	17.199
325.73	18.430
326.10	18.167
326.46	18.567
326.83	18.175
327.19	18.583
327.56	19.209
327.92	19.040
328.29	19.355
328.65	18.593
329.01	19.036
329.38	19.714
329.74	21.062
330.11	20.976
330.47	19.124
330.84	19.638
331.20	20.000
331.56	19.237
331.93	18.243
332.29	19.831
332.66	19.850
333.02	19.598
333.38	18.456
333.75	19.108
334.11	19.016
334.48	19.637
334.84	20.646
335.20	19.479
335.57	20.658
335.93	20.083
336.29	18.885
336.66	19.428
337.02	19.565
337.38	18.537
337.75	19.587
338.11	19.596
338.47	19.107
338.84	18.528
339.20	19.040
339.56	19.769
339.93	19.376
340.29	19.324
340.65	19.546
341.02	18.675
341.38	19.644
341.74	18.805
342.11	19.067
342.47	17.871
342.83	19.404
343.20	19.215
343.56	18.685
343.92	18.975
344.28	19.141
344.65	18.992
345.01	18.721
345.37	19.751
345.73	18.005
346.10	19.267
346.46	20.016
346.82	19.476
347.19	19.022
347.55	20.182
347.91	18.722
348.27	18.968
348.63	19.345
349.00	19.314
349.36	19.628
349.72	18.527
350.08	20.431
350.45	19.316
350.81	18.627
351.17	20.150
351.53	19.636
351.89	18.299
352.26	18.806
352.62	18.881
352.98	18.931
353.34	19.193
353.70	18.721
354.07	20.119
354.43	19.134
354.79	19.297
355.15	19.426
355.51	19.225
355.87	19.222
356.24	19.468
356.60	18.256
356.96	19.051
357.32	19.703
357.68	18.448
358.04	19.012
358.40	18.806
358.77	18.933
359.13	19.129
359.49	18.067
359.85	19.217
360.21	19.010
360.57	19.095
360.93	19.041
361.29	20.140
361.66	19.696
362.02	19.346
362.38	19.255
362.74	19.344
363.10	19.532
363.46	20.360
363.82	19.815
364.18	19.564
364.54	19.917
364.90	19.398
365.26	19.586
365.62	19.600
365.98	19.333
366.35	20.067
366.71	20.544
367.07	19.756
367.43	20.355
367.79	19.907
368.15	20.936
368.51	20.568
368.87	20.836
369.23	20.267
369.59	20.833
369.95	21.231
370.31	21.134
370.67	20.151
371.03	19.737
371.39	19.812
371.75	20.220
372.11	21.274
372.47	20.244
372.83	21.270
373.19	20.680
373.55	20.732
373.91	20.859
374.27	20.246
374.63	21.651
374.99	21.021
375.35	22.273
375.71	21.290
376.07	21.369
376.42	21.537
376.78	22.250
377.14	20.711
377.50	20.620
377.86	21.675
378.22	21.497
378.58	21.581
378.94	22.124
379.30	21.383
379.66	21.693
380.02	21.985
380.38	23.041
380.74	21.972
381.09	22.300
381.45	21.761
381.81	23.009
382.17	22.387
382.53	21.871
382.89	22.009
383.25	22.919
383.61	22.338
383.97	22.615
384.32	23.026
384.68	22.042
385.04	23.366
385.40	23.276
385.76	22.919
386.12	23.040
386.48	23.000
386.83	23.004
387.19	23.812
387.55	23.122
387.91	23.002
388.27	23.152
388.62	22.910
388.98	23.463
389.34	24.337
389.70	23.417
390.06	23.150
390.42	23.494
390.77	23.901
391.13	24.061
391.49	23.913
391.85	23.515
392.20	23.725
392.56	23.686
392.92	23.828
393.28	24.212
393.64	24.469
393.99	24.404
394.35	24.182
394.71	24.132
395.07	24.012
395.42	24.043
395.78	24.558
396.14	24.718
396.50	23.812
396.85	24.329
397.21	23.846
397.57	24.441
397.92	25.143
398.28	23.411
398.64	24.714
399.00	23.194
399.35	24.503
399.71	24.457
400.07	25.211
400.42	24.214
400.78	24.479
401.14	25.213
401.49	25.696
401.85	25.581
402.21	25.261
402.57	25.176
402.92	25.118
403.28	24.180
403.63	25.537
403.99	25.000
404.35	25.412
404.70	25.382
405.06	24.837
405.42	25.585
405.77	26.118
406.13	25.500
406.49	26.070
406.84	25.319
407.20	25.210
407.55	25.500
407.91	25.330
408.27	24.617
408.62	26.294
408.98	25.885
409.34	25.044
409.69	26.020
410.05	26.436
410.40	25.928
410.76	26.248
411.11	26.125
411.47	26.536
411.83	25.632
412.18	26.446
412.54	26.912
412.89	25.902
413.25	25.508
413.60	26.134
413.96	26.632
414.31	25.099
414.67	25.641
415.03	26.277
415.38	26.166
415.74	26.573
416.09	26.465
416.45	26.111
416.80	26.071
417.16	26.501
417.51	26.027
417.87	26.303
418.22	26.527
418.58	26.580
418.93	27.299
419.29	26.572
419.64	26.651
420.00	26.706
420.35	27.400
420.71	26.939
421.06	26.049
421.42	27.867
421.77	26.333
422.12	26.744
422.48	27.087
422.83	27.327
423.19	27.533
423.54	26.659
423.90	27.333
424.25	26.987
424.61	26.579
424.96	27.512
425.31	26.699
425.67	26.892
426.02	27.670
426.38	27.382
426.73	27.400
427.09	28.374
427.44	26.106
427.79	28.082
428.15	27.169
428.50	27.809
428.85	28.186
429.21	28.138
429.56	27.246
429.92	27.371
430.27	27.807
430.62	26.917
430.98	27.496
431.33	26.735
431.68	27.011
432.04	28.339
432.39	28.174
432.74	27.626
433.10	27.528
433.45	27.759
433.80	28.219
434.16	27.893
434.51	28.109
434.86	28.122
435.22	27.843
435.57	27.594
435.92	28.047
436.28	27.759
436.63	28.454
436.98	27.590
437.34	28.410
437.69	28.068
438.04	28.186
438.39	28.145
438.75	27.393
439.10	28.171
439.45	28.452
439.81	27.966
440.16	27.668
440.51	28.763
440.86	28.127
441.22	27.385
441.57	28.302
441.92	28.565
442.27	27.677
442.63	28.217
442.98	28.442
443.33	28.669
443.68	28.593
444.03	28.833
444.39	28.941
444.74	28.892
445.09	28.332
445.44	28.504
445.79	29.167
446.15	28.777
446.50	27.907
446.85	28.551
447.20	28.578
447.55	29.446
447.91	28.063
448.26	28.805
448.61	28.693
448.96	28.863
449.31	27.678
449.66	28.105
450.02	27.795
450.37	28.130
450.72	28.149
451.07	28.986
451.42	28.018
451.77	27.571
452.12	28.104
452.47	28.818
452.83	29.392
453.18	27.496
453.53	27.455
453.88	27.664
454.23	27.966
454.58	29.832
454.93	28.762
455.28	28.417
455.63	28.084
455.98	28.659
456.34	28.151
456.69	27.866
457.04	27.896
457.39	28.160
457.74	28.132
458.09	27.238
458.44	27.478
458.79	27.953
459.14	28.055
459.49	27.957
459.84	28.017
460.19	27.152
460.54	28.336
460.89	28.639
461.24	27.816
461.59	27.504
461.94	27.039
462.29	28.163
462.64	27.278
462.99	27.370
463.34	27.515
463.69	27.433
464.04	28.238
464.39	27.803
464.74	27.480
465.09	27.739
465.44	27.146
465.79	28.027
466.14	27.775
466.49	27.632
466.84	27.493
467.19	26.012
467.54	25.969
467.89	27.586
468.24	26.427
468.59	26.346
468.94	25.350
469.29	26.635
469.64	27.463
469.99	27.215
470.34	26.547
470.68	27.820
471.03	27.112
471.38	26.161
471.73	26.723
472.08	27.094
472.43	27.453
472.78	27.078
473.13	27.307
473.48	27.311
473.83	26.407
474.17	26.905
474.52	26.578
474.87	26.689
475.22	27.437
475.57	26.220
475.92	25.485
476.27	25.612
476.61	27.259
476.96	25.547
477.31	26.188
477.66	26.285
478.01	25.724
478.36	25.773
478.70	25.616
479.05	26.483
479.40	26.209
479.75	25.600
480.10	26.101
480.45	25.570
480.79	26.213
481.14	26.287
481.49	26.034
481.84	25.413
482.19	25.849
482.53	26.279
482.88	25.521
483.23	25.389
483.58	24.891
483.92	25.488
484.27	24.936
484.62	25.124
484.97	25.156
485.31	24.956
485.66	24.305
486.01	23.620
486.36	23.971
486.70	24.904
487.05	25.594
487.40	24.634
487.75	24.504
488.09	24.317
488.44	23.490
488.79	24.148
489.13	24.511
489.48	23.456
489.83	24.346
490.17	24.058
490.52	24.261
490.87	24.112
491.22	24.003
491.56	24.616
491.91	24.379
492.26	23.496
492.60	24.443
492.95	24.090
493.30	24.070
493.64	24.135
493.99	24.035
494.34	23.824
494.68	23.597
495.03	23.744
495.37	23.524
495.72	23.900
496.07	23.795
496.41	23.209
496.76	23.645
497.11	23.142
497.45	22.961
497.80	23.812
498.14	23.764
498.49	23.162
498.84	22.852
499.18	23.257
499.53	23.498
499.87	23.297
500.22	22.351
500.56	22.942
500.91	23.295
501.26	24.000
501.60	22.846
501.95	23.013
502.29	22.729
502.64	23.393
502.98	22.347
503.33	22.376
503.67	22.460
504.02	23.074
504.36	23.414
504.71	22.554
505.06	22.783
505.40	22.578
505.75	22.814
506.09	22.606
506.44	23.166
506.78	22.706
507.13	22.729
507.47	22.501
507.82	22.112
508.16	22.275
508.51	21.988
508.85	22.201
509.19	22.264
509.54	22.238
509.88	23.215
510.23	22.632
510.57	22.765
510.92	21.964
511.26	22.030
511.61	21.922
511.95	22.450
512.30	22.550
512.64	21.789
512.98	22.411
513.33	22.329
513.67	22.081
514.02	21.972
514.36	22.967
514.70	21.927
515.05	21.846
515.39	22.677
515.74	22.959
516.08	22.345
516.42	22.763
516.77	21.977
517.11	21.970
517.46	22.853
517.80	21.753
518.14	23.449
518.49	22.397
518.83	21.980
519.17	21.271
519.52	22.117
519.86	21.859
520.20	21.619
520.55	21.906
520.89	22.016
521.23	22.334
521.58	21.525
521.92	21.473
522.26	21.936
522.61	21.296
522.95	21.857
523.29	21.839
523.64	21.300
523.98	21.905
524.32	21.834
524.66	20.888
525.01	21.234
525.35	21.195
525.69	21.462
526.04	21.871
526.38	21.379
526.72	21.338
527.06	20.821
527.41	21.808
527.75	21.496
528.09	20.543
528.43	20.959
528.78	20.289
529.12	20.986
529.46	21.135
529.80	21.110
530.15	20.348
530.49	20.107
530.83	21.015
531.17	20.311
531.51	20.638
531.86	20.312
532.20	20.427
532.54	20.706
532.88	20.970
533.22	20.507
533.57	20.485
533.91	20.146
534.25	20.011
534.59	20.230
534.93	20.034
535.27	19.831
535.62	20.352
535.96	21.092
536.30	20.094
536.64	20.901
536.98	21.156
537.32	20.556
537.66	20.025
538.01	19.577
538.35	20.524
538.69	19.832
539.03	20.417
539.37	19.258
539.71	20.120
540.05	19.604
540.39	19.132
540.73	18.519
541.07	19.375
541.42	19.905
541.76	18.743
542.10	19.903
542.44	18.453
542.78	20.377
543.12	18.772
543.46	19.292
543.80	19.005
544.14	19.090
544.48	18.853
544.82	20.407
545.16	19.559
545.50	19.413
545.84	19.045
546.18	19.815
546.52	18.917
546.86	18.616
547.20	19.084
547.54	18.976
547.88	18.807
548.22	18.304
548.56	18.666
548.90	18.627
549.24	19.027
549.58	18.486
549.92	18.431
550.26	18.382
550.60	18.762
550.94	18.952
551.28	18.548
551.62	18.598
551.96	17.540
552.30	18.611
552.64	18.731
552.98	18.278
553.32	19.035
553.66	18.392
554.00	18.285
554.34	18.790
554.68	18.464
555.02	18.463
555.36	18.409
555.69	17.553
556.03	17.591
556.37	18.023
556.71	18.580
557.05	17.380
557.39	18.514
557.73	17.701
558.07	17.285
558.41	18.206
558.75	17.782
559.08	18.650
559.42	17.764
559.76	18.725
560.10	17.415
560.44	18.536
560.78	18.812
561.12	17.672
561.45	17.457
561.79	16.972
562.13	18.361
562.47	16.831
562.81	17.975
563.15	17.045
563.48	17.961
563.82	17.533
564.16	16.717
564.50	17.282
564.84	17.699
565.17	17.176
565.51	16.743
565.85	16.152
566.19	17.224
566.52	16.969
566.86	17.204
567.20	17.346
567.54	17.100
567.88	16.922
568.21	17.045
568.55	16.451
568.89	17.068
569.23	16.054
569.56	16.178
569.90	15.859
570.24	16.358
570.57	15.587
570.91	15.615
571.25	15.823
571.59	16.142
571.92	16.018
572.26	15.776
572.60	15.233
572.93	15.920
573.27	15.538
573.61	15.326
573.95	15.125
574.28	15.721
574.62	15.075
574.96	15.020
575.29	14.937
575.63	15.223
575.97	15.329
576.30	15.297
576.64	14.770
576.98	14.806
577.31	15.090
577.65	15.229
577.98	15.380
578.32	14.764
578.66	14.926
578.99	14.622
579.33	14.962
579.67	15.163
580.00	14.767
580.34	14.900
580.67	14.762
581.01	14.777
581.35	14.865
581.68	14.800
582.02	15.000
582.35	15.061
582.69	14.694
583.02	14.539
583.36	15.075
583.70	14.497
584.03	14.183
584.37	14.441
584.70	14.499
585.04	14.462
585.37	14.428
585.71	14.498
586.04	14.377
586.38	14.786
586.72	14.164
587.05	14.479
587.39	14.660
587.72	14.474
588.06	14.289
588.39	14.414
588.73	14.577
589.06	14.757
589.40	14.474
589.73	15.071
590.07	15.053
590.40	14.909
590.73	14.669
591.07	14.929
591.40	14.269
591.74	15.024
592.07	14.819
592.41	14.669
592.74	14.732
593.08	14.968
593.41	14.611
593.75	14.598
594.08	14.329
594.41	14.583
594.75	14.248
595.08	14.435
595.42	14.578
595.75	14.498
596.09	14.673
596.42	14.153
596.75	14.512
597.09	15.030
597.42	14.700
597.75	14.034
598.09	14.841
598.42	14.314
598.76	14.100
599.09	14.169
599.42	13.845
599.76	13.800
600.09	14.481
600.42	14.548
600.76	14.168
601.09	13.906
601.42	13.938
601.76	14.034
602.09	14.224
602.42	13.413
602.76	13.911
603.09	14.244
603.42	13.873
603.76	13.883
604.09	14.230
604.42	14.092
604.76	13.623
605.09	14.001
605.42	13.876
605.75	13.808
606.09	13.774
606.42	14.119
606.75	13.756
607.09	13.556
607.42	14.489
607.75	13.443
608.08	14.088
608.42	13.503
608.75	13.516
609.08	13.158
609.41	13.498
609.75	13.571
610.08	13.940
610.41	13.721
610.74	13.277
611.07	13.810
611.41	13.857
611.74	14.042
612.07	14.025
612.40	12.690
612.73	13.839
613.07	13.643
613.40	14.100
613.73	14.588
614.06	14.181
614.39	13.314
614.72	14.508
615.06	13.378
615.39	13.388
615.72	13.934
616.05	13.502
616.38	13.471
616.71	14.316
617.05	13.419
617.38	14.232
617.71	14.471
618.04	13.600
618.37	14.262
618.70	13.971
619.03	12.963
619.36	13.502
619.69	14.094
620.03	12.994
620.36	13.988
620.69	13.448
621.02	14.436
621.35	13.861
621.68	13.666
622.01	14.021
622.34	12.901
622.67	14.158
623.00	12.281
623.33	13.736
623.66	14.267
623.99	12.903
624.32	14.425
624.65	12.613
624.99	14.499
625.32	14.304
625.65	14.026
625.98	14.034
626.31	14.600
626.64	13.040
626.97	14.254
627.30	12.604
627.63	14.179
627.96	14.865
628.29	13.774
628.62	13.098
628.95	14.110
629.28	13.849
629.61	13.468
629.94	13.473
630.26	13.390
630.59	14.594
630.92	13.853
631.25	14.758
631.58	12.900
631.91	13.215
632.24	14.121
632.57	14.611
632.90	13.240
633.23	14.490
633.56	13.061
633.89	13.326
634.22	14.657
634.55	14.509
634.88	14.610
635.20	14.639
635.53	12.655
635.86	14.735
636.19	15.483
636.52	14.135
636.85	13.075
637.18	14.449
637.51	12.903
637.83	14.396
638.16	14.747
638.49	12.793
638.82	13.529
639.15	13.631
639.48	14.665
639.81	13.857
640.13	14.605
640.46	12.970
640.79	13.480
641.12	14.534
641.45	15.056
641.77	15.019
642.10	14.173
642.43	14.761
642.76	13.957
643.09	15.890
643.41	14.706
643.74	13.793
644.07	15.034
644.40	13.579
644.73	13.353
645.05	13.803
645.38	14.820
645.71	13.050
646.04	16.499
646.36	13.577
646.69	12.577
647.02	17.584
647.35	12.977
647.67	16.425
648.00	12.739
648.33	13.514
648.66	14.265
648.98	14.558
649.31	13.938
649.64	14.475
649.96	14.324
650.29	13.352
650.62	12.871
650.94	15.766
651.27	13.473
651.60	13.596
651.92	12.614
652.25	14.327
652.58	12.930
652.90	13.081
653.23	15.211
653.56	13.837
653.88	15.590
654.21	13.521
654.54	14.740
654.86	12.181
655.19	12.547
655.52	12.530
655.84	11.913
656.17	14.123
656.49	19.913
656.82	21.693
657.15	16.856
657.47	12.459
657.80	9.143
658.13	7.048
658.45	9.201
658.78	10.959
659.10	10.398
659.43	10.712
659.75	10.580
660.08	10.476
660.41	11.332
660.73	10.718
661.06	9.692
661.38	13.876
661.71	13.966
662.03	14.462
662.36	16.458
662.68	12.570
663.01	14.690
663.33	16.257
663.66	16.667
663.98	14.423
664.31	15.385
664.63	12.909
664.96	14.701
665.28	11.797
665.61	16.783
665.93	12.679
666.26	12.007
666.58	12.362
666.91	16.822
667.23	13.524
667.56	12.821
667.88	14.200
668.21	9.961
668.53	12.162
668.86	12.377
669.18	12.831
669.50	13.519
669.83	12.600
670.15	11.811
670.48	14.484
670.80	13.384
671.13	13.989
671.45	13.583
671.77	14.313
672.10	12.167
672.42	14.078
672.75	10.906
673.07	13.134
673.39	12.481
673.72	13.255
674.04	14.483
674.37	12.343
674.69	15.344
675.01	10.667
675.34	13.740
675.66	11.049
675.98	12.873
676.31	12.305
676.63	14.639
676.95	14.751
677.28	13.911
677.60	11.811
677.92	13.436
678.25	14.991
678.57	12.633
678.89	13.823
679.22	12.892
679.54	12.137
679.86	12.034
680.18	11.277
680.51	13.365
680.83	11.457
681.15	12.759
681.48	11.399
681.80	13.126
682.12	11.888
682.44	13.523
682.77	13.298
683.09	14.015
683.41	12.016
683.73	13.662
684.06	13.284
684.38	10.733
684.70	14.004
685.02	12.565
685.34	12.978
685.67	11.514
685.99	11.503
686.31	10.756
686.63	12.480
686.96	13.722
687.28	12.215
687.60	9.933
687.92	12.862
688.24	14.023
688.56	12.069
688.89	11.978
689.21	13.503
689.53	10.392
689.85	12.623
690.17	12.407
690.49	13.147
690.82	11.485
691.14	10.931
691.46	12.620
691.78	14.549
692.10	11.927
692.42	11.964
692.74	13.430
693.06	11.481
693.39	12.713
693.71	12.030
694.03	12.639
694.35	12.190
694.67	15.606
694.99	11.064
695.31	11.038
695.63	15.368
695.95	11.594
696.27	13.846
696.59	11.947
696.91	14.640
697.23	13.407
697.56	9.369
697.88	11.174
698.20	11.864
698.52	13.826
698.84	13.306
699.16	14.082
699.48	12.552
699.80	13.617
700.12	13.319
700.44	12.212
700.76	10.926
701.08	14.044
701.40	11.140
701.72	13.682
702.04	13.369
702.36	9.948
702.68	11.980
703.00	14.425
703.32	13.547
703.64	12.714
703.96	12.411
704.28	11.548
704.60	12.658
704.91	12.245
705.23	13.699
705.55	11.978
705.87	14.242
706.19	13.497
706.51	12.651
706.83	10.663
707.15	12.698
707.47	12.383
707.79	10.699
708.11	8.898
708.43	11.183
708.74	10.268
709.06	10.905
709.38	14.554
709.70	13.400
710.02	11.111
710.34	12.234
710.66	8.380
710.98	12.295
711.29	11.264
711.61	12.712
711.93	13.390
712.25	11.351
712.57	13.864
712.89	16.176
713.20	14.497
713.52	14.451
713.84	12.535
714.16	15.263
714.48	11.082
714.80	13.766
715.11	11.549
715.43	10.345
715.75	15.789
716.07	11.602
716.39	13.661
716.70	12.048
717.02	11.803
717.34	8.711
717.66	12.416
717.97	11.301
718.29	8.935
718.61	10.526
718.93	8.738
719.24	13.043
719.56	11.350
719.88	11.411
720.20	11.613
720.51	12.422
720.83	11.250
721.15	9.211
721.46	9.932
721.78	11.667
722.10	10.032
722.42	10.738
722.73	12.258
723.05	12.982
723.37	9.722
723.68	15.054
724.00	12.996
724.32	11.972
724.63	10.490
724.95	15.957
725.27	9.408
725.58	10.601
725.90	14.138
726.22	11.599
726.53	11.688
726.85	11.006
727.16	12.991
727.48	12.538
727.80	12.252
728.11	9.894
728.43	12.458
728.74	7.358
729.06	10.927
729.38	12.338
729.69	14.094
730.01	13.095
730.32	10.606
730.64	11.635
730.96	9.317
731.27	14.246
731.59	12.912
731.90	12.987
732.22	11.979
732.53	9.116
732.85	11.429
733.16	13.783
733.48	11.585
733.80	10.306
734.11	10.256
734.43	12.432
734.74	12.152
735.06	11.307
735.37	9.189
735.69	10.541
736.00	13.842
736.32	10.782
736.63	10.833
736.95	11.494
737.26	12.424
737.58	10.303
737.89	13.235
738.21	12.844
738.52	7.869
738.83	12.969
739.15	11.702
739.46	11.905
739.78	14.724
740.09	10.888
740.41	14.869
740.72	10.000
741.04	13.916
741.35	11.930
741.66	12.549
741.98	11.885
742.29	11.297
742.61	11.842
742.92	11.154
743.23	14.079
743.55	14.341
743.86	13.200
744.18	9.091
744.49	5.063
744.80	10.288
745.12	14.346
745.43	15.041
745.74	11.638
746.06	11.441
746.37	13.924
746.68	17.886
747.00	14.167
747.31	11.159
747.62	15.385
747.94	14.170
748.25	8.032
748.56	11.429
748.88	10.684
749.19	16.379
749.50	6.926
749.82	15.663
750.13	18.861
750.44	7.333
750.75	12.308
751.07	9.846
751.38	13.565
751.69	11.821
752.01	11.650
752.32	11.438
752.63	10.544
752.94	7.266
753.26	8.922
753.57	9.259
753.88	8.240
754.19	11.254
754.51	11.576
754.82	11.576
755.13	15.082
755.44	13.993
755.75	13.487
756.07	11.343
756.38	13.208
756.69	9.940
757.00	12.188
757.31	9.563
757.63	9.463
757.94	9.155
758.25	11.061
758.56	11.765
758.87	12.500
759.18	12.000
759.50	11.898
759.81	11.204
760.12	7.547
760.43	12.240
760.74	11.576
761.05	10.000
761.36	11.084
761.67	7.614
761.99	11.081
762.30	7.927
762.61	8.911
762.92	11.940
763.23	12.360
763.54	13.309
763.85	11.684
764.16	13.131
764.47	13.028
764.78	9.904
765.10	12.023
765.41	12.821
765.72	5.026
766.03	12.147
766.34	7.210
766.65	9.756
766.96	9.562
767.27	15.207
767.58	10.945
767.89	14.904
768.20	11.268
768.51	8.796
768.82	10.442
769.13	10.227
769.44	3.077
769.75	12.274
770.06	12.308
770.37	18.110
770.68	14.894
770.99	4.858
771.30	16.296
771.61	10.266
771.92	11.111
772.23	16.194
772.54	5.093
772.85	13.364
773.16	12.381
773.47	4.233
773.78	2.703
774.09	8.523
774.39	16.500
774.70	10.929
775.01	2.439
775.32	9.412
775.63	14.724
775.94	8.917
776.25	14.194
776.56	11.538
776.87	17.687
777.18	3.448
777.48	14.685
777.79	12.838
778.10	5.147
778.41	14.583
778.72	20.690
779.03	14.815
779.34	8.485
779.65	11.917
779.95	10.556
780.26	14.205
780.57	10.323
780.88	13.768
781.19	15.484
781.50	12.353
781.80	10.753
782.11	17.989
782.42	4.545
782.73	3.593
783.04	15.084
783.34	4.242
783.65	10.458
783.96	6.211
784.27	10.714
784.57	8.609
784.88	12.857
785.19	9.449
785.50	10.236
785.81	15.789
786.11	9.231
786.42	4.317
786.73	5.755
787.04	10.526
787.34	10.656
787.65	11.200
787.96	5.224
788.26	20.280
788.57	17.483
788.88	4.605
789.19	16.340
789.49	6.164
789.80	8.511
790.11	11.811
790.41	4.687
790.72	11.017
791.03	0.000
791.33	13.913
791.64	13.158
791.95	12.500
792.25	9.524
792.56	8.929
792.87	8.333
793.17	12.500
793.48	13.542
793.79	6.024
794.09	7.339
794.40	6.422
794.70	14.966
795.01	8.442
795.32	13.699
795.62	7.746
795.93	7.576
796.23	14.754
796.54	13.393
796.85	6.383
797.15	6.522
797.46	19.178
797.76	-2.500
798.07	13.043
798.37	1.031
798.68	2.597
798.99	2.299
799.29	10.112
799.60	12.766
799.90	6.024
800.21	0.000
800.51	2.985
800.82	10.294
801.12	-9.589
801.43	10.294
801.73	0.000
802.04	1.515
802.34	0.000
802.65	40.678
802.95	5.970
803.26	13.559
803.56	12.329
803.87	21.429
804.17	21.918
804.48	-15.789
804.78	2.778
805.09	-1.724
805.39	20.270
805.70	-2.817
806.00	14.634
806.30	12.048
806.61	15.068
806.91	20.192
807.22	7.778
807.52	-2.299
807.83	16.667
808.13	14.458
808.43	17.978
808.74	12.500
809.04	5.882
809.35	6.667
809.65	10.000
809.95	9.589
810.26	-7.018
810.56	-8.621
810.86	13.235
811.17	-17.544
811.47	-1.639
811.77	8.889
812.08	3.390
812.38	13.333
812.69	3.448
812.99	5.660
813.29	-12.821
813.59	2.000
813.90	8.772
814.20	-10.909
814.50	30.986
814.81	15.385
815.11	3.279
815.41	8.955
815.72	17.241
816.02	5.357
816.32	42.222
816.62	2.273
816.93	-11.111
817.23	7.407
817.53	31.915
817.84	28.571
818.14	5.882
818.44	14.286
818.74	0.000
819.04	-12.821
819.35	-2.857
819.65	-38.462
819.95	15.094
820.25	8.889
820.56	0.000
820.86	0.000
821.16	-5.128
821.46	-6.977
821.76	12.000
822.07	12.500
822.37	23.913
822.67	19.149
822.97	-10.811
823.27	2.500
823.57	28.571
823.88	26.667
824.18	2.500
824.48	13.333
824.78	-16.000
825.08	33.333
825.38	22.222
825.69	8.511
825.99	30.556
826.29	-22.857
826.59	15.385
826.89	2.326
827.19	22.000
827.49	-2.941
827.79	20.833
828.09	-8.108
828.39	-13.333
828.70	-4.878
829.00	13.953
829.30	-10.714
829.60	26.471
829.90	2.174
830.20	14.286
830.50	-10.345
830.80	5.556
831.10	-11.538
831.40	5.882
831.70	9.524
832.00	32.258
832.30	-82.353
832.60	-29.167
832.90	-46.154
833.20	21.053
833.50	-5.000
833.80	31.579
834.10	-52.381
834.40	19.444
834.70	12.500
835.00	-14.286
835.30	2.941
835.60	20.000
835.90	-20.000
836.20	-13.636
836.50	28.000
836.80	12.121
837.10	14.815
837.40	25.926
837.70	-43.750
838.00	10.714
838.30	-17.391
838.60	20.690
838.90	-7.143
839.19	17.391
839.49	8.333
839.79	26.087
840.09	-37.500
840.39	-45.000
840.69	38.710
840.99	-7.143
841.29	26.667
841.59	47.368
841.88	28.205
842.18	-3.846
842.48	-90.000
842.78	45.000
843.08	30.000
843.38	19.355
843.68	-5.556
843.97	20.588
844.27	31.250
844.57	-36.842
844.87	-40.000
845.17	0.000
845.47	4.762
845.76	-52.381
846.06	66.667
846.36	-11.765
846.66	11.538
846.96	0.000
847.25	-58.824
847.55	47.826
847.85	45.000
848.15	47.059
848.44	-9.091
848.74	4.762
849.04	8.333
849.34	-18.750
849.63	8.696
849.93	300.000
850.23	-40.000
850.53	42.308
850.82	18.182
851.12	0.000
851.42	-27.273
851.71	-7.692
852.01	-20.000
852.31	15.385
852.61	-26.316
852.90	0.000
853.20	-11.111
853.50	0.000
853.79	-9.524
854.09	-13.636
854.39	-58.333
854.68	29.032
854.98	19.231
855.28	-11.111
855.57	21.429
855.87	8.000
856.17	40.909
856.46	18.519
856.76	-33.333
857.05	-34.783
857.35	0.000
857.65	-7.692
857.94	4.762
858.24	22.222
858.53	21.739
858.83	35.294
859.13	-35.294
859.42	11.765
859.72	0.000
860.01	10.000
860.31	-33.333
860.60	110.000
860.90	6.667
861.20	11.111
861.49	92.308
861.79	43.333
862.08	0.000
862.38	28.125
862.67	0.000
862.97	-6.250
863.26	-111.111
863.56	10.000
863.85	-18.182
864.15	-5.556
864.44	-33.333
864.74	0.000
865.03	-18.750
865.33	50.000
865.62	-12.903
865.92	22.727
866.21	-4.348
866.51	28.571
866.80	-60.000
867.10	-8.333
867.39	16.667
867.69	1200.000
867.98	-14.286
868.27	17.647
868.57	-500.000
868.86	-90.000
869.16	-4.762
869.45	4.167
869.75	18.182
870.04	-57.143
870.33	-16.667
870.63	-57.143
870.92	50.000
871.22	-37.500
871.51	-18.182
871.80	-266.667
872.10	100.000
>>>>>End Processed Spectral Data<<<<<
