SpectraSuite Data File
++++++++++++++++++++++++++++++++++++
Date: Thu May 14 16:32:37 PDT 2015
User: schluterlab
Dark Spectrum Present: Yes
Reference Spectrum Present: Yes
Number of Sampled Component Spectra: 1
Spectrometers: USB2E3373
Integration Time (usec): 3000 (USB2E3373)
Spectra Averaged: 3 (USB2E3373)
Boxcar Smoothing: 0 (USB2E3373)
Correct for Electrical Dark: No (USB2E3373)
Strobe/Lamp Enabled: No (USB2E3373)
Correct for Detector Non-linearity: No (USB2E3373)
Correct for Stray Light: No (USB2E3373)
Number of Pixels in Processed Spectrum: 2048
>>>>>Begin Processed Spectral Data<<<<<
178.53	0.000
178.91	100.000
179.29	-900.000
179.67	100.000
180.04	71.429
180.42	-10.000
180.80	240.000
181.18	-400.000
181.56	400.000
181.94	125.000
182.31	25.000
182.69	133.333
183.07	-350.000
183.45	200.000
183.83	116.667
184.20	166.667
184.58	200.000
184.96	-175.000
185.34	77.778
185.72	80.000
186.09	122.222
186.47	100.000
186.85	180.000
187.23	-33.333
187.61	-800.000
187.98	120.000
188.36	200.000
188.74	-125.000
189.12	200.000
189.49	25.000
189.87	0.000
190.25	66.667
190.63	-100.000
191.00	11.111
191.38	0.000
191.76	-350.000
192.14	-133.333
192.51	100.000
192.89	50.000
193.27	0.000
193.65	-28.571
194.02	-500.000
194.40	128.571
194.78	128.571
195.15	0.000
195.53	-9.091
195.91	0.000
196.29	125.000
196.66	-7.692
197.04	-700.000
197.42	-42.857
197.79	-150.000
198.17	-37.500
198.55	-28.571
198.92	11.111
199.30	-75.000
199.68	18.182
200.05	71.429
200.43	-200.000
200.81	100.000
201.18	0.000
201.56	188.889
201.94	0.000
202.31	233.333
202.69	-22.222
203.07	-700.000
203.44	-55.556
203.82	-25.000
204.19	-16.667
204.57	100.000
204.95	-12.500
205.32	500.000
205.70	125.000
206.08	-33.333
206.45	-16.667
206.83	280.000
207.20	50.000
207.58	-160.000
207.96	16.667
208.33	150.000
208.71	-33.333
209.08	166.667
209.46	0.000
209.84	66.667
210.21	-0.000
210.59	50.000
210.96	366.667
211.34	50.000
211.71	0.000
212.09	-100.000
212.46	0.000
212.84	700.000
213.22	-100.000
213.59	75.000
213.97	-30.000
214.34	-366.667
214.72	150.000
215.09	225.000
215.47	0.000
215.84	114.286
216.22	400.000
216.59	20.000
216.97	-60.000
217.34	-225.000
217.72	162.500
218.09	-50.000
218.47	-50.000
218.84	0.000
219.22	-140.000
219.59	-58.824
219.97	35.000
220.34	400.000
220.72	66.667
221.09	115.385
221.47	66.667
221.84	60.000
222.22	-57.143
222.59	0.000
222.97	87.500
223.34	40.000
223.72	-900.000
224.09	125.000
224.46	-150.000
224.84	-120.000
225.21	14.286
225.59	-150.000
225.96	-200.000
226.34	38.462
226.71	183.333
227.08	-350.000
227.46	46.667
227.83	-75.000
228.21	21.053
228.58	-0.000
228.95	450.000
229.33	-16.667
229.70	0.000
230.08	94.737
230.45	40.000
230.82	266.667
231.20	21.429
231.57	25.000
231.95	-81.818
232.32	54.545
232.69	55.000
233.07	-25.000
233.44	-35.294
233.81	-30.000
234.19	44.444
234.56	86.364
234.93	37.931
235.31	5.263
235.68	61.111
236.05	-5.000
236.43	53.846
236.80	52.000
237.17	-3.704
237.55	36.364
237.92	80.000
238.29	35.484
238.67	31.818
239.04	36.111
239.41	21.429
239.79	30.435
240.16	27.778
240.53	6.522
240.91	11.765
241.28	36.066
241.65	43.284
242.02	37.838
242.40	38.462
242.77	32.000
243.14	23.171
243.51	32.895
243.89	14.103
244.26	31.683
244.63	29.412
245.00	35.514
245.38	25.439
245.75	18.584
246.12	34.127
246.49	23.256
246.87	37.857
247.24	37.086
247.61	31.579
247.98	34.899
248.36	33.333
248.73	28.221
249.10	30.055
249.47	36.816
249.84	37.696
250.22	31.606
250.59	36.667
250.96	34.091
251.33	31.633
251.70	30.769
252.08	30.000
252.45	32.787
252.82	32.231
253.19	32.031
253.56	32.319
253.94	28.462
254.31	35.606
254.68	36.364
255.05	30.619
255.42	31.293
255.79	31.392
256.16	32.119
256.54	31.126
256.91	34.098
257.28	35.082
257.65	33.758
258.02	30.973
258.39	34.473
258.76	36.391
259.14	35.632
259.51	30.259
259.88	35.411
260.25	36.389
260.62	36.438
260.99	36.612
261.36	34.853
261.73	34.483
262.10	36.538
262.47	34.584
262.85	35.606
263.22	35.584
263.59	30.000
263.96	32.737
264.33	31.714
264.70	32.346
265.07	35.561
265.44	36.054
265.81	34.954
266.18	34.694
266.55	34.375
266.92	34.396
267.29	38.074
267.66	34.146
268.03	34.716
268.40	34.238
268.77	32.118
269.14	32.379
269.51	32.018
269.88	36.066
270.25	33.602
270.62	36.498
270.99	35.556
271.36	34.059
271.73	33.988
272.10	35.471
272.47	33.267
272.84	33.333
273.21	34.068
273.58	33.266
273.95	32.885
274.32	31.939
274.69	32.882
275.06	32.601
275.43	31.793
275.80	32.981
276.17	31.481
276.54	32.463
276.91	30.590
277.28	33.996
277.65	31.777
278.02	32.353
278.39	32.428
278.76	33.743
279.13	33.865
279.50	33.505
279.87	32.021
280.23	30.106
280.60	31.864
280.97	34.375
281.34	31.070
281.71	32.318
282.08	32.060
282.45	31.588
282.82	31.554
283.19	32.956
283.56	32.295
283.92	33.634
284.29	33.491
284.66	30.870
285.03	31.250
285.40	31.994
285.77	31.115
286.14	30.382
286.51	31.811
286.87	33.649
287.24	32.380
287.61	30.792
287.98	30.967
288.35	28.402
288.72	29.438
289.08	31.040
289.45	28.550
289.82	30.120
290.19	28.592
290.56	29.155
290.93	30.385
291.29	28.237
291.66	28.375
292.03	28.901
292.40	28.571
292.77	28.437
293.13	28.958
293.50	27.070
293.87	29.396
294.24	28.400
294.60	27.813
294.97	27.383
295.34	27.145
295.71	24.968
296.08	27.003
296.44	25.123
296.81	27.040
297.18	26.899
297.55	25.825
297.91	25.267
298.28	24.882
298.65	25.208
299.02	24.203
299.38	25.057
299.75	23.832
300.12	23.843
300.48	25.576
300.85	24.747
301.22	23.602
301.59	24.315
301.95	24.746
302.32	24.889
302.69	25.301
303.05	26.224
303.42	24.390
303.79	23.646
304.15	24.290
304.52	24.207
304.89	24.084
305.25	23.913
305.62	24.347
305.99	24.948
306.35	23.488
306.72	24.612
307.09	23.553
307.45	25.052
307.82	24.016
308.19	23.512
308.55	23.047
308.92	22.980
309.29	23.084
309.65	22.807
310.02	22.673
310.38	22.835
310.75	23.495
311.12	23.778
311.48	23.069
311.85	23.552
312.22	22.960
312.58	23.286
312.95	22.467
313.31	22.584
313.68	22.985
314.05	24.210
314.41	22.495
314.78	22.979
315.14	23.049
315.51	22.530
315.87	22.772
316.24	23.196
316.61	22.202
316.97	22.805
317.34	21.958
317.70	22.707
318.07	22.928
318.43	22.279
318.80	22.074
319.16	22.489
319.53	21.337
319.89	21.122
320.26	23.399
320.62	21.011
320.99	22.345
321.35	22.643
321.72	23.628
322.08	21.641
322.45	22.403
322.81	22.292
323.18	22.212
323.54	23.103
323.91	22.242
324.27	21.515
324.64	22.082
325.00	21.310
325.37	21.458
325.73	21.157
326.10	22.790
326.46	22.476
326.83	22.018
327.19	22.441
327.56	22.372
327.92	21.558
328.29	21.290
328.65	21.441
329.01	20.897
329.38	21.483
329.74	20.976
330.11	22.260
330.47	22.494
330.84	21.619
331.20	22.417
331.56	23.137
331.93	22.092
332.29	21.525
332.66	20.930
333.02	21.441
333.38	21.812
333.75	21.801
334.11	21.601
334.48	21.700
334.84	22.515
335.20	20.571
335.57	21.754
335.93	22.149
336.29	20.133
336.66	19.933
337.02	21.237
337.38	22.024
337.75	20.826
338.11	21.362
338.47	21.671
338.84	21.320
339.20	20.388
339.56	20.346
339.93	19.869
340.29	21.095
340.65	20.438
341.02	20.990
341.38	21.099
341.74	20.581
342.11	20.595
342.47	19.857
342.83	20.129
343.20	20.033
343.56	20.048
343.92	21.777
344.28	20.859
344.65	21.085
345.01	20.047
345.37	20.529
345.73	19.719
346.10	21.295
346.46	21.044
346.82	19.700
347.19	20.321
347.55	21.775
347.91	20.579
348.27	20.106
348.63	20.335
349.00	20.880
349.36	20.892
349.72	20.387
350.08	20.357
350.45	20.684
350.81	20.287
351.17	20.451
351.53	20.243
351.89	20.425
352.26	20.000
352.62	20.075
352.98	20.153
353.34	19.417
353.70	20.416
354.07	19.300
354.43	19.590
354.79	19.671
355.15	19.352
355.51	20.906
355.87	19.671
356.24	20.000
356.60	18.995
356.96	19.644
357.32	20.149
357.68	19.327
358.04	18.563
358.40	19.851
358.77	19.883
359.13	19.424
359.49	18.885
359.85	20.522
360.21	19.871
360.57	18.665
360.93	18.970
361.29	19.018
361.66	19.044
362.02	20.320
362.38	19.606
362.74	19.204
363.10	19.739
363.46	19.668
363.82	19.247
364.18	19.282
364.54	20.055
364.90	19.866
365.26	18.966
365.62	20.067
365.98	19.061
366.35	18.658
366.71	19.116
367.07	19.959
367.43	19.041
367.79	20.040
368.15	20.134
368.51	18.674
368.87	20.052
369.23	18.800
369.59	18.648
369.95	18.729
370.31	20.392
370.67	19.532
371.03	18.144
371.39	17.730
371.75	20.083
372.11	19.241
372.47	18.483
372.83	19.175
373.19	18.679
373.55	18.699
373.91	18.200
374.27	19.082
374.63	18.539
374.99	18.833
375.35	19.351
375.71	18.839
376.07	18.722
376.42	18.325
376.78	19.080
377.14	18.840
377.50	18.153
377.86	19.150
378.22	19.102
378.58	19.441
378.94	18.897
379.30	18.746
379.66	19.106
380.02	18.523
380.38	19.297
380.74	18.817
381.09	18.583
381.45	18.466
381.81	19.614
382.17	19.359
382.53	19.006
382.89	18.510
383.25	19.226
383.61	18.576
383.97	18.316
384.32	18.959
384.68	17.865
385.04	18.623
385.40	19.269
385.76	19.285
386.12	18.731
386.48	19.000
386.83	19.130
387.19	18.308
387.55	19.073
387.91	18.322
388.27	18.707
388.62	18.442
388.98	18.556
389.34	19.210
389.70	18.420
390.06	19.005
390.42	18.373
390.77	18.543
391.13	18.369
391.49	19.324
391.85	18.121
392.20	18.861
392.56	19.019
392.92	18.375
393.28	18.795
393.64	17.933
393.99	19.640
394.35	18.867
394.71	19.042
395.07	18.443
395.42	17.933
395.78	18.769
396.14	18.895
396.50	18.587
396.85	18.724
397.21	18.225
397.57	19.376
397.92	19.473
398.28	17.762
398.64	17.963
399.00	17.958
399.35	18.168
399.71	18.207
400.07	18.641
400.42	18.102
400.78	18.634
401.14	18.384
401.49	18.647
401.85	18.023
402.21	18.076
402.57	19.249
402.92	18.794
403.28	18.443
403.63	17.363
403.99	17.933
404.35	18.590
404.70	17.847
405.06	18.261
405.42	18.384
405.77	18.157
406.13	19.503
406.49	18.018
406.84	18.947
407.20	18.502
407.55	17.929
407.91	17.850
408.27	19.199
408.62	18.208
408.98	18.340
409.34	17.771
409.69	18.727
410.05	18.992
410.40	18.677
410.76	17.835
411.11	19.345
411.47	17.998
411.83	18.519
412.18	18.313
412.54	19.028
412.89	18.393
413.25	18.792
413.60	18.150
413.96	18.473
414.31	18.810
414.67	18.724
415.03	18.523
415.38	17.591
415.74	17.654
416.09	18.816
416.45	17.533
416.80	17.564
417.16	18.710
417.51	18.057
417.87	18.332
418.22	19.102
418.58	17.844
418.93	18.976
419.29	17.879
419.64	17.167
420.00	17.923
420.35	18.248
420.71	18.150
421.06	17.941
421.42	18.177
421.77	17.609
422.12	18.076
422.48	17.972
422.83	18.675
423.19	18.143
423.54	18.971
423.90	18.774
424.25	18.347
424.61	17.738
424.96	18.671
425.31	18.684
425.67	17.284
426.02	18.041
426.38	17.394
426.73	17.522
427.09	19.377
427.44	17.859
427.79	18.519
428.15	17.580
428.50	17.978
428.85	17.738
429.21	17.606
429.56	17.868
429.92	17.445
430.27	18.072
430.62	18.368
430.98	18.151
431.33	18.377
431.68	17.289
432.04	17.623
432.39	18.425
432.74	18.151
433.10	18.442
433.45	17.391
433.80	17.865
434.16	18.182
434.51	17.677
434.86	18.458
435.22	18.119
435.57	18.750
435.92	18.086
436.28	17.577
436.63	17.859
436.98	17.606
437.34	18.264
437.69	17.997
438.04	18.403
438.39	17.806
438.75	17.654
439.10	18.182
439.45	18.167
439.81	17.797
440.16	17.480
440.51	18.339
440.86	17.676
441.22	18.060
441.57	18.134
441.92	17.410
442.27	18.535
442.63	18.430
442.98	18.196
443.33	17.201
443.68	19.078
444.03	18.297
444.39	18.539
444.74	18.479
445.09	18.297
445.44	18.230
445.79	18.247
446.15	18.294
446.50	18.191
446.85	18.677
447.20	18.085
447.55	18.515
447.91	18.063
448.26	18.182
448.61	18.332
448.96	19.313
449.31	18.028
449.66	17.593
450.02	18.302
450.37	18.540
450.72	17.707
451.07	18.565
451.42	17.851
451.77	17.454
452.12	18.623
452.47	18.360
452.83	19.088
453.18	18.797
453.53	18.093
453.88	18.774
454.23	18.531
454.58	18.630
454.93	18.507
455.28	19.145
455.63	18.533
455.98	18.324
456.34	17.962
456.69	19.048
457.04	18.676
457.39	17.849
457.74	18.624
458.09	18.232
458.44	18.481
458.79	17.844
459.14	18.458
459.49	17.997
459.84	18.730
460.19	18.157
460.54	19.194
460.89	18.475
461.24	18.103
461.59	18.926
461.94	17.969
462.29	17.805
462.64	18.950
462.99	18.895
463.34	18.884
463.69	17.995
464.04	18.899
464.39	19.395
464.74	18.073
465.09	17.935
465.44	18.348
465.79	19.196
466.14	17.665
466.49	18.526
466.84	18.567
467.19	17.746
467.54	17.391
467.89	17.989
468.24	18.560
468.59	17.719
468.94	17.249
469.29	17.636
469.64	17.673
469.99	17.718
470.34	18.688
470.68	18.387
471.03	18.533
471.38	18.509
471.73	17.685
472.08	18.528
472.43	18.061
472.78	19.018
473.13	17.193
473.48	18.912
473.83	18.746
474.17	17.409
474.52	18.882
474.87	18.383
475.22	18.930
475.57	17.913
475.92	18.069
476.27	19.755
476.61	18.484
476.96	18.300
477.31	18.218
477.66	19.150
478.01	18.912
478.36	17.697
478.70	18.867
479.05	18.507
479.40	18.460
479.75	18.588
480.10	17.811
480.45	18.232
480.79	18.503
481.14	18.566
481.49	17.856
481.84	18.886
482.19	18.538
482.53	18.802
482.88	18.299
483.23	18.186
483.58	18.297
483.92	18.085
484.27	18.628
484.62	17.863
484.97	18.974
485.31	18.444
485.66	17.715
486.01	17.562
486.36	17.496
486.70	18.481
487.05	18.879
487.40	18.505
487.75	18.626
488.09	18.653
488.44	18.619
488.79	18.314
489.13	19.044
489.48	17.864
489.83	18.189
490.17	18.226
490.52	18.432
490.87	18.486
491.22	18.111
491.56	19.113
491.91	18.622
492.26	18.780
492.60	17.884
492.95	18.824
493.30	18.602
493.64	19.141
493.99	18.246
494.34	18.162
494.68	18.330
495.03	18.238
495.37	18.642
495.72	19.138
496.07	18.624
496.41	18.790
496.76	18.432
497.11	18.981
497.45	18.558
497.80	18.836
498.14	18.594
498.49	18.842
498.84	19.059
499.18	18.668
499.53	19.193
499.87	19.516
500.22	17.809
500.56	18.758
500.91	19.085
501.26	19.045
501.60	17.985
501.95	18.063
502.29	18.692
502.64	18.627
502.98	18.766
503.33	18.229
503.67	17.444
504.02	18.827
504.36	18.945
504.71	19.752
505.06	19.145
505.40	18.693
505.75	18.898
506.09	19.429
506.44	19.220
506.78	19.128
507.13	18.811
507.47	19.422
507.82	19.081
508.16	19.312
508.51	18.706
508.85	19.273
509.19	19.375
509.54	19.597
509.88	19.475
510.23	19.233
510.57	19.575
510.92	19.158
511.26	19.240
511.61	18.590
511.95	19.082
512.30	18.661
512.64	18.741
512.98	19.810
513.33	19.960
513.67	19.225
514.02	19.264
514.36	19.591
514.70	19.427
515.05	19.864
515.39	19.213
515.74	19.989
516.08	19.229
516.42	19.937
516.77	19.611
517.11	19.237
517.46	19.618
517.80	19.989
518.14	20.348
518.49	20.282
518.83	19.425
519.17	19.709
519.52	20.231
519.86	19.747
520.20	19.968
520.55	19.332
520.89	19.820
521.23	20.212
521.58	19.209
521.92	20.510
522.26	19.874
522.61	19.850
522.95	20.358
523.29	19.023
523.64	19.731
523.98	21.278
524.32	20.688
524.66	20.262
525.01	18.969
525.35	19.070
525.69	19.780
526.04	20.379
526.38	19.828
526.72	20.415
527.06	20.117
527.41	20.875
527.75	19.834
528.09	20.897
528.43	18.887
528.78	19.075
529.12	19.954
529.46	20.686
529.80	20.366
530.15	19.188
530.49	20.878
530.83	20.366
531.17	20.490
531.51	19.795
531.86	20.553
532.20	19.939
532.54	19.988
532.88	20.606
533.22	20.448
533.57	20.196
533.91	19.921
534.25	19.729
534.59	19.943
534.93	19.242
535.27	20.113
535.62	20.409
535.96	20.802
536.30	19.859
536.64	20.360
536.98	20.357
537.32	21.235
537.66	20.586
538.01	19.819
538.35	19.854
538.69	20.853
539.03	20.417
539.37	20.436
539.71	20.601
540.05	20.084
540.39	20.477
540.73	19.672
541.07	20.478
541.42	20.083
541.76	19.988
542.10	19.723
542.44	19.976
542.78	20.438
543.12	20.322
543.46	21.123
543.80	19.484
544.14	20.227
544.48	20.272
544.82	20.706
545.16	20.155
545.50	19.772
545.84	19.718
546.18	21.111
546.52	20.637
546.86	19.937
547.20	20.102
547.54	20.287
547.88	19.711
548.22	19.766
548.56	19.719
548.90	19.642
549.24	19.878
549.58	20.757
549.92	19.196
550.26	20.971
550.60	20.102
550.94	20.375
551.28	19.868
551.62	20.350
551.96	20.194
552.30	20.778
552.64	20.722
552.98	20.649
553.32	20.707
553.66	20.450
554.00	20.366
554.34	20.914
554.68	19.690
555.02	20.894
555.36	20.644
555.69	20.179
556.03	20.177
556.37	21.151
556.71	20.038
557.05	20.511
557.39	20.969
557.73	20.343
558.07	20.331
558.41	21.528
558.75	21.433
559.08	20.668
559.42	19.959
559.76	21.167
560.10	21.634
560.44	21.042
560.78	20.312
561.12	20.751
561.45	20.012
561.79	20.818
562.13	20.887
562.47	20.099
562.81	20.380
563.15	20.518
563.48	20.510
563.82	20.133
564.16	20.351
564.50	19.905
564.84	20.000
565.17	20.647
565.51	19.965
565.85	20.131
566.19	19.412
566.52	20.012
566.86	20.430
567.20	19.141
567.54	20.234
567.88	20.387
568.21	19.960
568.55	20.240
568.89	19.882
569.23	20.110
569.56	19.304
569.90	19.565
570.24	19.595
570.57	18.858
570.91	19.902
571.25	19.034
571.59	19.621
571.92	19.110
572.26	18.952
572.60	19.383
572.93	19.649
573.27	19.275
573.61	19.111
573.95	19.155
574.28	19.154
574.62	18.872
574.96	18.593
575.29	18.727
575.63	19.011
575.97	19.114
576.30	18.381
576.64	19.017
576.98	18.724
577.31	18.638
577.65	19.150
577.98	18.656
578.32	18.753
578.66	18.338
578.99	18.104
579.33	19.164
579.67	18.495
580.00	18.746
580.34	18.695
580.67	18.535
581.01	18.650
581.35	18.664
581.68	18.758
582.02	18.290
582.35	18.859
582.69	18.525
583.02	18.669
583.36	19.059
583.70	19.132
584.03	19.078
584.37	19.032
584.70	18.606
585.04	18.624
585.37	18.913
585.71	18.857
586.04	18.472
586.38	18.547
586.72	18.451
587.05	19.084
587.39	18.848
587.72	19.258
588.06	18.883
588.39	18.546
588.73	18.598
589.06	18.962
589.40	19.422
589.73	18.927
590.07	19.231
590.40	19.270
590.73	19.265
591.07	19.583
591.40	18.740
591.74	19.316
592.07	19.732
592.41	19.085
592.74	18.921
593.08	18.758
593.41	18.810
593.75	18.879
594.08	19.055
594.41	18.814
594.75	19.130
595.08	18.674
595.42	18.799
595.75	19.115
596.09	19.620
596.42	19.635
596.75	19.298
597.09	20.444
597.42	19.190
597.75	19.326
598.09	19.841
598.42	19.220
598.76	18.838
599.09	19.295
599.42	19.041
599.76	18.818
600.09	19.186
600.42	19.486
600.76	19.320
601.09	19.250
601.42	18.572
601.76	19.034
602.09	19.049
602.42	19.048
602.76	19.225
603.09	19.457
603.42	19.581
603.76	18.781
604.09	19.482
604.42	19.083
604.76	19.064
605.09	18.987
605.42	19.099
605.75	19.346
606.09	19.112
606.42	18.825
606.75	18.928
607.09	18.971
607.42	19.114
607.75	19.422
608.08	19.219
608.42	19.549
608.75	19.196
609.08	18.846
609.41	19.497
609.75	19.688
610.08	19.921
610.41	19.159
610.74	19.118
611.07	19.671
611.41	20.448
611.74	19.677
612.07	20.056
612.40	19.629
612.73	19.658
613.07	19.120
613.40	19.923
613.73	19.547
614.06	19.725
614.39	19.242
614.72	20.039
615.06	19.249
615.39	19.333
615.72	18.626
616.05	19.767
616.38	20.535
616.71	20.063
617.05	19.329
617.38	20.706
617.71	20.518
618.04	19.806
618.37	20.874
618.70	20.023
619.03	19.474
619.36	20.160
619.69	19.731
620.03	20.653
620.36	20.368
620.69	19.988
621.02	20.210
621.35	21.190
621.68	21.547
622.01	20.712
622.34	20.921
622.67	20.137
623.00	18.893
623.33	20.504
623.66	21.660
623.99	20.211
624.32	20.793
624.65	20.335
624.99	21.131
625.32	21.359
625.65	20.432
625.98	20.203
626.31	20.411
626.64	20.586
626.97	20.705
627.30	20.577
627.63	20.255
627.96	21.922
628.29	20.700
628.62	20.235
628.95	21.472
629.28	20.986
629.61	23.148
629.94	22.092
630.26	20.763
630.59	21.589
630.92	21.905
631.25	22.093
631.58	22.693
631.91	21.275
632.24	21.326
632.57	21.252
632.90	21.866
633.23	20.408
633.56	22.959
633.89	21.591
634.22	23.805
634.55	21.503
634.88	21.753
635.20	23.143
635.53	21.808
635.86	23.402
636.19	22.800
636.52	22.363
636.85	21.655
637.18	21.206
637.51	21.935
637.83	23.034
638.16	23.502
638.49	22.183
638.82	23.112
639.15	21.077
639.48	24.365
639.81	22.402
640.13	21.437
640.46	20.970
640.79	22.426
641.12	20.994
641.45	24.467
641.77	23.877
642.10	23.097
642.43	24.734
642.76	22.493
643.09	22.603
643.41	22.689
643.74	22.345
644.07	24.276
644.40	23.197
644.73	21.480
645.05	22.026
645.38	24.460
645.71	22.287
646.04	25.681
646.36	22.190
646.69	22.239
647.02	24.618
647.35	24.580
647.67	26.248
648.00	23.089
648.33	24.024
648.66	21.969
648.98	21.769
649.31	23.275
649.64	23.240
649.96	21.883
650.29	24.061
650.62	21.499
650.94	22.372
651.27	21.407
651.60	22.661
651.92	21.429
652.25	22.721
652.58	22.146
652.90	22.529
653.23	24.366
653.56	20.685
653.88	23.596
654.21	24.366
654.54	21.532
654.86	22.946
655.19	22.334
655.52	21.069
655.84	18.288
656.17	21.707
656.49	30.405
656.82	33.469
657.15	26.048
657.47	19.897
657.80	14.775
658.13	11.500
658.45	15.540
658.78	18.734
659.10	18.478
659.43	18.073
659.75	19.092
660.08	17.815
660.41	18.197
660.73	18.928
661.06	20.558
661.38	21.691
661.71	24.138
662.03	23.457
662.36	22.004
662.68	24.578
663.01	24.248
663.33	26.465
663.66	24.908
663.98	24.615
664.31	25.704
664.63	24.470
664.96	24.864
665.28	23.593
665.61	24.825
665.93	23.393
666.26	22.401
666.58	21.956
666.91	23.738
667.23	24.762
667.56	24.852
667.88	27.000
668.21	21.289
668.53	22.587
668.86	23.379
669.18	24.236
669.50	24.056
669.83	23.000
670.15	21.850
670.48	23.413
670.80	21.033
671.13	24.575
671.45	24.016
671.77	23.917
672.10	21.667
672.42	22.330
672.75	20.737
673.07	21.940
673.39	20.955
673.72	21.980
674.04	22.414
674.37	22.898
674.69	26.279
675.01	22.095
675.34	22.901
675.66	23.034
675.98	24.440
676.31	24.023
676.63	23.764
676.95	25.862
677.28	24.395
677.60	23.031
677.92	23.225
678.25	23.218
678.57	22.420
678.89	26.451
679.22	22.822
679.54	22.222
679.86	23.559
680.18	22.388
680.51	23.113
680.83	22.259
681.15	23.448
681.48	22.625
681.80	22.107
682.12	23.252
682.44	21.536
682.77	23.404
683.09	24.242
683.41	24.806
683.73	23.340
684.06	21.956
684.38	22.898
684.70	22.801
685.02	21.170
685.34	21.797
685.67	23.817
685.99	20.859
686.31	20.349
686.63	21.959
686.96	21.924
687.28	21.987
687.60	20.539
687.92	21.543
688.24	24.374
688.56	20.690
688.89	21.779
689.21	23.875
689.53	22.353
689.85	22.288
690.17	22.778
690.49	23.307
690.82	23.366
691.14	18.421
691.46	23.901
691.78	25.046
692.10	23.119
692.42	20.536
692.74	21.053
693.06	20.926
693.39	22.770
693.71	23.120
694.03	22.305
694.35	22.857
694.67	21.766
694.99	22.340
695.31	23.400
695.63	22.944
695.95	23.188
696.27	19.341
696.59	24.115
696.91	27.027
697.23	24.835
697.56	21.385
697.88	21.780
698.20	22.599
698.52	24.053
698.84	23.285
699.16	25.306
699.48	19.874
699.80	20.851
700.12	22.707
700.44	23.041
700.76	25.178
701.08	23.245
701.40	23.834
701.72	23.134
702.04	27.005
702.36	22.251
702.68	24.694
703.00	22.983
703.32	22.660
703.64	22.738
703.96	24.344
704.28	22.850
704.60	25.570
704.91	23.214
705.23	26.027
705.55	24.234
705.87	29.091
706.19	25.153
706.51	20.783
706.83	21.902
707.15	22.487
707.47	23.131
707.79	21.179
708.11	21.822
708.43	20.645
708.74	21.652
709.06	22.274
709.38	25.117
709.70	24.814
710.02	22.997
710.34	25.266
710.66	21.508
710.98	22.131
711.29	20.879
711.61	24.859
711.93	19.943
712.25	20.811
712.57	24.484
712.89	23.824
713.20	19.822
713.52	23.121
713.84	25.070
714.16	24.737
714.48	21.134
714.80	26.753
715.11	21.785
715.43	23.342
715.75	25.000
716.07	22.928
716.39	22.678
716.70	21.988
717.02	23.279
717.34	23.345
717.66	24.497
717.97	22.603
718.29	23.711
718.61	22.697
718.93	22.006
719.24	22.981
719.56	19.632
719.88	22.222
720.20	24.516
720.51	23.913
720.83	23.125
721.15	22.039
721.46	19.521
721.78	21.333
722.10	21.683
722.42	25.168
722.73	22.581
723.05	24.912
723.37	25.000
723.68	25.806
724.00	25.271
724.32	20.070
724.63	20.629
724.95	24.823
725.27	22.997
725.58	19.435
725.90	24.828
726.22	23.824
726.53	25.000
726.85	25.157
727.16	21.752
727.48	26.606
727.80	24.172
728.11	24.382
728.43	22.559
728.74	24.080
729.06	20.530
729.38	23.052
729.69	26.510
730.01	23.810
730.32	22.121
730.64	22.642
730.96	22.050
731.27	23.464
731.59	24.451
731.90	19.740
732.22	21.094
732.53	19.890
732.85	20.000
733.16	17.595
733.48	22.561
733.80	19.499
734.11	20.228
734.43	24.595
734.74	21.266
735.06	20.101
735.37	20.000
735.69	22.703
736.00	24.859
736.32	19.946
736.63	22.778
736.95	21.264
737.26	22.121
737.58	20.000
737.89	24.412
738.21	18.960
738.52	21.967
738.83	23.891
739.15	24.823
739.46	22.789
739.78	24.847
740.09	22.350
740.41	27.405
740.72	22.667
741.04	21.683
741.35	23.860
741.66	21.961
741.98	26.230
742.29	26.360
742.61	28.070
742.92	20.000
743.23	23.466
743.55	21.705
743.86	23.600
744.18	16.942
744.49	18.987
744.80	27.160
745.12	24.473
745.43	25.610
745.74	20.690
746.06	26.695
746.37	25.316
746.68	25.610
747.00	20.833
747.31	23.176
747.62	28.077
747.94	26.721
748.25	23.293
748.56	17.959
748.88	20.513
749.19	26.724
749.50	23.377
749.82	23.293
750.13	23.843
750.44	22.000
750.75	26.154
751.07	24.615
751.38	24.606
751.69	23.642
752.01	19.094
752.32	22.876
752.63	22.449
752.94	21.799
753.26	22.305
753.57	24.074
753.88	21.348
754.19	20.257
754.51	18.971
754.82	23.151
755.13	25.902
755.44	24.232
755.75	21.382
756.07	25.970
756.38	25.786
756.69	21.386
757.00	16.898
757.31	21.858
757.63	18.670
757.94	21.596
758.25	20.316
758.56	18.519
758.87	22.500
759.18	19.467
759.50	22.663
759.81	20.448
760.12	21.833
760.43	21.615
760.74	23.153
761.05	22.000
761.36	18.554
761.67	19.543
761.99	22.432
762.30	20.732
762.61	22.112
762.92	21.642
763.23	22.097
763.54	20.504
763.85	20.619
764.16	27.609
764.47	22.183
764.78	23.962
765.10	20.821
765.41	23.846
765.72	21.429
766.03	22.599
766.34	18.182
766.65	19.512
766.96	20.319
767.27	23.502
767.58	26.866
767.89	25.000
768.20	27.230
768.51	23.611
768.82	22.892
769.13	26.515
769.44	20.769
769.75	22.744
770.06	25.385
770.37	24.409
770.68	17.447
770.99	23.077
771.30	29.259
771.61	24.715
771.92	20.741
772.23	25.911
772.54	18.519
772.85	26.267
773.16	25.238
773.47	19.577
773.78	21.622
774.09	26.136
774.39	27.500
774.70	22.404
775.01	19.512
775.32	23.529
775.63	21.472
775.94	18.471
776.25	26.452
776.56	26.923
776.87	24.490
777.18	24.138
777.48	24.476
777.79	23.649
778.10	12.500
778.41	23.611
778.72	28.276
779.03	20.988
779.34	27.879
779.65	29.016
779.95	28.333
780.26	27.273
780.57	22.581
780.88	23.188
781.19	23.226
781.50	26.471
781.80	25.806
782.11	21.693
782.42	16.162
782.73	20.359
783.04	27.374
783.34	24.848
783.65	24.837
783.96	22.360
784.27	20.238
784.57	21.854
784.88	29.286
785.19	22.835
785.50	18.898
785.81	26.316
786.11	23.846
786.42	10.072
786.73	19.424
787.04	23.308
787.34	25.410
787.65	20.800
787.96	26.119
788.26	30.070
788.57	30.769
788.88	21.711
789.19	25.490
789.49	21.918
789.80	23.404
790.11	29.134
790.41	23.437
790.72	22.034
791.03	11.650
791.33	20.000
791.64	23.684
791.95	14.286
792.25	28.571
792.56	34.821
792.87	26.042
793.17	24.107
793.48	19.792
793.79	7.229
794.09	15.596
794.40	17.431
794.70	23.129
795.01	23.377
795.32	23.288
795.62	23.944
795.93	21.212
796.23	20.492
796.54	11.607
796.85	18.085
797.15	17.391
797.46	9.589
797.76	18.750
798.07	17.391
798.37	19.588
798.68	0.000
798.99	25.287
799.29	22.472
799.60	19.149
799.90	14.458
800.21	27.692
800.51	2.985
800.82	22.059
801.12	12.329
801.43	22.059
801.73	20.339
802.04	22.727
802.34	20.000
802.65	23.729
802.95	31.343
803.26	10.169
803.56	20.548
803.87	34.286
804.17	24.658
804.48	7.018
804.78	25.000
805.09	0.000
805.39	33.784
805.70	21.127
806.00	15.854
806.30	19.277
806.61	23.288
806.91	29.808
807.22	16.667
807.52	22.989
807.83	29.167
808.13	14.458
808.43	22.472
808.74	27.500
809.04	11.765
809.35	28.000
809.65	14.286
809.95	24.658
810.26	8.772
810.56	18.966
810.86	35.294
811.17	31.579
811.47	19.672
811.77	11.111
812.08	22.034
812.38	33.333
812.69	29.310
812.99	35.849
813.29	12.821
813.59	40.000
813.90	36.842
814.20	32.727
814.50	33.803
814.81	24.359
815.11	32.787
815.41	19.403
815.72	29.310
816.02	17.857
816.32	28.889
816.62	11.364
816.93	15.556
817.23	35.185
817.53	29.787
817.84	38.095
818.14	58.824
818.44	32.653
818.74	22.222
819.04	-5.128
819.35	2.857
819.65	-42.308
819.95	33.962
820.25	20.000
820.56	-7.143
820.86	-9.375
821.16	23.077
821.46	6.977
821.76	2.000
822.07	19.643
822.37	21.739
822.67	17.021
822.97	10.811
823.27	27.500
823.57	22.449
823.88	20.000
824.18	37.500
824.48	26.667
824.78	28.000
825.08	21.212
825.38	62.222
825.69	34.043
825.99	25.000
826.29	-31.429
826.59	-7.692
826.89	0.000
827.19	22.000
827.49	23.529
827.79	22.917
828.09	2.703
828.39	30.000
828.70	0.000
829.00	20.930
829.30	7.143
829.60	8.824
829.90	19.565
830.20	31.429
830.50	24.138
830.80	38.889
831.10	30.769
831.40	41.176
831.70	23.810
832.00	38.710
832.30	-88.235
832.60	-8.333
832.90	38.462
833.20	15.789
833.50	15.000
833.80	10.526
834.10	-14.286
834.40	36.111
834.70	59.375
835.00	-34.286
835.30	29.412
835.60	-3.333
835.90	12.000
836.20	-18.182
836.50	16.000
836.80	-27.273
837.10	25.926
837.40	7.407
837.70	-62.500
838.00	0.000
838.30	4.348
838.60	13.793
838.90	42.857
839.19	-17.391
839.49	-91.667
839.79	17.391
840.09	62.500
840.39	-10.000
840.69	54.839
840.99	-25.000
841.29	13.333
841.59	10.526
841.88	33.333
842.18	-7.692
842.48	-110.000
842.78	15.000
843.08	0.000
843.38	41.935
843.68	-38.889
843.97	32.353
844.27	43.750
844.57	10.526
844.87	-50.000
845.17	33.333
845.47	61.905
845.76	28.571
846.06	-22.222
846.36	-41.176
846.66	26.923
846.96	-53.333
847.25	29.412
847.55	34.783
847.85	55.000
848.15	11.765
848.44	-81.818
848.74	9.524
849.04	8.333
849.34	31.250
849.63	60.870
849.93	450.000
850.23	-13.333
850.53	30.769
850.82	0.000
851.12	27.273
851.42	36.364
851.71	84.615
852.01	-65.000
852.31	7.692
852.61	36.842
852.90	58.333
853.20	38.889
853.50	-66.667
853.79	14.286
854.09	-13.636
854.39	-16.667
854.68	22.581
854.98	-30.769
855.28	33.333
855.57	-17.857
855.87	28.000
856.17	4.545
856.46	25.926
856.76	22.222
857.05	-4.348
857.35	29.167
857.65	15.385
857.94	9.524
858.24	18.519
858.53	56.522
858.83	58.824
859.13	52.941
859.42	23.529
859.72	7.143
860.01	20.000
860.31	-33.333
860.60	70.000
860.90	0.000
861.20	55.556
861.49	7.692
861.79	26.667
862.08	0.000
862.38	31.250
862.67	5.882
862.97	-43.750
863.26	-100.000
863.56	30.000
863.85	81.818
864.15	33.333
864.44	-66.667
864.74	7.143
865.03	6.250
865.33	-50.000
865.62	-3.226
865.92	9.091
866.21	26.087
866.51	50.000
866.80	40.000
867.10	-8.333
867.39	-33.333
867.69	900.000
867.98	14.286
868.27	41.176
868.57	-1100.000
868.86	-130.000
869.16	-33.333
869.45	-8.333
869.75	-27.273
870.04	71.429
870.33	50.000
870.63	-257.143
870.92	100.000
871.22	-100.000
871.51	-81.818
871.80	-300.000
872.10	-200.000
>>>>>End Processed Spectral Data<<<<<
