SpectraSuite Data File
++++++++++++++++++++++++++++++++++++
Date: Thu May 14 16:30:28 PDT 2015
User: schluterlab
Dark Spectrum Present: Yes
Reference Spectrum Present: Yes
Number of Sampled Component Spectra: 1
Spectrometers: USB2E3373
Integration Time (usec): 3000 (USB2E3373)
Spectra Averaged: 3 (USB2E3373)
Boxcar Smoothing: 0 (USB2E3373)
Correct for Electrical Dark: No (USB2E3373)
Strobe/Lamp Enabled: No (USB2E3373)
Correct for Detector Non-linearity: No (USB2E3373)
Correct for Stray Light: No (USB2E3373)
Number of Pixels in Processed Spectrum: 2048
>>>>>Begin Processed Spectral Data<<<<<
178.53	0.000
178.91	42.857
179.29	-1500.000
179.67	300.000
180.04	157.143
180.42	-10.000
180.80	120.000
181.18	0.000
181.56	-500.000
181.94	175.000
182.31	0.000
182.69	-133.333
183.07	-50.000
183.45	150.000
183.83	-16.667
184.20	300.000
184.58	-600.000
184.96	-150.000
185.34	-11.111
185.72	200.000
186.09	111.111
186.47	150.000
186.85	40.000
187.23	22.222
187.61	0.000
187.98	-160.000
188.36	75.000
188.74	0.000
189.12	533.333
189.49	62.500
189.87	-12.500
190.25	111.111
190.63	140.000
191.00	-22.222
191.38	0.000
191.76	0.000
192.14	0.000
192.51	450.000
192.89	100.000
193.27	0.000
193.65	28.571
194.02	-400.000
194.40	42.857
194.78	57.143
195.15	0.000
195.53	27.273
195.91	0.000
196.29	-50.000
196.66	30.769
197.04	-1000.000
197.42	14.286
197.79	100.000
198.17	-137.500
198.55	0.000
198.92	-44.444
199.30	-75.000
199.68	27.273
200.05	57.143
200.43	50.000
200.81	42.857
201.18	0.000
201.56	44.444
201.94	0.000
202.31	33.333
202.69	-100.000
203.07	-800.000
203.44	44.444
203.82	-50.000
204.19	41.667
204.57	-16.667
204.95	0.000
205.32	-100.000
205.70	150.000
206.08	116.667
206.45	-83.333
206.83	200.000
207.20	-66.667
207.58	-100.000
207.96	-33.333
208.33	16.667
208.71	58.333
209.08	100.000
209.46	0.000
209.84	283.333
210.21	-50.000
210.59	-100.000
210.96	266.667
211.34	125.000
211.71	-37.500
212.09	-600.000
212.46	0.000
212.84	650.000
213.22	-60.000
213.59	-25.000
213.97	-20.000
214.34	-200.000
214.72	33.333
215.09	-25.000
215.47	0.000
215.84	142.857
216.22	500.000
216.59	60.000
216.97	-100.000
217.34	-75.000
217.72	-75.000
218.09	50.000
218.47	-75.000
218.84	0.000
219.22	-0.000
219.59	41.176
219.97	20.000
220.34	100.000
220.72	-100.000
221.09	84.615
221.47	0.000
221.84	70.000
222.22	-85.714
222.59	0.000
222.97	12.500
223.34	60.000
223.72	-400.000
224.09	150.000
224.46	150.000
224.84	160.000
225.21	-28.571
225.59	25.000
225.96	-150.000
226.34	38.462
226.71	150.000
227.08	100.000
227.46	53.333
227.83	-75.000
228.21	47.368
228.58	12.500
228.95	300.000
229.33	116.667
229.70	-10.000
230.08	73.684
230.45	-20.000
230.82	100.000
231.20	-21.429
231.57	8.333
231.95	63.636
232.32	72.727
232.69	40.000
233.07	-25.000
233.44	41.176
233.81	-10.000
234.19	77.778
234.56	40.909
234.93	62.069
235.31	73.684
235.68	55.556
236.05	5.000
236.43	73.077
236.80	76.000
237.17	51.852
237.55	66.667
237.92	20.000
238.29	61.290
238.67	31.818
239.04	50.000
239.41	38.095
239.79	41.304
240.16	44.444
240.53	26.087
240.91	37.255
241.28	32.787
241.65	53.731
242.02	36.486
242.40	38.462
242.77	28.000
243.14	35.366
243.51	23.684
243.89	46.154
244.26	46.535
244.63	50.980
245.00	49.533
245.38	38.596
245.75	33.628
246.12	43.651
246.49	42.636
246.87	45.714
247.24	46.358
247.61	40.132
247.98	45.638
248.36	41.358
248.73	42.331
249.10	33.880
249.47	43.781
249.84	46.597
250.22	40.415
250.59	43.333
250.96	41.818
251.33	39.796
251.70	44.017
252.08	43.750
252.45	44.672
252.82	42.975
253.19	39.063
253.56	42.205
253.94	36.154
254.31	42.803
254.68	43.357
255.05	43.974
255.42	43.537
255.79	37.864
256.16	40.066
256.54	41.391
256.91	41.311
257.28	44.918
257.65	40.446
258.02	40.413
258.39	40.171
258.76	48.012
259.14	45.690
259.51	40.922
259.88	42.210
260.25	41.111
260.62	43.562
260.99	44.536
261.36	42.359
261.73	41.910
262.10	43.132
262.47	44.236
262.85	42.424
263.22	42.078
263.59	40.000
263.96	43.478
264.33	39.642
264.70	44.444
265.07	43.675
265.44	42.857
265.81	41.898
266.18	43.084
266.55	41.295
266.92	42.369
267.29	44.420
267.66	42.572
268.03	42.140
268.40	39.666
268.77	44.419
269.14	41.189
269.51	40.570
269.88	42.008
270.25	41.046
270.62	44.093
270.99	42.222
271.36	41.584
271.73	42.240
272.10	41.283
272.47	42.084
272.84	39.759
273.21	39.679
273.58	39.516
273.95	41.154
274.32	37.452
274.69	39.652
275.06	37.912
275.43	38.262
275.80	40.035
276.17	38.704
276.54	41.231
276.91	38.462
277.28	40.506
277.65	40.575
278.02	41.360
278.39	39.312
278.76	41.828
279.13	41.312
279.50	40.550
279.87	40.608
280.23	38.380
280.60	40.000
280.97	41.283
281.34	37.691
281.71	39.425
282.08	39.203
282.45	38.462
282.82	37.520
283.19	37.964
283.56	39.508
283.92	40.991
284.29	39.810
284.66	40.066
285.03	38.141
285.40	38.949
285.77	38.700
286.14	38.626
286.51	40.487
286.87	38.231
287.24	38.855
287.61	37.967
287.98	35.498
288.35	38.757
288.72	37.130
289.08	38.214
289.45	35.651
289.82	34.488
290.19	37.213
290.56	35.493
290.93	36.947
291.29	36.915
291.66	35.399
292.03	33.650
292.40	36.463
292.77	35.040
293.13	33.965
293.50	34.428
293.87	34.899
294.24	34.667
294.60	33.123
294.97	32.483
295.34	34.699
295.71	31.904
296.08	33.850
296.44	33.333
296.81	34.105
297.18	32.752
297.55	32.429
297.91	32.503
298.28	32.109
298.65	34.007
299.02	32.468
299.38	32.494
299.75	32.593
300.12	32.060
300.48	32.143
300.85	32.508
301.22	32.327
301.59	32.306
301.95	33.785
302.32	32.000
302.69	32.311
303.05	33.079
303.42	31.042
303.79	31.875
304.15	31.966
304.52	32.030
304.89	31.937
305.25	31.056
305.62	32.497
305.99	31.443
306.35	31.754
306.72	33.506
307.09	31.878
307.45	32.091
307.82	32.997
308.19	32.089
308.55	33.365
308.92	33.496
309.29	32.280
309.65	32.261
310.02	32.772
310.38	33.366
310.75	32.427
311.12	34.995
311.48	34.311
311.85	33.428
312.22	34.630
312.58	33.146
312.95	33.843
313.31	33.875
313.68	34.524
314.05	35.411
314.41	34.062
314.78	35.695
315.14	34.936
315.51	35.826
315.87	36.634
316.24	37.352
316.61	37.655
316.97	36.018
317.34	35.891
317.70	37.467
318.07	36.420
318.43	36.650
318.80	36.371
319.16	36.738
319.53	36.161
319.89	36.985
320.26	37.989
320.62	37.145
320.99	37.488
321.35	37.523
321.72	39.442
322.08	37.782
322.45	40.560
322.81	41.968
323.18	39.646
323.54	41.724
323.91	42.527
324.27	41.136
324.64	42.233
325.00	41.708
325.37	43.161
325.73	43.388
326.10	42.741
326.46	43.567
326.83	44.756
327.19	43.858
327.56	44.664
327.92	45.555
328.29	44.919
328.65	43.970
329.01	45.178
329.38	45.746
329.74	46.747
330.11	46.575
330.47	45.998
330.84	47.373
331.20	48.167
331.56	47.660
331.93	47.448
332.29	46.610
332.66	47.757
333.02	47.487
333.38	47.399
333.75	47.475
334.11	48.540
334.48	46.617
334.84	47.579
335.20	46.516
335.57	46.880
335.93	48.678
336.29	46.090
336.66	47.855
337.02	46.321
337.38	47.619
337.75	45.702
338.11	47.771
338.47	47.643
338.84	46.954
339.20	46.841
339.56	45.964
339.93	47.455
340.29	45.733
340.65	45.499
341.02	46.209
341.38	47.939
341.74	47.215
342.11	47.064
342.47	45.989
342.83	47.021
343.20	47.670
343.56	47.233
343.92	46.037
344.28	46.328
344.65	45.891
345.01	46.178
345.37	46.656
345.73	46.064
346.10	46.490
346.46	45.411
346.82	45.918
347.19	47.212
347.55	46.434
347.91	45.468
348.27	45.144
348.63	46.382
349.00	46.160
349.36	44.981
349.72	46.726
350.08	46.062
350.45	45.932
350.81	45.701
351.17	45.789
351.53	46.929
351.89	45.254
352.26	45.448
352.62	46.119
352.98	46.947
353.34	44.511
353.70	47.612
354.07	45.380
354.43	46.166
354.79	46.148
355.15	45.843
355.51	46.126
355.87	46.971
356.24	46.920
356.60	45.159
356.96	46.553
357.32	45.874
357.68	46.633
358.04	47.530
358.40	45.299
358.77	44.371
359.13	46.233
359.49	45.130
359.85	46.410
360.21	44.907
360.57	45.657
360.93	45.839
361.29	44.491
361.66	45.402
362.02	47.808
362.38	45.959
362.74	46.299
363.10	46.974
363.46	47.022
363.82	45.952
364.18	46.868
364.54	45.851
364.90	45.953
365.26	46.207
365.62	46.600
365.98	47.788
366.35	47.181
366.71	45.646
367.07	47.023
367.43	45.240
367.79	47.047
368.15	47.893
368.51	45.737
368.87	45.918
369.23	46.333
369.59	47.268
369.95	47.465
370.31	47.873
370.67	46.836
371.03	46.814
371.39	47.347
371.75	47.662
372.11	46.951
372.47	46.716
372.83	46.401
373.19	46.765
373.55	45.528
373.91	48.057
374.27	45.860
374.63	48.241
374.99	45.756
375.35	47.792
375.71	45.742
376.07	46.675
376.42	46.599
376.78	47.359
377.14	46.163
377.50	48.197
377.86	46.983
378.22	46.946
378.58	49.108
378.94	47.653
379.30	46.573
379.66	47.737
380.02	47.144
380.38	48.041
380.74	47.099
381.09	47.735
381.45	47.443
381.81	48.653
382.17	48.397
382.53	48.363
382.89	47.404
383.25	49.179
383.61	47.627
383.97	47.644
384.32	49.522
384.68	46.346
385.04	49.219
385.40	49.676
385.76	49.062
386.12	48.953
386.48	48.765
386.83	49.464
387.19	49.421
387.55	49.531
387.91	48.744
388.27	49.654
388.62	48.396
388.98	48.787
389.34	48.792
389.70	50.261
390.06	49.556
390.42	48.614
390.77	49.428
391.13	48.592
391.49	50.543
391.85	49.091
392.20	50.178
392.56	50.620
392.92	49.727
393.28	50.138
393.64	49.106
393.99	50.087
394.35	51.110
394.71	50.958
395.07	49.461
395.42	50.257
395.78	51.615
396.14	50.802
396.50	49.762
396.85	49.791
397.21	50.473
397.57	49.823
397.92	51.546
398.28	50.733
398.64	50.000
399.00	48.901
399.35	50.838
399.71	50.109
400.07	50.870
400.42	50.873
400.78	51.157
401.14	50.882
401.49	52.246
401.85	52.035
402.21	52.260
402.57	52.230
402.92	50.887
403.28	50.937
403.63	51.611
403.99	51.485
404.35	50.540
404.70	51.615
405.06	52.011
405.42	52.810
405.77	53.326
406.13	53.052
406.49	52.365
406.84	51.413
407.20	52.823
407.55	53.119
407.91	52.043
408.27	52.356
408.62	52.182
408.98	52.873
409.34	52.669
409.69	53.956
410.05	53.751
410.40	54.060
410.76	52.552
411.11	53.770
411.47	54.300
411.83	53.086
412.18	54.337
412.54	54.416
412.89	53.143
413.25	54.176
413.60	54.854
413.96	54.662
414.31	55.184
414.67	54.621
415.03	55.138
415.38	55.549
415.74	53.574
416.09	55.336
416.45	53.726
416.80	53.305
417.16	54.853
417.51	54.296
417.87	56.223
418.22	54.910
418.58	56.010
418.93	56.054
419.29	56.350
419.64	54.562
420.00	54.659
420.35	55.867
420.71	55.428
421.06	55.204
421.42	56.422
421.77	54.550
422.12	54.334
422.48	56.170
422.83	58.105
423.19	56.446
423.54	57.743
423.90	55.108
424.25	57.120
424.61	55.568
424.96	56.727
425.31	56.476
425.67	56.897
426.02	57.277
426.38	57.979
426.73	56.306
427.09	56.690
427.44	56.636
427.79	56.882
428.15	57.249
428.50	58.090
428.85	57.463
429.21	58.085
429.56	57.404
429.92	56.560
430.27	57.349
430.62	56.815
430.98	56.714
431.33	57.380
431.68	56.849
432.04	57.847
432.39	58.436
432.74	56.450
433.10	57.545
433.45	57.135
433.80	58.745
434.16	57.231
434.51	56.886
434.86	58.903
435.22	58.236
435.57	59.375
435.92	57.874
436.28	57.679
436.63	59.640
436.98	57.917
437.34	58.850
437.69	57.843
438.04	57.906
438.39	58.530
438.75	57.997
439.10	58.827
439.45	58.636
439.81	57.514
440.16	57.158
440.51	58.361
440.86	57.977
441.22	57.931
441.57	58.386
441.92	57.953
442.27	58.182
442.63	57.079
442.98	58.538
443.33	59.285
443.68	59.019
444.03	60.113
444.39	58.622
444.74	58.397
445.09	57.780
445.44	59.800
445.79	59.818
446.15	58.890
446.50	58.553
446.85	58.755
447.20	57.640
447.55	59.048
447.91	59.372
448.26	58.774
448.61	58.342
448.96	60.837
449.31	58.218
449.66	58.551
450.02	58.439
450.37	58.284
450.72	60.011
451.07	59.055
451.42	58.406
451.77	58.310
452.12	59.707
452.47	58.824
452.83	60.135
453.18	58.903
453.53	59.449
453.88	59.083
454.23	58.588
454.58	59.547
454.93	58.981
455.28	59.783
455.63	58.499
455.98	59.777
456.34	59.776
456.69	58.907
457.04	60.047
457.39	58.647
457.74	59.452
458.09	59.418
458.44	58.297
458.79	58.174
459.14	59.098
459.49	59.649
459.84	59.391
460.19	58.468
460.54	60.136
460.89	60.508
461.24	59.138
461.59	57.941
461.94	58.072
462.29	59.127
462.64	60.471
462.99	59.950
463.34	58.209
463.69	58.968
464.04	59.422
464.39	58.632
464.74	58.837
465.09	59.400
465.44	57.886
465.79	58.593
466.14	57.530
466.49	57.632
466.84	59.614
467.19	59.249
467.54	58.284
467.89	58.908
468.24	57.396
468.59	58.193
468.94	57.692
469.29	58.128
469.64	59.631
469.99	58.126
470.34	58.787
470.68	58.168
471.03	60.707
471.38	59.254
471.73	59.688
472.08	60.343
472.43	57.857
472.78	59.383
473.13	59.482
473.48	59.033
473.83	58.677
474.17	58.324
474.52	59.110
474.87	57.918
475.22	58.479
475.57	58.567
475.92	58.537
476.27	58.946
476.61	58.930
476.96	59.645
477.31	58.218
477.66	59.759
478.01	59.532
478.36	58.126
478.70	58.325
479.05	59.969
479.40	59.329
479.75	59.558
480.10	58.361
480.45	58.067
480.79	59.048
481.14	58.640
481.49	59.337
481.84	58.399
482.19	58.667
482.53	59.554
482.88	59.061
483.23	59.671
483.58	58.865
483.92	58.289
484.27	58.552
484.62	58.540
484.97	57.465
485.31	57.656
485.66	55.361
486.01	52.705
486.36	54.263
486.70	56.198
487.05	58.875
487.40	59.136
487.75	59.466
488.09	60.101
488.44	58.446
488.79	59.157
489.13	59.160
489.48	58.874
489.83	58.068
490.17	57.797
490.52	57.266
490.87	58.587
491.22	57.842
491.56	58.490
491.91	57.872
492.26	58.330
492.60	57.368
492.95	58.491
493.30	59.390
493.64	58.432
493.99	57.895
494.34	57.317
494.68	57.216
495.03	58.106
495.37	58.544
495.72	57.959
496.07	58.896
496.41	58.301
496.76	58.257
497.11	58.471
497.45	58.912
497.80	58.330
498.14	58.095
498.49	59.559
498.84	59.506
499.18	57.805
499.53	58.475
499.87	57.802
500.22	57.302
500.56	58.030
500.91	58.215
501.26	58.682
501.60	57.181
501.95	57.534
502.29	58.885
502.64	58.505
502.98	57.075
503.33	57.711
503.67	57.436
504.02	56.743
504.36	57.998
504.71	58.521
505.06	57.572
505.40	57.678
505.75	57.286
506.09	57.551
506.44	59.471
506.78	58.853
507.13	57.999
507.47	59.308
507.82	58.759
508.16	58.700
508.51	57.337
508.85	58.904
509.19	57.224
509.54	58.742
509.88	59.252
510.23	59.883
510.57	59.836
510.92	59.168
511.26	57.912
511.61	57.653
511.95	59.004
512.30	58.493
512.64	58.471
512.98	58.279
513.33	59.022
513.67	58.950
514.02	58.661
514.36	60.000
514.70	59.948
515.05	59.228
515.39	58.425
515.74	59.809
516.08	58.531
516.42	59.969
516.77	60.252
517.11	59.309
517.46	60.657
517.80	59.220
518.14	60.229
518.49	59.707
518.83	58.861
519.17	58.805
519.52	59.591
519.86	59.556
520.20	60.011
520.55	59.474
520.89	60.135
521.23	59.855
521.58	60.113
521.92	60.567
522.26	59.164
522.61	60.590
522.95	60.323
523.29	60.747
523.64	58.969
523.98	60.240
524.32	61.662
524.66	60.842
525.01	59.513
525.35	59.391
525.69	60.499
526.04	58.668
526.38	59.828
526.72	61.073
527.06	60.821
527.41	59.767
527.75	61.461
528.09	60.685
528.43	59.443
528.78	59.711
529.12	60.321
529.46	59.528
529.80	60.412
530.15	60.348
530.49	61.210
530.83	59.386
531.17	60.992
531.51	61.853
531.86	60.276
532.20	61.098
532.54	60.203
532.88	59.879
533.22	60.047
533.57	59.204
533.91	59.933
534.25	59.525
534.59	61.322
534.93	59.083
535.27	59.380
535.62	60.830
535.96	60.895
536.30	60.458
536.64	60.060
536.98	61.439
537.32	60.556
537.66	61.385
538.01	58.852
538.35	60.049
538.69	59.555
539.03	62.048
539.37	59.364
539.71	60.120
540.05	59.772
540.39	60.024
540.73	58.774
541.07	60.576
541.42	59.362
541.76	58.304
542.10	59.469
542.44	58.100
542.78	60.341
543.12	58.343
543.46	59.890
543.80	58.933
544.14	58.767
544.48	59.634
544.82	58.468
545.16	60.346
545.50	58.358
545.84	57.808
546.18	60.679
546.52	60.191
546.86	60.126
547.20	60.242
547.54	58.177
547.88	59.433
548.22	59.123
548.56	57.695
548.90	58.388
549.24	58.723
549.58	59.495
549.92	59.885
550.26	59.741
550.60	59.158
550.94	59.444
551.28	59.010
551.62	59.501
551.96	58.188
552.30	59.210
552.64	58.930
552.98	59.888
553.32	60.965
553.66	59.293
554.00	59.458
554.34	60.103
554.68	57.521
555.02	60.184
555.36	60.355
555.69	57.399
556.03	57.818
556.37	59.512
556.71	58.782
557.05	58.786
557.39	57.863
557.73	58.653
558.07	59.470
558.41	59.668
558.75	59.229
559.08	59.638
559.42	59.328
559.76	58.345
560.10	58.138
560.44	59.037
560.78	58.625
561.12	57.697
561.45	57.786
561.79	59.035
562.13	58.472
562.47	58.138
562.81	57.975
563.15	58.270
563.48	58.173
563.82	59.129
564.16	57.420
564.50	58.582
564.84	56.342
565.17	56.882
565.51	57.652
565.85	57.185
566.19	56.567
566.52	56.466
566.86	57.329
567.20	56.226
567.54	56.718
567.88	56.626
568.21	55.929
568.55	55.875
568.89	55.107
569.23	55.091
569.56	54.084
569.90	53.706
570.24	53.727
570.57	53.913
570.91	53.889
571.25	53.052
571.59	53.521
571.92	53.438
572.26	53.176
572.60	53.808
572.93	53.716
573.27	53.948
573.61	53.044
573.95	52.537
574.28	52.137
574.62	52.228
574.96	51.632
575.29	51.311
575.63	52.414
575.97	52.790
576.30	51.838
576.64	52.374
576.98	51.982
577.31	52.409
577.65	52.208
577.98	51.544
578.32	51.756
578.66	51.263
578.99	52.079
579.33	52.512
579.67	51.881
580.00	52.326
580.34	51.767
580.67	52.229
581.01	51.731
581.35	50.886
581.68	50.009
582.02	49.967
582.35	51.496
582.69	51.882
583.02	52.065
583.36	52.701
583.70	53.329
584.03	53.156
584.37	53.098
584.70	51.956
585.04	51.337
585.37	51.061
585.71	50.895
586.04	50.705
586.38	52.089
586.72	50.990
587.05	51.957
587.39	51.808
587.72	51.770
588.06	52.321
588.39	51.929
588.73	51.587
589.06	52.511
589.40	52.428
589.73	53.374
590.07	52.686
590.40	53.617
590.73	53.022
591.07	53.351
591.40	52.799
591.74	53.180
592.07	53.147
592.41	51.656
592.74	50.657
593.08	50.605
593.41	50.831
593.75	50.000
594.08	50.924
594.41	52.436
594.75	51.013
595.08	51.615
595.42	51.558
595.75	51.986
596.09	52.660
596.42	52.669
596.75	52.760
597.09	53.212
597.42	51.728
597.75	51.901
598.09	51.548
598.42	51.830
598.76	50.516
599.09	51.050
599.42	49.145
599.76	50.215
600.09	50.250
600.42	50.184
600.76	49.967
601.09	50.548
601.42	51.116
601.76	50.103
602.09	51.751
602.42	50.454
602.76	50.886
603.09	51.028
603.42	50.542
603.76	49.789
604.09	50.568
604.42	49.651
604.76	50.647
605.09	51.456
605.42	49.960
605.75	49.923
606.09	50.653
606.42	48.997
606.75	49.475
607.09	49.693
607.42	50.135
607.75	50.684
608.08	49.763
608.42	49.133
608.75	51.078
609.08	50.212
609.41	51.390
609.75	50.848
610.08	50.792
610.41	49.830
610.74	50.168
611.07	50.400
611.41	50.987
611.74	50.762
612.07	50.491
612.40	49.857
612.73	51.638
613.07	50.465
613.40	50.529
613.73	50.409
614.06	50.785
614.39	49.466
614.72	49.782
615.06	49.952
615.39	49.589
615.72	49.810
616.05	49.636
616.38	50.101
616.71	50.522
617.05	49.255
617.38	49.973
617.71	50.270
618.04	50.243
618.37	50.656
618.70	50.735
619.03	50.896
619.36	50.925
619.69	49.840
620.03	50.220
620.36	50.613
620.69	50.709
621.02	51.640
621.35	53.048
621.68	51.555
622.01	50.676
622.34	50.349
622.67	51.065
623.00	50.337
623.33	51.228
623.66	51.167
623.99	50.165
624.32	51.072
624.65	49.163
624.99	50.455
625.32	50.555
625.65	50.303
625.98	48.949
626.31	50.744
626.64	51.575
626.97	51.763
627.30	51.329
627.63	49.362
627.96	52.102
628.29	49.805
628.62	50.882
628.95	52.585
629.28	50.297
629.61	52.609
629.94	50.460
630.26	49.746
630.59	51.123
630.92	50.303
631.25	51.521
631.58	52.637
631.91	52.202
632.24	52.257
632.57	50.569
632.90	51.555
633.23	52.245
633.56	51.531
633.89	52.066
634.22	51.663
634.55	50.522
634.88	51.515
635.20	52.099
635.53	52.429
635.86	51.354
636.19	51.220
636.52	51.055
636.85	49.234
637.18	49.792
637.51	50.108
637.83	51.163
638.16	53.456
638.49	51.643
638.82	50.282
639.15	50.630
639.48	52.425
639.81	51.155
640.13	51.237
640.46	47.636
640.79	49.510
641.12	51.304
641.45	52.949
641.77	55.327
642.10	50.525
642.43	53.059
642.76	50.136
643.09	51.370
643.41	50.140
643.74	49.379
644.07	52.276
644.40	51.485
644.73	50.218
645.05	55.360
645.38	50.791
645.71	52.639
646.04	51.793
646.36	52.409
646.69	52.607
647.02	53.364
647.35	52.519
647.67	52.818
648.00	52.389
648.33	52.252
648.66	51.498
648.98	47.891
649.31	51.150
649.64	49.402
649.96	49.469
650.29	49.513
650.62	49.364
650.94	51.201
651.27	49.401
651.60	48.684
651.92	50.456
652.25	49.204
652.58	49.381
652.90	48.983
653.23	49.296
653.56	50.357
653.88	48.455
654.21	48.451
654.54	47.977
654.86	49.292
655.19	45.546
655.52	44.613
655.84	39.977
656.17	46.001
656.49	65.792
656.82	74.820
657.15	61.059
657.47	48.393
657.80	36.879
658.13	29.658
658.45	39.913
658.78	49.600
659.10	49.321
659.43	48.384
659.75	48.156
660.08	47.059
660.41	46.319
660.73	46.978
661.06	49.780
661.38	47.528
661.71	48.448
662.03	48.854
662.36	47.585
662.68	51.407
663.01	46.372
663.33	50.473
663.66	47.802
663.98	50.192
664.31	48.780
664.63	49.326
664.96	49.183
665.28	47.913
665.61	49.126
665.93	47.321
666.26	47.670
666.58	47.417
666.91	49.533
667.23	52.000
667.56	51.874
667.88	52.000
668.21	43.945
668.53	50.000
668.86	48.527
669.18	48.880
669.50	51.093
669.83	52.000
670.15	45.669
670.48	51.190
670.80	45.507
671.13	48.393
671.45	50.000
671.77	47.458
672.10	45.667
672.42	45.631
672.75	46.237
673.07	45.672
673.39	46.687
673.72	46.812
674.04	48.621
674.37	47.585
674.69	48.148
675.01	48.190
675.34	47.901
675.66	49.625
675.98	46.828
676.31	49.414
676.63	48.289
676.95	46.743
677.28	49.395
677.60	44.882
677.92	48.944
678.25	46.984
678.57	46.441
678.89	47.611
679.22	44.774
679.54	46.154
679.86	44.915
680.18	48.259
680.51	45.283
680.83	44.517
681.15	43.276
681.48	48.705
681.80	45.941
682.12	45.629
682.44	44.240
682.77	45.567
683.09	46.970
683.41	47.481
683.73	47.059
684.06	44.465
684.38	42.039
684.70	44.345
685.02	44.578
685.34	43.927
685.67	43.375
685.99	41.718
686.31	41.134
686.63	42.338
686.96	41.956
687.28	43.974
687.60	44.949
687.92	44.373
688.24	44.073
688.56	42.931
688.89	46.642
689.21	46.184
689.53	42.941
689.85	42.801
690.17	44.074
690.49	45.618
690.82	45.347
691.14	44.534
691.46	44.168
691.78	44.015
692.10	45.138
692.42	41.071
692.74	44.646
693.06	39.815
693.39	43.454
693.71	41.353
694.03	42.937
694.35	43.619
694.67	43.326
694.99	44.894
695.31	46.358
695.63	45.887
695.95	43.685
696.27	45.275
696.59	44.469
696.91	41.667
697.23	45.934
697.56	40.530
697.88	42.614
698.20	44.821
698.52	45.076
698.84	43.035
699.16	42.041
699.48	41.632
699.80	42.979
700.12	41.485
700.44	40.553
700.76	43.705
701.08	46.973
701.40	45.078
701.72	42.786
702.04	43.048
702.36	41.099
702.68	43.521
703.00	40.342
703.32	40.394
703.64	44.010
703.96	45.346
704.28	45.946
704.60	41.772
704.91	42.602
705.23	43.836
705.55	45.961
705.87	46.970
706.19	43.865
706.51	38.253
706.83	41.499
707.15	43.122
707.47	39.252
707.79	38.428
708.11	36.864
708.43	41.075
708.74	39.509
709.06	42.227
709.38	42.254
709.70	42.928
710.02	41.860
710.34	42.819
710.66	38.827
710.98	41.530
711.29	40.385
711.61	43.220
711.93	43.020
712.25	40.541
712.57	43.658
712.89	45.000
713.20	43.491
713.52	39.884
713.84	42.340
714.16	40.789
714.48	40.206
714.80	39.740
715.11	38.320
715.43	43.767
715.75	42.632
716.07	38.122
716.39	45.902
716.70	39.157
717.02	41.311
717.34	44.948
717.66	38.255
717.97	37.329
718.29	42.612
718.61	38.158
718.93	40.777
719.24	40.683
719.56	39.264
719.88	37.838
720.20	42.581
720.51	40.994
720.83	40.000
721.15	40.461
721.46	38.014
721.78	39.667
722.10	38.835
722.42	39.597
722.73	38.710
723.05	39.649
723.37	40.972
723.68	40.143
724.00	40.433
724.32	38.028
724.63	37.413
724.95	43.262
725.27	42.160
725.58	43.110
725.90	42.414
726.22	38.871
726.53	38.636
726.85	38.365
727.16	39.275
727.48	38.532
727.80	38.411
728.11	36.749
728.43	39.731
728.74	41.806
729.06	38.742
729.38	38.636
729.69	40.604
730.01	36.310
730.32	36.061
730.64	39.937
730.96	36.025
731.27	37.430
731.59	37.912
731.90	37.143
732.22	38.542
732.53	32.320
732.85	37.714
733.16	39.296
733.48	34.451
733.80	35.655
734.11	35.328
734.43	37.297
734.74	39.494
735.06	35.930
735.37	39.459
735.69	37.297
736.00	36.158
736.32	37.197
736.63	36.944
736.95	37.069
737.26	36.061
737.58	34.848
737.89	36.765
738.21	36.086
738.52	36.721
738.83	38.567
739.15	35.461
739.46	40.136
739.78	38.037
740.09	33.238
740.41	37.609
740.72	37.333
741.04	36.570
741.35	35.088
741.66	38.039
741.98	36.475
742.29	37.238
742.61	39.035
742.92	34.615
743.23	36.823
743.55	33.721
743.86	37.600
744.18	32.645
744.49	34.177
744.80	43.210
745.12	35.443
745.43	36.992
745.74	36.638
746.06	36.441
746.37	40.506
746.68	39.431
747.00	35.833
747.31	39.056
747.62	38.077
747.94	36.437
748.25	36.948
748.56	34.694
748.88	37.607
749.19	39.655
749.50	36.364
749.82	38.956
750.13	33.808
750.44	32.000
750.75	35.077
751.07	40.308
751.38	39.117
751.69	32.588
752.01	32.039
752.32	39.216
752.63	40.136
752.94	30.796
753.26	35.316
753.57	32.963
753.88	37.079
754.19	37.299
754.51	34.084
754.82	35.691
755.13	35.410
755.44	32.082
755.75	34.539
756.07	34.925
756.38	33.019
756.69	33.434
757.00	32.964
757.31	32.514
757.63	31.714
757.94	34.272
758.25	34.537
758.56	32.026
758.87	31.818
759.18	33.333
759.50	37.110
759.81	36.975
760.12	37.197
760.43	33.854
760.74	33.990
761.05	33.500
761.36	32.771
761.67	32.995
761.99	30.811
762.30	31.707
762.61	32.673
762.92	35.821
763.23	34.457
763.54	32.734
763.85	34.708
764.16	32.660
764.47	32.042
764.78	37.380
765.10	33.431
765.41	35.641
765.72	30.688
766.03	31.638
766.34	30.094
766.65	30.662
766.96	37.052
767.27	38.710
767.58	32.836
767.89	37.019
768.20	39.437
768.51	33.333
768.82	31.727
769.13	34.470
769.44	33.077
769.75	29.603
770.06	36.538
770.37	38.583
770.68	33.191
770.99	28.340
771.30	38.519
771.61	36.882
771.92	35.185
772.23	38.462
772.54	34.259
772.85	39.171
773.16	33.810
773.47	32.804
773.78	36.757
774.09	31.818
774.39	38.500
774.70	39.344
775.01	35.976
775.32	31.176
775.63	34.356
775.94	31.847
776.25	33.548
776.56	36.538
776.87	32.653
777.18	32.414
777.48	36.364
777.79	27.703
778.10	26.471
778.41	30.556
778.72	32.414
779.03	28.395
779.34	32.121
779.65	29.016
779.95	35.556
780.26	31.250
780.57	38.065
780.88	43.478
781.19	35.484
781.50	34.118
781.80	34.946
782.11	30.159
782.42	23.737
782.73	28.743
783.04	31.285
783.34	36.970
783.65	33.987
783.96	37.888
784.27	29.762
784.57	40.397
784.88	33.571
785.19	37.795
785.50	26.772
785.81	28.571
786.11	31.538
786.42	20.144
786.73	25.899
787.04	30.827
787.34	30.328
787.65	24.000
787.96	37.313
788.26	35.664
788.57	39.161
788.88	25.658
789.19	34.641
789.49	30.137
789.80	37.589
790.11	35.433
790.41	34.375
790.72	36.441
791.03	32.039
791.33	39.130
791.64	28.947
791.95	23.214
792.25	34.286
792.56	31.250
792.87	31.250
793.17	27.679
793.48	27.083
793.79	27.711
794.09	31.193
794.40	30.275
794.70	28.571
795.01	29.870
795.32	27.397
795.62	29.577
795.93	34.848
796.23	31.148
796.54	23.214
796.85	30.851
797.15	31.522
797.46	28.767
797.76	33.750
798.07	32.609
798.37	23.711
798.68	20.779
798.99	26.437
799.29	23.596
799.60	25.532
799.90	33.735
800.21	46.154
800.51	23.881
800.82	13.235
801.12	28.767
801.43	32.353
801.73	25.424
802.04	31.818
802.34	28.333
802.65	38.983
802.95	38.806
803.26	35.593
803.56	38.356
803.87	42.857
804.17	31.507
804.48	19.298
804.78	29.167
805.09	32.759
805.39	12.162
805.70	5.634
806.00	28.049
806.30	13.253
806.61	24.658
806.91	35.577
807.22	28.889
807.52	21.839
807.83	30.556
808.13	34.940
808.43	37.079
808.74	12.500
809.04	14.706
809.35	21.333
809.65	22.857
809.95	27.397
810.26	31.579
810.56	15.517
810.86	45.588
811.17	40.351
811.47	21.311
811.77	17.778
812.08	27.119
812.38	13.333
812.69	43.103
812.99	20.755
813.29	5.128
813.59	46.000
813.90	42.105
814.20	23.636
814.50	40.845
814.81	24.359
815.11	44.262
815.41	37.313
815.72	31.034
816.02	26.786
816.32	35.556
816.62	52.273
816.93	31.111
817.23	14.815
817.53	34.043
817.84	28.571
818.14	17.647
818.44	28.571
818.74	40.000
819.04	28.205
819.35	11.429
819.65	19.231
819.95	16.981
820.25	44.444
820.56	40.476
820.86	12.500
821.16	30.769
821.46	6.977
821.76	20.000
822.07	48.214
822.37	2.174
822.67	19.149
822.97	2.703
823.27	35.000
823.57	51.020
823.88	33.333
824.18	20.000
824.48	16.667
824.78	24.000
825.08	9.091
825.38	42.222
825.69	31.915
825.99	44.444
826.29	11.429
826.59	17.949
826.89	9.302
827.19	6.000
827.49	17.647
827.79	25.000
828.09	21.622
828.39	53.333
828.70	21.951
829.00	20.930
829.30	-3.571
829.60	26.471
829.90	23.913
830.20	37.143
830.50	27.586
830.80	44.444
831.10	26.923
831.40	11.765
831.70	28.571
832.00	45.161
832.30	-70.588
832.60	20.833
832.90	-46.154
833.20	57.895
833.50	-10.000
833.80	-21.053
834.10	-28.571
834.40	47.222
834.70	56.250
835.00	-8.571
835.30	5.882
835.60	13.333
835.90	20.000
836.20	-31.818
836.50	36.000
836.80	6.061
837.10	22.222
837.40	22.222
837.70	25.000
838.00	32.143
838.30	8.696
838.60	24.138
838.90	-14.286
839.19	-39.130
839.49	16.667
839.79	-4.348
840.09	18.750
840.39	25.000
840.69	45.161
840.99	-17.857
841.29	0.000
841.59	15.789
841.88	23.077
842.18	-3.846
842.48	60.000
842.78	75.000
843.08	30.000
843.38	25.806
843.68	-33.333
843.97	23.529
844.27	25.000
844.57	-26.316
844.87	-70.000
845.17	20.000
845.47	66.667
845.76	23.810
846.06	44.444
846.36	-47.059
846.66	-3.846
846.96	-20.000
847.25	0.000
847.55	39.130
847.85	-25.000
848.15	47.059
848.44	27.273
848.74	52.381
849.04	37.500
849.34	25.000
849.63	39.130
849.93	150.000
850.23	-20.000
850.53	34.615
850.82	-81.818
851.12	68.182
851.42	18.182
851.71	15.385
852.01	-15.000
852.31	-30.769
852.61	47.368
852.90	41.667
853.20	55.556
853.50	-33.333
853.79	-9.524
854.09	0.000
854.39	-8.333
854.68	35.484
854.98	50.000
855.28	16.667
855.57	10.714
855.87	28.000
856.17	22.727
856.46	51.852
856.76	-11.111
857.05	43.478
857.35	-20.833
857.65	-38.462
857.94	47.619
858.24	11.111
858.53	69.565
858.83	58.824
859.13	-11.765
859.42	11.765
859.72	78.571
860.01	5.000
860.31	0.000
860.60	-50.000
860.90	46.667
861.20	-16.667
861.49	38.462
861.79	20.000
862.08	23.077
862.38	34.375
862.67	35.294
862.97	6.250
863.26	0.000
863.56	140.000
863.85	72.727
864.15	72.222
864.44	-100.000
864.74	7.143
865.03	-37.500
865.33	-30.000
865.62	35.484
865.92	27.273
866.21	17.391
866.51	-21.429
866.80	-140.000
867.10	16.667
867.39	8.333
867.69	-100.000
867.98	14.286
868.27	35.294
868.57	-1000.000
868.86	-20.000
869.16	4.762
869.45	-4.167
869.75	18.182
870.04	-42.857
870.33	16.667
870.63	-57.143
870.92	0.000
871.22	-62.500
871.51	-18.182
871.80	-366.667
872.10	-200.000
>>>>>End Processed Spectral Data<<<<<
