SpectraSuite Data File
++++++++++++++++++++++++++++++++++++
Date: Thu May 14 16:36:46 PDT 2015
User: schluterlab
Dark Spectrum Present: Yes
Reference Spectrum Present: Yes
Number of Sampled Component Spectra: 1
Spectrometers: USB2E3373
Integration Time (usec): 3000 (USB2E3373)
Spectra Averaged: 3 (USB2E3373)
Boxcar Smoothing: 0 (USB2E3373)
Correct for Electrical Dark: No (USB2E3373)
Strobe/Lamp Enabled: No (USB2E3373)
Correct for Detector Non-linearity: No (USB2E3373)
Correct for Stray Light: No (USB2E3373)
Number of Pixels in Processed Spectrum: 2048
>>>>>Begin Processed Spectral Data<<<<<
178.53	0.000
178.91	28.571
179.29	-1400.000
179.67	-700.000
180.04	150.000
180.42	70.000
180.80	40.000
181.18	-900.000
181.56	200.000
181.94	-25.000
182.31	25.000
182.69	133.333
183.07	-250.000
183.45	200.000
183.83	50.000
184.20	-233.333
184.58	500.000
184.96	-275.000
185.34	-88.889
185.72	20.000
186.09	111.111
186.47	600.000
186.85	240.000
187.23	-66.667
187.61	-1700.000
187.98	-60.000
188.36	25.000
188.74	-200.000
189.12	-266.667
189.49	6.250
189.87	-125.000
190.25	33.333
190.63	-80.000
191.00	-11.111
191.38	0.000
191.76	-150.000
192.14	-66.667
192.51	400.000
192.89	50.000
193.27	0.000
193.65	-100.000
194.02	-900.000
194.40	-57.143
194.78	85.714
195.15	0.000
195.53	27.273
195.91	0.000
196.29	0.000
196.66	0.000
197.04	-500.000
197.42	-114.286
197.79	-500.000
198.17	-25.000
198.55	-71.429
198.92	-22.222
199.30	-87.500
199.68	27.273
200.05	-28.571
200.43	-200.000
200.81	142.857
201.18	0.000
201.56	155.556
201.94	0.000
202.31	133.333
202.69	-111.111
203.07	300.000
203.44	-44.444
203.82	-50.000
204.19	8.333
204.57	-100.000
204.95	-62.500
205.32	-1500.000
205.70	100.000
206.08	-133.333
206.45	33.333
206.83	240.000
207.20	-66.667
207.58	-160.000
207.96	50.000
208.33	183.333
208.71	41.667
209.08	116.667
209.46	0.000
209.84	150.000
210.21	150.000
210.59	-100.000
210.96	166.667
211.34	50.000
211.71	-62.500
212.09	100.000
212.46	0.000
212.84	850.000
213.22	-280.000
213.59	0.000
213.97	40.000
214.34	-100.000
214.72	100.000
215.09	-25.000
215.47	0.000
215.84	-42.857
216.22	400.000
216.59	100.000
216.97	-60.000
217.34	50.000
217.72	-137.500
218.09	-250.000
218.47	-150.000
218.84	0.000
219.22	220.000
219.59	-29.412
219.97	-25.000
220.34	400.000
220.72	-22.222
221.09	100.000
221.47	0.000
221.84	-40.000
222.22	28.571
222.59	0.000
222.97	-50.000
223.34	-460.000
223.72	-1400.000
224.09	-75.000
224.46	-50.000
224.84	20.000
225.21	-71.429
225.59	-125.000
225.96	-225.000
226.34	26.923
226.71	100.000
227.08	-150.000
227.46	-20.000
227.83	-125.000
228.21	5.263
228.58	75.000
228.95	250.000
229.33	-16.667
229.70	-90.000
230.08	15.789
230.45	80.000
230.82	0.000
231.20	50.000
231.57	-8.333
231.95	-63.636
232.32	0.000
232.69	-35.000
233.07	-75.000
233.44	-5.882
233.81	-50.000
234.19	33.333
234.56	36.364
234.93	17.241
235.31	0.000
235.68	38.889
236.05	0.000
236.43	30.769
236.80	8.000
237.17	11.111
237.55	9.091
237.92	-180.000
238.29	-25.806
238.67	-4.545
239.04	-13.889
239.41	-9.524
239.79	15.217
240.16	14.815
240.53	-2.174
240.91	-25.490
241.28	1.639
241.65	14.925
242.02	13.514
242.40	-4.615
242.77	9.333
243.14	-4.878
243.51	-6.579
243.89	1.282
244.26	5.941
244.63	5.882
245.00	0.935
245.38	8.772
245.75	1.770
246.12	6.349
246.49	4.651
246.87	12.857
247.24	4.636
247.61	3.947
247.98	4.698
248.36	5.556
248.73	3.067
249.10	7.650
249.47	14.428
249.84	10.471
250.22	9.845
250.59	8.889
250.96	12.273
251.33	5.102
251.70	12.393
252.08	8.750
252.45	12.295
252.82	7.851
253.19	5.469
253.56	9.506
253.94	4.231
254.31	5.682
254.68	15.035
255.05	14.658
255.42	7.143
255.79	4.531
256.16	6.291
256.54	5.960
256.91	11.475
257.28	9.180
257.65	5.732
258.02	8.850
258.39	11.396
258.76	12.844
259.14	8.908
259.51	7.493
259.88	5.949
260.25	8.889
260.62	9.315
260.99	10.383
261.36	8.579
261.73	9.284
262.10	9.341
262.47	9.383
262.85	12.879
263.22	9.610
263.59	6.316
263.96	10.230
264.33	7.673
264.70	9.877
265.07	10.979
265.44	10.658
265.81	8.102
266.18	10.204
266.55	8.929
266.92	7.062
267.29	10.941
267.66	9.756
268.03	9.825
268.40	10.438
268.77	8.656
269.14	6.388
269.51	10.746
269.88	12.705
270.25	8.451
270.62	8.650
270.99	12.727
271.36	11.683
271.73	9.823
272.10	11.022
272.47	11.423
272.84	7.430
273.21	10.220
273.58	9.476
273.95	8.846
274.32	7.605
274.69	8.317
275.06	10.256
275.43	8.503
275.80	9.171
276.17	7.778
276.54	7.463
276.91	10.018
277.28	9.765
277.65	10.054
278.02	9.007
278.39	7.065
278.76	8.787
279.13	8.333
279.50	10.309
279.87	10.376
280.23	7.218
280.60	8.644
280.97	10.197
281.34	8.829
281.71	11.844
282.08	7.309
282.45	7.856
282.82	10.518
283.19	6.300
283.56	8.033
283.92	12.162
284.29	12.638
284.66	9.195
285.03	7.532
285.40	10.046
285.77	9.288
286.14	10.229
286.51	9.132
286.87	9.005
287.24	10.843
287.61	8.221
287.98	8.459
288.35	8.876
288.72	9.615
289.08	9.663
289.45	10.059
289.82	9.036
290.19	9.770
290.56	8.732
290.93	7.989
291.29	7.025
291.66	9.780
292.03	8.412
292.40	9.116
292.77	7.412
293.13	9.066
293.50	6.965
293.87	7.114
294.24	7.467
294.60	8.723
294.97	8.054
295.34	9.347
295.71	6.557
296.08	6.460
296.44	7.598
296.81	7.186
297.18	7.597
297.55	7.901
297.91	8.422
298.28	6.991
298.65	7.848
299.02	6.612
299.38	6.865
299.75	7.944
300.12	7.986
300.48	6.452
300.85	7.874
301.22	7.271
301.59	7.306
301.95	6.780
302.32	8.444
302.69	7.667
303.05	7.835
303.42	8.093
303.79	7.812
304.15	7.886
304.52	6.765
304.89	7.120
305.25	6.625
305.62	7.210
305.99	7.113
306.35	7.560
306.72	6.722
307.09	6.396
307.45	7.660
307.82	7.568
308.19	6.963
308.55	8.100
308.92	7.790
309.29	7.088
309.65	7.115
310.02	6.634
310.38	7.480
310.75	7.476
311.12	7.287
311.48	7.234
311.85	7.692
312.22	7.590
312.58	7.512
312.95	7.170
313.31	8.672
313.68	8.242
314.05	9.124
314.41	9.107
314.78	8.901
315.14	8.530
315.51	9.234
315.87	8.371
316.24	10.046
316.61	10.124
316.97	9.140
317.34	9.436
317.70	11.004
318.07	8.642
318.43	10.969
318.80	11.455
319.16	10.472
319.53	9.512
319.89	10.517
320.26	12.811
320.62	11.259
320.99	12.650
321.35	12.015
321.72	12.465
322.08	13.075
322.45	14.544
322.81	13.267
323.18	12.301
323.54	13.534
323.91	14.413
324.27	13.855
324.64	16.037
325.00	15.755
325.37	16.380
325.73	16.529
326.10	16.058
326.46	18.811
326.83	18.175
327.19	17.953
327.56	18.577
327.92	18.096
328.29	19.194
328.65	19.849
329.01	18.105
329.38	19.798
329.74	19.435
330.11	20.462
330.47	21.230
330.84	22.308
331.20	22.000
331.56	22.704
331.93	21.841
332.29	21.949
332.66	23.007
333.02	22.613
333.38	22.903
333.75	22.727
334.11	22.852
334.48	23.102
334.84	23.025
335.20	22.250
335.57	23.356
335.93	23.719
336.29	21.298
336.66	24.138
337.02	23.913
337.38	23.639
337.75	23.058
338.11	22.876
338.47	23.821
338.84	23.435
339.20	22.746
339.56	23.147
339.93	23.071
340.29	22.303
340.65	23.520
341.02	23.943
341.38	24.171
341.74	22.276
342.11	23.411
342.47	22.240
342.83	23.349
343.20	24.448
343.56	23.015
343.92	24.339
344.28	23.984
344.65	24.031
345.01	23.479
345.37	24.806
345.73	22.837
346.10	23.869
346.46	23.576
346.82	24.120
347.19	24.523
347.55	23.824
347.91	23.328
348.27	23.900
348.63	23.839
349.00	23.341
349.36	23.866
349.72	24.330
350.08	24.368
350.45	23.574
350.81	24.057
351.17	24.060
351.53	23.199
351.89	24.450
352.26	22.910
352.62	23.134
352.98	23.435
353.34	23.226
353.70	23.883
354.07	23.994
354.43	24.222
354.79	24.383
355.15	24.283
355.51	24.269
355.87	24.533
356.24	25.095
356.60	23.873
356.96	24.537
357.32	23.643
357.68	23.792
358.04	23.353
358.40	24.254
358.77	24.123
359.13	23.929
359.49	22.156
359.85	23.568
360.21	23.960
360.57	23.905
360.93	25.388
361.29	24.351
361.66	23.027
362.02	26.026
362.38	25.088
362.74	24.511
363.10	24.897
363.46	23.338
363.82	24.929
364.18	25.616
364.54	24.481
364.90	25.217
365.26	23.793
365.62	24.600
365.98	25.187
366.35	25.101
366.71	24.898
367.07	24.696
367.43	24.951
367.79	24.220
368.15	25.485
368.51	24.493
368.87	25.539
369.23	25.200
369.59	25.683
369.95	24.138
370.31	25.051
370.67	24.691
371.03	24.446
371.39	24.513
371.75	26.341
372.11	24.864
372.47	25.796
372.83	25.524
373.19	24.950
373.55	25.068
373.91	25.017
374.27	24.838
374.63	25.440
374.99	24.735
375.35	25.390
375.71	25.548
376.07	25.759
376.42	26.196
376.78	25.668
377.14	25.140
377.50	26.312
377.86	25.677
378.22	26.287
378.58	26.397
378.94	25.352
379.30	26.421
379.66	26.573
380.02	26.428
380.38	26.382
380.74	26.141
381.09	25.958
381.45	26.136
381.81	25.527
382.17	26.128
382.53	25.906
382.89	25.564
383.25	25.967
383.61	26.273
383.97	26.384
384.32	26.555
384.68	25.522
385.04	27.241
385.40	26.989
385.76	27.257
386.12	26.511
386.48	27.176
386.83	27.294
387.19	25.782
387.55	26.702
387.91	25.799
388.27	26.674
388.62	26.690
388.98	26.509
389.34	27.519
389.70	27.019
390.06	27.590
390.42	26.747
390.77	27.273
391.13	25.998
391.49	26.570
391.85	27.576
392.20	26.097
392.56	28.175
392.92	27.426
393.28	27.584
393.64	26.816
393.99	27.542
394.35	27.570
394.71	27.665
395.07	27.066
395.42	26.156
395.78	28.215
396.14	27.510
396.50	26.841
396.85	27.132
397.21	26.746
397.57	27.621
397.92	27.033
398.28	26.942
398.64	26.487
399.00	26.859
399.35	27.016
399.71	26.685
400.07	27.906
400.42	27.183
400.78	27.141
401.14	27.205
401.49	27.175
401.85	27.500
402.21	27.404
402.57	28.932
402.92	27.660
403.28	26.581
403.63	26.432
403.99	27.672
404.35	25.867
404.70	27.195
405.06	26.848
405.42	27.400
405.77	26.990
406.13	27.661
406.49	27.477
406.84	27.535
407.20	27.222
407.55	26.469
407.91	27.278
408.27	27.150
408.62	27.981
408.98	26.930
409.34	26.569
409.69	26.947
410.05	26.846
410.40	27.726
410.76	28.603
411.11	28.229
411.47	28.256
411.83	27.454
412.18	27.771
412.54	27.504
412.89	28.231
413.25	28.499
413.60	27.685
413.96	27.506
414.31	26.969
414.67	27.668
415.03	27.200
415.38	27.932
415.74	27.245
416.09	28.748
416.45	27.239
416.80	26.438
417.16	28.097
417.51	27.895
417.87	27.836
418.22	28.563
418.58	27.633
418.93	27.066
419.29	27.004
419.64	27.971
420.00	27.893
420.35	28.074
420.71	27.685
421.06	27.200
421.42	27.867
421.77	27.625
422.12	26.956
422.48	27.291
422.83	27.218
423.19	27.639
423.54	27.434
423.90	28.051
424.25	27.467
424.61	27.268
424.96	27.732
425.31	27.919
425.67	27.805
426.02	28.002
426.38	28.703
426.73	27.623
427.09	28.028
427.44	27.198
427.79	28.137
428.15	27.226
428.50	28.202
428.85	27.612
429.21	28.670
429.56	27.887
429.92	27.764
430.27	28.771
430.62	28.774
430.98	28.529
431.33	28.250
431.68	27.490
432.04	28.238
432.39	28.334
432.74	28.311
433.10	28.772
433.45	28.317
433.80	27.951
434.16	27.789
434.51	29.239
434.86	29.805
435.22	28.693
435.57	30.071
435.92	29.048
436.28	29.465
436.63	29.001
436.98	29.576
437.34	28.410
437.69	28.729
438.04	28.874
438.39	29.466
438.75	28.334
439.10	28.594
439.45	28.563
439.81	28.757
440.16	28.901
440.51	29.543
440.86	29.183
441.22	28.778
441.57	28.931
441.92	29.340
442.27	29.293
442.63	29.210
442.98	29.509
443.33	30.037
443.68	30.228
444.03	29.351
444.39	30.236
444.74	29.709
445.09	29.143
445.44	30.084
445.79	30.172
446.15	29.599
446.50	29.457
446.85	29.961
447.20	29.836
447.55	30.649
447.91	29.895
448.26	29.810
448.61	30.181
448.96	30.311
449.31	30.382
449.66	29.357
450.02	30.222
450.37	30.741
450.72	29.763
451.07	30.638
451.42	30.676
451.77	29.238
452.12	30.192
452.47	30.065
452.83	30.405
453.18	30.239
453.53	30.385
453.88	30.536
454.23	29.944
454.58	29.832
454.93	30.218
455.28	31.066
455.63	30.586
455.98	29.777
456.34	29.976
456.69	30.159
457.04	30.969
457.39	30.377
457.74	29.978
458.09	29.764
458.44	30.280
458.79	29.397
459.14	30.624
459.49	30.277
459.84	29.853
460.19	29.150
460.54	31.232
460.89	29.751
461.24	30.345
461.59	30.880
461.94	30.576
462.29	31.299
462.64	29.813
462.99	30.069
463.34	30.629
463.69	31.067
464.04	31.128
464.39	29.933
464.74	29.932
465.09	30.738
465.44	29.721
465.79	29.614
466.14	29.338
466.49	29.947
466.84	30.248
467.19	29.769
467.54	29.730
467.89	30.575
468.24	30.693
468.59	29.415
468.94	29.312
469.29	29.994
469.64	30.960
469.99	30.083
470.34	31.064
470.68	31.237
471.03	31.434
471.38	31.589
471.73	30.624
472.08	31.536
472.43	29.741
472.78	30.416
473.13	30.657
473.48	30.393
473.83	31.341
474.17	30.832
474.52	31.389
474.87	30.952
475.22	30.648
475.57	29.803
475.92	30.911
476.27	29.766
476.61	30.530
476.96	29.771
477.31	30.248
477.66	30.797
478.01	30.554
478.36	29.960
478.70	30.049
479.05	31.135
479.40	30.553
479.75	29.971
480.10	30.317
480.45	29.581
480.79	29.796
481.14	30.377
481.49	30.123
481.84	30.244
482.19	30.022
482.53	30.826
482.88	30.704
483.23	30.502
483.58	30.349
483.92	29.876
484.27	29.721
484.62	30.281
484.97	30.482
485.31	29.567
485.66	27.977
486.01	27.535
486.36	27.109
486.70	28.838
487.05	29.437
487.40	29.394
487.75	29.491
488.09	29.558
488.44	29.747
488.79	29.882
489.13	30.340
489.48	29.243
489.83	30.262
490.17	29.607
490.52	29.803
490.87	30.838
491.22	29.723
491.56	30.375
491.91	31.182
492.26	30.290
492.60	30.477
492.95	30.013
493.30	30.569
493.64	30.267
493.99	30.439
494.34	29.617
494.68	29.936
495.03	29.604
495.37	30.981
495.72	29.751
496.07	30.105
496.41	29.730
496.76	30.067
497.11	30.064
497.45	29.435
497.80	30.209
498.14	30.612
498.49	30.193
498.84	29.890
499.18	30.589
499.53	29.910
499.87	29.934
500.22	29.207
500.56	28.565
500.91	29.748
501.26	30.500
501.60	29.032
501.95	29.614
502.29	29.882
502.64	29.646
502.98	29.724
503.33	29.071
503.67	29.394
504.02	29.072
504.36	30.340
504.71	29.582
505.06	29.150
505.40	29.479
505.75	29.781
506.09	29.696
506.44	29.666
506.78	30.367
507.13	29.645
507.47	29.417
507.82	30.161
508.16	29.685
508.51	29.161
508.85	29.759
509.19	29.559
509.54	30.500
509.88	30.063
510.23	28.898
510.57	30.691
510.92	29.947
511.26	30.159
511.61	29.551
511.95	29.331
512.30	29.788
512.64	29.035
512.98	30.115
513.33	30.040
513.67	29.220
514.02	30.148
514.36	30.384
514.70	30.052
515.05	30.240
515.39	29.659
515.74	30.647
516.08	30.798
516.42	30.508
516.77	29.232
517.11	30.067
517.46	30.064
517.80	30.305
518.14	30.794
518.49	30.531
518.83	29.058
519.17	30.048
519.52	28.931
519.86	29.461
520.20	30.671
520.55	29.682
520.89	29.786
521.23	30.877
521.58	30.791
521.92	30.312
522.26	29.782
522.61	31.366
522.95	30.104
523.29	30.345
523.64	29.933
523.98	31.147
524.32	31.117
524.66	29.880
525.01	30.011
525.35	29.696
525.69	29.524
526.04	28.703
526.38	29.655
526.72	30.161
527.06	30.616
527.41	30.087
527.75	29.869
528.09	30.401
528.43	30.136
528.78	29.480
529.12	29.128
529.46	29.511
529.80	28.890
530.15	29.043
530.49	28.826
530.83	29.988
531.17	29.749
531.51	29.723
531.86	28.966
532.20	29.329
532.54	29.025
532.88	29.879
533.22	29.346
533.57	29.025
533.91	28.900
534.25	28.999
534.59	28.678
534.93	28.523
535.27	28.507
535.62	29.903
535.96	28.704
536.30	28.378
536.64	29.009
536.98	29.951
537.32	28.642
537.66	29.507
538.01	28.036
538.35	29.415
538.69	28.425
539.03	29.001
539.37	29.152
539.71	28.168
540.05	28.417
540.39	28.606
540.73	28.294
541.07	29.736
541.42	28.293
541.76	28.055
542.10	27.805
542.44	27.467
542.78	28.528
543.12	28.367
543.46	27.839
543.80	27.278
544.14	28.247
544.48	27.660
544.82	29.324
545.16	28.026
545.50	28.999
545.84	28.904
546.18	28.827
546.52	28.089
546.86	28.742
547.20	27.799
547.54	27.466
547.88	27.486
548.22	27.310
548.56	26.975
548.90	26.627
549.24	27.964
549.58	28.328
549.92	27.679
550.26	28.479
550.60	28.271
550.94	28.461
551.28	27.591
551.62	29.111
551.96	28.414
552.30	28.936
552.64	27.816
552.98	28.135
553.32	28.424
553.66	27.910
554.00	27.806
554.34	27.671
554.68	26.469
555.02	27.924
555.36	28.665
555.69	26.906
556.03	27.238
556.37	27.409
556.71	28.091
557.05	27.987
557.39	27.605
557.73	27.807
558.07	28.079
558.41	28.704
558.75	27.248
559.08	28.323
559.42	26.612
559.76	28.223
560.10	27.194
560.44	26.319
560.78	27.125
561.12	26.539
561.45	26.946
561.79	26.679
562.13	27.295
562.47	26.634
562.81	27.152
563.15	26.641
563.48	27.346
563.82	27.025
564.16	26.105
564.50	26.698
564.84	25.959
565.17	27.000
565.51	26.237
565.85	25.950
566.19	25.058
566.52	26.565
566.86	26.203
567.20	25.829
567.54	26.075
567.88	26.402
568.21	26.038
568.55	24.844
568.89	25.556
569.23	25.306
569.56	24.306
569.90	24.412
570.24	23.980
570.57	23.701
570.91	23.484
571.25	23.315
571.59	23.323
571.92	23.294
572.26	22.393
572.60	22.741
572.93	23.351
573.27	22.647
573.61	22.896
573.95	22.214
574.28	22.168
574.62	22.624
574.96	21.173
575.29	21.701
575.63	21.806
575.97	21.653
576.30	22.403
576.64	21.856
576.98	21.822
577.31	22.076
577.65	21.771
577.98	21.423
578.32	21.162
578.66	21.221
578.99	21.647
579.33	21.854
579.67	21.872
580.00	21.758
580.34	21.575
580.67	21.447
581.01	21.657
581.35	21.099
581.68	20.923
582.02	21.042
582.35	21.358
582.69	21.331
583.02	21.342
583.36	21.873
583.70	22.063
584.03	21.430
584.37	21.674
584.70	21.443
585.04	21.018
585.37	20.968
585.71	21.122
586.04	21.158
586.38	21.286
586.72	21.108
587.05	21.105
587.39	21.591
587.72	21.411
588.06	21.035
588.39	21.832
588.73	21.243
589.06	21.953
589.40	22.372
589.73	21.722
590.07	22.414
590.40	22.110
590.73	22.517
591.07	22.077
591.40	22.706
591.74	21.741
592.07	22.696
592.41	22.516
592.74	21.832
593.08	21.465
593.41	22.193
593.75	21.149
594.08	21.812
594.41	22.404
594.75	21.189
595.08	21.534
595.42	21.656
595.75	21.602
596.09	21.823
596.42	21.283
596.75	22.192
597.09	22.141
597.42	21.812
597.75	21.482
598.09	22.063
598.42	22.437
598.76	21.628
599.09	21.324
599.42	20.851
599.76	20.403
600.09	21.488
600.42	21.355
600.76	20.839
601.09	21.042
601.42	21.009
601.76	21.621
602.09	21.623
602.42	21.047
602.76	21.255
603.09	21.072
603.42	21.460
603.76	20.719
604.09	22.108
604.42	21.174
604.76	20.852
605.09	21.819
605.42	21.970
605.75	21.346
606.09	20.866
606.42	20.649
606.75	21.064
607.09	21.083
607.42	21.040
607.75	21.376
608.08	20.639
608.42	20.556
608.75	21.310
609.08	20.671
609.41	21.350
609.75	21.920
610.08	21.064
610.41	21.198
610.74	21.176
611.07	21.670
611.41	21.300
611.74	21.755
612.07	21.973
612.40	21.768
612.73	21.418
613.07	21.369
613.40	22.329
613.73	20.992
614.06	21.933
614.39	22.303
614.72	21.689
615.06	21.463
615.39	21.170
615.72	21.469
616.05	21.175
616.38	21.998
616.71	21.630
617.05	20.820
617.38	21.937
617.71	22.408
618.04	21.641
618.37	22.404
618.70	22.794
619.03	22.162
619.36	22.503
619.69	23.254
620.03	22.724
620.36	21.227
620.69	21.653
621.02	23.097
621.35	23.803
621.68	22.198
622.01	22.206
622.34	22.385
622.67	22.749
623.00	21.660
623.33	22.960
623.66	22.698
623.99	22.054
624.32	23.132
624.65	22.072
624.99	22.627
625.32	23.449
625.65	22.724
625.98	22.034
626.31	21.403
626.64	22.271
626.97	21.605
627.30	22.779
627.63	22.506
627.96	23.649
628.29	23.035
628.62	22.754
628.95	24.365
629.28	22.600
629.61	23.653
629.94	23.347
630.26	22.797
630.59	21.848
630.92	22.424
631.25	23.882
631.58	24.670
631.91	24.461
632.24	24.688
632.57	24.288
632.90	24.373
633.23	24.592
633.56	24.796
633.89	24.277
634.22	24.532
634.55	24.008
634.88	26.190
635.20	25.727
635.53	24.181
635.86	24.269
636.19	25.663
636.52	24.367
636.85	23.698
637.18	24.844
637.51	24.301
637.83	25.692
638.16	27.074
638.49	24.413
638.82	25.141
639.15	24.170
639.48	25.289
639.81	25.866
640.13	26.620
640.46	24.000
640.79	23.775
641.12	25.714
641.45	25.972
641.77	27.086
642.10	24.672
642.43	26.463
642.76	24.255
643.09	24.795
643.41	26.471
643.74	22.621
644.07	26.621
644.40	27.016
644.73	26.851
645.05	25.991
645.38	27.050
645.71	25.953
646.04	26.973
646.36	25.693
646.69	25.307
647.02	26.453
647.35	28.702
647.67	25.121
648.00	25.478
648.33	25.826
648.66	24.822
648.98	23.810
649.31	25.169
649.64	24.303
649.96	24.801
650.29	23.088
650.62	23.904
650.94	26.727
651.27	25.150
651.60	25.439
651.92	25.380
652.25	24.168
652.58	23.109
652.90	24.564
653.23	26.620
653.56	24.108
653.88	24.719
654.21	25.775
654.54	25.867
654.86	25.212
655.19	21.832
655.52	21.548
655.84	18.009
656.17	20.638
656.49	28.520
656.82	30.898
657.15	23.994
657.47	17.819
657.80	13.511
658.13	10.508
658.45	13.768
658.78	16.312
659.10	16.674
659.43	17.145
659.75	17.187
660.08	17.983
660.41	18.776
660.73	20.639
661.06	22.761
661.38	22.329
661.71	27.759
662.03	24.868
662.36	26.655
662.68	24.953
663.01	25.133
663.33	25.520
663.66	27.839
663.98	25.769
664.31	27.392
664.63	25.048
664.96	26.497
665.28	24.682
665.61	26.399
665.93	23.929
666.26	24.731
666.58	23.432
666.91	27.103
667.23	26.286
667.56	26.824
667.88	27.200
668.21	21.680
668.53	22.780
668.86	26.130
669.18	24.440
669.50	26.441
669.83	25.000
670.15	25.000
670.48	26.587
670.80	24.665
671.13	25.898
671.45	26.772
671.77	24.294
672.10	22.000
672.42	23.948
672.75	21.813
673.07	23.582
673.39	22.804
673.72	23.826
674.04	24.828
674.37	24.329
674.69	26.984
675.01	24.190
675.34	22.328
675.66	25.094
675.98	27.425
676.31	25.586
676.63	26.046
676.95	24.330
677.28	25.000
677.60	25.591
677.92	25.912
678.25	25.046
678.57	24.911
678.89	24.061
679.22	21.080
679.54	22.906
679.86	22.203
680.18	23.217
680.51	23.899
680.83	22.259
681.15	22.241
681.48	22.280
681.80	23.489
682.12	22.552
682.44	24.207
682.77	23.404
683.09	22.917
683.41	24.806
683.73	25.617
684.06	21.218
684.38	23.614
684.70	23.698
685.02	22.547
685.34	21.298
685.67	21.924
685.99	21.626
686.31	21.221
686.63	21.327
686.96	19.558
687.28	22.313
687.60	21.549
687.92	21.704
688.24	21.035
688.56	19.483
688.89	23.775
689.21	22.701
689.53	20.980
689.85	21.893
690.17	22.037
690.49	23.705
690.82	22.772
691.14	22.065
691.46	23.901
691.78	23.020
692.10	22.385
692.42	21.250
692.74	19.782
693.06	19.815
693.39	23.150
693.71	22.932
694.03	23.606
694.35	21.143
694.67	23.819
694.99	22.340
695.31	24.062
695.63	24.026
695.95	22.567
696.27	23.956
696.59	23.673
696.91	21.847
697.23	26.154
697.56	21.792
697.88	20.455
698.20	21.657
698.52	24.053
698.84	23.493
699.16	24.082
699.48	22.385
699.80	21.064
700.12	23.362
700.44	22.350
700.76	23.515
701.08	24.697
701.40	24.870
701.72	22.886
702.04	28.610
702.36	21.990
702.68	22.738
703.00	22.738
703.32	24.877
703.64	24.450
703.96	23.866
704.28	22.113
704.60	25.316
704.91	22.704
705.23	24.932
705.55	22.563
705.87	26.667
706.19	27.607
706.51	21.687
706.83	24.784
707.15	22.487
707.47	21.729
707.79	22.489
708.11	18.220
708.43	20.860
708.74	18.527
709.06	20.186
709.38	23.005
709.70	24.069
710.02	21.964
710.34	24.202
710.66	20.670
710.98	22.131
711.29	20.055
711.61	23.446
711.93	23.647
712.25	23.243
712.57	25.074
712.89	26.471
713.20	23.077
713.52	26.590
713.84	23.398
714.16	25.263
714.48	22.423
714.80	23.377
715.11	22.310
715.43	20.159
715.75	23.947
716.07	20.718
716.39	22.951
716.70	22.289
717.02	26.885
717.34	19.512
717.66	26.510
717.97	21.918
718.29	21.993
718.61	20.724
718.93	22.330
719.24	26.087
719.56	21.472
719.88	20.721
720.20	24.516
720.51	20.186
720.83	24.063
721.15	19.408
721.46	18.151
721.78	21.667
722.10	22.330
722.42	17.114
722.73	24.516
723.05	20.702
723.37	21.875
723.68	26.882
724.00	24.910
724.32	20.775
724.63	22.028
724.95	25.177
725.27	20.209
725.58	24.735
725.90	21.724
726.22	22.884
726.53	23.377
726.85	23.270
727.16	20.242
727.48	21.101
727.80	22.185
728.11	19.081
728.43	22.222
728.74	20.401
729.06	19.868
729.38	23.701
729.69	21.477
730.01	19.940
730.32	18.485
730.64	21.384
730.96	22.981
731.27	22.905
731.59	19.505
731.90	20.000
732.22	20.833
732.53	17.680
732.85	23.714
733.16	19.648
733.48	17.988
733.80	18.384
734.11	20.798
734.43	18.108
734.74	18.481
735.06	19.095
735.37	20.541
735.69	19.459
736.00	20.056
736.32	17.790
736.63	18.333
736.95	20.690
737.26	20.000
737.58	20.303
737.89	19.706
738.21	18.654
738.52	20.000
738.83	21.843
739.15	19.858
739.46	21.088
739.78	21.472
740.09	19.484
740.41	19.534
740.72	19.667
741.04	19.417
741.35	21.754
741.66	21.961
741.98	25.000
742.29	20.502
742.61	22.807
742.92	19.231
743.23	22.383
743.55	23.256
743.86	20.400
744.18	17.355
744.49	26.160
744.80	23.457
745.12	24.051
745.43	28.862
745.74	17.672
746.06	18.220
746.37	24.895
746.68	25.203
747.00	19.167
747.31	18.884
747.62	23.462
747.94	22.672
748.25	16.867
748.56	15.918
748.88	24.359
749.19	25.862
749.50	18.615
749.82	21.687
750.13	25.267
750.44	18.667
750.75	20.923
751.07	21.231
751.38	21.451
751.69	21.406
752.01	17.799
752.32	20.915
752.63	20.408
752.94	19.723
753.26	20.818
753.57	18.889
753.88	19.101
754.19	18.328
754.51	18.650
754.82	24.116
755.13	20.656
755.44	20.137
755.75	21.053
756.07	22.388
756.38	20.440
756.69	23.494
757.00	17.452
757.31	18.852
757.63	15.345
757.94	19.953
758.25	18.284
758.56	18.736
758.87	19.091
759.18	20.267
759.50	20.397
759.81	18.768
760.12	18.059
760.43	17.187
760.74	22.906
761.05	16.750
761.36	16.386
761.67	18.274
761.99	14.595
762.30	17.988
762.61	19.142
762.92	17.910
763.23	22.472
763.54	21.583
763.85	17.869
764.16	21.886
764.47	19.366
764.78	19.169
765.10	15.249
765.41	21.026
765.72	19.048
766.03	15.254
766.34	19.436
766.65	16.028
766.96	18.725
767.27	26.267
767.58	20.896
767.89	23.558
768.20	24.413
768.51	21.759
768.82	18.474
769.13	18.939
769.44	16.154
769.75	20.939
770.06	23.077
770.37	24.409
770.68	20.000
770.99	17.409
771.30	22.593
771.61	20.913
771.92	18.889
772.23	22.267
772.54	18.056
772.85	20.276
773.16	25.714
773.47	20.106
773.78	21.622
774.09	21.023
774.39	26.500
774.70	21.858
775.01	20.732
775.32	19.412
775.63	21.472
775.94	15.287
776.25	29.677
776.56	27.564
776.87	20.408
777.18	25.517
777.48	18.881
777.79	27.703
778.10	15.441
778.41	20.139
778.72	23.448
779.03	23.457
779.34	16.364
779.65	21.762
779.95	25.556
780.26	28.409
780.57	23.871
780.88	25.362
781.19	23.226
781.50	26.471
781.80	19.355
782.11	19.048
782.42	18.182
782.73	17.964
783.04	22.905
783.34	18.788
783.65	16.340
783.96	21.739
784.27	20.833
784.57	25.828
784.88	20.714
785.19	18.898
785.50	20.472
785.81	16.541
786.11	32.308
786.42	17.266
786.73	18.705
787.04	27.068
787.34	12.295
787.65	16.000
787.96	23.881
788.26	23.077
788.57	25.874
788.88	23.026
789.19	19.608
789.49	15.068
789.80	18.440
790.11	15.748
790.41	21.094
790.72	24.576
791.03	13.592
791.33	27.826
791.64	30.702
791.95	15.179
792.25	11.429
792.56	16.964
792.87	18.750
793.17	27.679
793.48	15.625
793.79	21.687
794.09	19.266
794.40	11.009
794.70	14.966
795.01	13.636
795.32	14.384
795.62	19.014
795.93	18.939
796.23	14.754
796.54	10.714
796.85	19.149
797.15	15.217
797.46	9.589
797.76	6.250
798.07	17.391
798.37	9.278
798.68	29.870
798.99	10.345
799.29	15.730
799.60	12.766
799.90	20.482
800.21	9.231
800.51	10.448
800.82	17.647
801.12	0.000
801.43	-5.882
801.73	6.780
802.04	25.758
802.34	16.667
802.65	3.390
802.95	26.866
803.26	23.729
803.56	9.589
803.87	12.857
804.17	27.397
804.48	10.526
804.78	23.611
805.09	10.345
805.39	21.622
805.70	12.676
806.00	26.829
806.30	6.024
806.61	6.849
806.91	24.038
807.22	14.444
807.52	12.644
807.83	30.556
808.13	19.277
808.43	29.213
808.74	12.500
809.04	11.765
809.35	-1.333
809.65	14.286
809.95	15.068
810.26	7.018
810.56	8.621
810.86	16.176
811.17	0.000
811.47	-1.639
811.77	-8.889
812.08	11.864
812.38	20.000
812.69	22.414
812.99	-5.660
813.29	-7.692
813.59	24.000
813.90	8.772
814.20	20.000
814.50	43.662
814.81	17.949
815.11	0.000
815.41	14.925
815.72	20.690
816.02	21.429
816.32	28.889
816.62	0.000
816.93	4.444
817.23	16.667
817.53	21.277
817.84	40.476
818.14	5.882
818.44	18.367
818.74	24.444
819.04	-7.692
819.35	-2.857
819.65	3.846
819.95	9.434
820.25	13.333
820.56	4.762
820.86	-12.500
821.16	5.128
821.46	9.302
821.76	-18.000
822.07	14.286
822.37	21.739
822.67	10.638
822.97	-21.622
823.27	30.000
823.57	20.408
823.88	6.667
824.18	12.500
824.48	6.667
824.78	16.000
825.08	27.273
825.38	40.000
825.69	2.128
825.99	16.667
826.29	-40.000
826.59	23.077
826.89	-4.651
827.19	20.000
827.49	23.529
827.79	35.417
828.09	-10.811
828.39	20.000
828.70	4.878
829.00	4.651
829.30	14.286
829.60	26.471
829.90	-8.696
830.20	-20.000
830.50	-3.448
830.80	33.333
831.10	11.538
831.40	14.706
831.70	28.571
832.00	48.387
832.30	-52.941
832.60	-12.500
832.90	-69.231
833.20	0.000
833.50	10.000
833.80	-73.684
834.10	-47.619
834.40	13.889
834.70	12.500
835.00	-5.714
835.30	14.706
835.60	0.000
835.90	48.000
836.20	-9.091
836.50	72.000
836.80	-12.121
837.10	-22.222
837.40	-11.111
837.70	-31.250
838.00	17.857
838.30	-26.087
838.60	3.448
838.90	-14.286
839.19	-17.391
839.49	-8.333
839.79	-8.696
840.09	-100.000
840.39	40.000
840.69	9.677
840.99	-7.143
841.29	6.667
841.59	10.526
841.88	23.077
842.18	19.231
842.48	-50.000
842.78	10.000
843.08	30.000
843.38	29.032
843.68	-38.889
843.97	14.706
844.27	0.000
844.57	-15.789
844.87	-60.000
845.17	-66.667
845.47	9.524
845.76	-4.762
846.06	-88.889
846.36	-70.588
846.66	11.538
846.96	-46.667
847.25	-35.294
847.55	26.087
847.85	20.000
848.15	29.412
848.44	-90.909
848.74	-19.048
849.04	16.667
849.34	25.000
849.63	-8.696
849.93	300.000
850.23	33.333
850.53	69.231
850.82	-18.182
851.12	40.909
851.42	-63.636
851.71	61.538
852.01	-70.000
852.31	-84.615
852.61	36.842
852.90	8.333
853.20	-16.667
853.50	-88.889
853.79	-47.619
854.09	-40.909
854.39	-66.667
854.68	9.677
854.98	11.538
855.28	33.333
855.57	32.143
855.87	-20.000
856.17	0.000
856.46	25.926
856.76	-11.111
857.05	-34.783
857.35	0.000
857.65	-15.385
857.94	0.000
858.24	14.815
858.53	17.391
858.83	23.529
859.13	29.412
859.42	35.294
859.72	21.429
860.01	-5.000
860.31	-77.778
860.60	-30.000
860.90	-13.333
861.20	-11.111
861.49	-15.385
861.79	6.667
862.08	-38.462
862.38	28.125
862.67	11.765
862.97	-12.500
863.26	-55.556
863.56	10.000
863.85	9.091
864.15	38.889
864.44	-100.000
864.74	42.857
865.03	-50.000
865.33	-140.000
865.62	6.452
865.92	4.545
866.21	4.348
866.51	-28.571
866.80	-120.000
867.10	58.333
867.39	16.667
867.69	600.000
867.98	57.143
868.27	17.647
868.57	-1300.000
868.86	-80.000
869.16	-38.095
869.45	33.333
869.75	18.182
870.04	42.857
870.33	16.667
870.63	-228.571
870.92	25.000
871.22	-200.000
871.51	0.000
871.80	-500.000
872.10	-350.000
>>>>>End Processed Spectral Data<<<<<
