SpectraSuite Data File
++++++++++++++++++++++++++++++++++++
Date: Thu May 14 16:26:32 PDT 2015
User: schluterlab
Dark Spectrum Present: Yes
Reference Spectrum Present: Yes
Number of Sampled Component Spectra: 1
Spectrometers: USB2E3373
Integration Time (usec): 3000 (USB2E3373)
Spectra Averaged: 3 (USB2E3373)
Boxcar Smoothing: 0 (USB2E3373)
Correct for Electrical Dark: No (USB2E3373)
Strobe/Lamp Enabled: No (USB2E3373)
Correct for Detector Non-linearity: No (USB2E3373)
Correct for Stray Light: No (USB2E3373)
Number of Pixels in Processed Spectrum: 2048
>>>>>Begin Processed Spectral Data<<<<<
178.53	0.000
178.91	-28.571
179.29	-1200.000
179.67	-400.000
180.04	114.286
180.42	60.000
180.80	140.000
181.18	-400.000
181.56	300.000
181.94	-100.000
182.31	75.000
182.69	-166.667
183.07	50.000
183.45	75.000
183.83	-16.667
184.20	100.000
184.58	300.000
184.96	-225.000
185.34	-33.333
185.72	100.000
186.09	111.111
186.47	50.000
186.85	240.000
187.23	-111.111
187.61	-900.000
187.98	-40.000
188.36	75.000
188.74	-125.000
189.12	233.333
189.49	25.000
189.87	-75.000
190.25	-22.222
190.63	140.000
191.00	-200.000
191.38	0.000
191.76	-150.000
192.14	-16.667
192.51	-0.000
192.89	66.667
193.27	0.000
193.65	0.000
194.02	-1700.000
194.40	0.000
194.78	-14.286
195.15	0.000
195.53	9.091
195.91	0.000
196.29	25.000
196.66	-7.692
197.04	-900.000
197.42	-85.714
197.79	-300.000
198.17	-25.000
198.55	-71.429
198.92	66.667
199.30	-75.000
199.68	109.091
200.05	42.857
200.43	-350.000
200.81	100.000
201.18	0.000
201.56	122.222
201.94	0.000
202.31	266.667
202.69	-55.556
203.07	-400.000
203.44	11.111
203.82	-75.000
204.19	66.667
204.57	-100.000
204.95	12.500
205.32	-300.000
205.70	25.000
206.08	33.333
206.45	100.000
206.83	140.000
207.20	-66.667
207.58	-80.000
207.96	-83.333
208.33	33.333
208.71	58.333
209.08	50.000
209.46	0.000
209.84	116.667
210.21	-200.000
210.59	-200.000
210.96	166.667
211.34	175.000
211.71	0.000
212.09	-300.000
212.46	0.000
212.84	450.000
213.22	40.000
213.59	25.000
213.97	100.000
214.34	33.333
214.72	-50.000
215.09	-75.000
215.47	0.000
215.84	-28.571
216.22	750.000
216.59	20.000
216.97	-100.000
217.34	-175.000
217.72	50.000
218.09	25.000
218.47	-225.000
218.84	0.000
219.22	-20.000
219.59	17.647
219.97	5.000
220.34	250.000
220.72	111.111
221.09	61.538
221.47	300.000
221.84	10.000
222.22	-28.571
222.59	0.000
222.97	100.000
223.34	-60.000
223.72	-100.000
224.09	-125.000
224.46	-200.000
224.84	40.000
225.21	100.000
225.59	-125.000
225.96	-125.000
226.34	34.615
226.71	50.000
227.08	-200.000
227.46	20.000
227.83	75.000
228.21	36.842
228.58	-37.500
228.95	450.000
229.33	66.667
229.70	30.000
230.08	84.211
230.45	40.000
230.82	66.667
231.20	35.714
231.57	25.000
231.95	0.000
232.32	9.091
232.69	30.000
233.07	100.000
233.44	58.824
233.81	50.000
234.19	72.222
234.56	-4.545
234.93	10.345
235.31	31.579
235.68	61.111
236.05	10.000
236.43	84.615
236.80	48.000
237.17	40.741
237.55	60.606
237.92	30.000
238.29	77.419
238.67	34.091
239.04	38.889
239.41	47.619
239.79	45.652
240.16	51.852
240.53	36.957
240.91	27.451
241.28	39.344
241.65	38.806
242.02	41.892
242.40	33.846
242.77	41.333
243.14	25.610
243.51	38.158
243.89	39.744
244.26	41.584
244.63	33.333
245.00	32.710
245.38	39.474
245.75	31.858
246.12	35.714
246.49	34.109
246.87	37.143
247.24	35.099
247.61	38.816
247.98	37.584
248.36	35.185
248.73	30.675
249.10	45.902
249.47	43.284
249.84	44.503
250.22	36.269
250.59	42.222
250.96	34.545
251.33	39.796
251.70	36.325
252.08	43.333
252.45	37.295
252.82	37.603
253.19	38.672
253.56	40.684
253.94	35.000
254.31	41.667
254.68	38.811
255.05	37.459
255.42	41.497
255.79	36.893
256.16	32.781
256.54	35.762
256.91	40.000
257.28	38.361
257.65	36.624
258.02	35.103
258.39	37.892
258.76	40.061
259.14	43.103
259.51	40.634
259.88	38.244
260.25	37.500
260.62	39.452
260.99	41.530
261.36	36.729
261.73	40.318
262.10	37.363
262.47	39.678
262.85	41.919
263.22	37.143
263.59	33.684
263.96	40.921
264.33	37.596
264.70	39.012
265.07	42.482
265.44	39.229
265.81	37.731
266.18	40.136
266.55	39.286
266.92	38.724
267.29	41.575
267.66	39.024
268.03	39.738
268.40	41.545
268.77	37.358
269.14	40.088
269.51	39.693
269.88	39.754
270.25	37.022
270.62	41.983
270.99	38.788
271.36	37.426
271.73	38.507
272.10	40.281
272.47	40.481
272.84	37.349
273.21	39.279
273.58	41.129
273.95	38.269
274.32	38.213
274.69	36.557
275.06	40.842
275.43	38.632
275.80	39.153
276.17	37.222
276.54	37.687
276.91	36.136
277.28	39.421
277.65	38.420
278.02	38.051
278.39	38.225
278.76	39.543
279.13	38.298
279.50	39.519
279.87	37.209
280.23	33.451
280.60	39.492
280.97	38.816
281.34	37.351
281.71	37.902
282.08	38.372
282.45	34.861
282.82	36.421
283.19	35.057
283.56	37.377
283.92	37.688
284.29	38.863
284.66	37.767
285.03	33.333
285.40	35.858
285.77	35.604
286.14	38.015
286.51	36.377
286.87	35.229
287.24	36.898
287.61	36.173
287.98	35.650
288.35	36.243
288.72	34.911
289.08	36.457
289.45	34.024
289.82	34.940
290.19	33.190
290.56	34.789
290.93	33.666
291.29	33.609
291.66	34.298
292.03	32.700
292.40	35.102
292.77	32.884
293.13	30.176
293.50	33.771
293.87	31.275
294.24	32.667
294.60	31.479
294.97	31.275
295.34	33.547
295.71	30.517
296.08	31.137
296.44	28.554
296.81	30.694
297.18	29.265
297.55	29.245
297.91	30.605
298.28	28.436
298.65	29.489
299.02	27.509
299.38	29.405
299.75	28.154
300.12	27.662
300.48	28.687
300.85	29.134
301.22	27.517
301.59	28.196
301.95	29.492
302.32	29.444
302.69	29.682
303.05	28.727
303.42	28.160
303.79	28.021
304.15	27.760
304.52	28.753
304.89	27.120
305.25	27.640
305.62	26.646
305.99	27.732
306.35	26.008
306.72	29.059
307.09	28.731
307.45	28.675
307.82	27.548
308.19	27.952
308.55	27.387
308.92	28.530
309.29	26.341
309.65	27.290
310.02	26.337
310.38	24.705
310.75	27.573
311.12	27.229
311.48	27.957
311.85	27.160
312.22	27.324
312.58	25.915
312.95	28.776
313.31	27.191
313.68	27.930
314.05	27.462
314.41	28.415
314.78	28.610
315.14	27.405
315.51	27.978
315.87	29.613
316.24	29.772
316.61	29.751
316.97	28.326
317.34	28.131
317.70	30.306
318.07	30.335
318.43	29.337
318.80	31.104
319.16	29.871
319.53	29.820
319.89	30.149
320.26	31.139
320.62	30.585
320.99	31.856
321.35	32.163
321.72	32.930
322.08	32.732
322.45	32.882
322.81	31.769
323.18	32.478
323.54	33.879
323.91	34.253
324.27	33.649
324.64	33.921
325.00	33.997
325.37	33.989
325.73	35.041
326.10	36.415
326.46	36.482
326.83	36.990
327.19	36.063
327.56	36.522
327.92	36.900
328.29	36.048
328.65	37.856
329.01	37.225
329.38	36.479
329.74	38.527
330.11	38.185
330.47	38.416
330.84	38.071
331.20	37.750
331.56	39.168
331.93	38.661
332.29	39.068
332.66	38.621
333.02	39.531
333.38	37.584
333.75	38.215
334.11	38.365
334.48	39.934
334.84	39.167
335.20	39.547
335.57	38.449
335.93	40.165
336.29	38.519
336.66	40.454
337.02	39.967
337.38	39.371
337.75	39.504
338.11	40.286
338.47	38.544
338.84	38.494
339.20	38.163
339.56	38.550
339.93	39.245
340.29	39.694
340.65	38.929
341.02	39.745
341.38	39.289
341.74	39.387
342.11	39.582
342.47	38.681
342.83	39.936
343.20	40.883
343.56	40.898
343.92	40.432
344.28	40.312
344.65	40.930
345.01	39.548
345.37	38.647
345.73	37.958
346.10	40.094
346.46	39.636
346.82	38.652
347.19	40.260
347.55	40.440
347.91	39.079
348.27	40.137
348.63	39.832
349.00	40.045
349.36	39.554
349.72	39.211
350.08	40.639
350.45	39.924
350.81	41.403
351.17	39.774
351.53	42.077
351.89	40.623
352.26	41.567
352.62	40.970
352.98	39.847
353.34	40.702
353.70	41.140
354.07	41.133
354.43	42.065
354.79	40.389
355.15	41.207
355.51	41.594
355.87	41.137
356.24	43.194
356.60	40.946
356.96	42.031
357.32	40.595
357.68	41.728
358.04	41.542
358.40	40.970
358.77	41.667
359.13	41.728
359.49	41.115
359.85	41.479
360.21	41.607
360.57	41.780
360.93	41.255
361.29	42.246
361.66	41.274
362.02	41.754
362.38	41.391
362.74	42.179
363.10	43.604
363.46	43.490
363.82	43.253
364.18	42.998
364.54	42.254
364.90	43.278
365.26	43.586
365.62	43.067
365.98	43.295
366.35	41.812
366.71	43.878
367.07	43.369
367.43	43.533
367.79	43.530
368.15	43.813
368.51	45.061
368.87	43.893
369.23	42.400
369.59	44.399
369.95	43.611
370.31	45.375
370.67	43.810
371.03	43.560
371.39	43.116
371.75	43.741
372.11	43.835
372.47	43.805
372.83	44.372
373.19	43.496
373.55	43.089
373.91	43.967
374.27	44.373
374.63	45.332
374.99	43.435
375.35	45.779
375.71	45.161
376.07	44.351
376.42	46.033
376.78	44.624
377.14	44.541
377.50	45.794
377.86	45.874
378.22	45.389
378.58	45.184
378.94	45.246
379.30	45.577
379.66	46.620
380.02	46.797
380.38	46.601
380.74	45.352
381.09	46.458
381.45	45.795
381.81	48.009
382.17	45.784
382.53	45.848
382.89	45.993
383.25	46.600
383.61	46.528
383.97	46.231
384.32	47.249
384.68	47.100
385.04	47.311
385.40	47.496
385.76	47.069
386.12	45.302
386.48	47.588
386.83	49.344
387.19	46.002
387.55	46.244
387.91	47.546
388.27	47.286
388.62	47.423
388.98	46.249
389.34	48.203
389.70	47.647
390.06	48.431
390.42	47.048
390.77	47.562
391.13	48.357
391.49	48.732
391.85	48.424
392.20	47.450
392.56	47.549
392.92	47.655
393.28	47.816
393.64	47.207
393.99	48.635
394.35	48.949
394.71	48.922
395.07	47.305
395.42	47.744
395.78	49.726
396.14	48.128
396.50	46.259
396.85	48.479
397.21	48.580
397.57	48.410
397.92	48.912
398.28	48.180
398.64	48.799
399.00	47.749
399.35	49.162
399.71	48.152
400.07	48.568
400.42	48.545
400.78	49.884
401.14	49.175
401.49	48.437
401.85	50.523
402.21	49.015
402.57	49.941
402.92	49.764
403.28	48.536
403.63	49.463
403.99	48.694
404.35	48.493
404.70	48.272
405.06	48.804
405.42	49.824
405.77	49.128
406.13	49.055
406.49	48.986
406.84	48.698
407.20	49.189
407.55	48.213
407.91	49.466
408.27	48.940
408.62	49.680
408.98	49.739
409.34	48.739
409.69	49.629
410.05	49.062
410.40	48.898
410.76	48.962
411.11	49.562
411.47	49.079
411.83	49.324
412.18	51.386
412.54	49.970
412.89	49.185
413.25	50.056
413.60	49.914
413.96	50.350
414.31	49.008
414.67	49.016
415.03	49.415
415.38	49.685
415.74	49.847
416.09	50.709
416.45	48.654
416.80	48.409
417.16	50.000
417.51	49.004
417.87	50.276
418.22	49.701
418.58	49.690
418.93	50.000
419.29	49.014
419.64	48.920
420.00	50.920
420.35	48.961
420.71	48.880
421.06	48.189
421.42	48.853
421.77	47.604
422.12	49.471
422.48	48.746
422.83	49.671
423.19	49.496
423.54	50.332
423.90	49.199
424.25	49.920
424.61	49.598
424.96	49.314
425.31	49.788
425.67	48.578
426.02	50.138
426.38	49.943
426.73	48.717
427.09	49.885
427.44	49.099
427.79	49.530
428.15	49.144
428.50	49.719
428.85	49.139
429.21	50.266
429.56	48.914
429.92	48.796
430.27	48.482
430.62	48.021
430.98	48.942
431.33	47.654
431.68	48.372
432.04	49.619
432.39	49.009
432.74	49.372
433.10	49.757
433.45	48.161
433.80	48.391
434.16	49.019
434.51	49.126
434.86	50.434
435.22	50.000
435.57	49.587
435.92	49.527
436.28	49.261
436.63	49.754
436.98	48.739
437.34	48.591
437.69	48.542
438.04	49.180
438.39	48.191
438.75	48.976
439.10	49.049
439.45	49.357
439.81	49.718
440.16	47.399
440.51	48.774
440.86	48.416
441.22	47.964
441.57	48.690
441.92	48.497
442.27	49.242
442.63	47.044
442.98	48.239
443.33	48.185
443.68	47.770
444.03	49.059
444.39	48.682
444.74	48.903
445.09	47.643
445.44	48.419
445.79	48.372
446.15	47.790
446.50	48.269
446.85	48.200
447.20	47.824
447.55	47.856
447.91	46.387
448.26	47.833
448.61	48.353
448.96	48.659
449.31	47.296
449.66	47.222
450.02	47.205
450.37	47.682
450.72	48.116
451.07	48.462
451.42	48.642
451.77	48.138
452.12	48.251
452.47	47.356
452.83	49.212
453.18	47.227
453.53	47.329
453.88	46.715
454.23	47.627
454.58	48.752
454.93	48.240
455.28	47.863
455.63	47.413
455.98	48.156
456.34	47.409
456.69	47.266
457.04	48.641
457.39	46.840
457.74	47.819
458.09	45.744
458.44	47.037
458.79	47.035
459.14	46.880
459.49	46.746
459.84	47.534
460.19	46.474
460.54	47.246
460.89	46.533
461.24	46.322
461.59	45.600
461.94	45.579
462.29	47.144
462.64	47.194
462.99	46.767
463.34	46.853
463.69	46.131
464.04	45.803
464.39	46.749
464.74	46.636
465.09	45.675
465.44	45.011
465.79	45.320
466.14	43.981
466.49	45.684
466.84	45.620
467.19	45.376
467.54	44.125
467.89	44.023
468.24	45.485
468.59	45.686
468.94	45.921
469.29	45.351
469.64	44.692
469.99	46.590
470.34	45.297
470.68	47.232
471.03	46.431
471.38	45.389
471.73	44.928
472.08	44.987
472.43	46.177
472.78	45.403
473.13	46.271
473.48	46.163
473.83	45.038
474.17	44.607
474.52	45.460
474.87	44.740
475.22	44.338
475.57	43.562
475.92	43.454
476.27	44.036
476.61	43.562
476.96	44.421
477.31	44.851
477.66	44.963
478.01	43.060
478.36	43.868
478.70	43.892
479.05	45.092
479.40	44.719
479.75	44.140
480.10	43.913
480.45	43.163
480.79	43.084
481.14	43.199
481.49	43.208
481.84	43.864
482.19	42.839
482.53	43.594
482.88	42.712
483.23	43.797
483.58	42.009
483.92	42.598
484.27	42.041
484.62	42.409
484.97	41.485
485.31	40.936
485.66	39.184
486.01	38.006
486.36	38.665
486.70	39.595
487.05	39.877
487.40	40.005
487.75	39.975
488.09	40.659
488.44	40.629
488.79	41.046
489.13	41.311
489.48	41.553
489.83	41.408
490.17	41.191
490.52	42.200
490.87	41.286
491.22	42.028
491.56	41.596
491.91	42.085
492.26	41.800
492.60	42.239
492.95	42.870
493.30	42.089
493.64	40.955
493.99	41.140
494.34	40.723
494.68	40.600
495.03	41.762
495.37	41.145
495.72	41.769
496.07	41.323
496.41	40.541
496.76	41.535
497.11	40.892
497.45	40.656
497.80	41.182
498.14	40.590
498.49	41.590
498.84	41.408
499.18	41.565
499.53	40.448
499.87	40.967
500.22	39.359
500.56	40.486
500.91	41.053
501.26	40.955
501.60	40.521
501.95	40.512
502.29	40.500
502.64	40.009
502.98	39.215
503.33	39.352
503.67	38.552
504.02	39.011
504.36	40.527
504.71	40.560
505.06	39.745
505.40	39.260
505.75	39.572
506.09	39.595
506.44	40.715
506.78	41.101
507.13	39.235
507.47	40.597
507.82	40.246
508.16	40.105
508.51	39.194
508.85	40.198
509.19	39.886
509.54	39.385
509.88	39.631
510.23	39.339
510.57	40.019
510.92	40.252
511.26	39.827
511.61	38.194
511.95	39.239
512.30	39.882
512.64	38.431
512.98	39.920
513.33	39.667
513.67	39.929
514.02	40.112
514.36	39.898
514.70	39.167
515.05	39.990
515.39	40.997
515.74	40.032
516.08	40.306
516.42	40.188
516.77	39.642
517.11	38.989
517.46	39.979
517.80	39.765
518.14	41.186
518.49	40.076
518.83	39.702
519.17	39.203
519.52	39.413
519.86	38.965
520.20	39.617
520.55	40.854
520.89	40.203
521.23	39.363
521.58	41.017
521.92	40.000
522.26	39.462
522.61	40.394
522.95	39.908
523.29	40.345
523.64	39.630
523.98	40.958
524.32	40.172
524.66	39.613
525.01	39.921
525.35	39.690
525.69	39.385
526.04	38.519
526.38	39.483
526.72	39.965
527.06	40.117
527.41	39.475
527.75	40.796
528.09	39.847
528.43	39.432
528.78	38.382
529.12	38.876
529.46	39.067
529.80	39.645
530.15	38.667
530.49	39.561
530.83	38.961
531.17	39.785
531.51	39.531
531.86	39.363
532.20	38.841
532.54	38.899
532.88	38.970
533.22	37.773
533.57	38.142
533.91	37.149
534.25	37.479
534.59	38.678
534.93	37.748
535.27	38.535
535.62	38.999
535.96	38.524
536.30	38.543
536.64	39.760
536.98	39.114
537.32	38.272
537.66	38.428
538.01	37.402
538.35	37.820
538.69	36.659
539.03	38.381
539.37	37.691
539.71	37.297
540.05	37.770
540.39	36.919
540.73	37.219
541.07	37.768
541.42	37.035
541.76	36.180
542.10	37.817
542.44	36.541
542.78	37.713
543.12	37.128
543.46	37.485
543.80	36.211
544.14	36.326
544.48	36.584
544.82	38.061
545.16	37.209
545.50	36.669
545.84	36.375
546.18	38.395
546.52	36.688
546.86	37.421
547.20	36.768
547.54	37.203
547.88	37.251
548.22	35.906
548.56	35.518
548.90	36.060
549.24	35.380
549.58	36.656
549.92	36.161
550.26	36.764
550.60	36.694
550.94	36.417
551.28	37.030
551.62	37.332
551.96	35.340
552.30	36.711
552.64	36.030
552.98	36.245
553.32	36.656
553.66	36.849
554.00	36.822
554.34	36.036
554.68	36.281
555.02	36.202
555.36	36.949
555.69	36.707
556.03	35.435
556.37	35.795
556.71	36.715
557.05	36.550
557.39	36.297
557.73	36.394
558.07	35.828
558.41	36.744
558.75	36.782
559.08	36.534
559.42	35.871
559.76	36.906
560.10	35.700
560.44	36.544
560.78	36.000
561.12	35.837
561.45	35.645
561.79	35.348
562.13	35.983
562.47	35.018
562.81	35.127
563.15	36.111
563.48	36.544
563.82	35.308
564.16	33.858
564.50	35.161
564.84	34.749
565.17	35.000
565.51	34.120
565.85	34.204
566.19	34.332
566.52	35.108
566.86	34.805
567.20	34.530
567.54	33.192
567.88	34.760
568.21	33.696
568.55	33.429
568.89	32.910
569.23	32.319
569.56	31.419
569.90	31.397
570.24	31.467
570.57	31.142
570.91	30.772
571.25	30.084
571.59	30.337
571.92	29.691
572.26	30.095
572.60	29.675
572.93	29.585
573.27	29.924
573.61	29.434
573.95	29.279
574.28	28.965
574.62	29.150
574.96	28.827
575.29	28.773
575.63	29.037
575.97	28.958
576.30	28.399
576.64	28.561
576.98	28.246
577.31	28.406
577.65	28.580
577.98	28.313
578.32	28.057
578.66	28.119
578.99	27.852
579.33	28.857
579.67	28.286
580.00	28.366
580.34	28.032
580.67	27.957
581.01	27.715
581.35	27.645
581.68	27.986
582.02	27.655
582.35	28.083
582.69	27.438
583.02	27.341
583.36	28.445
583.70	28.607
584.03	28.534
584.37	28.956
584.70	27.726
585.04	27.459
585.37	28.104
585.71	27.896
586.04	28.071
586.38	28.644
586.72	27.952
587.05	27.859
587.39	28.173
587.72	28.278
588.06	28.748
588.39	28.404
588.73	27.778
589.06	28.696
589.40	29.594
589.73	28.824
590.07	29.012
590.40	29.682
590.73	28.703
591.07	30.343
591.40	29.705
591.74	29.531
592.07	29.963
592.41	28.667
592.74	29.286
593.08	28.822
593.41	28.521
593.75	28.879
594.08	28.537
594.41	28.173
594.75	28.230
595.08	28.735
595.42	28.669
595.75	28.221
596.09	28.194
596.42	29.237
596.75	29.139
597.09	29.212
597.42	29.043
597.75	28.146
598.09	28.730
598.42	29.835
598.76	28.162
599.09	29.014
599.42	27.724
599.76	27.666
600.09	28.695
600.42	28.529
600.76	28.633
601.09	27.879
601.42	28.218
601.76	27.690
602.09	28.163
602.42	28.135
602.76	29.114
603.09	28.598
603.42	28.540
603.76	27.766
604.09	28.992
604.42	28.183
604.76	27.778
605.09	29.278
605.42	28.509
605.75	28.346
606.09	28.070
606.42	28.347
606.75	28.298
607.09	27.611
607.42	28.401
607.75	29.699
608.08	28.335
608.42	28.214
608.75	28.192
609.08	27.632
609.41	28.849
609.75	29.107
610.08	29.288
610.41	28.590
610.74	28.866
611.07	30.284
611.41	29.283
611.74	29.885
612.07	29.453
612.40	28.470
612.73	29.340
613.07	29.144
613.40	29.885
613.73	29.225
614.06	29.735
614.39	28.814
614.72	29.112
615.06	29.355
615.39	28.710
615.72	29.384
616.05	29.140
616.38	29.970
616.71	30.094
617.05	29.659
617.38	30.498
617.71	30.724
618.04	30.275
618.37	30.164
618.70	30.090
619.03	30.585
619.36	30.764
619.69	31.326
620.03	30.571
620.36	31.104
620.69	30.228
621.02	31.299
621.35	32.874
621.68	32.321
622.01	32.811
622.34	31.450
622.67	30.859
623.00	30.027
623.33	31.918
623.66	31.193
623.99	31.205
624.32	31.774
624.65	30.438
624.99	31.534
625.32	32.005
625.65	31.962
625.98	30.847
626.31	31.113
626.64	31.648
626.97	30.983
627.30	31.663
627.63	32.183
627.96	31.907
628.29	32.607
628.62	32.158
628.95	32.603
629.28	33.220
629.61	33.165
629.94	30.795
630.26	32.203
630.59	33.074
630.92	32.035
631.25	33.810
631.58	35.217
631.91	34.489
632.24	33.045
632.57	33.681
632.90	32.899
633.23	34.694
633.56	33.878
633.89	34.401
634.22	34.200
634.55	35.908
634.88	35.065
635.20	35.522
635.53	34.576
635.86	36.186
636.19	35.525
636.52	34.810
636.85	33.708
637.18	33.784
637.51	33.333
637.83	35.437
638.16	35.945
638.49	34.390
638.82	34.949
639.15	34.364
639.48	36.028
639.81	33.603
640.13	35.100
640.46	34.182
640.79	35.417
641.12	37.516
641.45	36.637
641.77	36.457
642.10	34.121
642.43	36.702
642.76	36.179
643.09	34.384
643.41	37.255
643.74	36.138
644.07	37.655
644.40	36.351
644.73	37.300
645.05	37.739
645.38	36.835
645.71	37.830
646.04	38.737
646.36	36.788
646.69	35.429
647.02	39.602
647.35	36.794
647.67	37.198
648.00	37.261
648.33	37.387
648.66	35.663
648.98	34.286
649.31	36.401
649.64	36.255
649.96	34.615
650.29	34.631
650.62	33.239
650.94	36.336
651.27	34.581
651.60	35.234
651.92	35.106
652.25	36.614
652.58	34.938
652.90	36.628
653.23	36.197
653.56	36.377
653.88	35.112
654.21	34.085
654.54	36.416
654.86	34.703
655.19	31.619
655.52	29.689
655.84	23.694
656.17	28.518
656.49	39.683
656.82	43.616
657.15	33.916
657.47	25.129
657.80	18.609
658.13	14.486
658.45	19.397
658.78	23.051
659.10	22.951
659.43	23.549
659.75	24.281
660.08	24.650
660.41	27.874
660.73	29.304
661.06	33.480
661.38	33.812
661.71	37.069
662.03	37.037
662.36	37.388
662.68	38.086
663.01	34.690
663.33	39.698
663.66	37.179
663.98	37.500
664.31	37.523
664.63	37.187
664.96	34.846
665.28	35.390
665.61	35.140
665.93	35.357
666.26	35.305
666.58	35.609
666.91	35.888
667.23	36.000
667.56	35.700
667.88	38.400
668.21	34.961
668.53	35.907
668.86	38.900
669.18	37.271
669.50	37.177
669.83	36.200
670.15	33.858
670.48	38.294
670.80	35.564
671.13	33.081
671.45	37.205
671.77	37.100
672.10	33.167
672.42	33.172
672.75	33.487
673.07	34.030
673.39	31.125
673.72	35.403
674.04	34.828
674.37	38.104
674.69	36.155
675.01	32.000
675.34	37.214
675.66	33.521
675.98	34.515
676.31	37.891
676.63	35.932
676.95	34.483
677.28	38.508
677.60	34.843
677.92	33.397
678.25	35.832
678.57	35.943
678.89	35.836
679.22	35.540
679.54	33.162
679.86	33.559
680.18	33.499
680.51	32.075
680.83	33.879
681.15	32.241
681.48	36.097
681.80	34.024
682.12	34.266
682.44	33.055
682.77	31.206
683.09	33.902
683.41	35.659
683.73	34.345
684.06	32.841
684.38	34.884
684.70	34.829
685.02	33.907
685.34	29.784
685.67	30.599
685.99	32.209
686.31	28.634
686.63	31.122
686.96	32.334
687.28	31.596
687.60	30.808
687.92	33.119
688.24	32.888
688.56	33.276
688.89	32.486
689.21	32.485
689.53	31.176
689.85	33.531
690.17	32.593
690.49	35.458
690.82	35.050
691.14	34.413
691.46	34.608
691.78	33.149
692.10	33.028
692.42	34.286
692.74	31.942
693.06	28.889
693.39	34.156
693.71	31.015
694.03	33.271
694.35	32.381
694.67	35.524
694.99	34.681
695.31	32.009
695.63	35.065
695.95	33.540
696.27	33.407
696.59	35.398
696.91	32.658
697.23	33.407
697.56	35.438
697.88	30.492
698.20	32.392
698.52	33.144
698.84	32.848
699.16	33.265
699.48	31.590
699.80	31.489
700.12	33.843
700.44	35.484
700.76	35.867
701.08	33.414
701.40	35.233
701.72	32.587
702.04	36.631
702.36	34.031
702.68	34.963
703.00	32.518
703.32	34.729
703.64	34.474
703.96	31.504
704.28	32.432
704.60	34.430
704.91	32.398
705.23	35.342
705.55	35.933
705.87	38.788
706.19	38.037
706.51	32.530
706.83	31.412
707.15	33.069
707.47	30.374
707.79	31.223
708.11	27.754
708.43	31.398
708.74	29.018
709.06	32.251
709.38	32.864
709.70	30.273
710.02	31.783
710.34	32.181
710.66	31.006
710.98	31.421
711.29	29.121
711.61	35.311
711.93	33.618
712.25	28.649
712.57	33.923
712.89	36.765
713.20	33.728
713.52	34.393
713.84	33.983
714.16	33.421
714.48	32.474
714.80	34.286
715.11	30.446
715.43	29.443
715.75	33.684
716.07	29.834
716.39	31.967
716.70	31.325
717.02	39.016
717.34	32.404
717.66	32.550
717.97	34.247
718.29	36.426
718.61	28.289
718.93	30.097
719.24	36.646
719.56	31.288
719.88	33.634
720.20	32.258
720.51	33.851
720.83	35.000
721.15	28.947
721.46	33.904
721.78	31.667
722.10	28.803
722.42	32.886
722.73	35.484
723.05	31.930
723.37	37.153
723.68	34.409
724.00	35.740
724.32	32.042
724.63	35.664
724.95	35.106
725.27	28.223
725.58	32.509
725.90	33.793
726.22	31.034
726.53	30.844
726.85	31.447
727.16	31.420
727.48	29.969
727.80	32.119
728.11	33.216
728.43	34.680
728.74	30.100
729.06	31.788
729.38	34.091
729.69	31.208
730.01	27.679
730.32	28.788
730.64	33.019
730.96	32.298
731.27	29.609
731.59	29.670
731.90	26.234
732.22	26.823
732.53	26.243
732.85	33.143
733.16	29.912
733.48	25.915
733.80	25.348
734.11	31.054
734.43	28.649
734.74	31.899
735.06	26.884
735.37	30.270
735.69	28.378
736.00	28.249
736.32	28.032
736.63	26.944
736.95	30.172
737.26	32.121
737.58	31.212
737.89	34.412
738.21	30.275
738.52	29.508
738.83	30.034
739.15	31.560
739.46	25.850
739.78	30.982
740.09	26.934
740.41	29.446
740.72	29.000
741.04	31.715
741.35	30.175
741.66	29.020
741.98	29.918
742.29	35.983
742.61	34.211
742.92	31.923
743.23	33.935
743.55	31.008
743.86	29.200
744.18	29.752
744.49	29.114
744.80	37.449
745.12	32.489
745.43	30.488
745.74	30.172
746.06	35.593
746.37	35.021
746.68	33.333
747.00	29.583
747.31	35.622
747.62	33.462
747.94	28.745
748.25	30.522
748.56	26.122
748.88	27.778
749.19	34.052
749.50	34.632
749.82	38.956
750.13	37.011
750.44	28.667
750.75	26.154
751.07	28.923
751.38	30.599
751.69	28.754
752.01	26.537
752.32	30.719
752.63	30.952
752.94	27.682
753.26	28.253
753.57	29.630
753.88	29.213
754.19	29.904
754.51	30.225
754.82	27.010
755.13	30.820
755.44	30.717
755.75	28.947
756.07	31.940
756.38	29.245
756.69	31.024
757.00	25.208
757.31	27.049
757.63	25.320
757.94	24.883
758.25	24.153
758.56	27.015
758.87	25.000
759.18	29.067
759.50	27.479
759.81	30.812
760.12	27.763
760.43	31.510
760.74	26.601
761.05	24.750
761.36	26.265
761.67	27.665
761.99	27.027
762.30	32.012
762.61	27.063
762.92	29.104
763.23	29.588
763.54	27.698
763.85	32.646
764.16	26.263
764.47	27.817
764.78	28.115
765.10	27.566
765.41	29.487
765.72	25.926
766.03	25.989
766.34	24.451
766.65	26.829
766.96	25.896
767.27	30.876
767.58	25.871
767.89	28.365
768.20	31.455
768.51	31.481
768.82	32.530
769.13	33.712
769.44	25.385
769.75	30.686
770.06	26.923
770.37	28.346
770.68	19.149
770.99	23.482
771.30	32.222
771.61	27.376
771.92	23.704
772.23	29.555
772.54	29.630
772.85	28.571
773.16	33.333
773.47	25.397
773.78	25.405
774.09	36.364
774.39	35.000
774.70	30.601
775.01	23.780
775.32	22.353
775.63	27.607
775.94	25.478
776.25	33.548
776.56	28.205
776.87	37.415
777.18	28.966
777.48	28.671
777.79	35.135
778.10	27.941
778.41	27.778
778.72	28.276
779.03	29.630
779.34	29.091
779.65	28.497
779.95	28.889
780.26	26.705
780.57	33.548
780.88	33.333
781.19	27.097
781.50	29.412
781.80	28.495
782.11	25.397
782.42	22.222
782.73	26.347
783.04	29.050
783.34	23.636
783.65	22.222
783.96	24.224
784.27	32.143
784.57	29.801
784.88	27.857
785.19	29.134
785.50	35.433
785.81	33.835
786.11	29.231
786.42	23.022
786.73	24.460
787.04	33.083
787.34	33.607
787.65	26.400
787.96	20.896
788.26	34.266
788.57	28.671
788.88	30.921
789.19	32.026
789.49	25.342
789.80	33.333
790.11	31.496
790.41	27.344
790.72	31.356
791.03	24.272
791.33	26.957
791.64	26.316
791.95	22.321
792.25	36.190
792.56	33.929
792.87	27.083
793.17	27.679
793.48	27.083
793.79	13.253
794.09	30.275
794.40	26.606
794.70	23.129
795.01	24.026
795.32	24.658
795.62	23.944
795.93	22.727
796.23	31.148
796.54	17.857
796.85	29.787
797.15	22.826
797.46	27.397
797.76	20.000
798.07	28.261
798.37	16.495
798.68	24.675
798.99	24.138
799.29	39.326
799.60	30.851
799.90	32.530
800.21	24.615
800.51	11.940
800.82	33.824
801.12	6.849
801.43	20.588
801.73	28.814
802.04	25.758
802.34	36.667
802.65	18.644
802.95	26.866
803.26	20.339
803.56	32.877
803.87	18.571
804.17	24.658
804.48	21.053
804.78	19.444
805.09	6.897
805.39	28.378
805.70	23.944
806.00	37.805
806.30	15.663
806.61	19.178
806.91	25.962
807.22	32.222
807.52	12.644
807.83	37.500
808.13	31.325
808.43	30.337
808.74	26.250
809.04	19.118
809.35	25.333
809.65	27.143
809.95	24.658
810.26	8.772
810.56	36.207
810.86	39.706
811.17	22.807
811.47	29.508
811.77	31.111
812.08	49.153
812.38	31.667
812.69	39.655
812.99	28.302
813.29	30.769
813.59	34.000
813.90	40.351
814.20	34.545
814.50	29.577
814.81	41.026
815.11	26.230
815.41	32.836
815.72	29.310
816.02	19.643
816.32	40.000
816.62	38.636
816.93	24.444
817.23	33.333
817.53	36.170
817.84	47.619
818.14	26.471
818.44	22.449
818.74	20.000
819.04	2.564
819.35	20.000
819.65	50.000
819.95	13.208
820.25	51.111
820.56	26.190
820.86	12.500
821.16	15.385
821.46	34.884
821.76	12.000
822.07	32.143
822.37	10.870
822.67	21.277
822.97	2.703
823.27	15.000
823.57	51.020
823.88	40.000
824.18	45.000
824.48	56.667
824.78	24.000
825.08	42.424
825.38	33.333
825.69	44.681
825.99	38.889
826.29	-22.857
826.59	5.128
826.89	6.977
827.19	26.000
827.49	26.471
827.79	45.833
828.09	16.216
828.39	13.333
828.70	29.268
829.00	25.581
829.30	10.714
829.60	44.118
829.90	34.783
830.20	34.286
830.50	20.690
830.80	44.444
831.10	30.769
831.40	32.353
831.70	0.000
832.00	61.290
832.30	-5.882
832.60	16.667
832.90	-15.385
833.20	57.895
833.50	60.000
833.80	36.842
834.10	4.762
834.40	36.111
834.70	43.750
835.00	-20.000
835.30	20.588
835.60	20.000
835.90	28.000
836.20	-27.273
836.50	72.000
836.80	18.182
837.10	44.444
837.40	18.519
837.70	-31.250
838.00	21.429
838.30	30.435
838.60	41.379
838.90	7.143
839.19	-39.130
839.49	-75.000
839.79	30.435
840.09	-37.500
840.39	15.000
840.69	32.258
840.99	-14.286
841.29	40.000
841.59	21.053
841.88	38.462
842.18	7.692
842.48	-100.000
842.78	45.000
843.08	30.000
843.38	41.935
843.68	0.000
843.97	23.529
844.27	6.250
844.57	-36.842
844.87	-50.000
845.17	-26.667
845.47	42.857
845.76	14.286
846.06	-11.111
846.36	-5.882
846.66	30.769
846.96	-66.667
847.25	-47.059
847.55	43.478
847.85	20.000
848.15	52.941
848.44	18.182
848.74	47.619
849.04	29.167
849.34	31.250
849.63	-13.043
849.93	450.000
850.23	13.333
850.53	42.308
850.82	-9.091
851.12	63.636
851.42	-9.091
851.71	76.923
852.01	-20.000
852.31	46.154
852.61	5.263
852.90	33.333
853.20	55.556
853.50	-44.444
853.79	0.000
854.09	18.182
854.39	50.000
854.68	25.806
854.98	19.231
855.28	5.556
855.57	50.000
855.87	32.000
856.17	31.818
856.46	74.074
856.76	72.222
857.05	39.130
857.35	8.333
857.65	-53.846
857.94	14.286
858.24	40.741
858.53	30.435
858.83	0.000
859.13	17.647
859.42	47.059
859.72	57.143
860.01	0.000
860.31	88.889
860.60	30.000
860.90	46.667
861.20	0.000
861.49	61.538
861.79	33.333
862.08	-30.769
862.38	18.750
862.67	23.529
862.97	-6.250
863.26	11.111
863.56	70.000
863.85	18.182
864.15	44.444
864.44	100.000
864.74	50.000
865.03	-25.000
865.33	-40.000
865.62	9.677
865.92	50.000
866.21	73.913
866.51	42.857
866.80	-20.000
867.10	-58.333
867.39	-75.000
867.69	600.000
867.98	42.857
868.27	52.941
868.57	-1300.000
868.86	30.000
869.16	33.333
869.45	33.333
869.75	90.909
870.04	-57.143
870.33	66.667
870.63	-85.714
870.92	100.000
871.22	-175.000
871.51	-72.727
871.80	-533.333
872.10	200.000
>>>>>End Processed Spectral Data<<<<<
