SpectraSuite Data File
++++++++++++++++++++++++++++++++++++
Date: Thu May 14 16:30:26 PDT 2015
User: schluterlab
Dark Spectrum Present: Yes
Reference Spectrum Present: Yes
Number of Sampled Component Spectra: 1
Spectrometers: USB2E3373
Integration Time (usec): 3000 (USB2E3373)
Spectra Averaged: 3 (USB2E3373)
Boxcar Smoothing: 0 (USB2E3373)
Correct for Electrical Dark: No (USB2E3373)
Strobe/Lamp Enabled: No (USB2E3373)
Correct for Detector Non-linearity: No (USB2E3373)
Correct for Stray Light: No (USB2E3373)
Number of Pixels in Processed Spectrum: 2048
>>>>>Begin Processed Spectral Data<<<<<
178.53	0.000
178.91	-0.000
179.29	-300.000
179.67	-1100.000
180.04	114.286
180.42	10.000
180.80	220.000
181.18	-100.000
181.56	1000.000
181.94	75.000
182.31	150.000
182.69	100.000
183.07	250.000
183.45	-0.000
183.83	-33.333
184.20	-266.667
184.58	-100.000
184.96	0.000
185.34	22.222
185.72	120.000
186.09	111.111
186.47	250.000
186.85	160.000
187.23	-33.333
187.61	-800.000
187.98	80.000
188.36	25.000
188.74	-175.000
189.12	-166.667
189.49	131.250
189.87	-37.500
190.25	33.333
190.63	20.000
191.00	-11.111
191.38	0.000
191.76	-225.000
192.14	-33.333
192.51	200.000
192.89	50.000
193.27	0.000
193.65	28.571
194.02	-200.000
194.40	0.000
194.78	57.143
195.15	0.000
195.53	18.182
195.91	0.000
196.29	25.000
196.66	0.000
197.04	-1000.000
197.42	-28.571
197.79	-250.000
198.17	25.000
198.55	-71.429
198.92	44.444
199.30	-112.500
199.68	36.364
200.05	35.714
200.43	100.000
200.81	71.429
201.18	0.000
201.56	144.444
201.94	0.000
202.31	200.000
202.69	-111.111
203.07	-300.000
203.44	-100.000
203.82	-25.000
204.19	8.333
204.57	33.333
204.95	0.000
205.32	-500.000
205.70	100.000
206.08	16.667
206.45	-33.333
206.83	20.000
207.20	116.667
207.58	-220.000
207.96	-83.333
208.33	66.667
208.71	33.333
209.08	50.000
209.46	0.000
209.84	50.000
210.21	250.000
210.59	350.000
210.96	266.667
211.34	-75.000
211.71	25.000
212.09	200.000
212.46	0.000
212.84	250.000
213.22	-120.000
213.59	0.000
213.97	0.000
214.34	200.000
214.72	183.333
215.09	25.000
215.47	0.000
215.84	-28.571
216.22	500.000
216.59	60.000
216.97	120.000
217.34	100.000
217.72	112.500
218.09	-300.000
218.47	-100.000
218.84	0.000
219.22	80.000
219.59	0.000
219.97	5.000
220.34	400.000
220.72	66.667
221.09	84.615
221.47	233.333
221.84	70.000
222.22	-42.857
222.59	0.000
222.97	50.000
223.34	0.000
223.72	-500.000
224.09	-275.000
224.46	-175.000
224.84	60.000
225.21	-14.286
225.59	-450.000
225.96	0.000
226.34	26.923
226.71	-50.000
227.08	50.000
227.46	20.000
227.83	-275.000
228.21	26.316
228.58	50.000
228.95	350.000
229.33	16.667
229.70	40.000
230.08	36.842
230.45	70.000
230.82	233.333
231.20	-14.286
231.57	75.000
231.95	145.455
232.32	100.000
232.69	25.000
233.07	50.000
233.44	0.000
233.81	-10.000
234.19	50.000
234.56	4.545
234.93	24.138
235.31	26.316
235.68	83.333
236.05	20.000
236.43	61.538
236.80	88.000
237.17	33.333
237.55	30.303
237.92	60.000
238.29	22.581
238.67	22.727
239.04	61.111
239.41	35.714
239.79	23.913
240.16	29.630
240.53	36.957
240.91	25.490
241.28	24.590
241.65	52.239
242.02	41.892
242.40	35.385
242.77	37.333
243.14	26.829
243.51	22.368
243.89	16.667
244.26	41.584
244.63	40.196
245.00	47.664
245.38	35.088
245.75	32.743
246.12	45.238
246.49	27.907
246.87	36.429
247.24	33.113
247.61	37.500
247.98	36.913
248.36	40.741
248.73	33.742
249.10	40.437
249.47	38.806
249.84	41.885
250.22	38.342
250.59	35.556
250.96	33.182
251.33	36.224
251.70	36.752
252.08	35.833
252.45	38.115
252.82	33.471
253.19	32.812
253.56	39.163
253.94	35.385
254.31	38.636
254.68	38.112
255.05	39.088
255.42	34.014
255.79	34.628
256.16	34.106
256.54	35.099
256.91	34.754
257.28	36.721
257.65	35.350
258.02	31.858
258.39	35.043
258.76	36.697
259.14	38.218
259.51	34.582
259.88	34.278
260.25	38.889
260.62	38.904
260.99	39.344
261.36	36.193
261.73	38.462
262.10	36.538
262.47	38.874
262.85	40.909
263.22	35.325
263.59	38.684
263.96	34.783
264.33	35.806
264.70	36.296
265.07	39.857
265.44	38.549
265.81	38.194
266.18	37.188
266.55	33.482
266.92	35.308
267.29	36.761
267.66	36.364
268.03	35.808
268.40	38.831
268.77	35.080
269.14	37.004
269.51	38.596
269.88	35.246
270.25	34.608
270.62	36.498
270.99	38.384
271.36	34.257
271.73	34.578
272.10	35.271
272.47	35.070
272.84	34.940
273.21	33.267
273.58	34.677
273.95	33.654
274.32	31.749
274.69	34.816
275.06	36.630
275.43	35.120
275.80	34.039
276.17	33.519
276.54	36.381
276.91	34.168
277.28	36.528
277.65	35.368
278.02	35.662
278.39	36.957
278.76	33.040
279.13	34.752
279.50	35.052
279.87	33.810
280.23	32.923
280.60	34.915
280.97	33.882
281.34	34.126
281.71	34.179
282.08	34.219
282.45	34.043
282.82	32.025
283.19	33.118
283.56	33.279
283.92	35.135
284.29	35.703
284.66	34.154
285.03	31.731
285.40	33.539
285.77	34.211
286.14	36.183
286.51	33.942
286.87	34.123
287.24	34.940
287.61	31.390
287.98	34.290
288.35	34.467
288.72	32.988
289.08	33.236
289.45	32.840
289.82	33.434
290.19	31.897
290.56	33.239
290.93	32.525
291.29	32.094
291.66	32.231
292.03	31.343
292.40	32.381
292.77	29.380
293.13	31.935
293.50	29.829
293.87	28.054
294.24	30.133
294.60	30.215
294.97	28.188
295.34	30.218
295.71	28.625
296.08	29.199
296.44	29.289
296.81	29.354
297.18	29.888
297.55	28.538
297.91	28.114
298.28	26.777
298.65	29.013
299.02	28.217
299.38	27.918
299.75	27.103
300.12	27.315
300.48	27.535
300.85	28.909
301.22	27.852
301.59	27.854
301.95	27.797
302.32	28.000
302.69	28.587
303.05	27.965
303.42	28.271
303.79	27.812
304.15	28.707
304.52	29.493
304.89	27.749
305.25	27.226
305.62	27.691
305.99	28.866
306.35	28.125
306.72	30.196
307.09	28.832
307.45	29.607
307.82	28.355
308.19	29.162
308.55	28.158
308.92	28.530
309.29	27.778
309.65	28.363
310.02	29.208
310.38	28.248
310.75	30.291
311.12	30.393
311.48	28.935
311.85	30.484
312.22	29.317
312.58	29.390
312.95	28.585
313.31	30.533
313.68	28.571
314.05	30.804
314.41	30.692
314.78	30.336
315.14	31.397
315.51	31.671
315.87	31.683
316.24	31.416
316.61	32.504
316.97	30.950
317.34	32.011
317.70	33.275
318.07	32.187
318.43	33.503
318.80	32.609
319.16	32.017
319.53	31.448
319.89	32.165
320.26	32.829
320.62	32.270
320.99	33.518
321.35	34.011
321.72	35.628
322.08	34.806
322.45	36.405
322.81	35.921
323.18	34.956
323.54	36.810
323.91	37.900
324.27	37.091
324.64	38.203
325.00	36.153
325.37	38.657
325.73	38.760
326.10	39.173
326.46	39.088
326.83	39.392
327.19	38.425
327.56	40.395
327.92	39.654
328.29	39.355
328.65	39.698
329.01	40.609
329.38	41.196
329.74	43.151
330.11	41.438
330.47	41.028
330.84	40.913
331.20	41.000
331.56	42.288
331.93	42.343
332.29	42.797
332.66	42.691
333.02	42.379
333.38	41.611
333.75	43.098
334.11	42.786
334.48	43.152
334.84	42.056
335.20	42.401
335.57	43.002
335.93	40.992
336.29	40.100
336.66	42.052
337.02	41.555
337.38	42.092
337.75	41.157
338.11	42.473
338.47	42.763
338.84	43.063
339.20	41.955
339.56	40.939
339.93	41.872
340.29	42.432
340.65	41.038
341.02	41.899
341.38	41.148
341.74	42.534
342.11	42.800
342.47	40.349
342.83	42.110
343.20	40.965
343.56	41.460
343.92	41.873
344.28	41.641
344.65	41.938
345.01	41.342
345.37	41.602
345.73	39.984
346.10	41.654
346.46	40.665
346.82	41.423
347.19	41.788
347.55	41.730
347.91	41.679
348.27	41.730
348.63	41.508
349.00	41.909
349.36	40.967
349.72	40.997
350.08	41.233
350.45	40.760
350.81	41.780
351.17	40.977
351.53	42.760
351.89	42.293
352.26	41.045
352.62	41.343
352.98	40.534
353.34	41.150
353.70	42.527
354.07	41.431
354.43	41.230
354.79	42.034
355.15	40.839
355.51	41.228
355.87	41.361
356.24	41.369
356.60	41.242
356.96	41.957
357.32	41.041
357.68	40.703
358.04	39.746
358.40	40.821
358.77	41.667
359.13	40.325
359.49	40.595
359.85	40.972
360.21	41.105
360.57	41.565
360.93	40.762
361.29	42.175
361.66	41.057
362.02	42.589
362.38	41.743
362.74	41.271
363.10	40.853
363.46	41.343
363.82	41.122
364.18	41.872
364.54	42.324
364.90	40.669
365.26	41.103
365.62	42.600
365.98	42.206
366.35	42.013
366.71	43.061
367.07	41.543
367.43	41.366
367.79	41.739
368.15	42.207
368.51	42.219
368.87	41.868
369.23	41.267
369.59	43.238
369.95	41.853
370.31	42.471
370.67	41.197
371.03	42.521
371.39	41.706
371.75	42.503
372.11	42.209
372.47	42.451
372.83	42.605
373.19	40.560
373.55	41.870
373.91	40.763
374.27	41.527
374.63	43.099
374.99	41.711
375.35	41.818
375.71	41.226
376.07	41.769
376.42	41.058
376.78	41.765
377.14	42.857
377.50	42.758
377.86	41.133
378.22	44.251
378.58	42.747
378.94	42.547
379.30	42.355
379.66	43.621
380.02	43.797
380.38	43.779
380.74	43.268
381.09	42.915
381.45	43.352
381.81	43.208
382.17	43.468
382.53	43.509
382.89	42.720
383.25	44.373
383.61	44.502
383.97	43.581
384.32	43.780
384.68	43.794
385.04	44.708
385.40	44.372
385.76	45.545
386.12	44.165
386.48	44.647
386.83	45.352
387.19	44.206
387.55	43.369
387.91	45.605
388.27	44.573
388.62	43.528
388.98	44.726
389.34	45.963
389.70	44.916
390.06	44.346
390.42	43.795
390.77	44.973
391.13	43.897
391.49	45.592
391.85	45.636
392.20	45.374
392.56	45.422
392.92	44.766
393.28	45.605
393.64	45.978
393.99	45.497
394.35	46.379
394.71	46.707
395.07	45.629
395.42	44.774
395.78	47.227
396.14	45.692
396.50	46.496
396.85	45.975
397.21	46.154
397.57	46.408
397.92	46.964
398.28	46.442
398.64	45.538
399.00	45.812
399.35	47.592
399.71	46.087
400.07	47.782
400.42	47.905
400.78	47.164
401.14	47.240
401.49	47.584
401.85	48.779
402.21	47.509
402.57	47.477
402.92	47.991
403.28	46.546
403.63	48.389
403.99	47.625
404.35	47.072
404.70	47.309
405.06	46.685
405.42	47.775
405.77	47.928
406.13	48.406
406.49	48.311
406.84	48.089
407.20	47.960
407.55	49.243
407.91	48.397
408.27	48.704
408.62	48.458
408.98	49.391
409.34	48.856
409.69	50.124
410.05	49.707
410.40	50.928
410.76	49.523
411.11	50.438
411.47	50.000
411.83	49.618
412.18	50.301
412.54	49.200
412.89	50.698
413.25	49.549
413.60	50.258
413.96	49.883
414.31	49.858
414.67	50.447
415.03	50.215
415.38	52.396
415.74	51.497
416.09	51.635
416.45	50.219
416.80	50.245
417.16	52.363
417.51	50.374
417.87	50.031
418.22	51.377
418.58	50.991
418.93	51.339
419.29	51.850
419.64	52.641
420.00	50.979
420.35	50.028
420.71	52.901
421.06	51.581
421.42	52.580
421.77	51.265
422.12	51.004
422.48	51.203
422.83	52.519
423.19	52.732
423.54	52.655
423.90	51.518
424.25	52.640
424.61	52.067
424.96	52.389
425.31	52.919
425.67	52.067
426.02	53.514
426.38	52.698
426.73	52.232
427.09	54.210
427.44	51.666
427.79	52.349
428.15	52.511
428.50	53.258
428.85	52.698
429.21	53.032
429.56	51.925
429.92	51.843
430.27	53.253
430.62	52.711
430.98	52.878
431.33	52.102
431.68	51.916
432.04	52.158
432.39	53.026
432.74	54.167
433.10	53.380
433.45	52.676
433.80	52.039
434.16	52.841
434.51	53.289
434.86	54.777
435.22	54.782
435.57	53.774
435.92	54.035
436.28	54.664
436.63	55.380
436.98	53.838
437.34	54.002
437.69	53.660
438.04	54.574
438.39	52.901
438.75	53.293
439.10	53.858
439.45	54.164
439.81	53.164
440.16	53.137
440.51	55.072
440.86	54.252
441.22	54.234
441.57	54.036
441.92	53.201
442.27	54.899
442.63	54.396
442.98	54.909
443.33	53.393
443.68	54.509
444.03	54.939
444.39	54.924
444.74	55.385
445.09	53.523
445.44	54.478
445.79	53.688
446.15	55.087
446.50	54.315
446.85	54.475
447.20	54.787
447.55	54.916
447.91	54.869
448.26	54.598
448.61	53.613
448.96	55.848
449.31	54.083
449.66	52.778
450.02	54.219
450.37	55.567
450.72	55.274
451.07	54.214
451.42	54.131
451.77	53.307
452.12	54.684
452.47	54.248
452.83	55.574
453.18	53.824
453.53	54.681
453.88	53.672
454.23	54.124
454.58	54.498
454.93	55.583
455.28	54.425
455.63	53.553
455.98	54.190
456.34	54.476
456.69	55.262
457.04	55.319
457.39	54.435
457.74	55.537
458.09	54.366
458.44	55.657
458.79	54.048
459.14	53.644
459.49	54.669
459.84	53.882
460.19	54.581
460.54	55.480
460.89	54.844
461.24	53.966
461.59	54.732
461.94	53.622
462.29	56.215
462.64	55.341
462.99	55.493
463.34	56.132
463.69	53.927
464.04	54.419
464.39	54.596
464.74	53.535
465.09	54.556
465.44	54.077
465.79	54.257
466.14	54.143
466.49	54.895
466.84	54.876
467.19	53.295
467.54	54.054
467.89	54.483
468.24	54.238
468.59	53.735
468.94	54.487
469.29	53.089
469.64	54.673
469.99	56.023
470.34	53.156
470.68	56.801
471.03	54.813
471.38	54.676
471.73	55.267
472.08	54.632
472.43	54.786
472.78	55.856
473.13	55.373
473.48	54.924
473.83	55.543
474.17	54.103
474.52	57.486
474.87	54.430
475.22	55.155
475.57	54.725
475.92	56.197
476.27	54.047
476.61	54.673
476.96	54.223
477.31	54.752
477.66	56.191
478.01	54.703
478.36	54.138
478.70	54.778
479.05	55.982
479.40	56.170
479.75	55.043
480.10	54.619
480.45	54.284
480.79	55.147
481.14	54.136
481.49	55.566
481.84	55.048
482.19	54.624
482.53	55.925
482.88	56.048
483.23	54.780
483.58	54.105
483.92	54.122
484.27	54.318
484.62	54.043
484.97	53.072
485.31	53.185
485.66	50.581
486.01	48.901
486.36	49.441
486.70	52.119
487.05	53.803
487.40	53.796
487.75	54.224
488.09	55.396
488.44	53.946
488.79	54.975
489.13	54.707
489.48	54.214
489.83	53.320
490.17	54.151
490.52	53.571
490.87	53.892
491.22	54.246
491.56	54.650
491.91	54.993
492.26	54.565
492.60	54.569
492.95	53.050
493.30	54.325
493.64	54.577
493.99	52.895
494.34	54.312
494.68	54.218
495.03	54.714
495.37	55.393
495.72	54.785
496.07	54.470
496.41	54.397
496.76	54.379
497.11	54.310
497.45	53.172
497.80	55.353
498.14	53.787
498.49	53.860
498.84	55.165
499.18	54.341
499.53	54.574
499.87	53.275
500.22	52.850
500.56	53.801
500.91	55.195
501.26	55.636
501.60	53.999
501.95	53.799
502.29	53.313
502.64	55.356
502.98	54.400
503.33	54.428
503.67	52.944
504.02	53.984
504.36	54.513
504.71	54.157
505.06	54.070
505.40	54.845
505.75	53.233
506.09	54.190
506.44	55.571
506.78	55.183
507.13	54.633
507.47	55.898
507.82	55.019
508.16	55.402
508.51	54.524
508.85	55.409
509.19	55.329
509.54	56.580
509.88	55.804
510.23	56.095
510.57	56.356
510.92	55.249
511.26	54.930
511.61	54.032
511.95	54.173
512.30	55.687
512.64	55.972
512.98	55.878
513.33	55.796
513.67	55.890
514.02	55.340
514.36	56.113
514.70	56.354
515.05	56.674
515.39	56.535
515.74	56.840
516.08	55.520
516.42	56.777
516.77	57.413
517.11	55.647
517.46	56.098
517.80	56.173
518.14	57.182
518.49	56.128
518.83	55.774
519.17	55.412
519.52	55.765
519.86	55.755
520.20	56.709
520.55	56.955
520.89	57.770
521.23	57.789
521.58	56.723
521.92	56.771
522.26	58.247
522.61	58.912
522.95	57.324
523.29	57.356
523.64	57.063
523.98	58.528
524.32	58.567
524.66	58.623
525.01	57.588
525.35	56.749
525.69	57.309
526.04	56.372
526.38	57.931
526.72	57.209
527.06	58.123
527.41	58.309
527.75	58.789
528.09	57.969
528.43	57.430
528.78	57.399
529.12	57.913
529.46	56.380
529.80	58.467
530.15	57.797
530.49	57.117
530.83	57.497
531.17	57.706
531.51	58.724
531.86	59.014
532.20	57.866
532.54	57.570
532.88	58.121
533.22	57.395
533.57	57.069
533.91	57.576
534.25	57.321
534.59	57.874
534.93	57.442
535.27	57.352
535.62	58.499
535.96	58.454
536.30	57.873
536.64	58.799
536.98	58.610
537.32	57.284
537.66	57.580
538.01	56.737
538.35	57.674
538.69	58.353
539.03	58.185
539.37	56.832
539.71	56.456
540.05	56.954
540.39	57.274
540.73	57.013
541.07	57.695
541.42	56.822
541.76	56.287
542.10	58.323
542.44	57.369
542.78	56.144
543.12	57.509
543.46	57.021
543.80	56.655
544.14	55.715
544.48	57.565
544.82	57.750
545.16	56.351
545.50	56.441
545.84	55.848
546.18	58.148
546.52	57.006
546.86	56.604
547.20	57.188
547.54	57.366
547.88	55.636
548.22	56.023
548.56	56.115
548.90	56.836
549.24	57.386
549.58	56.025
549.92	56.250
550.26	57.670
550.60	56.158
550.94	57.309
551.28	56.634
551.62	57.615
551.96	56.052
552.30	56.851
552.64	56.254
552.98	56.207
553.32	56.785
553.66	56.334
554.00	57.377
554.34	56.628
554.68	56.165
555.02	57.753
555.36	56.805
555.69	55.669
556.03	55.801
556.37	56.133
556.71	56.817
557.05	56.038
557.39	57.200
557.73	56.803
558.07	56.424
558.41	56.545
558.75	56.322
559.08	57.759
559.42	56.036
559.76	55.360
560.10	54.990
560.44	55.739
560.78	55.625
561.12	56.219
561.45	55.779
561.79	55.922
562.13	57.363
562.47	54.747
562.81	55.759
563.15	54.735
563.48	54.071
563.82	55.502
564.16	55.300
564.50	54.410
564.84	53.864
565.17	55.000
565.51	53.797
565.85	55.048
566.19	54.551
566.52	54.535
566.86	54.046
567.20	52.964
567.54	53.160
567.88	54.077
568.21	54.051
568.55	52.902
568.89	52.701
569.23	52.640
569.56	51.622
569.90	51.283
570.24	50.118
570.57	50.032
570.91	50.031
571.25	50.188
571.59	49.123
571.92	48.587
572.26	49.285
572.60	49.522
572.93	50.654
573.27	49.649
573.61	49.259
573.95	48.313
574.28	48.400
574.62	48.545
574.96	47.949
575.29	47.632
575.63	48.487
575.97	49.150
576.30	48.384
576.64	48.437
576.98	48.314
577.31	48.774
577.65	48.535
577.98	47.459
578.32	46.792
578.66	47.098
578.99	47.860
579.33	48.622
579.67	48.277
580.00	48.101
580.34	47.993
580.67	47.793
581.01	47.534
581.35	47.087
581.68	46.282
582.02	46.189
582.35	47.205
582.69	47.776
583.02	47.860
583.36	48.552
583.70	49.239
584.03	48.404
584.37	48.877
584.70	48.142
585.04	47.059
585.37	47.327
585.71	46.990
586.04	47.160
586.38	47.841
586.72	47.631
587.05	48.273
587.39	47.694
587.72	47.967
588.06	47.485
588.39	47.623
588.73	47.804
589.06	48.617
589.40	48.679
589.73	48.940
590.07	48.939
590.40	48.749
590.73	49.523
591.07	48.660
591.40	48.600
591.74	49.642
592.07	48.680
592.41	48.344
592.74	47.355
593.08	47.611
593.41	47.040
593.75	46.868
594.08	47.592
594.41	48.141
594.75	48.090
595.08	47.308
595.42	48.149
595.75	47.885
596.09	48.763
596.42	48.871
596.75	48.939
597.09	49.051
597.42	48.431
597.75	46.531
598.09	48.056
598.42	48.774
598.76	46.924
599.09	46.529
599.42	45.625
599.76	46.385
600.09	46.480
600.42	46.046
600.76	47.094
601.09	46.731
601.42	46.447
601.76	47.138
602.09	46.712
602.42	47.401
602.76	47.343
603.09	46.990
603.42	47.796
603.76	47.463
604.09	47.232
604.42	46.789
604.76	46.081
605.09	47.587
605.42	47.368
605.75	46.269
606.09	46.435
606.42	45.567
606.75	46.102
607.09	45.814
607.42	46.281
607.75	46.542
608.08	45.501
608.42	46.554
608.75	47.595
609.08	45.925
609.41	46.670
609.75	48.438
610.08	48.197
610.41	45.837
610.74	47.101
611.07	47.647
611.41	47.489
611.74	47.344
612.07	48.387
612.40	46.435
612.73	47.824
613.07	47.824
613.40	47.257
613.73	46.365
614.06	47.301
614.39	46.404
614.72	46.967
615.06	46.728
615.39	45.529
615.72	45.213
616.05	46.090
616.38	47.679
616.71	47.231
617.05	47.231
617.38	48.154
617.71	47.462
618.04	48.624
618.37	48.251
618.70	48.020
619.03	48.984
619.36	48.274
619.69	47.854
620.03	47.897
620.36	45.706
620.69	47.070
621.02	48.228
621.35	50.871
621.68	49.385
622.01	48.541
622.34	48.675
622.67	48.385
623.00	46.559
623.33	49.237
623.66	48.638
623.99	47.465
624.32	48.863
624.65	47.104
624.99	49.220
625.32	48.465
625.65	48.483
625.98	46.576
626.31	47.201
626.64	49.963
626.97	49.812
627.30	48.823
627.63	49.287
627.96	49.925
628.29	48.872
628.62	49.118
628.95	49.781
629.28	48.768
629.61	49.832
629.94	48.368
630.26	48.220
630.59	48.359
630.92	47.186
631.25	50.000
631.58	50.000
631.91	51.078
632.24	50.336
632.57	50.000
632.90	51.254
633.23	50.612
633.56	49.286
633.89	49.483
634.22	51.143
634.55	50.626
634.88	49.784
635.20	51.023
635.53	51.525
635.86	49.404
636.19	51.750
636.52	49.895
636.85	49.030
637.18	48.129
637.51	48.710
637.83	50.831
638.16	50.346
638.49	50.704
638.82	48.365
639.15	48.339
639.48	49.307
639.81	49.076
640.13	50.883
640.46	48.000
640.79	48.897
641.12	51.304
641.45	50.941
641.77	52.632
642.10	48.819
642.43	53.059
642.76	50.136
643.09	51.096
643.41	51.961
643.74	49.241
644.07	53.931
644.40	49.929
644.73	49.782
645.05	50.514
645.38	52.662
645.71	52.493
646.04	51.793
646.36	50.803
646.69	48.926
647.02	52.446
647.35	50.992
647.67	52.818
648.00	51.115
648.33	50.450
648.66	49.073
648.98	48.707
649.31	49.526
649.64	48.207
649.96	48.541
650.29	49.096
650.62	48.091
650.94	49.399
651.27	46.557
651.60	47.076
651.92	47.720
652.25	49.928
652.58	45.942
652.90	47.529
653.23	47.606
653.56	48.930
653.88	50.702
654.21	46.620
654.54	47.399
654.86	48.584
655.19	45.044
655.52	44.294
655.84	36.313
656.17	42.345
656.49	60.368
656.82	67.693
657.15	54.863
657.47	43.118
657.80	33.020
658.13	26.410
658.45	36.341
658.78	43.622
659.10	43.115
659.43	43.806
659.75	43.048
660.08	43.697
660.41	43.093
660.73	43.786
661.06	48.458
661.38	46.890
661.71	49.655
662.03	49.735
662.36	49.732
662.68	48.405
663.01	47.965
663.33	48.393
663.66	51.465
663.98	50.769
664.31	51.970
664.63	47.206
664.96	48.457
665.28	46.642
665.61	48.077
665.93	46.964
666.26	48.925
666.58	49.077
666.91	48.411
667.23	47.619
667.56	49.112
667.88	49.400
668.21	47.852
668.53	47.876
668.86	47.741
669.18	49.287
669.50	48.310
669.83	45.400
670.15	48.622
670.48	47.817
670.80	47.992
671.13	44.991
671.45	48.425
671.77	50.282
672.10	42.167
672.42	46.440
672.75	42.857
673.07	42.537
673.39	43.914
673.72	47.483
674.04	47.069
674.37	48.301
674.69	48.677
675.01	46.857
675.34	45.802
675.66	46.629
675.98	46.455
676.31	45.898
676.63	45.817
676.95	48.467
677.28	47.177
677.60	46.063
677.92	45.106
678.25	44.973
678.57	47.153
678.89	46.928
679.22	46.864
679.54	46.496
679.86	42.203
680.18	45.108
680.51	44.497
680.83	44.354
681.15	44.138
681.48	45.941
681.80	46.287
682.12	44.580
682.44	44.741
682.77	43.262
683.09	45.076
683.41	48.643
683.73	45.731
684.06	45.387
684.38	42.755
684.70	46.499
685.02	43.718
685.34	42.762
685.67	41.009
685.99	43.712
686.31	41.570
686.63	42.338
686.96	42.114
687.28	42.345
687.60	45.791
687.92	40.514
688.24	43.072
688.56	43.621
688.89	44.283
689.21	44.814
689.53	42.157
689.85	44.576
690.17	41.481
690.49	42.231
690.82	42.178
691.14	41.296
691.46	43.403
691.78	44.199
692.10	40.734
692.42	40.893
692.74	40.290
693.06	39.444
693.39	43.264
693.71	42.105
694.03	42.565
694.35	40.571
694.67	44.764
694.99	44.468
695.31	41.280
695.63	43.939
695.95	39.337
696.27	39.560
696.59	41.150
696.91	45.946
697.23	45.495
697.56	41.752
697.88	42.045
698.20	42.561
698.52	44.697
698.84	41.996
699.16	43.469
699.48	41.004
699.80	41.064
700.12	44.105
700.44	41.244
700.76	44.656
701.08	41.162
701.40	41.969
701.72	41.294
702.04	45.455
702.36	41.623
702.68	42.543
703.00	40.831
703.32	40.887
703.64	40.342
703.96	42.005
704.28	42.752
704.60	42.025
704.91	47.194
705.23	44.110
705.55	42.618
705.87	45.152
706.19	47.239
706.51	42.771
706.83	40.634
707.15	39.153
707.47	38.084
707.79	41.921
708.11	40.678
708.43	38.925
708.74	37.277
709.06	40.371
709.38	39.906
709.70	44.417
710.02	40.827
710.34	42.021
710.66	42.737
710.98	38.798
711.29	41.484
711.61	40.960
711.93	38.462
712.25	40.811
712.57	45.428
712.89	42.059
713.20	37.278
713.52	42.486
713.84	39.554
714.16	38.947
714.48	37.113
714.80	44.416
715.11	40.157
715.43	43.767
715.75	41.053
716.07	40.608
716.39	39.891
716.70	40.361
717.02	36.721
717.34	40.767
717.66	44.295
717.97	38.014
718.29	41.237
718.61	38.816
718.93	36.246
719.24	39.752
719.56	43.558
719.88	41.141
720.20	40.968
720.51	37.578
720.83	38.750
721.15	39.145
721.46	40.068
721.78	43.000
722.10	37.540
722.42	37.248
722.73	36.452
723.05	41.404
723.37	40.625
723.68	44.086
724.00	41.155
724.32	33.099
724.63	41.259
724.95	37.234
725.27	41.115
725.58	35.689
725.90	38.966
726.22	36.364
726.53	40.260
726.85	39.308
727.16	35.952
727.48	34.557
727.80	40.728
728.11	36.749
728.43	40.404
728.74	39.465
729.06	36.093
729.38	38.312
729.69	36.577
730.01	35.714
730.32	37.879
730.64	36.164
730.96	36.646
731.27	40.503
731.59	34.066
731.90	34.026
732.22	33.854
732.53	36.740
732.85	35.714
733.16	34.897
733.48	37.500
733.80	31.755
734.11	38.177
734.43	35.676
734.74	37.468
735.06	33.920
735.37	36.216
735.69	34.054
736.00	33.898
736.32	35.580
736.63	31.944
736.95	34.770
737.26	36.364
737.58	31.515
737.89	36.176
738.21	32.110
738.52	35.082
738.83	38.908
739.15	40.426
739.46	36.395
739.78	36.196
740.09	32.378
740.41	41.108
740.72	38.333
741.04	36.570
741.35	38.596
741.66	34.510
741.98	44.262
742.29	38.494
742.61	44.737
742.92	40.000
743.23	37.545
743.55	38.372
743.86	39.200
744.18	34.711
744.49	37.131
744.80	38.272
745.12	35.021
745.43	35.366
745.74	40.086
746.06	35.169
746.37	40.928
746.68	43.496
747.00	35.000
747.31	37.339
747.62	38.846
747.94	31.174
748.25	32.932
748.56	34.694
748.88	35.897
749.19	38.793
749.50	37.662
749.82	36.948
750.13	37.367
750.44	33.667
750.75	34.769
751.07	32.923
751.38	35.647
751.69	34.505
752.01	34.951
752.32	34.967
752.63	32.993
752.94	30.450
753.26	31.599
753.57	37.037
753.88	35.955
754.19	35.048
754.51	36.334
754.82	35.370
755.13	36.721
755.44	34.471
755.75	38.487
756.07	38.806
756.38	34.591
756.69	33.434
757.00	30.471
757.31	32.787
757.63	29.156
757.94	30.282
758.25	32.957
758.56	28.976
758.87	31.364
759.18	37.067
759.50	30.595
759.81	33.613
760.12	32.615
760.43	33.333
760.74	32.266
761.05	32.750
761.36	28.193
761.67	31.726
761.99	31.622
762.30	30.488
762.61	30.693
762.92	33.209
763.23	36.330
763.54	34.532
763.85	33.333
764.16	29.630
764.47	33.803
764.78	34.505
765.10	31.672
765.41	36.667
765.72	29.894
766.03	28.531
766.34	31.661
766.65	27.526
766.96	31.076
767.27	35.023
767.58	31.841
767.89	39.904
768.20	28.169
768.51	33.796
768.82	35.743
769.13	31.818
769.44	28.462
769.75	32.491
770.06	33.077
770.37	34.252
770.68	31.064
770.99	30.769
771.30	38.148
771.61	31.559
771.92	30.741
772.23	37.247
772.54	26.852
772.85	35.484
773.16	34.762
773.47	28.042
773.78	30.270
774.09	36.932
774.39	33.000
774.70	33.880
775.01	29.878
775.32	32.353
775.63	26.380
775.94	24.841
776.25	37.419
776.56	30.769
776.87	37.415
777.18	33.793
777.48	32.168
777.79	27.027
778.10	36.029
778.41	33.333
778.72	27.586
779.03	25.926
779.34	30.909
779.65	27.979
779.95	36.111
780.26	31.250
780.57	32.903
780.88	33.333
781.19	36.774
781.50	37.647
781.80	30.108
782.11	33.862
782.42	23.737
782.73	34.731
783.04	29.609
783.34	25.455
783.65	30.065
783.96	36.025
784.27	29.167
784.57	30.464
784.88	37.143
785.19	34.646
785.50	33.071
785.81	30.075
786.11	31.538
786.42	25.180
786.73	28.058
787.04	39.098
787.34	27.049
787.65	27.200
787.96	29.851
788.26	37.063
788.57	34.965
788.88	30.921
789.19	24.837
789.49	31.507
789.80	29.078
790.11	33.858
790.41	34.375
790.72	27.966
791.03	30.097
791.33	26.957
791.64	45.614
791.95	27.679
792.25	38.095
792.56	34.821
792.87	27.083
793.17	37.500
793.48	34.375
793.79	27.711
794.09	31.193
794.40	29.358
794.70	33.333
795.01	20.130
795.32	29.452
795.62	29.577
795.93	27.273
796.23	29.508
796.54	23.214
796.85	27.660
797.15	20.652
797.46	23.288
797.76	28.750
798.07	21.739
798.37	21.649
798.68	32.468
798.99	35.632
799.29	40.449
799.60	44.681
799.90	25.301
800.21	20.000
800.51	20.896
800.82	19.118
801.12	17.808
801.43	22.059
801.73	38.983
802.04	39.394
802.34	33.333
802.65	22.034
802.95	22.388
803.26	45.763
803.56	41.096
803.87	28.571
804.17	31.507
804.48	28.070
804.78	37.500
805.09	37.931
805.39	40.541
805.70	19.718
806.00	32.927
806.30	31.325
806.61	32.877
806.91	34.615
807.22	43.333
807.52	21.839
807.83	43.056
808.13	33.735
808.43	12.360
808.74	20.000
809.04	13.235
809.35	29.333
809.65	20.000
809.95	19.178
810.26	15.789
810.56	18.966
810.86	44.118
811.17	22.807
811.47	24.590
811.77	15.556
812.08	30.508
812.38	21.667
812.69	43.103
812.99	24.528
813.29	2.564
813.59	36.000
813.90	42.105
814.20	30.909
814.50	26.761
814.81	26.923
815.11	21.311
815.41	25.373
815.72	34.483
816.02	44.643
816.32	33.333
816.62	25.000
816.93	15.556
817.23	38.889
817.53	23.404
817.84	66.667
818.14	47.059
818.44	34.694
818.74	35.556
819.04	12.821
819.35	8.571
819.65	11.538
819.95	37.736
820.25	28.889
820.56	21.429
820.86	12.500
821.16	30.769
821.46	18.605
821.76	14.000
822.07	32.143
822.37	32.609
822.67	34.043
822.97	10.811
823.27	20.000
823.57	36.735
823.88	37.778
824.18	47.500
824.48	10.000
824.78	4.000
825.08	24.242
825.38	51.111
825.69	36.170
825.99	33.333
826.29	2.857
826.59	35.897
826.89	13.953
827.19	10.000
827.49	23.529
827.79	35.417
828.09	2.703
828.39	13.333
828.70	9.756
829.00	20.930
829.30	10.714
829.60	50.000
829.90	15.217
830.20	48.571
830.50	34.483
830.80	38.889
831.10	34.615
831.40	17.647
831.70	33.333
832.00	35.484
832.30	-52.941
832.60	-8.333
832.90	30.769
833.20	31.579
833.50	20.000
833.80	10.526
834.10	-38.095
834.40	41.667
834.70	56.250
835.00	-28.571
835.30	14.706
835.60	26.667
835.90	52.000
836.20	-4.545
836.50	28.000
836.80	12.121
837.10	29.630
837.40	18.519
837.70	-43.750
838.00	10.714
838.30	39.130
838.60	24.138
838.90	0.000
839.19	-30.435
839.49	-33.333
839.79	34.783
840.09	-18.750
840.39	10.000
840.69	29.032
840.99	-10.714
841.29	26.667
841.59	15.789
841.88	46.154
842.18	30.769
842.48	90.000
842.78	0.000
843.08	56.667
843.38	32.258
843.68	-44.444
843.97	32.353
844.27	31.250
844.57	-5.263
844.87	10.000
845.17	-20.000
845.47	47.619
845.76	14.286
846.06	-22.222
846.36	-5.882
846.66	19.231
846.96	60.000
847.25	5.882
847.55	8.696
847.85	25.000
848.15	11.765
848.44	54.545
848.74	-9.524
849.04	0.000
849.34	62.500
849.63	0.000
849.93	100.000
850.23	0.000
850.53	23.077
850.82	-90.909
851.12	50.000
851.42	36.364
851.71	115.385
852.01	-5.000
852.31	-38.462
852.61	10.526
852.90	16.667
853.20	16.667
853.50	-155.556
853.79	14.286
854.09	9.091
854.39	-25.000
854.68	38.710
854.98	23.077
855.28	11.111
855.57	-7.143
855.87	28.000
856.17	22.727
856.46	40.741
856.76	33.333
857.05	-21.739
857.35	20.833
857.65	7.692
857.94	61.905
858.24	25.926
858.53	43.478
858.83	64.706
859.13	41.176
859.42	47.059
859.72	64.286
860.01	20.000
860.31	-100.000
860.60	70.000
860.90	66.667
861.20	16.667
861.49	15.385
861.79	13.333
862.08	-69.231
862.38	25.000
862.67	17.647
862.97	31.250
863.26	-77.778
863.56	60.000
863.85	0.000
864.15	22.222
864.44	-66.667
864.74	57.143
865.03	-6.250
865.33	-120.000
865.62	0.000
865.92	36.364
866.21	21.739
866.51	-21.429
866.80	60.000
867.10	-41.667
867.39	-75.000
867.69	400.000
867.98	14.286
868.27	35.294
868.57	-1300.000
868.86	-80.000
869.16	-9.524
869.45	37.500
869.75	18.182
870.04	42.857
870.33	75.000
870.63	-114.286
870.92	0.000
871.22	-112.500
871.51	-18.182
871.80	-333.333
872.10	200.000
>>>>>End Processed Spectral Data<<<<<
