SpectraSuite Data File
++++++++++++++++++++++++++++++++++++
Date: Thu May 14 16:30:34 PDT 2015
User: schluterlab
Dark Spectrum Present: Yes
Reference Spectrum Present: Yes
Number of Sampled Component Spectra: 1
Spectrometers: USB2E3373
Integration Time (usec): 3000 (USB2E3373)
Spectra Averaged: 3 (USB2E3373)
Boxcar Smoothing: 0 (USB2E3373)
Correct for Electrical Dark: No (USB2E3373)
Strobe/Lamp Enabled: No (USB2E3373)
Correct for Detector Non-linearity: No (USB2E3373)
Correct for Stray Light: No (USB2E3373)
Number of Pixels in Processed Spectrum: 2048
>>>>>Begin Processed Spectral Data<<<<<
178.53	0.000
178.91	-14.286
179.29	-300.000
179.67	-600.000
180.04	92.857
180.42	-30.000
180.80	180.000
181.18	-300.000
181.56	900.000
181.94	-25.000
182.31	50.000
182.69	66.667
183.07	-100.000
183.45	-300.000
183.83	-50.000
184.20	233.333
184.58	-200.000
184.96	-75.000
185.34	11.111
185.72	160.000
186.09	177.778
186.47	100.000
186.85	160.000
187.23	22.222
187.61	400.000
187.98	-0.000
188.36	275.000
188.74	-25.000
189.12	-66.667
189.49	25.000
189.87	87.500
190.25	111.111
190.63	-140.000
191.00	-44.444
191.38	0.000
191.76	-25.000
192.14	33.333
192.51	500.000
192.89	16.667
193.27	0.000
193.65	-14.286
194.02	-1300.000
194.40	-28.571
194.78	57.143
195.15	0.000
195.53	9.091
195.91	0.000
196.29	-25.000
196.66	-15.385
197.04	-400.000
197.42	71.429
197.79	-150.000
198.17	-25.000
198.55	-114.286
198.92	55.556
199.30	-87.500
199.68	54.545
200.05	57.143
200.43	-200.000
200.81	-42.857
201.18	0.000
201.56	122.222
201.94	0.000
202.31	-0.000
202.69	-11.111
203.07	-100.000
203.44	11.111
203.82	-100.000
204.19	133.333
204.57	-33.333
204.95	0.000
205.32	500.000
205.70	25.000
206.08	-50.000
206.45	-83.333
206.83	180.000
207.20	66.667
207.58	-180.000
207.96	-166.667
208.33	16.667
208.71	41.667
209.08	166.667
209.46	0.000
209.84	200.000
210.21	150.000
210.59	350.000
210.96	33.333
211.34	-150.000
211.71	-112.500
212.09	200.000
212.46	0.000
212.84	50.000
213.22	-160.000
213.59	0.000
213.97	10.000
214.34	-433.333
214.72	16.667
215.09	-125.000
215.47	0.000
215.84	100.000
216.22	50.000
216.59	-100.000
216.97	-40.000
217.34	-25.000
217.72	0.000
218.09	50.000
218.47	125.000
218.84	0.000
219.22	120.000
219.59	64.706
219.97	30.000
220.34	-100.000
220.72	0.000
221.09	100.000
221.47	33.333
221.84	-30.000
222.22	-42.857
222.59	0.000
222.97	-62.500
223.34	20.000
223.72	-800.000
224.09	-250.000
224.46	-25.000
224.84	200.000
225.21	-85.714
225.59	-325.000
225.96	-150.000
226.34	-3.846
226.71	150.000
227.08	-250.000
227.46	6.667
227.83	125.000
228.21	57.895
228.58	75.000
228.95	450.000
229.33	58.333
229.70	10.000
230.08	57.895
230.45	10.000
230.82	0.000
231.20	-35.714
231.57	0.000
231.95	-18.182
232.32	54.545
232.69	45.000
233.07	-25.000
233.44	-29.412
233.81	-10.000
234.19	11.111
234.56	9.091
234.93	3.448
235.31	47.368
235.68	0.000
236.05	-65.000
236.43	73.077
236.80	40.000
237.17	18.519
237.55	15.152
237.92	-80.000
238.29	-3.226
238.67	-4.545
239.04	-11.111
239.41	-4.762
239.79	2.174
240.16	5.556
240.53	-17.391
240.91	0.000
241.28	3.279
241.65	19.403
242.02	12.162
242.40	-3.077
242.77	0.000
243.14	1.220
243.51	-9.211
243.89	-19.231
244.26	15.842
244.63	6.863
245.00	7.477
245.38	-1.754
245.75	-3.540
246.12	2.381
246.49	2.326
246.87	5.714
247.24	6.623
247.61	4.605
247.98	1.342
248.36	9.259
248.73	-1.227
249.10	-0.546
249.47	4.975
249.84	3.665
250.22	5.181
250.59	2.222
250.96	4.545
251.33	-5.102
251.70	4.701
252.08	2.083
252.45	4.508
252.82	0.413
253.19	0.781
253.56	4.943
253.94	0.385
254.31	1.136
254.68	7.343
255.05	5.863
255.42	4.082
255.79	-0.324
256.16	1.656
256.54	-0.662
256.91	1.967
257.28	2.295
257.65	-0.318
258.02	-0.885
258.39	4.843
258.76	4.281
259.14	2.874
259.51	0.000
259.88	1.133
260.25	1.111
260.62	3.288
260.99	5.464
261.36	2.949
261.73	1.326
262.10	0.000
262.47	-0.536
262.85	5.556
263.22	2.078
263.59	0.526
263.96	4.092
264.33	-0.512
264.70	2.222
265.07	4.296
265.44	5.215
265.81	2.083
266.18	3.855
266.55	3.125
266.92	-0.456
267.29	3.501
267.66	3.104
268.03	2.183
268.40	2.923
268.77	-0.228
269.14	-1.762
269.51	1.974
269.88	2.664
270.25	1.811
270.62	2.110
270.99	2.222
271.36	4.158
271.73	3.733
272.10	3.006
272.47	2.204
272.84	1.807
273.21	1.603
273.58	1.210
273.95	0.962
274.32	0.951
274.69	2.321
275.06	1.648
275.43	0.555
275.80	4.762
276.17	-0.556
276.54	-0.560
276.91	0.537
277.28	3.255
277.65	2.334
278.02	1.471
278.39	3.442
278.76	-0.703
279.13	1.064
279.50	1.718
279.87	2.683
280.23	-0.352
280.60	1.695
280.97	2.138
281.34	1.358
281.71	3.723
282.08	1.495
282.45	1.309
282.82	1.884
283.19	0.646
283.56	0.328
283.92	3.003
284.29	4.739
284.66	1.314
285.03	0.801
285.40	2.164
285.77	2.012
286.14	2.901
286.51	1.826
286.87	-0.158
287.24	2.108
287.61	1.943
287.98	0.906
288.35	2.959
288.72	3.254
289.08	2.782
289.45	0.592
289.82	2.861
290.19	1.868
290.56	1.972
290.93	1.569
291.29	0.826
291.66	1.377
292.03	1.221
292.40	4.218
292.77	1.887
293.13	2.436
293.50	1.577
293.87	1.477
294.24	3.333
294.60	2.402
294.97	1.074
295.34	2.945
295.71	1.009
296.08	1.163
296.44	1.716
296.81	1.705
297.18	0.996
297.55	0.590
297.91	1.423
298.28	1.185
298.65	2.497
299.02	1.653
299.38	2.059
299.75	2.570
300.12	1.968
300.48	1.267
300.85	2.137
301.22	2.125
301.59	2.511
301.95	1.243
302.32	2.556
302.69	1.862
303.05	3.047
303.42	2.550
303.79	2.396
304.15	1.577
304.52	1.797
304.89	2.408
305.25	2.795
305.62	1.985
305.99	2.371
306.35	1.714
306.72	1.758
307.09	2.843
307.45	2.277
307.82	2.725
308.19	2.018
308.55	2.893
308.92	1.753
309.29	2.778
309.65	2.047
310.02	1.881
310.38	3.051
310.75	2.233
311.12	2.493
311.48	2.151
311.85	2.564
312.22	2.372
312.58	2.535
312.95	2.486
313.31	5.059
313.68	5.128
314.05	4.788
314.41	5.373
314.78	5.359
315.14	4.446
315.51	4.986
315.87	5.401
316.24	5.936
316.61	6.394
316.97	5.068
317.34	4.938
317.70	7.162
318.07	6.526
318.43	7.908
318.80	7.441
319.16	8.155
319.53	6.855
319.89	7.888
320.26	9.342
320.62	9.840
320.99	9.788
321.35	10.536
321.72	12.465
322.08	11.362
322.45	11.472
322.81	13.177
323.18	12.655
323.54	13.793
323.91	15.925
324.27	17.040
324.64	15.953
325.00	16.169
325.37	16.544
325.73	18.926
326.10	20.032
326.46	21.661
326.83	22.098
327.19	22.047
327.56	22.925
327.92	22.659
328.29	23.629
328.65	24.623
329.01	25.973
329.38	26.622
329.74	27.397
330.11	27.997
330.47	28.391
330.84	27.649
331.20	30.500
331.56	30.763
331.93	30.126
332.29	31.356
332.66	30.233
333.02	30.151
333.38	30.872
333.75	31.397
334.11	32.110
334.48	32.178
334.84	33.475
335.20	32.158
335.57	32.293
335.93	33.058
336.29	32.196
336.66	31.707
337.02	32.943
337.38	33.418
337.75	32.479
338.11	33.053
338.47	33.002
338.84	34.010
339.20	32.940
339.56	32.455
339.93	33.333
340.29	32.850
340.65	33.496
341.02	34.477
341.38	34.276
341.74	34.625
342.11	33.789
342.47	32.804
342.83	34.863
343.20	33.524
343.56	34.002
343.92	32.586
344.28	34.531
344.65	33.876
345.01	33.697
345.37	34.448
345.73	33.827
346.10	33.385
346.46	33.703
346.82	34.457
347.19	34.225
347.55	33.991
347.91	34.101
348.27	34.750
348.63	33.968
349.00	33.632
349.36	34.944
349.72	33.185
350.08	34.398
350.45	34.753
350.81	34.917
351.17	33.835
351.53	34.496
351.89	34.928
352.26	33.284
352.62	34.328
352.98	34.580
353.34	34.877
353.70	35.362
354.07	33.905
354.43	34.396
354.79	34.630
355.15	34.437
355.51	35.234
355.87	35.602
356.24	34.753
356.60	34.442
356.96	34.470
357.32	33.606
357.68	34.334
358.04	34.656
358.40	34.254
358.77	34.430
359.13	34.417
359.49	35.390
359.85	34.590
360.21	34.362
360.57	34.386
360.93	34.626
361.29	35.158
361.66	34.033
362.02	34.795
362.38	35.488
362.74	35.754
363.10	35.213
363.46	35.388
363.82	35.014
364.18	36.031
364.54	35.961
364.90	35.117
365.26	34.345
365.62	35.333
365.98	36.147
366.35	34.631
366.71	35.306
367.07	35.318
367.43	35.259
367.79	36.165
368.15	36.722
368.51	37.009
368.87	35.728
369.23	35.933
369.59	36.817
369.95	35.903
370.31	36.935
370.67	35.695
371.03	36.011
371.39	35.594
371.75	37.001
372.11	35.976
372.47	35.342
372.83	35.929
373.19	35.223
373.55	35.230
373.91	35.106
374.27	35.576
374.63	36.739
374.99	36.008
375.35	36.688
375.71	37.677
376.07	35.507
376.42	36.146
376.78	36.296
377.14	36.432
377.50	37.065
377.86	37.746
378.22	36.886
378.58	36.266
378.94	36.561
379.30	36.790
379.66	36.743
380.02	37.738
380.38	37.558
380.74	36.901
381.09	36.353
381.45	37.500
381.81	38.583
382.17	37.173
382.53	38.070
382.89	36.174
383.25	36.284
383.61	36.806
383.97	37.633
384.32	38.158
384.68	36.833
385.04	37.941
385.40	38.067
385.76	38.394
386.12	37.104
386.48	38.000
386.83	37.962
387.19	37.254
387.55	36.326
387.91	37.100
388.27	36.836
388.62	36.483
388.98	36.153
389.34	38.656
389.70	37.594
390.06	37.478
390.42	38.012
390.77	38.411
391.13	38.498
391.49	37.862
391.85	37.879
392.20	38.256
392.56	39.102
392.92	37.895
393.28	37.756
393.64	37.933
393.99	38.292
394.35	37.967
394.71	38.683
395.07	36.826
395.42	37.921
395.78	39.976
396.14	38.324
396.50	37.114
396.85	38.819
397.21	38.166
397.57	38.163
397.92	38.144
398.28	38.294
398.64	37.872
399.00	37.749
399.35	38.534
399.71	37.772
400.07	38.125
400.42	38.417
400.78	38.426
401.14	38.247
401.49	37.862
401.85	38.140
402.21	38.065
402.57	38.556
402.92	38.002
403.28	37.822
403.63	37.768
403.99	37.470
404.35	37.464
404.70	38.187
405.06	37.500
405.42	37.295
405.77	38.332
406.13	37.979
406.49	37.725
406.84	37.895
407.20	37.842
407.55	36.947
407.91	38.152
408.27	37.279
408.62	38.336
408.98	38.189
409.34	36.129
409.69	37.639
410.05	37.984
410.40	38.109
410.76	37.016
411.11	38.925
411.47	38.145
411.83	38.095
412.18	37.349
412.54	37.641
412.89	36.787
413.25	37.302
413.60	37.967
413.96	37.063
414.31	38.300
414.67	37.686
415.03	37.846
415.38	37.957
415.74	38.057
416.09	37.816
416.45	37.696
416.80	37.209
417.16	38.570
417.51	38.232
417.87	38.013
418.22	39.281
418.58	38.848
418.93	38.300
419.29	39.211
419.64	38.715
420.00	38.813
420.35	38.967
420.71	38.426
421.06	38.183
421.42	39.736
421.77	38.880
422.12	39.429
422.48	38.914
422.83	40.416
423.19	38.992
423.54	39.657
423.90	39.150
424.25	40.427
424.61	39.150
424.96	39.484
425.31	39.384
425.67	38.486
426.02	41.007
426.38	41.504
426.73	40.290
427.09	41.349
427.44	40.524
427.79	39.856
428.15	40.639
428.50	40.730
428.85	40.413
429.21	41.383
429.56	41.066
429.92	40.541
430.27	40.578
430.62	40.449
430.98	40.580
431.33	41.251
431.68	40.374
432.04	40.934
432.39	41.725
432.74	41.267
433.10	41.806
433.45	40.747
433.80	41.041
434.16	40.754
434.51	41.675
434.86	42.345
435.22	41.498
435.57	42.158
435.92	41.068
436.28	42.435
436.63	43.856
436.98	42.405
437.34	43.461
437.69	42.983
438.04	41.777
438.39	43.136
438.75	41.837
439.10	42.336
439.45	42.761
439.81	43.446
440.16	41.769
440.51	43.701
440.86	42.579
441.22	43.087
441.57	44.287
441.92	42.192
442.27	44.091
442.63	42.226
442.98	43.810
443.33	43.188
443.68	42.666
444.03	43.979
444.39	43.597
444.74	44.257
445.09	43.690
445.44	43.836
445.79	45.019
446.15	44.090
446.50	44.238
446.85	43.677
447.20	43.956
447.55	43.672
447.91	44.188
448.26	43.763
448.61	44.155
448.96	45.279
449.31	44.008
449.66	44.662
450.02	44.251
450.37	44.326
450.72	43.703
451.07	44.932
451.42	45.176
451.77	44.803
452.12	45.598
452.47	44.563
452.83	45.439
453.18	44.425
453.53	44.055
453.88	45.058
454.23	45.028
454.58	44.922
454.93	44.782
455.28	45.515
455.63	45.424
455.98	45.140
456.34	45.701
456.69	44.503
457.04	45.863
457.39	45.565
457.74	45.302
458.09	44.481
458.44	45.959
458.79	45.023
459.14	45.307
459.49	46.406
459.84	45.750
460.19	45.086
460.54	46.224
460.89	46.056
461.24	45.345
461.59	45.490
461.94	45.123
462.29	45.801
462.64	44.900
462.99	46.014
463.34	46.074
463.69	44.783
464.04	46.637
464.39	45.740
464.74	45.097
465.09	45.790
465.44	45.762
465.79	45.479
466.14	44.763
466.49	45.895
466.84	45.344
467.19	45.665
467.54	44.595
467.89	43.678
468.24	45.817
468.59	45.165
468.94	45.221
469.29	46.131
469.64	45.073
469.99	46.399
470.34	45.916
470.68	46.685
471.03	45.645
471.38	46.305
471.73	46.359
472.08	45.558
472.43	46.237
472.78	47.229
473.13	44.627
473.48	47.553
473.83	45.734
474.17	44.842
474.52	46.843
474.87	45.349
475.22	46.254
475.57	45.483
475.92	44.251
476.27	45.580
476.61	45.016
476.96	45.829
477.31	45.594
477.66	47.009
478.01	45.348
478.36	45.364
478.70	45.714
479.05	45.757
479.40	46.545
479.75	46.158
480.10	45.666
480.45	44.895
480.79	45.533
481.14	45.542
481.49	45.934
481.84	45.648
482.19	45.548
482.53	44.775
482.88	46.035
483.23	46.554
483.58	45.633
483.92	43.972
484.27	45.936
484.62	44.884
484.97	45.295
485.31	44.703
485.66	42.776
486.01	43.084
486.36	43.854
486.70	45.617
487.05	45.107
487.40	45.786
487.75	44.631
488.09	45.478
488.44	44.636
488.79	44.890
489.13	45.474
489.48	45.204
489.83	44.024
490.17	45.038
490.52	44.130
490.87	44.966
491.22	45.017
491.56	44.582
491.91	44.963
492.26	45.132
492.60	45.212
492.95	44.625
493.30	44.375
493.64	45.116
493.99	45.351
494.34	44.251
494.68	44.454
495.03	45.419
495.37	45.806
495.72	44.444
496.07	44.435
496.41	44.187
496.76	44.787
497.11	44.926
497.45	44.584
497.80	44.825
498.14	44.535
498.49	44.945
498.84	44.653
499.18	45.164
499.53	45.067
499.87	45.275
500.22	43.989
500.56	44.354
500.91	44.622
501.26	45.818
501.60	44.101
501.95	44.464
502.29	45.151
502.64	45.562
502.98	44.607
503.33	44.147
503.67	43.829
504.02	45.096
504.36	44.951
504.71	45.384
505.06	43.884
505.40	43.373
505.75	44.217
506.09	44.199
506.44	45.450
506.78	45.183
507.13	44.030
507.47	44.718
507.82	43.987
508.16	44.216
508.51	43.601
508.85	44.544
509.19	44.434
509.54	44.188
509.88	44.148
510.23	44.196
510.57	44.466
510.92	44.848
511.26	43.627
511.61	43.264
511.95	44.754
512.30	44.165
512.64	44.278
512.98	43.672
513.33	44.657
513.67	44.620
514.02	44.456
514.36	44.297
514.70	44.375
515.05	44.630
515.39	44.357
515.74	45.175
516.08	43.740
516.42	45.160
516.77	44.374
517.11	43.940
517.46	44.274
517.80	45.216
518.14	44.995
518.49	43.601
518.83	43.906
519.17	43.619
519.52	43.868
519.86	43.717
520.20	44.675
520.55	43.483
520.89	43.412
521.23	43.774
521.58	43.390
521.92	43.853
522.26	43.757
522.61	43.866
522.95	44.694
523.29	43.793
523.64	42.321
523.98	44.780
524.32	44.871
524.66	44.052
525.01	43.601
525.35	43.653
525.69	42.807
526.04	43.398
526.38	43.218
526.72	41.638
527.06	44.223
527.41	43.382
527.75	43.765
528.09	43.152
528.43	42.096
528.78	42.890
529.12	44.094
529.46	41.540
529.80	42.449
530.15	43.362
530.49	43.713
530.83	42.916
531.17	41.995
531.51	43.381
531.86	42.909
532.20	43.171
532.54	42.071
532.88	42.485
533.22	41.839
533.57	42.816
533.91	41.639
534.25	42.623
534.59	42.644
534.93	41.483
535.27	42.085
535.62	42.467
535.96	42.359
536.30	41.598
536.64	42.102
536.98	42.804
537.32	42.654
537.66	42.420
538.01	39.940
538.35	41.474
538.69	42.188
539.03	41.570
539.37	42.226
539.71	41.682
540.05	41.847
540.39	41.932
540.73	41.166
541.07	42.060
541.42	41.229
541.76	40.866
542.10	40.953
542.44	40.987
542.78	40.754
543.12	40.584
543.46	40.781
543.80	39.269
544.14	40.814
544.48	40.780
544.82	41.532
545.16	41.383
545.50	40.084
545.84	40.355
546.18	42.099
546.52	41.592
546.86	41.006
547.20	40.776
547.54	40.512
547.88	39.843
548.22	39.708
548.56	39.555
548.90	40.597
549.24	40.729
549.58	41.136
549.92	39.796
550.26	40.518
550.60	39.821
550.94	40.427
551.28	39.076
551.62	40.701
551.96	38.900
552.30	40.918
552.64	39.826
552.98	38.989
553.32	40.000
553.66	39.293
554.00	40.353
554.34	40.476
554.68	39.122
555.02	39.290
555.36	39.513
555.69	38.885
556.03	39.155
556.37	38.861
556.71	39.886
557.05	39.169
557.39	39.416
557.73	38.904
558.07	38.344
558.41	38.738
558.75	39.283
559.08	40.362
559.42	38.957
559.76	38.602
560.10	39.250
560.44	40.172
560.78	38.438
561.12	39.409
561.45	39.477
561.79	38.339
562.13	38.571
562.47	37.916
562.81	37.595
563.15	38.952
563.48	39.030
563.82	39.117
564.16	36.402
564.50	37.843
564.84	37.699
565.17	38.412
565.51	37.802
565.85	38.480
566.19	37.442
566.52	38.092
566.86	36.955
567.20	35.889
567.54	37.546
567.88	37.462
568.21	37.451
568.55	35.396
568.89	37.767
569.23	36.206
569.56	36.225
569.90	35.709
570.24	35.818
570.57	35.568
570.91	35.150
571.25	34.394
571.59	35.847
571.92	34.435
572.26	34.595
572.60	34.944
572.93	34.567
573.27	34.645
573.61	34.224
573.95	34.377
574.28	34.548
574.62	33.970
574.96	33.547
575.29	33.421
575.63	33.634
575.97	33.868
576.30	33.407
576.64	33.787
576.98	33.303
577.31	34.100
577.65	33.760
577.98	33.245
578.32	32.966
578.66	33.189
578.99	32.808
579.33	33.393
579.67	32.978
580.00	33.154
580.34	33.312
580.67	33.363
581.01	32.929
581.35	32.710
581.68	33.079
582.02	32.557
582.35	33.542
582.69	33.476
583.02	32.723
583.36	32.923
583.70	33.038
584.03	32.733
584.37	32.634
584.70	32.249
585.04	32.504
585.37	32.170
585.71	31.888
586.04	32.519
586.38	32.498
586.72	32.364
587.05	32.208
587.39	32.835
587.72	32.057
588.06	32.447
588.39	32.263
588.73	32.381
589.06	32.082
589.40	32.452
589.73	32.005
590.07	32.725
590.40	32.522
590.73	32.909
591.07	32.130
591.40	31.998
591.74	32.313
592.07	33.333
592.41	32.256
592.74	31.771
593.08	32.166
593.41	32.371
593.75	32.098
594.08	31.990
594.41	32.115
594.75	31.551
595.08	31.763
595.42	31.948
595.75	31.450
596.09	31.854
596.42	31.387
596.75	31.918
597.09	32.727
597.42	31.704
597.75	31.360
598.09	31.389
598.42	31.403
598.76	30.875
599.09	30.402
599.42	30.674
599.76	30.934
600.09	31.098
600.42	30.764
600.76	30.548
601.09	30.601
601.42	30.690
601.76	30.483
602.09	30.879
602.42	30.498
602.76	30.406
603.09	30.617
603.42	30.780
603.76	29.880
604.09	31.334
604.42	30.716
604.76	30.061
605.09	30.315
605.42	30.542
605.75	29.808
606.09	29.601
606.42	29.916
606.75	29.460
607.09	29.800
607.42	30.058
607.75	30.207
608.08	29.282
608.42	29.141
608.75	29.312
609.08	29.329
609.41	30.084
609.75	29.241
610.08	29.859
610.41	29.269
610.74	29.076
611.07	30.018
611.41	29.686
611.74	30.069
612.07	30.622
612.40	30.133
612.73	30.465
613.07	30.171
613.40	29.018
613.73	28.599
614.06	29.686
614.39	29.252
614.72	28.530
615.06	29.018
615.39	28.613
615.72	28.910
616.05	29.092
616.38	29.364
616.71	29.833
617.05	28.967
617.38	29.267
617.71	29.212
618.04	29.034
618.37	28.798
618.70	29.299
619.03	29.391
619.36	29.470
619.69	29.212
620.03	29.692
620.36	29.018
620.69	28.378
621.02	29.856
621.35	30.116
621.68	29.863
622.01	28.185
622.34	28.312
622.67	29.347
623.00	27.395
623.33	29.197
623.66	29.248
623.99	27.913
624.32	29.435
624.65	27.606
624.99	29.129
625.32	28.870
625.65	28.186
625.98	28.542
626.31	27.853
626.64	29.670
626.97	28.657
627.30	28.094
627.63	28.882
627.96	28.303
628.29	28.560
628.62	27.792
628.95	27.870
629.28	28.547
629.61	28.367
629.94	27.699
630.26	28.898
630.59	27.720
630.92	28.398
631.25	28.533
631.58	28.814
631.91	27.929
632.24	28.530
632.57	28.368
632.90	28.185
633.23	27.857
633.56	27.347
633.89	26.963
634.22	27.859
634.55	29.749
634.88	28.355
635.20	30.248
635.53	29.944
635.86	29.036
636.19	27.996
636.52	27.215
636.85	27.375
637.18	27.859
637.51	26.882
637.83	29.125
638.16	27.535
638.49	28.052
638.82	25.930
639.15	27.721
639.48	28.176
639.81	27.021
640.13	28.151
640.46	26.061
640.79	27.206
641.12	27.826
641.45	27.980
641.77	30.167
642.10	27.428
642.43	28.457
642.76	27.236
643.09	29.315
643.41	25.770
643.74	26.897
644.07	27.448
644.40	26.874
644.73	27.141
645.05	28.634
645.38	27.626
645.71	26.540
646.04	29.125
646.36	27.591
646.69	27.761
647.02	28.746
647.35	28.855
647.67	28.019
648.00	27.707
648.33	28.829
648.66	26.248
648.98	26.122
649.31	26.793
649.64	26.959
649.96	25.597
650.29	25.035
650.62	26.874
650.94	24.925
651.27	23.353
651.60	25.292
651.92	26.444
652.25	25.615
652.58	25.722
652.90	26.163
653.23	25.775
653.56	25.535
653.88	26.826
654.21	24.366
654.54	25.723
654.86	25.496
655.19	22.961
655.52	24.820
655.84	22.691
656.17	26.898
656.49	37.849
656.82	41.342
657.15	32.363
657.47	24.239
657.80	17.888
658.13	13.892
658.45	18.143
658.78	22.192
659.10	21.335
659.43	21.394
659.75	21.362
660.08	21.849
660.41	21.919
660.73	21.893
661.06	23.054
661.38	22.648
661.71	25.172
662.03	25.220
662.36	28.444
662.68	24.953
663.01	24.425
663.33	27.977
663.66	24.542
663.98	27.115
664.31	27.017
664.63	22.158
664.96	27.042
665.28	23.412
665.61	25.524
665.93	23.929
666.26	25.269
666.58	23.801
666.91	28.411
667.23	23.810
667.56	26.036
667.88	26.000
668.21	23.047
668.53	23.359
668.86	25.147
669.18	22.811
669.50	25.646
669.83	26.200
670.15	23.425
670.48	27.381
670.80	23.518
671.13	22.684
671.45	25.000
671.77	24.670
672.10	22.333
672.42	24.757
672.75	21.352
673.07	23.731
673.39	21.263
673.72	25.168
674.04	24.310
674.37	21.467
674.69	23.810
675.01	22.476
675.34	23.092
675.66	22.472
675.98	23.507
676.31	25.195
676.63	24.905
676.95	22.989
677.28	23.992
677.60	21.063
677.92	24.184
678.25	23.035
678.57	22.598
678.89	23.891
679.22	21.429
679.54	22.735
679.86	19.831
680.18	21.061
680.51	22.327
680.83	22.095
681.15	20.862
681.48	21.762
681.80	22.280
682.12	23.601
682.44	22.371
682.77	23.936
683.09	21.780
683.41	20.349
683.73	22.391
684.06	23.247
684.38	23.614
684.70	25.314
685.02	22.719
685.34	19.301
685.67	19.716
685.99	20.245
686.31	21.076
686.63	20.853
686.96	19.716
687.28	19.707
687.60	20.707
687.92	21.222
688.24	22.204
688.56	19.310
688.89	21.416
689.21	23.875
689.53	21.569
689.85	18.935
690.17	22.037
690.49	20.518
690.82	20.000
691.14	19.028
691.46	20.459
691.78	22.836
692.10	19.083
692.42	18.393
692.74	21.234
693.06	18.704
693.39	22.581
693.71	20.113
694.03	23.606
694.35	20.762
694.67	22.587
694.99	20.213
695.31	21.413
695.63	20.563
695.95	20.290
696.27	18.462
696.59	21.681
696.91	21.622
697.23	23.516
697.56	19.145
697.88	20.455
698.20	21.092
698.52	20.644
698.84	20.790
699.16	22.245
699.48	18.828
699.80	18.298
700.12	19.214
700.44	20.968
700.76	22.090
701.08	22.034
701.40	21.503
701.72	20.647
702.04	20.053
702.36	19.634
702.68	19.315
703.00	19.560
703.32	20.936
703.64	20.049
703.96	19.570
704.28	19.410
704.60	20.000
704.91	19.388
705.23	21.096
705.55	20.613
705.87	20.303
706.19	19.939
706.51	16.265
706.83	18.444
707.15	18.254
707.47	16.822
707.79	17.904
708.11	15.042
708.43	18.065
708.74	15.179
709.06	16.473
709.38	21.596
709.70	21.588
710.02	20.413
710.34	19.947
710.66	16.201
710.98	21.858
711.29	16.758
711.61	20.621
711.93	20.228
712.25	18.919
712.57	19.469
712.89	21.176
713.20	20.414
713.52	19.942
713.84	15.877
714.16	21.053
714.48	20.361
714.80	18.701
715.11	19.160
715.43	19.629
715.75	16.842
716.07	14.641
716.39	21.311
716.70	18.373
717.02	17.705
717.34	21.603
717.66	19.463
717.97	19.178
718.29	17.869
718.61	17.105
718.93	18.447
719.24	17.081
719.56	17.791
719.88	19.820
720.20	20.968
720.51	18.012
720.83	17.188
721.15	12.829
721.46	16.781
721.78	20.333
722.10	14.563
722.42	15.436
722.73	15.484
723.05	19.649
723.37	20.833
723.68	18.638
724.00	16.968
724.32	15.493
724.63	16.783
724.95	20.567
725.27	17.073
725.58	14.841
725.90	19.655
726.22	18.495
726.53	16.234
726.85	20.755
727.16	17.825
727.48	19.878
727.80	18.543
728.11	16.254
728.43	21.212
728.74	15.385
729.06	16.225
729.38	16.558
729.69	18.792
730.01	16.369
730.32	13.333
730.64	16.038
730.96	16.460
731.27	17.039
731.59	16.484
731.90	15.065
732.22	17.448
732.53	14.365
732.85	14.286
733.16	19.062
733.48	15.549
733.80	15.320
734.11	15.954
734.43	16.757
734.74	17.468
735.06	15.578
735.37	17.838
735.69	15.946
736.00	14.124
736.32	16.173
736.63	17.778
736.95	16.092
737.26	15.455
737.58	12.121
737.89	18.824
738.21	13.150
738.52	14.426
738.83	15.017
739.15	15.603
739.46	16.667
739.78	19.018
740.09	14.613
740.41	16.327
740.72	15.000
741.04	14.887
741.35	18.596
741.66	14.902
741.98	16.803
742.29	15.063
742.61	16.228
742.92	15.769
743.23	16.606
743.55	15.891
743.86	22.800
744.18	13.636
744.49	10.970
744.80	18.930
745.12	14.346
745.43	16.260
745.74	14.655
746.06	18.220
746.37	15.190
746.68	21.138
747.00	14.583
747.31	9.013
747.62	20.385
747.94	18.623
748.25	12.851
748.56	13.469
748.88	18.376
749.19	18.534
749.50	10.823
749.82	18.072
750.13	13.879
750.44	10.333
750.75	16.000
751.07	16.308
751.38	13.880
751.69	12.141
752.01	16.505
752.32	13.725
752.63	14.626
752.94	16.263
753.26	10.781
753.57	12.222
753.88	15.356
754.19	15.756
754.51	14.148
754.82	16.077
755.13	17.377
755.44	16.724
755.75	12.500
756.07	15.522
756.38	12.893
756.69	17.169
757.00	10.526
757.31	10.929
757.63	12.532
757.94	12.911
758.25	14.447
758.56	12.854
758.87	12.273
759.18	13.333
759.50	16.147
759.81	14.566
760.12	12.129
760.43	15.625
760.74	14.532
761.05	12.250
761.36	14.458
761.67	12.437
761.99	12.162
762.30	13.110
762.61	11.221
762.92	13.806
763.23	17.228
763.54	16.906
763.85	10.997
764.16	16.162
764.47	15.493
764.78	18.211
765.10	12.610
765.41	15.897
765.72	13.757
766.03	15.819
766.34	9.091
766.65	11.847
766.96	13.546
767.27	17.972
767.58	9.950
767.89	16.827
768.20	13.615
768.51	11.111
768.82	13.253
769.13	13.258
769.44	10.769
769.75	15.884
770.06	12.692
770.37	12.992
770.68	9.362
770.99	9.312
771.30	20.000
771.61	14.068
771.92	9.259
772.23	14.170
772.54	10.185
772.85	20.276
773.16	17.619
773.47	17.989
773.78	13.514
774.09	14.205
774.39	19.500
774.70	13.115
775.01	10.366
775.32	8.824
775.63	15.337
775.94	8.917
776.25	14.194
776.56	12.821
776.87	13.605
777.18	13.103
777.48	17.483
777.79	13.514
778.10	11.765
778.41	13.194
778.72	11.034
779.03	19.136
779.34	12.121
779.65	12.435
779.95	17.778
780.26	17.045
780.57	16.129
780.88	20.290
781.19	15.484
781.50	20.588
781.80	17.204
782.11	10.053
782.42	9.596
782.73	8.383
783.04	12.849
783.34	8.485
783.65	8.497
783.96	11.801
784.27	14.286
784.57	11.258
784.88	15.000
785.19	14.173
785.50	11.024
785.81	13.534
786.11	14.615
786.42	2.158
786.73	12.950
787.04	21.053
787.34	8.197
787.65	20.000
787.96	18.657
788.26	13.986
788.57	18.881
788.88	14.474
789.19	18.954
789.49	10.959
789.80	7.801
790.11	7.087
790.41	17.188
790.72	15.254
791.03	9.709
791.33	6.087
791.64	21.053
791.95	8.036
792.25	25.714
792.56	12.500
792.87	22.917
793.17	19.643
793.48	11.458
793.79	-2.410
794.09	4.587
794.40	6.422
794.70	12.925
795.01	14.935
795.32	2.055
795.62	20.423
795.93	3.030
796.23	15.574
796.54	8.036
796.85	6.383
797.15	13.043
797.46	12.329
797.76	-1.250
798.07	11.957
798.37	-2.062
798.68	9.091
798.99	18.391
799.29	10.112
799.60	7.447
799.90	14.458
800.21	-4.615
800.51	16.418
800.82	17.647
801.12	0.000
801.43	-2.941
801.73	3.390
802.04	19.697
802.34	8.333
802.65	8.475
802.95	11.940
803.26	13.559
803.56	5.479
803.87	21.429
804.17	16.438
804.48	-10.526
804.78	22.222
805.09	-10.345
805.39	21.622
805.70	0.000
806.00	17.073
806.30	-2.410
806.61	2.740
806.91	13.462
807.22	0.000
807.52	0.000
807.83	13.889
808.13	19.277
808.43	13.483
808.74	16.250
809.04	8.824
809.35	17.333
809.65	-4.286
809.95	12.329
810.26	-1.754
810.56	12.069
810.86	16.176
811.17	5.263
811.47	1.639
811.77	-17.778
812.08	15.254
812.38	23.333
812.69	25.862
812.99	11.321
813.29	-20.513
813.59	28.000
813.90	10.526
814.20	-1.818
814.50	22.535
814.81	14.103
815.11	9.836
815.41	11.940
815.72	18.966
816.02	35.714
816.32	26.667
816.62	29.545
816.93	-6.667
817.23	25.926
817.53	0.000
817.84	21.429
818.14	17.647
818.44	16.327
818.74	13.333
819.04	-20.513
819.35	0.000
819.65	-7.692
819.95	24.528
820.25	28.889
820.56	-7.143
820.86	3.125
821.16	5.128
821.46	-2.326
821.76	-12.000
822.07	8.929
822.37	0.000
822.67	-4.255
822.97	-16.216
823.27	-2.500
823.57	32.653
823.88	37.778
824.18	22.500
824.48	43.333
824.78	16.000
825.08	21.212
825.38	37.778
825.69	14.894
825.99	13.889
826.29	-28.571
826.59	5.128
826.89	-2.326
827.19	18.000
827.49	-26.471
827.79	33.333
828.09	-16.216
828.39	-30.000
828.70	7.317
829.00	-9.302
829.30	-14.286
829.60	17.647
829.90	-4.348
830.20	-5.714
830.50	0.000
830.80	-72.222
831.10	7.692
831.40	29.412
831.70	38.095
832.00	29.032
832.30	-58.824
832.60	-12.500
832.90	-53.846
833.20	-52.632
833.50	-30.000
833.80	-5.263
834.10	-33.333
834.40	19.444
834.70	40.625
835.00	-22.857
835.30	26.471
835.60	0.000
835.90	32.000
836.20	-59.091
836.50	-4.000
836.80	-27.273
837.10	0.000
837.40	-40.741
837.70	-68.750
838.00	14.286
838.30	-17.391
838.60	10.345
838.90	14.286
839.19	8.696
839.49	-133.333
839.79	13.043
840.09	-50.000
840.39	-5.000
840.69	45.161
840.99	7.143
841.29	46.667
841.59	-57.895
841.88	2.564
842.18	-30.769
842.48	-50.000
842.78	5.000
843.08	13.333
843.38	19.355
843.68	-5.556
843.97	23.529
844.27	18.750
844.57	10.526
844.87	40.000
845.17	-6.667
845.47	38.095
845.76	19.048
846.06	-100.000
846.36	-64.706
846.66	11.538
846.96	-53.333
847.25	-35.294
847.55	47.826
847.85	20.000
848.15	17.647
848.44	-72.727
848.74	19.048
849.04	-8.333
849.34	6.250
849.63	17.391
849.93	300.000
850.23	26.667
850.53	61.538
850.82	9.091
851.12	54.545
851.42	-36.364
851.71	-7.692
852.01	0.000
852.31	7.692
852.61	42.105
852.90	0.000
853.20	27.778
853.50	-144.444
853.79	14.286
854.09	-36.364
854.39	-66.667
854.68	12.903
854.98	11.538
855.28	27.778
855.57	-35.714
855.87	-20.000
856.17	-13.636
856.46	14.815
856.76	-33.333
857.05	-26.087
857.35	-29.167
857.65	-23.077
857.94	14.286
858.24	22.222
858.53	39.130
858.83	-11.765
859.13	-76.471
859.42	5.882
859.72	50.000
860.01	-25.000
860.31	-33.333
860.60	30.000
860.90	-13.333
861.20	27.778
861.49	-23.077
861.79	-3.333
862.08	0.000
862.38	21.875
862.67	35.294
862.97	31.250
863.26	-111.111
863.56	70.000
863.85	-45.455
864.15	44.444
864.44	-33.333
864.74	100.000
865.03	25.000
865.33	-30.000
865.62	22.581
865.92	9.091
866.21	0.000
866.51	-14.286
866.80	-280.000
867.10	-75.000
867.39	-83.333
867.69	1300.000
867.98	0.000
868.27	11.765
868.57	-1000.000
868.86	-80.000
869.16	-28.571
869.45	16.667
869.75	27.273
870.04	-71.429
870.33	-41.667
870.63	-128.571
870.92	0.000
871.22	-75.000
871.51	-72.727
871.80	-433.333
872.10	100.000
>>>>>End Processed Spectral Data<<<<<
