SpectraSuite Data File
++++++++++++++++++++++++++++++++++++
Date: Thu May 14 16:32:48 PDT 2015
User: schluterlab
Dark Spectrum Present: Yes
Reference Spectrum Present: Yes
Number of Sampled Component Spectra: 1
Spectrometers: USB2E3373
Integration Time (usec): 3000 (USB2E3373)
Spectra Averaged: 3 (USB2E3373)
Boxcar Smoothing: 0 (USB2E3373)
Correct for Electrical Dark: No (USB2E3373)
Strobe/Lamp Enabled: No (USB2E3373)
Correct for Detector Non-linearity: No (USB2E3373)
Correct for Stray Light: No (USB2E3373)
Number of Pixels in Processed Spectrum: 2048
>>>>>Begin Processed Spectral Data<<<<<
178.53	0.000
178.91	57.143
179.29	-900.000
179.67	-200.000
180.04	85.714
180.42	10.000
180.80	260.000
181.18	-500.000
181.56	800.000
181.94	375.000
182.31	75.000
182.69	33.333
183.07	50.000
183.45	125.000
183.83	-33.333
184.20	-266.667
184.58	400.000
184.96	-75.000
185.34	44.444
185.72	-60.000
186.09	200.000
186.47	350.000
186.85	260.000
187.23	-111.111
187.61	400.000
187.98	220.000
188.36	175.000
188.74	-50.000
189.12	-333.333
189.49	18.750
189.87	12.500
190.25	55.556
190.63	-40.000
191.00	-133.333
191.38	0.000
191.76	-250.000
192.14	-16.667
192.51	-350.000
192.89	116.667
193.27	0.000
193.65	57.143
194.02	-1500.000
194.40	-28.571
194.78	57.143
195.15	0.000
195.53	72.727
195.91	0.000
196.29	-125.000
196.66	-76.923
197.04	-600.000
197.42	-157.143
197.79	-400.000
198.17	-25.000
198.55	-142.857
198.92	100.000
199.30	-62.500
199.68	0.000
200.05	7.143
200.43	-50.000
200.81	171.429
201.18	0.000
201.56	166.667
201.94	0.000
202.31	200.000
202.69	-111.111
203.07	-300.000
203.44	-111.111
203.82	-200.000
204.19	83.333
204.57	-150.000
204.95	-62.500
205.32	-1100.000
205.70	200.000
206.08	-50.000
206.45	50.000
206.83	200.000
207.20	-33.333
207.58	-220.000
207.96	-16.667
208.33	116.667
208.71	58.333
209.08	133.333
209.46	0.000
209.84	83.333
210.21	50.000
210.59	250.000
210.96	66.667
211.34	100.000
211.71	-25.000
212.09	-200.000
212.46	0.000
212.84	150.000
213.22	-180.000
213.59	0.000
213.97	-70.000
214.34	-66.667
214.72	83.333
215.09	-100.000
215.47	0.000
215.84	-0.000
216.22	350.000
216.59	-40.000
216.97	-260.000
217.34	0.000
217.72	-50.000
218.09	-25.000
218.47	-200.000
218.84	0.000
219.22	-140.000
219.59	5.882
219.97	-5.000
220.34	550.000
220.72	-55.556
221.09	7.692
221.47	66.667
221.84	-60.000
222.22	-185.714
222.59	0.000
222.97	87.500
223.34	-20.000
223.72	0.000
224.09	0.000
224.46	-50.000
224.84	-40.000
225.21	-85.714
225.59	-425.000
225.96	-250.000
226.34	61.538
226.71	133.333
227.08	-350.000
227.46	0.000
227.83	-25.000
228.21	26.316
228.58	87.500
228.95	250.000
229.33	75.000
229.70	-70.000
230.08	42.105
230.45	100.000
230.82	0.000
231.20	57.143
231.57	50.000
231.95	-18.182
232.32	-45.455
232.69	15.000
233.07	25.000
233.44	-29.412
233.81	-60.000
234.19	0.000
234.56	-9.091
234.93	27.586
235.31	-31.579
235.68	-44.444
236.05	-55.000
236.43	-7.692
236.80	32.000
237.17	0.000
237.55	3.030
237.92	-60.000
238.29	-35.484
238.67	-2.273
239.04	-8.333
239.41	-9.524
239.79	-13.043
240.16	3.704
240.53	-4.348
240.91	1.961
241.28	1.639
241.65	25.373
242.02	10.811
242.40	1.538
242.77	4.000
243.14	-1.220
243.51	-14.474
243.89	-12.821
244.26	8.911
244.63	7.843
245.00	0.935
245.38	7.895
245.75	-0.885
246.12	11.905
246.49	-2.326
246.87	6.429
247.24	5.298
247.61	4.605
247.98	0.671
248.36	-1.235
248.73	-4.908
249.10	0.000
249.47	3.483
249.84	8.901
250.22	0.000
250.59	5.000
250.96	5.909
251.33	3.571
251.70	2.137
252.08	4.167
252.45	5.738
252.82	1.653
253.19	0.781
253.56	4.183
253.94	1.923
254.31	3.788
254.68	6.993
255.05	6.515
255.42	7.143
255.79	3.236
256.16	3.642
256.54	1.656
256.91	2.295
257.28	2.623
257.65	0.318
258.02	-0.295
258.39	2.279
258.76	7.339
259.14	9.195
259.51	4.035
259.88	0.850
260.25	4.167
260.62	7.397
260.99	4.918
261.36	5.362
261.73	3.714
262.10	3.297
262.47	1.340
262.85	6.313
263.22	2.078
263.59	-2.105
263.96	5.627
264.33	1.023
264.70	6.420
265.07	5.967
265.44	7.029
265.81	4.167
266.18	1.361
266.55	3.571
266.92	3.872
267.29	2.626
267.66	3.326
268.03	4.803
268.40	5.428
268.77	2.733
269.14	1.542
269.51	2.412
269.88	6.352
270.25	5.231
270.62	4.430
270.99	7.879
271.36	4.356
271.73	3.536
272.10	4.409
272.47	3.808
272.84	5.020
273.21	4.409
273.58	5.444
273.95	3.269
274.32	4.183
274.69	4.255
275.06	4.579
275.43	4.251
275.80	4.409
276.17	4.074
276.54	5.224
276.91	3.399
277.28	4.521
277.65	6.463
278.02	4.596
278.39	5.616
278.76	5.448
279.13	2.660
279.50	5.842
279.87	5.367
280.23	2.113
280.60	4.237
280.97	4.934
281.34	2.547
281.71	6.768
282.08	5.814
282.45	3.273
282.82	4.239
283.19	3.554
283.56	3.934
283.92	5.706
284.29	6.003
284.66	5.090
285.03	2.244
285.40	4.791
285.77	4.180
286.14	6.412
286.51	4.262
286.87	4.423
287.24	4.217
287.61	5.381
287.98	3.927
288.35	3.550
288.72	4.734
289.08	5.124
289.45	3.846
289.82	4.970
290.19	4.167
290.56	6.338
290.93	3.994
291.29	4.270
291.66	4.270
292.03	4.749
292.40	5.578
292.77	4.717
293.13	5.548
293.50	3.285
293.87	4.027
294.24	7.067
294.60	6.700
294.97	4.027
295.34	6.274
295.71	6.936
296.08	4.134
296.44	4.902
296.81	4.994
297.18	5.853
297.55	5.660
297.91	5.219
298.28	4.384
298.65	5.589
299.02	5.313
299.38	5.835
299.75	6.075
300.12	4.514
300.48	5.415
300.85	5.962
301.22	5.817
301.59	5.479
301.95	5.424
302.32	6.778
302.69	5.586
303.05	4.353
303.42	5.987
303.79	5.938
304.15	5.468
304.52	5.497
304.89	7.435
305.25	6.522
305.62	6.165
305.99	6.495
306.35	5.242
306.72	7.342
307.09	4.975
307.45	8.075
307.82	5.550
308.19	5.449
308.55	6.750
308.92	5.745
309.29	7.088
309.65	6.433
310.02	5.545
310.38	6.004
310.75	7.282
311.12	7.862
311.48	6.061
311.85	6.838
312.22	5.503
312.58	6.667
312.95	6.023
313.31	6.865
313.68	7.051
314.05	7.407
314.41	6.375
314.78	5.450
315.14	6.987
315.51	7.756
315.87	7.111
316.24	7.671
316.61	7.460
316.97	7.421
317.34	6.966
317.70	6.638
318.07	7.319
318.43	8.163
318.80	8.528
319.16	7.725
319.53	6.084
319.89	6.310
320.26	6.940
320.62	7.181
320.99	8.033
321.35	7.579
321.72	7.814
322.08	7.665
322.45	7.588
322.81	8.303
323.18	7.788
323.54	7.845
323.91	9.075
324.27	8.692
324.64	8.816
325.00	8.541
325.37	9.173
325.73	10.000
326.10	9.165
326.46	9.772
326.83	10.729
327.19	9.843
327.56	10.040
327.92	9.205
328.29	8.790
328.65	9.464
329.01	8.291
329.38	10.362
329.74	11.130
330.11	10.531
330.47	10.615
330.84	10.680
331.20	10.667
331.56	10.919
331.93	10.628
332.29	11.102
332.66	10.382
333.02	9.966
333.38	9.648
333.75	9.848
334.11	10.175
334.48	11.304
334.84	11.640
335.20	10.243
335.57	11.804
335.93	10.992
336.29	10.233
336.66	10.008
337.02	10.284
337.38	10.884
337.75	10.661
338.11	10.934
338.47	10.918
338.84	9.645
339.20	9.014
339.56	10.297
339.93	10.673
340.29	9.823
340.65	10.787
341.02	11.253
341.38	11.479
341.74	10.977
342.11	10.861
342.47	10.326
342.83	10.225
343.20	11.202
343.56	11.307
343.92	10.328
344.28	10.156
344.65	11.395
345.01	10.920
345.37	10.964
345.73	9.353
346.10	10.686
346.46	9.494
346.82	10.262
347.19	10.542
347.55	10.850
347.91	9.138
348.27	10.243
348.63	11.196
349.00	10.067
349.36	10.186
349.72	10.640
350.08	11.218
350.45	9.962
350.81	9.578
351.17	10.226
351.53	10.842
351.89	11.390
352.26	9.925
352.62	10.373
352.98	10.000
353.34	8.663
353.70	10.324
354.07	10.730
354.43	9.719
354.79	11.070
355.15	10.007
355.51	10.599
355.87	9.798
356.24	11.407
356.60	10.347
356.96	10.230
357.32	10.409
357.68	9.004
358.04	10.180
358.40	10.448
358.77	11.111
359.13	10.118
359.49	8.996
359.85	10.007
360.21	9.756
360.57	9.476
360.93	10.649
361.29	10.035
361.66	9.776
362.02	10.856
362.38	9.838
362.74	9.427
363.10	10.523
363.46	10.388
363.82	9.659
364.18	10.486
364.54	9.889
364.90	10.903
365.26	9.379
365.62	9.800
365.98	10.756
366.35	10.268
366.71	10.952
367.07	10.487
367.43	10.703
367.79	11.082
368.15	10.903
368.51	10.284
368.87	11.430
369.23	10.267
369.59	10.724
369.95	10.953
370.31	10.668
370.67	10.316
371.03	11.080
371.39	10.007
371.75	10.867
372.11	11.585
372.47	11.645
372.83	11.322
373.19	10.874
373.55	10.772
373.91	10.566
374.27	10.737
374.63	11.164
374.99	11.207
375.35	10.909
375.71	10.323
376.07	10.910
376.42	11.272
376.78	11.063
377.14	10.730
377.50	10.500
377.86	12.069
378.22	11.497
378.58	10.939
378.94	10.974
379.30	11.775
379.66	11.758
380.02	11.079
380.38	11.233
380.74	11.606
381.09	10.743
381.45	11.705
381.81	11.827
382.17	11.283
382.53	11.111
382.89	11.117
383.25	10.785
383.61	10.648
383.97	10.483
384.32	11.124
384.68	9.745
385.04	10.989
385.40	12.080
385.76	12.075
386.12	11.370
386.48	12.176
386.83	11.919
387.19	11.414
387.55	10.798
387.91	11.929
388.27	10.912
388.62	11.856
388.98	11.337
389.34	11.432
389.70	10.924
390.06	12.197
390.42	11.506
390.77	12.462
391.13	11.033
391.49	11.534
391.85	10.667
392.20	11.566
392.56	11.459
392.92	12.105
393.28	11.553
393.64	10.503
393.99	11.912
394.35	11.974
394.71	12.216
395.07	10.719
395.42	12.393
395.78	11.944
396.14	12.002
396.50	12.055
396.85	11.807
397.21	11.538
397.57	12.014
397.92	11.512
398.28	11.190
398.64	11.442
399.00	11.518
399.35	11.885
399.71	11.685
400.07	11.510
400.42	11.525
400.78	11.343
401.14	12.351
401.49	10.972
401.85	11.860
402.21	12.109
402.57	12.852
402.92	12.175
403.28	11.300
403.63	10.859
403.99	11.876
404.35	12.337
404.70	12.465
405.06	11.793
405.42	12.119
405.77	11.832
406.13	11.399
406.49	11.993
406.84	12.798
407.20	11.683
407.55	10.902
407.91	11.942
408.27	11.837
408.62	12.158
408.98	11.782
409.34	11.026
409.69	11.557
410.05	12.427
410.40	12.471
410.76	11.666
411.11	12.157
411.47	12.224
411.83	13.228
412.18	12.048
412.54	12.033
412.89	11.525
413.25	12.020
413.60	11.832
413.96	12.821
414.31	12.011
414.67	12.105
415.03	12.369
415.38	11.349
415.74	11.973
416.09	12.276
416.45	12.085
416.80	11.934
417.16	11.941
417.51	11.519
417.87	11.404
418.22	11.557
418.58	12.454
418.93	12.980
419.29	12.084
419.64	11.044
420.00	11.869
420.35	12.746
420.71	11.890
421.06	12.133
421.42	12.328
421.77	11.847
422.12	12.474
422.48	12.135
422.83	12.048
423.19	12.891
423.54	12.113
423.90	12.866
424.25	11.680
424.61	11.481
424.96	11.971
425.31	12.951
425.67	11.863
426.02	12.950
426.38	11.653
426.73	12.612
427.09	12.687
427.44	12.179
427.79	11.774
428.15	11.815
428.50	11.854
428.85	12.113
429.21	12.074
429.56	12.636
429.92	11.990
430.27	12.386
430.62	12.018
430.98	12.051
431.33	11.828
431.68	12.069
432.04	12.951
432.39	12.159
432.74	12.557
433.10	12.818
433.45	12.821
433.80	12.715
434.16	11.983
434.51	12.847
434.86	12.269
435.22	12.380
435.57	12.913
435.92	13.356
436.28	12.230
436.63	13.381
436.98	12.077
437.34	12.514
437.69	12.053
438.04	12.692
438.39	12.407
438.75	11.732
439.10	13.266
439.45	12.689
439.81	12.655
440.16	12.815
440.51	12.765
440.86	12.618
441.22	12.379
441.57	13.260
441.92	12.658
442.27	12.576
442.63	12.866
442.98	12.593
443.33	12.467
443.68	13.627
444.03	13.735
444.39	12.760
444.74	13.629
445.09	13.533
445.44	13.224
445.79	13.075
446.15	13.104
446.50	12.248
446.85	12.986
447.20	13.056
447.55	13.075
447.91	13.194
448.26	12.949
448.61	12.859
448.96	13.412
449.31	13.256
449.66	12.309
450.02	13.819
450.37	13.745
450.72	13.025
451.07	12.585
451.42	13.287
451.77	13.230
452.12	13.657
452.47	12.715
452.83	13.795
453.18	13.252
453.53	13.038
453.88	13.363
454.23	12.994
454.58	13.523
454.93	12.803
455.28	13.426
455.63	12.507
455.98	13.631
456.34	12.603
456.69	13.815
457.04	13.416
457.39	13.636
457.74	13.255
458.09	13.180
458.44	13.200
458.79	12.790
459.14	13.057
459.49	13.526
459.84	12.749
460.19	12.993
460.54	13.345
460.89	13.552
461.24	12.471
461.59	13.614
461.94	13.120
462.29	13.326
462.64	13.277
462.99	13.057
463.34	13.952
463.69	12.544
464.04	14.119
464.39	12.892
464.74	13.569
465.09	12.803
465.44	12.929
465.79	13.696
466.14	12.715
466.49	12.947
466.84	13.719
467.19	13.642
467.54	13.278
467.89	13.506
468.24	13.075
468.59	12.160
468.94	13.228
469.29	12.717
469.64	13.032
469.99	13.830
470.34	13.119
470.68	13.534
471.03	13.360
471.38	13.800
471.73	13.784
472.08	13.261
472.43	13.727
472.78	13.350
473.13	13.021
473.48	13.716
473.83	13.465
474.17	13.951
474.52	13.169
474.87	14.009
475.22	14.648
475.57	13.396
475.92	13.788
476.27	14.271
476.61	14.019
476.96	13.608
477.31	13.812
477.66	13.536
478.01	13.726
478.36	13.609
478.70	13.300
479.05	14.519
479.40	14.018
479.75	14.505
480.10	13.501
480.45	13.582
480.79	14.376
481.14	14.062
481.49	13.358
481.84	14.491
482.19	14.065
482.53	14.036
482.88	13.912
483.23	13.828
483.58	14.017
483.92	14.140
484.27	13.929
484.62	13.779
484.97	13.608
485.31	13.305
485.66	12.827
486.01	12.170
486.36	12.246
486.70	13.022
487.05	13.649
487.40	13.745
487.75	13.486
488.09	13.384
488.44	13.533
488.79	13.794
489.13	14.265
489.48	13.748
489.83	13.400
490.17	13.528
490.52	14.368
490.87	14.340
491.22	13.388
491.56	13.737
491.91	14.522
492.26	14.323
492.60	13.905
492.95	14.305
493.30	13.805
493.64	13.666
493.99	14.342
494.34	13.458
494.68	13.619
495.03	13.789
495.37	13.804
495.72	13.469
496.07	13.497
496.41	13.556
496.76	14.304
497.11	14.268
497.45	13.768
497.80	14.216
498.14	14.014
498.49	13.419
498.84	13.985
499.18	13.855
499.53	14.170
499.87	14.198
500.22	13.669
500.56	13.630
500.91	13.913
501.26	14.591
501.60	13.787
501.95	14.199
502.29	13.997
502.64	13.774
502.98	14.495
503.33	13.909
503.67	14.086
504.02	13.748
504.36	14.343
504.71	13.643
505.06	14.143
505.40	14.031
505.75	14.344
506.09	14.503
506.44	14.903
506.78	15.138
507.13	14.661
507.47	14.495
507.82	14.915
508.16	14.484
508.51	14.721
508.85	15.163
509.19	14.353
509.54	14.890
509.88	14.230
510.23	15.542
510.57	15.321
510.92	14.949
511.26	14.574
511.61	15.065
511.95	14.739
512.30	15.165
512.64	14.043
512.98	15.908
513.33	15.726
513.67	15.604
514.02	16.096
514.36	16.010
514.70	15.781
515.05	16.111
515.39	14.803
515.74	16.172
516.08	15.425
516.42	16.222
516.77	14.879
517.11	15.059
517.46	15.376
517.80	16.301
518.14	16.322
518.49	16.757
518.83	15.700
519.17	14.917
519.52	15.776
519.86	15.787
520.20	15.761
520.55	15.608
520.89	15.709
521.23	15.410
521.58	16.497
521.92	15.864
522.26	15.693
522.61	16.030
522.95	15.629
523.29	15.402
523.64	15.975
523.98	16.714
524.32	16.734
524.66	15.993
525.01	15.968
525.35	16.255
525.69	16.357
526.04	15.212
526.38	15.920
526.72	17.128
527.06	16.305
527.41	16.268
527.75	17.458
528.09	16.175
528.43	16.104
528.78	15.607
529.12	15.711
529.46	15.964
529.80	16.590
530.15	16.000
530.49	16.251
530.83	16.942
531.17	16.487
531.51	16.245
531.86	16.286
532.20	16.524
532.54	15.919
532.88	15.636
533.22	16.205
533.57	15.465
533.91	16.779
534.25	15.602
534.59	16.839
534.93	15.563
535.27	15.324
535.62	16.657
535.96	16.212
536.30	15.570
536.64	16.156
536.98	16.544
537.32	16.481
537.66	16.469
538.01	15.770
538.35	15.408
538.69	15.865
539.03	16.064
539.37	15.665
539.71	16.096
540.05	15.887
540.39	15.465
540.73	15.543
541.07	15.328
541.42	16.007
541.76	14.769
542.10	15.440
542.44	14.860
542.78	16.119
543.12	16.210
543.46	16.056
543.80	15.408
544.14	14.243
544.48	15.544
544.82	15.560
545.16	15.504
545.50	15.398
545.84	15.493
546.18	16.481
546.52	15.860
546.86	14.717
547.20	14.758
547.54	14.732
547.88	15.130
548.22	14.386
548.56	15.097
548.90	15.284
549.24	14.468
549.58	15.773
549.92	15.179
550.26	16.311
550.60	15.507
550.94	15.847
551.28	15.116
551.62	16.577
551.96	15.793
552.30	14.786
552.64	16.117
552.98	15.721
553.32	15.241
553.66	15.241
554.00	15.511
554.34	15.637
554.68	14.848
555.02	14.060
555.36	15.976
555.69	14.670
556.03	14.565
556.37	15.269
556.71	14.711
557.05	15.144
557.39	14.930
557.73	14.597
558.07	14.834
558.41	15.282
558.75	15.281
559.08	15.031
559.42	14.609
559.76	14.925
560.10	14.267
560.44	14.578
560.78	14.938
561.12	14.224
561.45	14.416
561.79	14.225
562.13	14.418
562.47	13.564
562.81	14.873
563.15	15.215
563.48	15.662
563.82	14.510
564.16	13.325
564.50	14.243
564.84	13.923
565.17	14.235
565.51	13.349
565.85	14.371
566.19	13.652
566.52	14.219
566.86	13.413
567.20	13.268
567.54	13.436
567.88	14.985
568.21	13.587
568.55	13.189
568.89	13.345
569.23	13.223
569.56	12.466
569.90	12.758
570.24	12.040
570.57	12.316
570.91	11.696
571.25	11.918
571.59	12.190
571.92	11.994
572.26	11.673
572.60	11.930
572.93	12.274
573.27	12.138
573.61	12.070
573.95	11.556
574.28	12.077
574.62	11.460
574.96	11.138
575.29	11.192
575.63	11.388
575.97	12.168
576.30	11.695
576.64	11.477
576.98	11.686
577.31	11.564
577.65	11.618
577.98	11.201
578.32	10.811
578.66	11.119
578.99	11.223
579.33	11.205
579.67	11.287
580.00	11.059
580.34	11.431
580.67	10.989
581.01	11.229
581.35	11.124
581.68	10.736
582.02	10.814
582.35	10.720
582.69	10.828
583.02	11.063
583.36	11.070
583.70	11.247
584.03	11.207
584.37	11.454
584.70	10.880
585.04	10.951
585.37	11.003
585.71	10.529
586.04	10.920
586.38	11.026
586.72	10.805
587.05	10.975
587.39	11.045
587.72	11.148
588.06	11.170
588.39	11.202
588.73	10.847
589.06	11.258
589.40	11.248
589.73	11.568
590.07	11.439
590.40	11.832
590.73	11.559
591.07	11.914
591.40	11.314
591.74	11.248
592.07	11.774
592.41	10.804
592.74	10.898
593.08	11.529
593.41	11.315
593.75	10.862
594.08	10.694
594.41	10.865
594.75	11.126
595.08	10.801
595.42	11.071
595.75	10.946
596.09	11.081
596.42	11.860
596.75	11.656
597.09	11.434
597.42	11.244
597.75	11.368
598.09	11.587
598.42	11.299
598.76	11.196
599.09	10.822
599.42	10.660
599.76	10.399
600.09	10.944
600.42	10.811
600.76	10.865
601.09	10.289
601.42	10.745
601.76	10.897
602.09	10.829
602.42	10.651
602.76	10.959
603.09	10.536
603.42	10.983
603.76	10.571
604.09	11.568
604.42	10.972
604.76	11.111
605.09	10.610
605.42	11.164
605.75	10.962
606.09	10.489
606.42	10.069
606.75	10.420
607.09	10.100
607.42	11.098
607.75	10.317
608.08	11.168
608.42	10.399
608.75	11.277
609.08	9.975
609.41	10.719
609.75	10.670
610.08	11.170
610.41	10.748
610.74	10.630
611.07	10.524
611.41	10.897
611.74	10.808
612.07	10.425
612.40	10.314
612.73	10.709
613.07	10.758
613.40	10.828
613.73	10.400
614.06	10.746
614.39	11.079
614.72	10.917
615.06	10.250
615.39	10.150
615.72	10.806
616.05	10.442
616.38	10.747
616.71	11.494
617.05	11.289
617.38	11.075
617.71	11.339
618.04	10.847
618.37	10.929
618.70	11.256
619.03	10.275
619.36	11.529
619.69	10.762
620.03	11.551
620.36	10.982
620.69	10.981
621.02	10.827
621.35	11.030
621.68	11.497
622.01	11.032
622.34	10.112
622.67	11.753
623.00	9.447
623.33	11.214
623.66	10.960
623.99	10.533
624.32	12.216
624.65	10.360
624.99	10.858
625.32	11.169
625.65	11.598
625.98	11.119
626.31	11.056
626.64	11.868
626.97	11.253
627.30	9.567
627.63	11.253
627.96	11.637
628.29	10.584
628.62	11.755
628.95	12.270
629.28	11.555
629.61	12.037
629.94	10.628
630.26	11.525
630.59	11.399
630.92	10.303
631.25	11.628
631.58	12.241
631.91	11.715
632.24	11.816
632.57	10.531
632.90	11.033
633.23	10.612
633.56	12.143
633.89	11.777
634.22	11.642
634.55	11.900
634.88	12.013
635.20	12.917
635.53	13.220
635.86	12.351
636.19	13.892
636.52	12.025
636.85	12.155
637.18	11.642
637.51	11.828
637.83	12.735
638.16	12.558
638.49	11.268
638.82	11.725
639.15	12.142
639.48	13.164
639.81	12.009
640.13	12.485
640.46	10.182
640.79	10.784
641.12	12.422
641.45	11.418
641.77	13.864
642.10	11.549
642.43	12.899
642.76	13.550
643.09	11.370
643.41	12.185
643.74	11.586
644.07	12.276
644.40	11.598
644.73	12.627
645.05	11.160
645.38	12.086
645.71	13.050
646.04	13.773
646.36	12.993
646.69	11.963
647.02	14.373
647.35	14.504
647.67	12.882
648.00	9.713
648.33	13.514
648.66	12.839
648.98	13.469
649.31	10.825
649.64	12.882
649.96	10.743
650.29	9.179
650.62	12.588
650.94	9.760
651.27	10.180
651.60	12.135
651.92	10.486
652.25	13.025
652.58	11.829
652.90	11.047
653.23	11.127
653.56	9.415
653.88	13.343
654.21	12.113
654.54	12.139
654.86	12.465
655.19	10.414
655.52	10.136
655.84	7.657
656.17	8.720
656.49	12.520
656.82	13.990
657.15	11.017
657.47	8.506
657.80	6.607
658.13	5.284
658.45	7.047
658.78	8.517
659.10	8.642
659.43	8.588
659.75	8.229
660.08	8.515
660.41	9.181
660.73	9.122
661.06	9.545
661.38	11.324
661.71	11.724
662.03	11.817
662.36	12.701
662.68	12.946
663.01	15.398
663.33	13.233
663.66	13.919
663.98	13.077
664.31	10.694
664.63	9.827
664.96	12.886
665.28	9.619
665.61	13.462
665.93	11.786
666.26	12.366
666.58	10.886
666.91	14.019
667.23	13.143
667.56	13.018
667.88	13.000
668.21	10.156
668.53	9.653
668.86	14.145
669.18	12.627
669.50	11.928
669.83	12.000
670.15	12.008
670.48	13.095
670.80	9.943
671.13	13.233
671.45	9.252
671.77	11.676
672.10	10.000
672.42	9.061
672.75	9.370
673.07	9.552
673.39	10.632
673.72	12.248
674.04	12.586
674.37	12.522
674.69	14.638
675.01	9.333
675.34	10.305
675.66	9.551
675.98	13.806
676.31	12.305
676.63	11.977
676.95	10.920
677.28	10.887
677.60	10.039
677.92	13.436
678.25	11.700
678.57	12.456
678.89	11.092
679.22	9.930
679.54	11.111
679.86	8.136
680.18	10.116
680.51	9.277
680.83	12.275
681.15	9.828
681.48	11.054
681.80	11.572
682.12	9.441
682.44	10.351
682.77	10.816
683.09	11.742
683.41	9.302
683.73	10.626
684.06	8.856
684.38	10.376
684.70	10.233
685.02	10.327
685.34	10.150
685.67	9.464
685.99	9.049
686.31	7.558
686.63	8.057
686.96	9.306
687.28	8.143
687.60	7.576
687.92	8.521
688.24	12.855
688.56	8.448
688.89	9.982
689.21	9.785
689.53	6.863
689.85	9.862
690.17	9.444
690.49	10.956
690.82	11.683
691.14	10.121
691.46	10.134
691.78	9.576
692.10	9.174
692.42	7.500
692.74	7.985
693.06	8.148
693.39	8.918
693.71	10.150
694.03	8.550
694.35	8.571
694.67	9.035
694.99	10.213
695.31	9.492
695.63	11.905
695.95	9.731
696.27	10.989
696.59	13.717
696.91	10.586
697.23	12.747
697.56	7.332
697.88	5.492
698.20	9.416
698.52	10.606
698.84	9.563
699.16	10.816
699.48	8.787
699.80	9.149
700.12	10.262
700.44	8.756
700.76	11.401
701.08	10.412
701.40	9.845
701.72	12.189
702.04	9.091
702.36	6.806
702.68	8.313
703.00	7.335
703.32	8.128
703.64	9.046
703.96	13.126
704.28	9.828
704.60	11.646
704.91	8.673
705.23	13.425
705.55	13.092
705.87	14.242
706.19	13.804
706.51	7.831
706.83	8.357
707.15	7.672
707.47	7.944
707.79	10.480
708.11	6.780
708.43	7.097
708.74	7.812
709.06	9.049
709.38	11.268
709.70	9.429
710.02	9.302
710.34	11.436
710.66	6.983
710.98	9.016
711.29	8.791
711.61	8.192
711.93	11.396
712.25	9.730
712.57	13.864
712.89	13.824
713.20	9.467
713.52	11.272
713.84	9.192
714.16	10.789
714.48	10.309
714.80	10.649
715.11	7.349
715.43	9.019
715.75	10.526
716.07	8.840
716.39	8.197
716.70	9.036
717.02	10.164
717.34	9.408
717.66	9.060
717.97	6.849
718.29	5.498
718.61	10.197
718.93	10.032
719.24	8.385
719.56	8.282
719.88	9.610
720.20	9.032
720.51	10.248
720.83	9.375
721.15	6.579
721.46	8.562
721.78	10.667
722.10	6.149
722.42	8.725
722.73	10.968
723.05	12.632
723.37	9.722
723.68	10.394
724.00	9.747
724.32	8.803
724.63	5.944
724.95	13.121
725.27	12.195
725.58	9.187
725.90	12.759
726.22	7.524
726.53	7.792
726.85	8.176
727.16	9.063
727.48	9.174
727.80	7.947
728.11	4.240
728.43	10.101
728.74	11.037
729.06	9.272
729.38	9.091
729.69	7.383
730.01	8.929
730.32	6.061
730.64	7.233
730.96	7.143
731.27	10.894
731.59	6.319
731.90	5.714
732.22	8.594
732.53	5.801
732.85	10.000
733.16	7.038
733.48	6.402
733.80	4.178
734.11	7.692
734.43	6.486
734.74	9.873
735.06	6.784
735.37	8.108
735.69	8.919
736.00	9.040
736.32	12.129
736.63	6.667
736.95	9.483
737.26	8.485
737.58	8.788
737.89	10.294
738.21	5.199
738.52	5.574
738.83	11.263
739.15	6.738
739.46	8.503
739.78	11.963
740.09	5.731
740.41	11.662
740.72	10.000
741.04	10.680
741.35	8.421
741.66	8.235
741.98	11.475
742.29	11.715
742.61	9.649
742.92	11.923
743.23	11.191
743.55	7.364
743.86	9.200
744.18	5.785
744.49	6.329
744.80	10.288
745.12	10.127
745.43	8.943
745.74	4.741
746.06	7.627
746.37	15.190
746.68	12.602
747.00	3.750
747.31	11.159
747.62	10.769
747.94	8.502
748.25	9.639
748.56	5.306
748.88	7.265
749.19	9.483
749.50	4.762
749.82	8.434
750.13	9.964
750.44	8.000
750.75	8.000
751.07	6.769
751.38	9.464
751.69	7.987
752.01	5.178
752.32	8.824
752.63	7.823
752.94	8.304
753.26	9.665
753.57	6.667
753.88	4.494
754.19	9.325
754.51	7.074
754.82	8.039
755.13	8.852
755.44	7.850
755.75	7.237
756.07	12.239
756.38	8.491
756.69	7.229
757.00	6.648
757.31	5.464
757.63	5.627
757.94	7.512
758.25	7.449
758.56	6.318
758.87	8.182
759.18	4.267
759.50	8.215
759.81	8.683
760.12	5.121
760.43	7.812
760.74	9.606
761.05	3.250
761.36	6.265
761.67	5.838
761.99	6.216
762.30	8.537
762.61	5.611
762.92	6.716
763.23	10.487
763.54	8.273
763.85	8.591
764.16	8.754
764.47	7.746
764.78	9.265
765.10	7.625
765.41	8.718
765.72	3.968
766.03	7.062
766.34	5.329
766.65	1.045
766.96	6.375
767.27	9.677
767.58	4.478
767.89	8.654
768.20	8.451
768.51	2.778
768.82	4.418
769.13	9.848
769.44	1.538
769.75	6.498
770.06	6.538
770.37	11.024
770.68	3.404
770.99	6.883
771.30	7.778
771.61	4.563
771.92	5.185
772.23	7.692
772.54	3.704
772.85	14.286
773.16	9.524
773.47	-0.529
773.78	2.162
774.09	2.841
774.39	9.500
774.70	12.022
775.01	3.659
775.32	4.706
775.63	9.202
775.94	3.185
776.25	11.613
776.56	9.615
776.87	17.687
777.18	12.414
777.48	9.091
777.79	5.405
778.10	4.412
778.41	5.556
778.72	6.207
779.03	6.173
779.34	5.455
779.65	6.218
779.95	8.333
780.26	5.682
780.57	7.097
780.88	12.319
781.19	9.677
781.50	9.412
781.80	9.677
782.11	5.820
782.42	4.040
782.73	5.988
783.04	5.587
783.34	11.515
783.65	-1.307
783.96	6.832
784.27	5.952
784.57	7.285
784.88	7.857
785.19	10.236
785.50	9.449
785.81	2.256
786.11	4.615
786.42	0.719
786.73	14.388
787.04	8.271
787.34	8.197
787.65	12.800
787.96	4.478
788.26	11.888
788.57	14.685
788.88	3.947
789.19	14.379
789.49	4.795
789.80	6.383
790.11	7.874
790.41	10.156
790.72	5.932
791.03	-3.883
791.33	4.348
791.64	7.018
791.95	13.393
792.25	12.381
792.56	10.714
792.87	11.458
793.17	9.821
793.48	0.000
793.79	-10.843
794.09	4.587
794.40	1.835
794.70	4.762
795.01	3.247
795.32	8.904
795.62	4.930
795.93	9.848
796.23	16.393
796.54	4.464
796.85	15.957
797.15	-3.261
797.46	4.110
797.76	2.500
798.07	10.870
798.37	2.062
798.68	-2.597
798.99	-4.598
799.29	4.494
799.60	10.638
799.90	4.819
800.21	-7.692
800.51	-4.478
800.82	-2.941
801.12	4.110
801.43	-16.176
801.73	0.000
802.04	0.000
802.34	-10.000
802.65	6.780
802.95	7.463
803.26	-11.864
803.56	4.110
803.87	4.286
804.17	20.548
804.48	0.000
804.78	-8.333
805.09	-5.172
805.39	10.811
805.70	-4.225
806.00	8.537
806.30	2.410
806.61	5.479
806.91	2.885
807.22	0.000
807.52	0.000
807.83	9.722
808.13	4.819
808.43	7.865
808.74	-3.750
809.04	-14.706
809.35	0.000
809.65	0.000
809.95	1.370
810.26	-5.263
810.56	1.724
810.86	1.471
811.17	-1.754
811.47	-6.557
811.77	-17.778
812.08	-3.390
812.38	11.667
812.69	1.724
812.99	7.547
813.29	-33.333
813.59	6.000
813.90	10.526
814.20	5.455
814.50	8.451
814.81	0.000
815.11	-4.918
815.41	13.433
815.72	24.138
816.02	12.500
816.32	31.111
816.62	4.545
816.93	0.000
817.23	9.259
817.53	0.000
817.84	2.381
818.14	14.706
818.44	18.367
818.74	42.222
819.04	-7.692
819.35	-14.286
819.65	-46.154
819.95	-3.774
820.25	11.111
820.56	-9.524
820.86	12.500
821.16	0.000
821.46	16.279
821.76	-10.000
822.07	0.000
822.37	6.522
822.67	14.894
822.97	-18.919
823.27	-12.500
823.57	4.082
823.88	26.667
824.18	27.500
824.48	-23.333
824.78	44.000
825.08	18.182
825.38	28.889
825.69	14.894
825.99	5.556
826.29	-22.857
826.59	-25.641
826.89	-16.279
827.19	8.000
827.49	-2.941
827.79	18.750
828.09	-13.514
828.39	-30.000
828.70	9.756
829.00	-11.628
829.30	-10.714
829.60	11.765
829.90	2.174
830.20	0.000
830.50	20.690
830.80	5.556
831.10	-7.692
831.40	2.941
831.70	-4.762
832.00	12.903
832.30	-76.471
832.60	-25.000
832.90	-15.385
833.20	-21.053
833.50	-60.000
833.80	-21.053
834.10	-23.810
834.40	19.444
834.70	3.125
835.00	-31.429
835.30	0.000
835.60	-23.333
835.90	-40.000
836.20	-45.455
836.50	-20.000
836.80	-27.273
837.10	-55.556
837.40	-7.407
837.70	-31.250
838.00	10.714
838.30	-30.435
838.60	27.586
838.90	7.143
839.19	-13.043
839.49	-125.000
839.79	-47.826
840.09	-50.000
840.39	15.000
840.69	3.226
840.99	-50.000
841.29	-20.000
841.59	-10.526
841.88	23.077
842.18	-19.231
842.48	-10.000
842.78	10.000
843.08	10.000
843.38	12.903
843.68	-61.111
843.97	17.647
844.27	75.000
844.57	-5.263
844.87	-70.000
845.17	-13.333
845.47	-4.762
845.76	14.286
846.06	-44.444
846.36	-5.882
846.66	26.923
846.96	-33.333
847.25	-5.882
847.55	8.696
847.85	-15.000
848.15	11.765
848.44	-54.545
848.74	28.571
849.04	-12.500
849.34	0.000
849.63	-13.043
849.93	350.000
850.23	-46.667
850.53	30.769
850.82	-63.636
851.12	36.364
851.42	9.091
851.71	84.615
852.01	-40.000
852.31	7.692
852.61	26.316
852.90	-25.000
853.20	-50.000
853.50	-144.444
853.79	-42.857
854.09	-45.455
854.39	-83.333
854.68	6.452
854.98	-34.615
855.28	33.333
855.57	32.143
855.87	8.000
856.17	0.000
856.46	14.815
856.76	5.556
857.05	0.000
857.35	-20.833
857.65	-69.231
857.94	23.810
858.24	0.000
858.53	26.087
858.83	-17.647
859.13	-35.294
859.42	-47.059
859.72	57.143
860.01	25.000
860.31	-66.667
860.60	10.000
860.90	20.000
861.20	-11.111
861.49	-61.538
861.79	-3.333
862.08	-38.462
862.38	25.000
862.67	35.294
862.97	25.000
863.26	-88.889
863.56	110.000
863.85	-9.091
864.15	0.000
864.44	66.667
864.74	-7.143
865.03	-18.750
865.33	-100.000
865.62	-3.226
865.92	45.455
866.21	21.739
866.51	42.857
866.80	-40.000
867.10	-58.333
867.39	-33.333
867.69	1500.000
867.98	114.286
868.27	17.647
868.57	-1700.000
868.86	-100.000
869.16	4.762
869.45	25.000
869.75	36.364
870.04	28.571
870.33	50.000
870.63	-85.714
870.92	-175.000
871.22	-300.000
871.51	-90.909
871.80	-466.667
872.10	-500.000
>>>>>End Processed Spectral Data<<<<<
