SpectraSuite Data File
++++++++++++++++++++++++++++++++++++
Date: Thu May 14 16:24:28 PDT 2015
User: schluterlab
Dark Spectrum Present: Yes
Reference Spectrum Present: Yes
Number of Sampled Component Spectra: 1
Spectrometers: USB2E3373
Integration Time (usec): 3000 (USB2E3373)
Spectra Averaged: 3 (USB2E3373)
Boxcar Smoothing: 0 (USB2E3373)
Correct for Electrical Dark: No (USB2E3373)
Strobe/Lamp Enabled: No (USB2E3373)
Correct for Detector Non-linearity: No (USB2E3373)
Correct for Stray Light: No (USB2E3373)
Number of Pixels in Processed Spectrum: 2048
>>>>>Begin Processed Spectral Data<<<<<
178.53	0.000
178.91	42.857
179.29	-1500.000
179.67	-100.000
180.04	128.571
180.42	-0.000
180.80	100.000
181.18	-400.000
181.56	-700.000
181.94	100.000
182.31	-75.000
182.69	166.667
183.07	-250.000
183.45	400.000
183.83	83.333
184.20	0.000
184.58	1100.000
184.96	0.000
185.34	11.111
185.72	0.000
186.09	211.111
186.47	850.000
186.85	220.000
187.23	-77.778
187.61	-500.000
187.98	160.000
188.36	100.000
188.74	-250.000
189.12	-233.333
189.49	0.000
189.87	-100.000
190.25	44.444
190.63	-120.000
191.00	-77.778
191.38	0.000
191.76	-300.000
192.14	50.000
192.51	250.000
192.89	183.333
193.27	0.000
193.65	-71.429
194.02	-800.000
194.40	14.286
194.78	142.857
195.15	0.000
195.53	27.273
195.91	0.000
196.29	-25.000
196.66	38.462
197.04	-1500.000
197.42	-57.143
197.79	0.000
198.17	25.000
198.55	42.857
198.92	44.444
199.30	-62.500
199.68	36.364
200.05	0.000
200.43	-200.000
200.81	142.857
201.18	0.000
201.56	100.000
201.94	0.000
202.31	333.333
202.69	-77.778
203.07	800.000
203.44	11.111
203.82	-175.000
204.19	33.333
204.57	-100.000
204.95	-125.000
205.32	-300.000
205.70	-75.000
206.08	-50.000
206.45	33.333
206.83	200.000
207.20	-50.000
207.58	-260.000
207.96	-183.333
208.33	150.000
208.71	41.667
209.08	-133.333
209.46	0.000
209.84	33.333
210.21	400.000
210.59	150.000
210.96	300.000
211.34	75.000
211.71	-12.500
212.09	-1000.000
212.46	0.000
212.84	550.000
213.22	-320.000
213.59	-150.000
213.97	0.000
214.34	-66.667
214.72	166.667
215.09	-50.000
215.47	0.000
215.84	-71.429
216.22	350.000
216.59	20.000
216.97	0.000
217.34	-50.000
217.72	-37.500
218.09	-100.000
218.47	-175.000
218.84	0.000
219.22	-60.000
219.59	23.529
219.97	-5.000
220.34	650.000
220.72	-11.111
221.09	38.462
221.47	-33.333
221.84	-120.000
222.22	-28.571
222.59	0.000
222.97	-112.500
223.34	-360.000
223.72	-600.000
224.09	-50.000
224.46	-25.000
224.84	-100.000
225.21	-71.429
225.59	-25.000
225.96	-175.000
226.34	-26.923
226.71	233.333
227.08	-150.000
227.46	13.333
227.83	-325.000
228.21	31.579
228.58	50.000
228.95	500.000
229.33	-41.667
229.70	0.000
230.08	94.737
230.45	110.000
230.82	0.000
231.20	7.143
231.57	0.000
231.95	36.364
232.32	45.455
232.69	-35.000
233.07	-125.000
233.44	-76.471
233.81	-100.000
234.19	-22.222
234.56	-50.000
234.93	20.690
235.31	-42.105
235.68	-22.222
236.05	-30.000
236.43	26.923
236.80	36.000
237.17	-7.407
237.55	3.030
237.92	-30.000
238.29	12.903
238.67	-6.818
239.04	-27.778
239.41	-11.905
239.79	13.043
240.16	-5.556
240.53	19.565
240.91	-9.804
241.28	-3.279
241.65	5.970
242.02	16.216
242.40	-13.846
242.77	0.000
243.14	-3.659
243.51	-15.789
243.89	-15.385
244.26	14.851
244.63	2.941
245.00	9.346
245.38	0.877
245.75	0.885
246.12	11.111
246.49	-0.775
246.87	8.571
247.24	11.258
247.61	8.553
247.98	2.013
248.36	0.000
248.73	3.681
249.10	7.104
249.47	9.453
249.84	8.377
250.22	-1.554
250.59	8.333
250.96	5.909
251.33	3.061
251.70	9.402
252.08	5.833
252.45	5.738
252.82	7.025
253.19	6.250
253.56	6.464
253.94	7.692
254.31	8.333
254.68	9.441
255.05	9.446
255.42	6.463
255.79	3.560
256.16	4.636
256.54	8.278
256.91	5.902
257.28	7.869
257.65	7.643
258.02	5.900
258.39	7.977
258.76	9.786
259.14	11.207
259.51	9.798
259.88	7.082
260.25	6.667
260.62	7.123
260.99	11.475
261.36	9.920
261.73	4.509
262.10	5.220
262.47	7.775
262.85	8.838
263.22	6.234
263.59	3.947
263.96	9.207
264.33	5.882
264.70	8.395
265.07	9.547
265.44	7.256
265.81	6.944
266.18	8.163
266.55	7.366
266.92	3.645
267.29	7.877
267.66	6.652
268.03	8.734
268.40	7.724
268.77	5.239
269.14	6.388
269.51	6.798
269.88	8.197
270.25	8.048
270.62	7.384
270.99	9.091
271.36	8.515
271.73	7.859
272.10	7.615
272.47	6.212
272.84	6.225
273.21	7.615
273.58	8.669
273.95	7.115
274.32	4.943
274.69	6.770
275.06	7.143
275.43	7.024
275.80	8.113
276.17	6.481
276.54	3.358
276.91	6.619
277.28	8.318
277.65	7.002
278.02	8.088
278.39	7.971
278.76	7.557
279.13	7.801
279.50	8.763
279.87	7.513
280.23	3.345
280.60	6.610
280.97	6.414
281.34	4.414
281.71	9.306
282.08	6.811
282.45	4.746
282.82	5.651
283.19	6.624
283.56	6.066
283.92	10.060
284.29	8.847
284.66	9.195
285.03	5.288
285.40	7.883
285.77	6.347
286.14	6.412
286.51	7.002
286.87	4.739
287.24	7.229
287.61	6.129
287.98	6.193
288.35	5.917
288.72	7.692
289.08	6.589
289.45	5.621
289.82	6.627
290.19	7.040
290.56	6.338
290.93	7.561
291.29	5.647
291.66	5.234
292.03	5.970
292.40	6.122
292.77	6.739
293.13	6.766
293.50	5.782
293.87	5.235
294.24	6.933
294.60	6.953
294.97	3.356
295.34	6.914
295.71	4.792
296.08	6.331
296.44	6.373
296.81	4.994
297.18	5.230
297.55	4.363
297.91	4.864
298.28	6.043
298.65	5.707
299.02	5.077
299.38	5.835
299.75	5.374
300.12	5.093
300.48	4.378
300.85	6.637
301.22	6.040
301.59	5.936
301.95	6.102
302.32	5.889
302.69	6.572
303.05	5.005
303.42	5.100
303.79	6.146
304.15	6.204
304.52	4.863
304.89	5.445
305.25	4.762
305.62	4.284
305.99	6.907
306.35	4.133
306.72	6.101
307.09	4.873
307.45	4.762
307.82	5.651
308.19	5.247
308.55	7.136
308.92	4.674
309.29	4.981
309.65	4.873
310.02	3.861
310.38	5.217
310.75	5.922
311.12	5.849
311.48	4.985
311.85	5.318
312.22	5.028
312.58	5.070
312.95	5.067
313.31	5.510
313.68	4.762
314.05	5.781
314.41	5.282
314.78	5.904
315.14	5.717
315.51	4.801
315.87	5.221
316.24	5.388
316.61	5.595
316.97	5.701
317.34	5.379
317.70	5.502
318.07	5.203
318.43	6.207
318.80	5.936
319.16	4.635
319.53	3.599
319.89	3.944
320.26	5.338
320.62	4.610
320.99	5.448
321.35	4.898
321.72	6.047
322.08	5.500
322.45	5.330
322.81	5.415
323.18	4.956
323.54	5.690
323.91	5.605
324.27	5.250
324.64	6.549
325.00	4.975
325.37	5.242
325.73	5.868
326.10	6.326
326.46	6.026
326.83	6.405
327.19	5.433
327.56	6.245
327.92	5.507
328.29	4.758
328.65	5.863
329.01	6.091
329.38	5.981
329.74	7.277
330.11	6.164
330.47	5.560
330.84	5.168
331.20	7.417
331.56	4.679
331.93	4.854
332.29	5.847
332.66	5.648
333.02	5.360
333.38	5.369
333.75	5.135
334.11	5.505
334.48	5.858
334.84	6.117
335.20	4.534
335.57	6.492
335.93	6.033
336.29	4.992
336.66	5.971
337.02	6.104
337.38	6.378
337.75	5.785
338.11	5.551
338.47	4.880
338.84	5.245
339.20	5.223
339.56	5.354
339.93	5.583
340.29	5.636
340.65	4.947
341.02	6.464
341.38	6.791
341.74	4.762
342.11	5.551
342.47	4.686
342.83	4.992
343.20	6.051
343.56	4.972
343.92	4.804
344.28	5.703
344.65	6.279
345.01	5.148
345.37	5.599
345.73	4.910
346.10	6.240
346.46	4.351
346.82	5.243
347.19	5.577
347.55	6.070
347.91	5.423
348.27	5.159
348.63	7.007
349.00	4.922
349.36	5.502
349.72	5.283
350.08	5.052
350.45	4.411
350.81	4.751
351.17	5.038
351.53	5.231
351.89	5.771
352.26	4.776
352.62	5.373
352.98	5.267
353.34	4.780
353.70	4.931
354.07	5.440
354.43	5.239
354.79	5.161
355.15	5.372
355.51	5.629
355.87	5.011
356.24	5.475
356.60	5.026
356.96	5.411
357.32	4.461
357.68	5.271
358.04	4.940
358.40	4.552
358.77	5.409
359.13	4.210
359.49	4.089
359.85	4.569
360.21	5.380
360.57	4.666
360.93	5.571
361.29	5.263
361.66	5.576
362.02	5.358
362.38	4.287
362.74	4.190
363.10	5.433
363.46	5.125
363.82	4.830
364.18	4.645
364.54	5.463
364.90	5.686
365.26	3.724
365.62	5.267
365.98	4.561
366.35	5.168
366.71	4.490
367.07	4.939
367.43	5.515
367.79	5.242
368.15	5.619
368.51	5.074
368.87	4.768
369.23	5.000
369.59	4.850
369.95	4.462
370.31	4.524
370.67	4.470
371.03	4.986
371.39	4.097
371.75	4.470
372.11	4.607
372.47	4.875
372.83	4.516
373.19	5.337
373.55	5.285
373.91	4.090
374.27	5.045
374.63	4.533
374.99	4.443
375.35	5.390
375.71	5.032
376.07	4.713
376.42	4.345
376.78	5.780
377.14	4.429
377.50	4.807
377.86	5.850
378.22	4.731
378.58	4.994
378.94	4.225
379.30	4.979
379.66	4.762
380.02	4.847
380.38	5.300
380.74	5.183
381.09	4.239
381.45	4.659
381.81	5.738
382.17	4.810
382.53	4.269
382.89	4.910
383.25	4.982
383.61	4.282
383.97	4.417
384.32	4.665
384.68	4.118
385.04	4.858
385.40	5.068
385.76	4.513
386.12	4.309
386.48	4.882
386.83	5.483
387.19	4.171
387.55	3.462
387.91	4.224
388.27	5.139
388.62	4.410
388.98	4.794
389.34	5.127
389.70	4.939
390.06	4.559
390.42	4.096
390.77	4.696
391.13	4.636
391.49	4.831
391.85	4.485
392.20	4.923
392.56	5.021
392.92	5.071
393.28	4.920
393.64	4.637
393.99	5.578
394.35	5.315
394.71	5.449
395.07	4.072
395.42	4.683
395.78	5.789
396.14	4.813
396.50	4.513
396.85	4.830
397.21	4.497
397.57	4.888
397.92	5.040
398.28	4.563
398.64	4.748
399.00	4.241
399.35	4.450
399.71	4.674
400.07	4.492
400.42	5.122
400.78	4.109
401.14	5.635
401.49	4.548
401.85	4.535
402.21	4.693
402.57	5.047
402.92	4.492
403.28	4.742
403.63	3.938
403.99	4.929
404.35	4.207
404.70	4.873
405.06	4.783
405.42	3.864
405.77	4.635
406.13	4.970
406.49	4.673
406.84	4.321
407.20	4.584
407.55	4.664
407.91	3.708
408.27	4.181
408.62	4.479
408.98	4.643
409.34	3.988
409.69	4.512
410.05	4.455
410.40	5.046
410.76	5.160
411.11	4.851
411.47	4.853
411.83	4.409
412.18	4.880
412.54	4.801
412.89	5.180
413.25	4.458
413.60	4.595
413.96	4.837
414.31	5.326
414.67	4.234
415.03	4.862
415.38	4.918
415.74	4.765
416.09	5.120
416.45	4.822
416.80	4.468
417.16	4.725
417.51	5.044
417.87	5.089
418.22	4.790
418.58	4.647
418.93	5.530
419.29	4.809
419.64	4.562
420.00	4.451
420.35	4.716
420.71	5.227
421.06	4.600
421.42	4.759
421.77	3.877
422.12	5.021
422.48	4.506
422.83	4.874
423.19	5.252
423.54	4.757
423.90	5.135
424.25	5.227
424.61	4.305
424.96	4.668
425.31	5.467
425.67	4.079
426.02	4.759
426.38	4.305
426.73	4.520
427.09	5.767
427.44	4.478
427.79	4.809
428.15	4.509
428.50	4.888
428.85	4.420
429.21	5.851
429.56	4.886
429.92	4.816
430.27	4.482
430.62	5.178
430.98	5.017
431.33	5.083
431.68	5.077
432.04	5.130
432.39	4.928
432.74	4.452
433.10	5.030
433.45	4.682
433.80	5.311
434.16	5.630
434.51	5.139
434.86	5.429
435.22	4.463
435.57	4.776
435.92	5.342
436.28	4.778
436.63	4.697
436.98	5.207
437.34	4.397
437.69	5.394
438.04	5.130
438.39	4.710
438.75	4.815
439.10	6.131
439.45	5.422
439.81	5.198
440.16	4.558
440.51	5.574
440.86	4.614
441.22	5.305
441.57	4.717
441.92	5.335
442.27	5.404
442.63	5.166
442.98	5.283
443.33	5.366
443.68	5.897
444.03	6.021
444.39	5.502
444.74	5.513
445.09	4.916
445.44	5.269
445.79	5.795
446.15	5.139
446.50	5.013
446.85	5.739
447.20	4.981
447.55	5.701
447.91	4.869
448.26	5.338
448.61	5.048
448.96	6.277
449.31	5.037
449.66	4.466
450.02	5.485
450.37	5.221
450.72	4.844
451.07	5.182
451.42	4.910
451.77	4.280
452.12	5.530
452.47	5.823
452.83	5.349
453.18	5.954
453.53	5.055
453.88	5.356
454.23	5.311
454.58	5.456
454.93	4.976
455.28	6.020
455.63	4.946
455.98	5.587
456.34	4.947
456.69	5.467
457.04	4.905
457.39	5.543
457.74	5.369
458.09	4.942
458.44	5.442
458.79	5.570
459.14	5.506
459.49	5.093
459.84	5.614
460.19	4.609
460.54	5.451
460.89	5.558
461.24	4.655
461.59	5.811
461.94	4.450
462.29	5.431
462.64	4.949
462.99	5.712
463.34	6.100
463.69	5.158
464.04	5.781
464.39	5.493
464.74	5.245
465.09	4.729
465.44	4.936
465.79	5.605
466.14	5.472
466.49	5.053
466.84	4.848
467.19	5.029
467.54	4.524
467.89	5.977
468.24	5.319
468.59	4.922
468.94	4.720
469.29	5.399
469.64	5.022
469.99	5.290
470.34	5.012
470.68	4.921
471.03	5.501
471.38	5.101
471.73	4.811
472.08	5.838
472.43	5.479
472.78	5.982
473.13	4.425
473.48	5.982
473.83	6.036
474.17	5.510
474.52	5.111
474.87	5.316
475.22	5.634
475.57	5.348
475.92	5.326
476.27	5.218
476.61	4.725
476.96	5.214
477.31	5.644
477.66	5.876
478.01	4.982
478.36	5.284
478.70	5.123
479.05	5.675
479.40	5.183
479.75	5.620
480.10	4.879
480.45	5.971
480.79	5.896
481.14	5.285
481.49	5.270
481.84	5.614
482.19	5.806
482.53	5.466
482.88	5.538
483.23	5.825
483.58	5.459
483.92	4.965
484.27	5.631
484.62	5.487
484.97	5.599
485.31	5.702
485.66	5.077
486.01	5.134
486.36	5.158
486.70	5.299
487.05	5.685
487.40	5.851
487.75	6.132
488.09	5.635
488.44	5.703
488.79	5.497
489.13	5.467
489.48	5.359
489.83	5.352
490.17	4.901
490.52	5.747
490.87	5.668
491.22	5.849
491.56	6.015
491.91	5.408
492.26	5.495
492.60	5.815
492.95	5.353
493.30	5.648
493.64	5.344
493.99	5.965
494.34	5.183
494.68	5.310
495.03	5.110
495.37	5.726
495.72	5.170
496.07	5.960
496.41	5.577
496.76	5.755
497.11	5.053
497.45	5.136
497.80	5.820
498.14	5.805
498.49	5.239
498.84	5.347
499.18	5.803
499.53	5.067
499.87	5.495
500.22	5.076
500.56	4.633
500.91	5.217
501.26	5.591
501.60	5.479
501.95	5.515
502.29	5.178
502.64	5.553
502.98	5.953
503.33	5.572
503.67	4.623
504.02	5.342
504.36	5.898
504.71	5.420
505.06	5.912
505.40	4.982
505.75	6.239
506.09	5.755
506.44	5.153
506.78	6.147
507.13	5.625
507.47	5.874
507.82	5.019
508.16	5.545
508.51	5.016
508.85	5.479
509.19	5.353
509.54	6.100
509.88	5.585
510.23	5.585
510.57	5.607
510.92	5.902
511.26	5.580
511.61	5.408
511.95	5.124
512.30	6.155
512.64	5.597
512.98	5.353
513.33	5.847
513.67	5.354
514.02	5.212
514.36	5.473
514.70	5.521
515.05	5.683
515.39	5.827
515.74	6.204
516.08	5.441
516.42	6.227
516.77	5.468
517.11	5.467
517.46	5.673
517.80	5.879
518.14	5.876
518.49	6.128
518.83	6.014
519.17	5.600
519.52	6.813
519.86	5.861
520.20	6.550
520.55	5.586
520.89	5.687
521.23	5.695
521.58	6.271
521.92	5.722
522.26	5.842
522.61	5.208
522.95	5.652
523.29	5.977
523.64	6.054
523.98	6.902
524.32	6.533
524.66	5.862
525.01	5.436
525.35	5.974
525.69	5.626
526.04	5.568
526.38	5.862
526.72	5.825
527.06	6.393
527.41	6.297
527.75	5.641
528.09	5.549
528.43	5.684
528.78	5.549
529.12	6.193
529.46	5.565
529.80	5.892
530.15	5.971
530.49	5.279
530.83	5.608
531.17	5.914
531.51	6.438
531.86	6.550
532.20	6.037
532.54	5.984
532.88	6.485
533.22	6.011
533.57	6.982
533.91	6.510
534.25	5.936
534.59	5.115
534.93	6.735
535.27	6.535
535.62	7.106
535.96	5.811
536.30	6.404
536.64	6.847
536.98	6.273
537.32	5.802
537.66	6.363
538.01	6.224
538.35	6.334
538.69	6.731
539.03	6.438
539.37	6.184
539.71	5.946
540.05	5.815
540.39	5.685
540.73	6.193
541.07	6.438
541.42	6.025
541.76	6.109
542.10	6.152
542.44	6.882
542.78	6.995
543.12	6.496
543.46	6.471
543.80	6.055
544.14	6.583
544.48	6.738
544.82	6.643
545.16	5.963
545.50	5.692
545.84	5.818
546.18	7.037
546.52	5.860
546.86	6.730
547.20	5.852
547.54	6.492
547.88	5.907
548.22	6.550
548.56	7.080
548.90	5.910
549.24	6.018
549.58	6.120
549.92	5.995
550.26	6.731
550.60	6.828
550.94	6.856
551.28	6.403
551.62	6.806
551.96	6.019
552.30	6.756
552.64	6.534
552.98	6.114
553.32	6.174
553.66	5.723
554.00	6.747
554.34	6.950
554.68	5.939
555.02	6.570
555.36	7.035
555.69	6.406
556.03	5.801
556.37	6.446
556.71	6.912
557.05	6.454
557.39	5.640
557.73	6.737
558.07	6.358
558.41	6.113
558.75	6.153
559.08	6.611
559.42	6.859
559.76	7.259
560.10	6.497
560.44	5.805
560.78	6.625
561.12	6.650
561.45	5.961
561.79	6.349
562.13	6.839
562.47	6.473
562.81	6.456
563.15	6.881
563.48	6.961
563.82	6.771
564.16	5.754
564.50	6.734
564.84	5.782
565.17	6.000
565.51	6.157
565.85	6.532
566.19	6.106
566.52	6.144
566.86	5.942
567.20	5.927
567.54	6.107
567.88	6.371
568.21	6.077
568.55	6.043
568.89	6.310
569.23	6.675
569.56	5.862
569.90	6.201
570.24	6.037
570.57	5.869
570.91	6.032
571.25	6.393
571.59	5.984
571.92	5.970
572.26	5.956
572.60	5.979
572.93	6.262
573.27	6.041
573.61	6.326
573.95	6.312
574.28	6.050
574.62	6.162
574.96	5.602
575.29	5.728
575.63	6.122
575.97	6.132
576.30	6.168
576.64	6.108
576.98	5.991
577.31	6.001
577.65	6.191
577.98	6.024
578.32	6.086
578.66	5.974
578.99	6.349
579.33	5.936
579.67	6.120
580.00	5.844
580.34	6.326
580.67	6.024
581.01	6.036
581.35	5.903
581.68	5.803
582.02	5.896
582.35	6.264
582.69	6.038
583.02	5.887
583.36	6.572
583.70	5.999
584.03	6.144
584.37	6.073
584.70	6.235
585.04	6.185
585.37	5.966
585.71	5.782
586.04	6.077
586.38	6.035
586.72	5.540
587.05	5.782
587.39	5.934
587.72	5.909
588.06	5.875
588.39	6.000
588.73	5.926
589.06	6.208
589.40	6.023
589.73	6.202
590.07	6.233
590.40	6.322
590.73	6.363
591.07	6.069
591.40	6.065
591.74	6.002
592.07	6.253
592.41	5.284
592.74	5.893
593.08	6.592
593.41	6.183
593.75	5.805
594.08	5.847
594.41	5.962
594.75	5.712
595.08	5.653
595.42	6.494
595.75	5.747
596.09	6.303
596.42	6.306
596.75	6.059
597.09	6.182
597.42	5.801
597.75	6.194
598.09	6.825
598.42	6.433
598.76	5.808
599.09	6.266
599.42	5.732
599.76	5.810
600.09	6.106
600.42	6.106
600.76	6.044
601.09	5.742
601.42	5.733
601.76	6.138
602.09	5.754
602.42	5.961
602.76	6.015
603.09	5.580
603.42	5.636
603.76	5.708
604.09	6.565
604.42	5.761
604.76	5.708
605.09	6.183
605.42	6.220
605.75	5.769
606.09	5.599
606.42	5.509
606.75	5.622
607.09	5.453
607.42	6.243
607.75	6.174
608.08	5.762
608.42	5.522
608.75	5.970
609.08	6.070
609.41	5.646
609.75	5.536
610.08	5.761
610.41	6.032
610.74	5.672
611.07	5.906
611.41	6.278
611.74	6.097
612.07	5.937
612.40	5.798
612.73	6.015
613.07	5.917
613.40	6.064
613.73	5.826
614.06	5.790
614.39	6.025
614.72	5.580
615.06	5.823
615.39	6.138
615.72	6.351
616.05	5.634
616.38	6.155
616.71	6.008
617.05	5.751
617.38	6.367
617.71	6.263
618.04	6.476
618.37	6.230
618.70	6.505
619.03	5.615
619.36	5.919
619.69	6.406
620.03	5.524
620.36	5.644
620.69	5.737
621.02	6.824
621.35	5.298
621.68	7.520
622.01	5.552
622.34	5.579
622.67	5.842
623.00	4.588
623.33	6.304
623.66	5.966
623.99	5.201
624.32	6.368
624.65	5.792
624.99	6.112
625.32	5.813
625.65	4.855
625.98	5.017
626.31	5.741
626.64	6.447
626.97	5.851
627.30	4.860
627.63	5.401
627.96	6.682
628.29	6.148
628.62	5.961
628.95	5.259
629.28	6.372
629.61	5.724
629.94	5.439
630.26	4.407
630.59	5.613
630.92	5.541
631.25	6.440
631.58	5.932
631.91	7.029
632.24	6.244
632.57	6.167
632.90	4.814
633.23	6.122
633.56	6.020
633.89	4.855
634.22	6.341
634.55	5.324
634.88	4.545
635.20	7.750
635.53	5.650
635.86	6.176
636.19	6.681
636.52	4.641
636.85	5.516
637.18	5.821
637.51	4.731
637.83	6.312
638.16	4.954
638.49	5.282
638.82	5.862
639.15	6.186
639.48	6.582
639.81	6.120
640.13	6.478
640.46	5.576
640.79	6.005
641.12	5.714
641.45	5.646
641.77	7.317
642.10	5.249
642.43	5.984
642.76	6.504
643.09	4.795
643.41	4.902
643.74	5.655
644.07	5.931
644.40	5.233
644.73	5.225
645.05	6.021
645.38	6.475
645.71	5.572
646.04	7.317
646.36	4.672
646.69	5.215
647.02	6.422
647.35	5.802
647.67	5.797
648.00	5.414
648.33	6.156
648.66	5.563
648.98	5.034
649.31	5.413
649.64	6.906
649.96	5.836
650.29	3.338
650.62	6.931
650.94	3.604
651.27	4.042
651.60	5.409
651.92	5.015
652.25	6.657
652.58	6.327
652.90	3.634
653.23	5.915
653.56	5.278
653.88	7.163
654.21	5.634
654.54	6.358
654.86	5.949
655.19	5.395
655.52	5.986
655.84	4.864
656.17	5.836
656.49	8.157
656.82	9.468
657.15	7.749
657.47	6.496
657.80	4.724
658.13	3.918
658.45	5.153
658.78	6.935
659.10	6.464
659.43	6.194
659.75	6.688
660.08	6.218
660.41	6.452
660.73	5.131
661.06	4.699
661.38	5.901
661.71	5.172
662.03	5.996
662.36	7.692
662.68	5.253
663.01	4.071
663.33	4.915
663.66	7.143
663.98	5.577
664.31	5.441
664.63	2.312
664.96	6.171
665.28	5.263
665.61	7.517
665.93	3.214
666.26	5.735
666.58	2.399
666.91	5.047
667.23	7.429
667.56	5.128
667.88	5.800
668.21	5.664
668.53	4.826
668.86	6.483
669.18	2.444
669.50	4.573
669.83	3.800
670.15	4.331
670.48	6.349
670.80	4.780
671.13	3.781
671.45	3.937
671.77	6.780
672.10	5.000
672.42	4.045
672.75	4.762
673.07	4.776
673.39	4.160
673.72	5.034
674.04	5.862
674.37	6.440
674.69	6.349
675.01	4.000
675.34	4.771
675.66	5.056
675.98	7.090
676.31	6.641
676.63	7.224
676.95	8.238
677.28	5.847
677.60	2.559
677.92	4.798
678.25	5.850
678.57	6.050
678.89	6.143
679.22	3.833
679.54	5.299
679.86	3.559
680.18	4.809
680.51	5.189
680.83	5.237
681.15	5.172
681.48	5.872
681.80	6.908
682.12	6.643
682.44	7.513
682.77	5.142
683.09	5.492
683.41	6.202
683.73	6.072
684.06	5.720
684.38	3.757
684.70	7.181
685.02	5.508
685.34	4.326
685.67	4.101
685.99	6.135
686.31	3.924
686.63	5.529
686.96	6.940
687.28	3.909
687.60	3.535
687.92	6.431
688.24	5.676
688.56	3.966
688.89	5.445
689.21	7.045
689.53	3.725
689.85	3.945
690.17	4.444
690.49	5.179
690.82	6.337
691.14	2.834
691.46	6.119
691.78	4.788
692.10	4.220
692.42	3.214
692.74	5.263
693.06	3.148
693.39	3.985
693.71	4.699
694.03	6.506
694.35	4.952
694.67	5.749
694.99	5.106
695.31	4.857
695.63	7.143
695.95	3.934
696.27	4.615
696.59	7.080
696.91	5.631
697.23	7.253
697.56	3.666
697.88	5.303
698.20	6.215
698.52	8.712
698.84	5.821
699.16	8.367
699.48	5.021
699.80	4.681
700.12	5.677
700.44	4.378
700.76	5.938
701.08	5.569
701.40	5.181
701.72	3.980
702.04	5.882
702.36	3.403
702.68	4.645
703.00	4.645
703.32	5.172
703.64	3.912
703.96	3.103
704.28	4.177
704.60	6.329
704.91	2.806
705.23	5.479
705.55	3.064
705.87	3.333
706.19	4.294
706.51	3.313
706.83	2.017
707.15	0.794
707.47	5.607
707.79	5.895
708.11	5.508
708.43	3.011
708.74	0.893
709.06	4.872
709.38	6.103
709.70	5.211
710.02	5.685
710.34	6.383
710.66	1.117
710.98	4.645
711.29	3.297
711.61	5.367
711.93	4.843
712.25	3.784
712.57	6.195
712.89	5.294
713.20	4.438
713.52	4.913
713.84	5.292
714.16	5.263
714.48	4.639
714.80	7.013
715.11	3.675
715.43	2.918
715.75	5.000
716.07	3.039
716.39	5.738
716.70	2.711
717.02	7.213
717.34	1.742
717.66	3.356
717.97	2.055
718.29	2.405
718.61	2.632
718.93	6.796
719.24	4.348
719.56	4.908
719.88	4.505
720.20	4.839
720.51	5.901
720.83	5.313
721.15	2.632
721.46	0.342
721.78	6.000
722.10	3.560
722.42	0.000
722.73	4.839
723.05	4.211
723.37	3.125
723.68	7.527
724.00	5.054
724.32	3.521
724.63	3.147
724.95	6.738
725.27	4.530
725.58	1.060
725.90	5.172
726.22	4.702
726.53	6.169
726.85	8.491
727.16	4.834
727.48	6.728
727.80	4.636
728.11	2.473
728.43	7.071
728.74	2.676
729.06	4.967
729.38	5.844
729.69	2.013
730.01	6.548
730.32	2.727
730.64	5.346
730.96	0.000
731.27	4.749
731.59	4.396
731.90	4.416
732.22	-0.260
732.53	1.381
732.85	5.429
733.16	4.399
733.48	1.829
733.80	3.621
734.11	3.134
734.43	5.135
734.74	8.608
735.06	3.769
735.37	3.784
735.69	4.324
736.00	2.542
736.32	5.660
736.63	4.444
736.95	2.299
737.26	1.515
737.58	3.333
737.89	7.941
738.21	3.670
738.52	3.607
738.83	4.778
739.15	2.837
739.46	5.782
739.78	5.215
740.09	4.871
740.41	6.122
740.72	5.667
741.04	6.472
741.35	3.509
741.66	3.137
741.98	1.639
742.29	0.418
742.61	6.140
742.92	2.692
743.23	6.137
743.55	6.589
743.86	1.600
744.18	-3.719
744.49	2.532
744.80	2.058
745.12	4.641
745.43	6.098
745.74	2.155
746.06	5.085
746.37	6.751
746.68	6.911
747.00	0.833
747.31	5.579
747.62	6.923
747.94	6.478
748.25	2.410
748.56	0.816
748.88	4.701
749.19	5.603
749.50	3.896
749.82	2.811
750.13	3.559
750.44	-0.333
750.75	1.538
751.07	2.462
751.38	2.208
751.69	3.195
752.01	0.000
752.32	2.614
752.63	5.442
752.94	3.806
753.26	-1.859
753.57	0.741
753.88	0.749
754.19	3.215
754.51	3.215
754.82	5.788
755.13	9.180
755.44	3.072
755.75	4.605
756.07	6.866
756.38	3.774
756.69	2.711
757.00	0.277
757.31	1.913
757.63	3.325
757.94	3.756
758.25	5.643
758.56	4.793
758.87	6.591
759.18	3.200
759.50	2.550
759.81	5.882
760.12	4.043
760.43	2.344
760.74	5.419
761.05	2.750
761.36	3.133
761.67	3.553
761.99	1.892
762.30	2.134
762.61	3.960
762.92	2.985
763.23	6.742
763.54	3.237
763.85	4.467
764.16	7.071
764.47	5.986
764.78	4.153
765.10	2.053
765.41	7.436
765.72	0.794
766.03	4.802
766.34	3.448
766.65	-0.697
766.96	1.992
767.27	-0.461
767.58	-0.498
767.89	10.577
768.20	5.164
768.51	2.778
768.82	2.410
769.13	4.545
769.44	0.385
769.75	6.137
770.06	5.769
770.37	7.087
770.68	-0.851
770.99	-0.405
771.30	10.000
771.61	4.563
771.92	-0.741
772.23	4.453
772.54	-1.852
772.85	7.834
773.16	8.095
773.47	-2.116
773.78	-4.324
774.09	1.705
774.39	8.000
774.70	13.661
775.01	-2.439
775.32	0.000
775.63	6.748
775.94	1.274
776.25	6.452
776.56	3.846
776.87	6.803
777.18	4.138
777.48	0.699
777.79	5.405
778.10	2.941
778.41	4.167
778.72	6.897
779.03	-1.852
779.34	4.242
779.65	10.363
779.95	2.778
780.26	3.977
780.57	3.871
780.88	10.145
781.19	-1.290
781.50	9.412
781.80	5.376
782.11	6.878
782.42	8.081
782.73	1.198
783.04	3.352
783.34	4.242
783.65	-3.922
783.96	0.621
784.27	1.786
784.57	1.325
784.88	-0.714
785.19	4.724
785.50	0.000
785.81	3.008
786.11	3.846
786.42	0.719
786.73	2.158
787.04	3.008
787.34	5.738
787.65	-0.800
787.96	-1.493
788.26	8.392
788.57	8.392
788.88	0.000
789.19	7.190
789.49	2.740
789.80	3.546
790.11	4.724
790.41	-1.562
790.72	-1.695
791.03	-6.796
791.33	2.609
791.64	7.018
791.95	0.000
792.25	-2.857
792.56	2.679
792.87	-5.208
793.17	8.036
793.48	-3.125
793.79	-7.229
794.09	-6.422
794.40	1.835
794.70	2.721
795.01	0.000
795.32	1.370
795.62	-2.817
795.93	0.000
796.23	2.459
796.54	6.250
796.85	4.255
797.15	4.348
797.46	5.479
797.76	-7.500
798.07	-8.696
798.37	-7.216
798.68	7.792
798.99	-4.598
799.29	5.618
799.60	4.255
799.90	6.024
800.21	-3.077
800.51	-11.940
800.82	-16.176
801.12	-5.479
801.43	-14.706
801.73	-1.695
802.04	13.636
802.34	-11.667
802.65	-10.169
802.95	5.970
803.26	-3.390
803.56	4.110
803.87	-4.286
804.17	-1.370
804.48	-14.035
804.78	-2.778
805.09	-3.448
805.39	-2.703
805.70	-15.493
806.00	4.878
806.30	2.410
806.61	-2.740
806.91	9.615
807.22	3.333
807.52	-14.943
807.83	8.333
808.13	13.253
808.43	7.865
808.74	-2.500
809.04	-13.235
809.35	-6.667
809.65	-4.286
809.95	-4.110
810.26	-22.807
810.56	0.000
810.86	11.765
811.17	-12.281
811.47	-14.754
811.77	-22.222
812.08	-23.729
812.38	-11.667
812.69	0.000
812.99	-24.528
813.29	-35.897
813.59	2.000
813.90	-1.754
814.20	-3.636
814.50	18.310
814.81	16.667
815.11	0.000
815.41	5.970
815.72	5.172
816.02	7.143
816.32	17.778
816.62	-13.636
816.93	-6.667
817.23	9.259
817.53	-10.638
817.84	0.000
818.14	-8.824
818.44	4.082
818.74	-6.667
819.04	-15.385
819.35	-11.429
819.65	-69.231
819.95	-11.321
820.25	-8.889
820.56	4.762
820.86	-31.250
821.16	-20.513
821.46	-16.279
821.76	-4.000
822.07	-1.786
822.37	-19.565
822.67	0.000
822.97	-32.432
823.27	-22.500
823.57	4.082
823.88	17.778
824.18	-12.500
824.48	-33.333
824.78	-28.000
825.08	-12.121
825.38	17.778
825.69	23.404
825.99	-30.556
826.29	-42.857
826.59	2.564
826.89	-16.279
827.19	8.000
827.49	-14.706
827.79	18.750
828.09	-21.622
828.39	-13.333
828.70	-4.878
829.00	-4.651
829.30	-32.143
829.60	-11.765
829.90	-10.870
830.20	-31.429
830.50	-37.931
830.80	-44.444
831.10	-23.077
831.40	0.000
831.70	-4.762
832.00	9.677
832.30	-82.353
832.60	-25.000
832.90	-46.154
833.20	-42.105
833.50	-15.000
833.80	-47.368
834.10	-123.810
834.40	8.333
834.70	12.500
835.00	-11.429
835.30	-11.765
835.60	-46.667
835.90	-12.000
836.20	-50.000
836.50	12.000
836.80	-33.333
837.10	-22.222
837.40	-22.222
837.70	-131.250
838.00	-3.571
838.30	-13.043
838.60	10.345
838.90	-50.000
839.19	-86.957
839.49	-16.667
839.79	13.043
840.09	-31.250
840.39	-30.000
840.69	-22.581
840.99	-42.857
841.29	-20.000
841.59	-47.368
841.88	7.692
842.18	-46.154
842.48	-70.000
842.78	5.000
843.08	-6.667
843.38	9.677
843.68	-33.333
843.97	11.765
844.27	-25.000
844.57	-63.158
844.87	-60.000
845.17	-46.667
845.47	19.048
845.76	-47.619
846.06	-88.889
846.36	-47.059
846.66	7.692
846.96	-60.000
847.25	-41.176
847.55	34.783
847.85	-40.000
848.15	5.882
848.44	-45.455
848.74	4.762
849.04	-41.667
849.34	-81.250
849.63	-34.783
849.93	450.000
850.23	6.667
850.53	30.769
850.82	-100.000
851.12	40.909
851.42	-9.091
851.71	15.385
852.01	-45.000
852.31	53.846
852.61	-15.789
852.90	-33.333
853.20	22.222
853.50	-133.333
853.79	-33.333
854.09	0.000
854.39	-100.000
854.68	-16.129
854.98	-15.385
855.28	-61.111
855.57	-10.714
855.87	-8.000
856.17	-36.364
856.46	-29.630
856.76	-50.000
857.05	-34.783
857.35	-37.500
857.65	7.692
857.94	33.333
858.24	11.111
858.53	-13.043
858.83	-29.412
859.13	17.647
859.42	-41.176
859.72	0.000
860.01	25.000
860.31	-100.000
860.60	20.000
860.90	13.333
861.20	-33.333
861.49	7.692
861.79	6.667
862.08	-23.077
862.38	-12.500
862.67	5.882
862.97	25.000
863.26	-66.667
863.56	40.000
863.85	-154.545
864.15	-22.222
864.44	-33.333
864.74	-42.857
865.03	-31.250
865.33	-110.000
865.62	-3.226
865.92	59.091
866.21	26.087
866.51	-35.714
866.80	-200.000
867.10	-66.667
867.39	-108.333
867.69	1500.000
867.98	42.857
868.27	0.000
868.57	-2200.000
868.86	-110.000
869.16	-66.667
869.45	-8.333
869.75	-18.182
870.04	-85.714
870.33	-8.333
870.63	-257.143
870.92	-125.000
871.22	-225.000
871.51	-145.455
871.80	-600.000
872.10	-650.000
>>>>>End Processed Spectral Data<<<<<
