SpectraSuite Data File
++++++++++++++++++++++++++++++++++++
Date: Thu May 14 16:28:57 PDT 2015
User: schluterlab
Dark Spectrum Present: Yes
Reference Spectrum Present: Yes
Number of Sampled Component Spectra: 1
Spectrometers: USB2E3373
Integration Time (usec): 3000 (USB2E3373)
Spectra Averaged: 3 (USB2E3373)
Boxcar Smoothing: 0 (USB2E3373)
Correct for Electrical Dark: No (USB2E3373)
Strobe/Lamp Enabled: No (USB2E3373)
Correct for Detector Non-linearity: No (USB2E3373)
Correct for Stray Light: No (USB2E3373)
Number of Pixels in Processed Spectrum: 2048
>>>>>Begin Processed Spectral Data<<<<<
178.53	0.000
178.91	-0.000
179.29	-400.000
179.67	-300.000
180.04	107.143
180.42	10.000
180.80	80.000
181.18	-200.000
181.56	300.000
181.94	-125.000
182.31	25.000
182.69	-33.333
183.07	250.000
183.45	50.000
183.83	33.333
184.20	233.333
184.58	-400.000
184.96	0.000
185.34	-22.222
185.72	-20.000
186.09	166.667
186.47	450.000
186.85	160.000
187.23	-122.222
187.61	-600.000
187.98	160.000
188.36	-25.000
188.74	-25.000
189.12	133.333
189.49	37.500
189.87	50.000
190.25	-44.444
190.63	80.000
191.00	-66.667
191.38	0.000
191.76	-325.000
192.14	50.000
192.51	350.000
192.89	183.333
193.27	0.000
193.65	-57.143
194.02	-1200.000
194.40	142.857
194.78	128.571
195.15	0.000
195.53	-45.455
195.91	0.000
196.29	100.000
196.66	7.692
197.04	-300.000
197.42	71.429
197.79	0.000
198.17	75.000
198.55	-85.714
198.92	155.556
199.30	50.000
199.68	54.545
200.05	57.143
200.43	50.000
200.81	157.143
201.18	0.000
201.56	77.778
201.94	0.000
202.31	333.333
202.69	-88.889
203.07	-1000.000
203.44	66.667
203.82	125.000
204.19	-16.667
204.57	0.000
204.95	-62.500
205.32	200.000
205.70	-200.000
206.08	150.000
206.45	83.333
206.83	280.000
207.20	50.000
207.58	-160.000
207.96	-83.333
208.33	150.000
208.71	-16.667
209.08	233.333
209.46	0.000
209.84	100.000
210.21	-50.000
210.59	-600.000
210.96	200.000
211.34	0.000
211.71	-75.000
212.09	-800.000
212.46	0.000
212.84	350.000
213.22	-100.000
213.59	-175.000
213.97	30.000
214.34	-66.667
214.72	16.667
215.09	-100.000
215.47	0.000
215.84	71.429
216.22	150.000
216.59	20.000
216.97	-100.000
217.34	0.000
217.72	25.000
218.09	-25.000
218.47	-175.000
218.84	0.000
219.22	60.000
219.59	23.529
219.97	65.000
220.34	450.000
220.72	11.111
221.09	61.538
221.47	-233.333
221.84	30.000
222.22	-57.143
222.59	0.000
222.97	-50.000
223.34	-140.000
223.72	-600.000
224.09	-200.000
224.46	-50.000
224.84	60.000
225.21	-28.571
225.59	-175.000
225.96	-75.000
226.34	26.923
226.71	300.000
227.08	-150.000
227.46	40.000
227.83	25.000
228.21	15.789
228.58	-62.500
228.95	350.000
229.33	8.333
229.70	-20.000
230.08	15.789
230.45	80.000
230.82	33.333
231.20	0.000
231.57	50.000
231.95	-18.182
232.32	109.091
232.69	-15.000
233.07	200.000
233.44	41.176
233.81	-40.000
234.19	38.889
234.56	9.091
234.93	24.138
235.31	21.053
235.68	33.333
236.05	-95.000
236.43	30.769
236.80	48.000
237.17	-3.704
237.55	3.030
237.92	-60.000
238.29	-22.581
238.67	-4.545
239.04	-8.333
239.41	9.524
239.79	-19.565
240.16	14.815
240.53	-6.522
240.91	-11.765
241.28	-4.918
241.65	10.448
242.02	10.811
242.40	-12.308
242.77	-14.667
243.14	-1.220
243.51	-6.579
243.89	-21.795
244.26	-2.970
244.63	0.980
245.00	-2.804
245.38	-8.772
245.75	-13.274
246.12	-3.968
246.49	-9.302
246.87	0.714
247.24	3.311
247.61	4.605
247.98	1.342
248.36	-2.469
248.73	-3.681
249.10	2.186
249.47	7.463
249.84	5.236
250.22	-2.591
250.59	2.222
250.96	2.727
251.33	-7.653
251.70	5.556
252.08	1.250
252.45	1.230
252.82	-0.826
253.19	-1.563
253.56	-2.662
253.94	0.385
254.31	0.758
254.68	2.448
255.05	2.280
255.42	3.401
255.79	-0.647
256.16	-0.662
256.54	-3.311
256.91	0.656
257.28	2.295
257.65	-0.637
258.02	-3.245
258.39	1.425
258.76	4.281
259.14	2.299
259.51	-1.729
259.88	0.000
260.25	1.111
260.62	-0.274
260.99	3.825
261.36	2.949
261.73	-2.387
262.10	0.000
262.47	0.268
262.85	2.273
263.22	-2.857
263.59	-2.632
263.96	1.790
264.33	-2.302
264.70	0.494
265.07	2.625
265.44	3.855
265.81	-1.852
266.18	1.587
266.55	1.562
266.92	-0.228
267.29	1.751
267.66	1.552
268.03	0.655
268.40	0.835
268.77	-0.683
269.14	-1.982
269.51	-0.877
269.88	1.844
270.25	1.408
270.62	1.688
270.99	2.222
271.36	1.584
271.73	0.393
272.10	0.000
272.47	-1.202
272.84	-0.602
273.21	-0.802
273.58	2.016
273.95	0.000
274.32	-0.951
274.69	-1.161
275.06	2.015
275.43	-0.924
275.80	0.705
276.17	-2.222
276.54	-1.119
276.91	-0.894
277.28	-0.362
277.65	1.975
278.02	-0.551
278.39	0.725
278.76	1.230
279.13	-0.887
279.50	1.890
279.87	2.862
280.23	-1.761
280.60	0.000
280.97	0.164
281.34	-2.037
281.71	1.692
282.08	-1.329
282.45	0.655
282.82	0.628
283.19	-0.969
283.56	-0.164
283.92	3.153
284.29	1.580
284.66	2.135
285.03	-0.481
285.40	1.082
285.77	-0.774
286.14	1.374
286.51	-0.457
286.87	0.000
287.24	0.753
287.61	-0.149
287.98	-1.208
288.35	-0.296
288.72	-1.183
289.08	1.025
289.45	0.444
289.82	-0.602
290.19	1.437
290.56	0.563
290.93	-0.428
291.29	0.413
291.66	-0.689
292.03	0.136
292.40	1.633
292.77	0.539
293.13	1.218
293.50	-0.920
293.87	-0.805
294.24	1.333
294.60	1.138
294.97	0.940
295.34	2.561
295.71	-0.252
296.08	-0.646
296.44	0.613
296.81	1.827
297.18	-0.498
297.55	-0.118
297.91	1.423
298.28	-0.355
298.65	1.546
299.02	1.535
299.38	1.487
299.75	1.051
300.12	-0.231
300.48	-0.230
300.85	0.562
301.22	1.678
301.59	1.256
301.95	1.921
302.32	0.444
302.69	0.876
303.05	1.415
303.42	1.552
303.79	1.562
304.15	1.788
304.52	1.586
304.89	1.361
305.25	2.381
305.62	1.881
305.99	2.784
306.35	1.915
306.72	2.378
307.09	1.117
307.45	2.381
307.82	2.926
308.19	2.018
308.55	2.314
308.92	3.408
309.29	3.544
309.65	2.047
310.02	1.683
310.38	1.969
310.75	2.621
311.12	4.602
311.48	3.128
311.85	4.084
312.22	2.941
312.58	2.441
312.95	3.537
313.31	4.155
313.68	4.487
314.05	5.149
314.41	5.191
314.78	4.360
315.14	5.172
315.51	6.002
315.87	6.031
316.24	6.301
316.61	7.460
316.97	6.425
317.34	6.349
317.70	7.511
318.07	7.055
318.43	7.993
318.80	8.946
319.16	7.725
319.53	8.055
319.89	8.414
320.26	8.719
320.62	8.511
320.99	9.603
321.35	10.721
321.72	11.442
322.08	11.452
322.45	11.292
322.81	11.011
323.18	11.858
323.54	13.362
323.91	11.744
324.27	13.253
324.64	14.274
325.00	13.433
325.37	15.152
325.73	14.298
326.10	15.896
326.46	16.612
326.83	16.974
327.19	17.008
327.56	17.154
327.92	15.657
328.29	17.097
328.65	16.248
329.01	18.359
329.38	19.461
329.74	19.178
330.11	19.435
330.47	18.955
330.84	18.088
331.20	19.833
331.56	18.977
331.93	19.749
332.29	19.068
332.66	19.518
333.02	18.760
333.38	19.295
333.75	20.539
334.11	19.850
334.48	21.287
334.84	21.580
335.20	20.655
335.57	21.248
335.93	21.157
336.29	18.885
336.66	21.699
337.02	20.569
337.38	21.854
337.75	20.992
338.11	22.288
338.47	22.084
338.84	21.066
339.20	20.640
339.56	21.582
339.93	21.182
340.29	21.739
340.65	20.762
341.02	23.224
341.38	23.605
341.74	20.985
342.11	22.767
342.47	21.048
342.83	22.866
343.20	22.322
343.56	22.534
343.92	22.738
344.28	22.266
344.65	24.186
345.01	21.607
345.37	22.084
345.73	22.214
346.10	23.479
346.46	22.547
346.82	23.071
347.19	23.453
347.55	22.534
347.91	22.883
348.27	22.838
348.63	23.991
349.00	23.043
349.36	22.825
349.72	23.065
350.08	23.923
350.45	23.650
350.81	23.152
351.17	23.008
351.53	23.958
351.89	22.855
352.26	23.881
352.62	23.657
352.98	23.435
353.34	23.600
353.70	24.268
354.07	23.770
354.43	23.918
354.79	23.859
355.15	23.620
355.51	24.415
355.87	24.233
356.24	24.563
356.60	23.947
356.96	23.870
357.32	23.941
357.68	23.060
358.04	24.251
358.40	24.104
358.77	24.269
359.13	24.077
359.49	23.420
359.85	24.946
360.21	24.103
360.57	24.121
360.93	24.260
361.29	24.070
361.66	24.692
362.02	25.539
362.38	23.963
362.74	24.930
363.10	25.378
363.46	24.654
363.82	24.929
364.18	25.545
364.54	25.173
364.90	24.749
365.26	24.966
365.62	24.867
365.98	25.800
366.35	26.242
366.71	25.510
367.07	25.034
367.43	24.951
367.79	25.946
368.15	26.154
368.51	25.507
368.87	25.343
369.23	25.600
369.59	26.093
369.95	25.355
370.31	26.063
370.67	25.516
371.03	26.454
371.39	24.849
371.75	25.516
372.11	25.474
372.47	25.118
372.83	26.309
373.19	26.217
373.55	26.152
373.91	24.813
374.27	25.032
374.63	25.575
374.99	25.729
375.35	25.649
375.71	25.484
376.07	26.017
376.42	25.441
376.78	26.911
377.14	25.764
377.50	26.629
377.86	26.601
378.22	26.707
378.58	25.803
378.94	25.763
379.30	25.952
379.66	27.337
380.02	26.717
380.38	26.786
380.74	26.028
381.09	26.307
381.45	26.250
381.81	28.220
382.17	26.722
382.53	25.556
382.89	25.903
383.25	25.615
383.61	25.405
383.97	26.443
384.32	27.153
384.68	25.812
385.04	26.489
385.40	26.989
385.76	27.726
386.12	26.272
386.48	26.235
386.83	26.520
387.19	25.898
387.55	26.115
387.91	26.313
388.27	26.501
388.62	27.090
388.98	26.058
389.34	27.283
389.70	27.368
390.06	26.525
390.42	26.084
390.77	27.453
391.13	26.585
391.49	26.932
391.85	25.879
392.20	25.979
392.56	26.580
392.92	25.900
393.28	26.866
393.64	26.369
393.99	26.845
394.35	27.044
394.71	27.126
395.07	25.689
395.42	26.842
395.78	26.143
396.14	26.916
396.50	26.247
396.85	26.297
397.21	26.805
397.57	26.325
397.92	26.976
398.28	25.747
398.64	25.114
399.00	26.335
399.35	26.859
399.71	25.272
400.07	25.828
400.42	25.844
400.78	26.447
401.14	25.612
401.49	25.128
401.85	27.733
402.21	26.593
402.57	26.174
402.92	26.300
403.28	26.054
403.63	25.477
403.99	25.238
404.35	25.298
404.70	25.326
405.06	25.217
405.42	27.108
405.77	26.936
406.13	25.554
406.49	25.845
406.84	25.651
407.20	24.762
407.55	24.833
407.91	25.644
408.27	25.677
408.62	25.538
408.98	26.640
409.34	24.751
409.69	25.896
410.05	25.147
410.40	24.942
410.76	24.846
411.11	25.307
411.47	26.290
411.83	25.338
412.18	25.060
412.54	24.778
412.89	25.495
413.25	25.000
413.60	23.550
413.96	25.466
414.31	24.079
414.67	24.568
415.03	24.985
415.38	25.032
415.74	24.618
416.09	24.676
416.45	24.421
416.80	24.419
417.16	24.010
417.51	24.159
417.87	24.464
418.22	24.371
418.58	24.473
418.93	24.913
419.29	24.229
419.64	23.770
420.00	23.917
420.35	23.975
420.71	23.435
421.06	24.209
421.42	24.541
421.77	23.317
422.12	24.049
422.48	23.656
422.83	23.768
423.19	23.926
423.54	24.502
423.90	22.916
424.25	23.680
424.61	23.651
424.96	23.339
425.31	24.363
425.67	23.242
426.02	23.686
426.38	23.708
426.73	23.270
427.09	24.221
427.44	22.665
427.79	23.991
428.15	22.831
428.50	22.809
428.85	23.077
429.21	23.511
429.56	22.310
429.92	22.162
430.27	22.940
430.62	22.521
430.98	22.725
431.33	22.874
431.68	22.366
432.04	23.210
432.39	22.817
432.74	22.603
433.10	22.228
433.45	22.241
433.80	23.069
434.16	22.831
434.51	22.662
434.86	23.073
435.22	23.061
435.57	23.526
435.92	22.593
436.28	21.729
436.63	22.720
436.98	22.330
437.34	22.830
437.69	22.840
438.04	22.316
438.39	21.769
438.75	22.413
439.10	23.414
439.45	21.912
439.81	22.768
440.16	22.466
440.51	22.018
440.86	22.346
441.22	21.704
441.57	22.013
441.92	21.484
442.27	22.273
442.63	22.156
442.98	22.946
443.33	22.251
443.68	21.853
444.03	23.048
444.39	22.145
444.74	22.307
445.09	21.744
445.44	22.339
445.79	22.366
446.15	21.840
446.50	21.654
446.85	22.276
447.20	21.905
447.55	21.391
447.91	20.942
448.26	21.776
448.61	20.776
448.96	22.103
449.31	20.679
449.66	21.296
450.02	22.099
450.37	22.056
450.72	21.475
451.07	21.526
451.42	21.202
451.77	20.956
452.12	21.783
452.47	20.796
452.83	21.903
453.18	21.658
453.53	20.103
453.88	21.480
454.23	20.847
454.58	21.590
454.93	21.177
455.28	21.674
455.63	21.376
455.98	20.559
456.34	20.259
456.69	20.752
457.04	21.513
457.39	20.288
457.74	21.085
458.09	20.538
458.44	20.366
458.79	20.423
459.14	20.136
459.49	20.034
459.84	20.252
460.19	19.600
460.54	21.238
460.89	21.016
461.24	20.805
461.59	20.753
461.94	20.194
462.29	20.437
462.64	19.916
462.99	19.146
463.34	21.090
463.69	19.930
464.04	20.623
464.39	19.002
464.74	20.296
465.09	20.242
465.44	19.152
465.79	19.513
466.14	19.958
466.49	19.842
466.84	19.229
467.19	19.364
467.54	18.919
467.89	19.195
468.24	19.501
468.59	18.761
468.94	18.415
469.29	18.896
469.64	19.263
469.99	19.248
470.34	18.564
470.68	19.344
471.03	19.581
471.38	18.901
471.73	18.661
472.08	18.274
472.43	18.543
472.78	19.521
473.13	18.521
473.48	18.550
473.83	19.327
474.17	19.343
474.52	18.400
474.87	18.439
475.22	18.817
475.57	18.276
475.92	18.666
476.27	19.010
476.61	18.328
476.96	17.831
477.31	18.960
477.66	19.465
478.01	17.539
478.36	17.647
478.70	18.325
479.05	18.098
479.40	18.263
479.75	18.108
480.10	17.480
480.45	17.639
480.79	17.324
481.14	17.096
481.49	17.356
481.84	18.103
482.19	16.989
482.53	17.709
482.88	17.545
483.23	17.519
483.58	17.074
483.92	17.110
484.27	17.104
484.62	17.203
484.97	16.991
485.31	16.684
485.66	16.122
486.01	16.177
486.36	15.980
486.70	16.827
487.05	16.759
487.40	16.972
487.75	17.226
488.09	17.385
488.44	15.968
488.79	16.223
489.13	16.655
489.48	16.272
489.83	15.895
490.17	16.525
490.52	16.585
490.87	15.990
491.22	16.031
491.56	16.340
491.91	17.008
492.26	16.486
492.60	16.091
492.95	16.367
493.30	15.823
493.64	15.287
493.99	16.228
494.34	15.200
494.68	15.675
495.03	16.123
495.37	15.757
495.72	14.739
496.07	16.126
496.41	15.015
496.76	15.721
497.11	15.329
497.45	15.710
497.80	16.126
498.14	15.283
498.49	15.809
498.84	15.356
499.18	15.070
499.53	15.740
499.87	15.385
500.22	14.381
500.56	14.755
500.91	15.423
501.26	15.909
501.60	14.538
501.95	15.545
502.29	14.875
502.64	14.604
502.98	14.927
503.33	14.514
503.67	14.304
504.02	14.536
504.36	15.013
504.71	15.158
505.06	14.325
505.40	14.534
505.75	14.526
506.09	14.871
506.44	15.088
506.78	14.862
507.13	14.246
507.47	14.401
507.82	14.867
508.16	13.767
508.51	14.158
508.85	14.549
509.19	14.069
509.54	14.361
509.88	14.376
510.23	14.230
510.57	14.741
510.92	14.465
511.26	13.709
511.61	14.051
511.95	14.007
512.30	14.673
512.64	13.643
512.98	14.207
513.33	14.264
513.67	13.870
514.02	13.950
514.36	14.322
514.70	13.646
515.05	14.129
515.39	13.648
515.74	14.157
516.08	13.735
516.42	14.495
516.77	13.933
517.11	13.048
517.46	13.150
517.80	14.431
518.14	14.418
518.49	13.612
518.83	13.571
519.17	13.355
519.52	13.260
519.86	13.569
520.20	13.898
520.55	13.363
520.89	13.288
521.23	13.512
521.58	12.881
521.92	13.144
522.26	13.517
522.61	12.905
522.95	12.918
523.29	12.989
523.64	13.341
523.98	13.292
524.32	13.123
524.66	13.660
525.01	12.741
525.35	12.522
525.69	12.587
526.04	12.629
526.38	13.391
526.72	13.033
527.06	11.906
527.41	12.653
527.75	12.470
528.09	13.223
528.43	12.493
528.78	12.254
529.12	11.525
529.46	12.816
529.80	13.043
530.15	12.522
530.49	12.040
530.83	12.279
531.17	12.127
531.51	11.552
531.86	12.680
532.20	12.378
532.54	13.405
532.88	12.606
533.22	12.375
533.57	12.002
533.91	12.514
534.25	11.984
534.59	12.184
534.93	11.545
535.27	11.549
535.62	12.905
535.96	11.389
536.30	11.868
536.64	12.492
536.98	12.608
537.32	12.037
537.66	13.163
538.01	11.964
538.35	10.962
538.69	11.959
539.03	11.343
539.37	11.896
539.71	11.411
540.05	12.590
540.39	11.430
540.73	12.083
541.07	11.527
541.42	11.991
541.76	11.803
542.10	11.520
542.44	11.267
542.78	11.922
543.12	11.323
543.46	11.172
543.80	10.851
544.14	11.849
544.48	11.702
544.82	11.550
545.16	10.912
545.50	11.384
545.84	11.819
546.18	12.099
546.52	11.529
546.86	11.698
547.20	11.132
547.54	10.549
547.88	12.116
548.22	10.351
548.56	11.410
548.90	11.343
549.24	10.760
549.58	11.104
549.92	10.523
550.26	11.133
550.60	10.976
550.94	11.190
551.28	10.561
551.62	11.388
551.96	10.809
552.30	10.198
552.64	11.512
552.98	10.730
553.32	10.611
553.66	11.447
554.00	11.286
554.34	10.875
554.68	10.523
555.02	10.841
555.36	10.651
555.69	9.737
556.03	10.277
556.37	11.139
556.71	10.717
557.05	10.415
557.39	10.285
557.73	10.370
558.07	11.126
558.41	11.163
558.75	10.953
559.08	10.786
559.42	10.014
559.76	10.855
560.10	10.985
560.44	9.960
560.78	10.938
561.12	10.899
561.45	10.827
561.79	9.646
562.13	9.858
562.47	10.173
562.81	10.823
563.15	9.912
563.48	10.255
563.82	9.674
564.16	9.994
564.50	9.654
564.84	10.324
565.17	9.941
565.51	10.242
565.85	9.442
566.19	9.562
566.52	9.889
566.86	10.187
567.20	9.570
567.54	9.665
567.88	9.939
568.21	10.128
568.55	9.257
568.89	9.578
569.23	9.970
569.56	9.105
569.90	9.836
570.24	9.376
570.57	9.237
570.91	9.063
571.25	9.257
571.59	9.769
571.92	9.382
572.26	8.655
572.60	9.364
572.93	9.268
573.27	9.385
573.61	9.291
573.95	8.934
574.28	8.923
574.62	8.868
574.96	8.690
575.29	9.011
575.63	8.917
575.97	9.006
576.30	8.932
576.64	8.661
576.98	9.021
577.31	8.585
577.65	8.770
577.98	8.904
578.32	8.641
578.66	8.914
578.99	8.765
579.33	9.026
579.67	8.953
580.00	8.496
580.34	8.770
580.67	8.495
581.01	8.849
581.35	8.475
581.68	8.412
582.02	8.664
582.35	8.698
582.69	8.621
583.02	8.671
583.36	8.462
583.70	8.657
584.03	8.855
584.37	8.788
584.70	8.411
585.04	8.603
585.37	8.396
585.71	8.328
586.04	8.454
586.38	8.658
586.72	7.997
587.05	8.314
587.39	8.178
587.72	8.732
588.06	8.849
588.39	8.414
588.73	8.492
589.06	8.014
589.40	8.636
589.73	8.676
590.07	8.687
590.40	9.060
590.73	8.766
591.07	9.121
591.40	8.165
591.74	8.545
592.07	8.526
592.41	8.281
592.74	8.200
593.08	9.140
593.41	8.749
593.75	8.132
594.08	8.513
594.41	8.301
594.75	8.203
595.08	8.412
595.42	8.506
595.75	8.524
596.09	8.709
596.42	8.527
596.75	8.684
597.09	8.606
597.42	8.343
597.75	7.801
598.09	8.413
598.42	8.565
598.76	8.216
599.09	8.366
599.42	7.945
599.76	8.584
600.09	8.008
600.42	8.308
600.76	8.388
601.09	8.198
601.42	8.067
601.76	8.655
602.09	8.470
602.42	7.670
602.76	8.450
603.09	7.930
603.42	7.912
603.76	7.822
604.09	8.304
604.42	8.257
604.76	8.143
605.09	8.057
605.42	7.775
605.75	8.115
606.09	7.652
606.42	7.880
606.75	7.346
607.09	7.373
607.42	7.823
607.75	8.284
608.08	7.735
608.42	8.464
608.75	7.960
609.08	7.895
609.41	7.675
609.75	7.589
610.08	8.223
610.41	7.562
610.74	7.353
611.07	7.815
611.41	8.117
611.74	8.591
612.07	8.228
612.40	7.985
612.73	6.993
613.07	8.557
613.40	7.700
613.73	7.896
614.06	7.949
614.39	7.629
614.72	8.248
615.06	7.603
615.39	8.072
615.72	8.626
616.05	7.916
616.38	8.476
616.71	8.568
617.05	7.721
617.38	8.240
617.71	8.693
618.04	7.771
618.37	8.798
618.70	7.919
619.03	7.348
619.36	7.028
619.69	7.751
620.03	7.721
620.36	8.160
620.69	7.896
621.02	7.415
621.35	8.563
621.68	8.026
622.01	8.897
622.34	7.462
622.67	8.316
623.00	7.085
623.33	8.096
623.66	8.560
623.99	6.781
624.32	8.967
624.65	7.722
624.99	7.997
625.32	8.622
625.65	7.957
625.98	8.136
626.31	7.867
626.64	7.692
626.97	7.427
627.30	6.758
627.63	7.502
627.96	8.258
628.29	8.638
628.62	7.053
628.95	7.187
629.28	8.071
629.61	8.586
629.94	8.452
630.26	7.542
630.59	7.427
630.92	7.100
631.25	7.782
631.58	8.380
631.91	7.873
632.24	7.685
632.57	7.685
632.90	7.523
633.23	8.265
633.56	8.776
633.89	6.818
634.22	7.796
634.55	8.351
634.88	8.333
635.20	7.966
635.53	8.927
635.86	7.151
636.19	9.438
636.52	7.489
636.85	7.457
637.18	7.588
637.51	7.742
637.83	8.970
638.16	8.756
638.49	6.925
638.82	7.441
639.15	5.498
639.48	8.314
639.81	8.314
640.13	7.774
640.46	7.636
640.79	6.740
641.12	8.199
641.45	7.905
641.77	8.729
642.10	7.612
642.43	8.644
642.76	7.859
643.09	7.260
643.41	6.162
643.74	5.517
644.07	8.828
644.40	8.487
644.73	7.983
645.05	7.048
645.38	10.216
645.71	5.132
646.04	10.043
646.36	7.299
646.69	6.135
647.02	7.798
647.35	8.550
647.67	7.407
648.00	6.210
648.33	8.859
648.66	6.990
648.98	7.619
649.31	6.495
649.64	8.765
649.96	7.029
650.29	8.762
650.62	7.779
650.94	7.207
651.27	7.335
651.60	6.725
651.92	7.903
652.25	7.815
652.58	7.978
652.90	5.523
653.23	8.873
653.56	6.562
653.88	8.287
654.21	7.606
654.54	6.214
654.86	7.082
655.19	7.152
655.52	8.220
655.84	6.687
656.17	7.897
656.49	11.052
656.82	12.285
657.15	9.472
657.47	7.226
657.80	5.394
658.13	4.291
658.45	5.521
658.78	7.111
659.10	6.253
659.43	6.403
659.75	6.323
660.08	6.835
660.41	6.038
660.73	5.929
661.06	6.021
661.38	7.337
661.71	7.414
662.03	7.584
662.36	9.302
662.68	8.255
663.01	6.549
663.33	7.561
663.66	8.974
663.98	8.077
664.31	8.068
664.63	5.010
664.96	8.893
665.28	6.352
665.61	8.566
665.93	6.429
666.26	8.961
666.58	6.089
666.91	8.411
667.23	7.429
667.56	7.890
667.88	8.600
668.21	5.664
668.53	4.826
668.86	7.859
669.18	6.925
669.50	7.356
669.83	5.800
670.15	6.299
670.48	10.119
670.80	5.545
671.13	4.915
671.45	7.677
671.77	8.098
672.10	8.667
672.42	6.958
672.75	7.066
673.07	7.910
673.39	6.626
673.72	8.893
674.04	6.552
674.37	6.261
674.69	8.466
675.01	7.238
675.34	5.916
675.66	6.180
675.98	8.769
676.31	7.031
676.63	9.125
676.95	6.130
677.28	6.452
677.60	5.906
677.92	7.102
678.25	6.581
678.57	9.431
678.89	9.386
679.22	8.362
679.54	7.692
679.86	4.576
680.18	5.970
680.51	7.233
680.83	8.674
681.15	5.862
681.48	7.254
681.80	8.463
682.12	6.294
682.44	7.513
682.77	7.092
683.09	7.008
683.41	9.109
683.73	6.641
684.06	7.380
684.38	6.619
684.70	7.181
685.02	6.024
685.34	4.825
685.67	7.098
685.99	5.982
686.31	6.105
686.63	6.319
686.96	5.678
687.28	5.375
687.60	5.219
687.92	6.431
688.24	7.513
688.56	5.000
688.89	8.167
689.21	7.241
689.53	4.706
689.85	6.903
690.17	6.852
690.49	5.578
690.82	5.941
691.14	4.453
691.46	6.310
691.78	7.919
692.10	5.872
692.42	4.643
692.74	5.263
693.06	3.519
693.39	7.780
693.71	6.015
694.03	7.621
694.35	6.857
694.67	6.571
694.99	5.745
695.31	5.740
695.63	7.359
695.95	6.004
696.27	6.593
696.59	6.637
696.91	7.883
697.23	9.670
697.56	6.314
697.88	5.682
698.20	7.910
698.52	9.280
698.84	7.900
699.16	7.347
699.48	5.230
699.80	7.660
700.12	6.987
700.44	7.604
700.76	7.601
701.08	7.264
701.40	7.513
701.72	8.706
702.04	9.091
702.36	3.141
702.68	6.357
703.00	5.868
703.32	5.665
703.64	4.645
703.96	7.637
704.28	7.617
704.60	9.367
704.91	6.122
705.23	7.671
705.55	7.242
705.87	5.758
706.19	6.442
706.51	5.422
706.83	3.170
707.15	4.233
707.47	7.009
707.79	6.332
708.11	5.932
708.43	3.441
708.74	3.348
709.06	5.336
709.38	6.573
709.70	8.189
710.02	7.235
710.34	5.053
710.66	3.631
710.98	5.191
711.29	3.022
711.61	6.780
711.93	4.843
712.25	7.838
712.57	8.260
712.89	5.882
713.20	4.142
713.52	6.647
713.84	5.292
714.16	9.211
714.48	6.186
714.80	8.571
715.11	6.037
715.43	4.509
715.75	6.842
716.07	6.354
716.39	4.918
716.70	4.518
717.02	5.246
717.34	2.787
717.66	6.376
717.97	4.110
718.29	5.155
718.61	5.263
718.93	2.913
719.24	5.901
719.56	7.362
719.88	6.006
720.20	5.161
720.51	8.385
720.83	4.375
721.15	5.592
721.46	2.055
721.78	4.333
722.10	4.531
722.42	3.020
722.73	5.161
723.05	5.614
723.37	6.944
723.68	6.810
724.00	7.581
724.32	3.169
724.63	3.846
724.95	9.574
725.27	4.878
725.58	4.240
725.90	8.276
726.22	4.075
726.53	5.195
726.85	7.233
727.16	4.230
727.48	10.703
727.80	8.609
728.11	5.654
728.43	7.744
728.74	6.020
729.06	3.974
729.38	4.221
729.69	5.369
730.01	6.250
730.32	4.545
730.64	3.774
730.96	6.832
731.27	7.263
731.59	8.242
731.90	4.935
732.22	5.729
732.53	3.591
732.85	5.429
733.16	4.399
733.48	2.439
733.80	6.128
734.11	4.843
734.43	8.378
734.74	9.620
735.06	5.779
735.37	2.973
735.69	6.216
736.00	6.215
736.32	5.391
736.63	8.611
736.95	5.747
737.26	3.939
737.58	3.636
737.89	7.059
738.21	3.364
738.52	2.623
738.83	5.119
739.15	8.156
739.46	4.082
739.78	5.828
740.09	5.158
740.41	7.872
740.72	1.333
741.04	4.207
741.35	3.158
741.66	4.314
741.98	5.738
742.29	2.929
742.61	5.702
742.92	3.462
743.23	2.888
743.55	3.488
743.86	4.400
744.18	0.826
744.49	3.797
744.80	5.350
745.12	5.485
745.43	4.472
745.74	6.897
746.06	5.932
746.37	7.595
746.68	7.317
747.00	9.583
747.31	2.575
747.62	10.000
747.94	2.024
748.25	3.614
748.56	2.857
748.88	5.128
749.19	5.603
749.50	3.030
749.82	6.426
750.13	8.897
750.44	3.333
750.75	3.692
751.07	5.538
751.38	4.732
751.69	5.431
752.01	4.207
752.32	4.902
752.63	4.082
752.94	4.844
753.26	3.346
753.57	4.074
753.88	3.745
754.19	4.180
754.51	6.109
754.82	6.109
755.13	8.197
755.44	5.461
755.75	2.632
756.07	6.567
756.38	4.403
756.69	5.422
757.00	3.878
757.31	6.557
757.63	3.325
757.94	2.817
758.25	6.998
758.56	5.229
758.87	6.364
759.18	1.600
759.50	9.065
759.81	5.322
760.12	5.391
760.43	5.469
760.74	7.635
761.05	3.000
761.36	1.687
761.67	6.091
761.99	4.054
762.30	4.878
762.61	8.251
762.92	5.224
763.23	7.491
763.54	3.957
763.85	1.375
764.16	4.714
764.47	5.986
764.78	5.112
765.10	4.985
765.41	6.154
765.72	5.820
766.03	5.650
766.34	1.254
766.65	3.833
766.96	1.992
767.27	4.608
767.58	1.990
767.89	9.135
768.20	7.512
768.51	6.019
768.82	5.221
769.13	5.682
769.44	1.923
769.75	8.303
770.06	6.538
770.37	4.331
770.68	0.000
770.99	-0.810
771.30	10.370
771.61	1.901
771.92	9.259
772.23	8.907
772.54	-4.167
772.85	11.982
773.16	10.952
773.47	-1.058
773.78	2.162
774.09	10.227
774.39	12.000
774.70	10.383
775.01	5.488
775.32	-0.588
775.63	2.454
775.94	-3.185
776.25	9.677
776.56	15.385
776.87	2.721
777.18	6.897
777.48	2.098
777.79	4.054
778.10	-0.735
778.41	6.250
778.72	4.138
779.03	8.025
779.34	7.273
779.65	10.881
779.95	7.778
780.26	10.227
780.57	10.968
780.88	10.870
781.19	1.935
781.50	10.000
781.80	11.290
782.11	2.116
782.42	0.000
782.73	-2.395
783.04	1.676
783.34	3.030
783.65	-1.961
783.96	8.075
784.27	7.143
784.57	-1.987
784.88	6.429
785.19	6.299
785.50	7.874
785.81	6.767
786.11	13.077
786.42	-3.597
786.73	0.000
787.04	7.519
787.34	-1.639
787.65	4.800
787.96	4.478
788.26	16.783
788.57	15.385
788.88	7.237
789.19	8.497
789.49	0.000
789.80	-2.128
790.11	10.236
790.41	7.031
790.72	9.322
791.03	-8.738
791.33	8.696
791.64	1.754
791.95	3.571
792.25	9.524
792.56	17.857
792.87	11.458
793.17	11.607
793.48	-3.125
793.79	-3.614
794.09	1.835
794.40	-3.670
794.70	2.721
795.01	5.844
795.32	0.000
795.62	7.042
795.93	-3.788
796.23	2.459
796.54	-4.464
796.85	-6.383
797.15	-4.348
797.46	-5.479
797.76	0.000
798.07	5.435
798.37	0.000
798.68	9.091
798.99	5.747
799.29	-1.124
799.60	15.957
799.90	15.663
800.21	4.615
800.51	-4.478
800.82	-19.118
801.12	-17.808
801.43	-8.824
801.73	-16.949
802.04	1.515
802.34	0.000
802.65	0.000
802.95	20.896
803.26	13.559
803.56	8.219
803.87	-5.714
804.17	9.589
804.48	-21.053
804.78	-4.167
805.09	-1.724
805.39	21.622
805.70	-7.042
806.00	6.098
806.30	14.458
806.61	-1.370
806.91	9.615
807.22	11.111
807.52	-3.448
807.83	4.167
808.13	6.024
808.43	10.112
808.74	-6.250
809.04	-17.647
809.35	8.000
809.65	-2.857
809.95	15.068
810.26	1.754
810.56	8.621
810.86	13.235
811.17	1.754
811.47	18.033
811.77	2.222
812.08	1.695
812.38	8.333
812.69	17.241
812.99	-5.660
813.29	-5.128
813.59	8.000
813.90	8.772
814.20	0.000
814.50	7.042
814.81	10.256
815.11	9.836
815.41	1.493
815.72	6.897
816.02	14.286
816.32	28.889
816.62	13.636
816.93	6.667
817.23	27.778
817.53	6.383
817.84	21.429
818.14	-17.647
818.44	4.082
818.74	4.444
819.04	-12.821
819.35	-22.857
819.65	-50.000
819.95	1.887
820.25	17.778
820.56	-4.762
820.86	3.125
821.16	-17.949
821.46	-18.605
821.76	-16.000
822.07	16.071
822.37	-17.391
822.67	10.638
822.97	8.108
823.27	17.500
823.57	10.204
823.88	13.333
824.18	17.500
824.48	-3.333
824.78	12.000
825.08	-3.030
825.38	-11.111
825.69	10.638
825.99	27.778
826.29	-17.143
826.59	2.564
826.89	4.651
827.19	10.000
827.49	-5.882
827.79	10.417
828.09	-13.514
828.39	6.667
828.70	-14.634
829.00	4.651
829.30	-28.571
829.60	2.941
829.90	-2.174
830.20	11.429
830.50	-3.448
830.80	-38.889
831.10	-26.923
831.40	-26.471
831.70	-9.524
832.00	12.903
832.30	-58.824
832.60	-25.000
832.90	-23.077
833.20	-26.316
833.50	-25.000
833.80	31.579
834.10	-33.333
834.40	5.556
834.70	25.000
835.00	-14.286
835.30	-8.824
835.60	-30.000
835.90	16.000
836.20	-36.364
836.50	-12.000
836.80	-24.242
837.10	-14.815
837.40	-7.407
837.70	18.750
838.00	10.714
838.30	4.348
838.60	0.000
838.90	21.429
839.19	-65.217
839.49	-83.333
839.79	26.087
840.09	-56.250
840.39	-25.000
840.69	12.903
840.99	25.000
841.29	-26.667
841.59	-5.263
841.88	30.769
842.18	-11.538
842.48	-40.000
842.78	-15.000
843.08	-6.667
843.38	25.806
843.68	-38.889
843.97	14.706
844.27	12.500
844.57	-26.316
844.87	-60.000
845.17	6.667
845.47	9.524
845.76	-33.333
846.06	0.000
846.36	-35.294
846.66	15.385
846.96	-6.667
847.25	-23.529
847.55	-4.348
847.85	-5.000
848.15	5.882
848.44	-63.636
848.74	0.000
849.04	-12.500
849.34	-37.500
849.63	0.000
849.93	100.000
850.23	6.667
850.53	38.462
850.82	-36.364
851.12	22.727
851.42	-45.455
851.71	23.077
852.01	-15.000
852.31	-30.769
852.61	-21.053
852.90	-8.333
853.20	27.778
853.50	-133.333
853.79	-28.571
854.09	-59.091
854.39	-75.000
854.68	22.581
854.98	11.538
855.28	-5.556
855.57	3.571
855.87	0.000
856.17	0.000
856.46	-7.407
856.76	-44.444
857.05	-30.435
857.35	-37.500
857.65	-100.000
857.94	19.048
858.24	48.148
858.53	21.739
858.83	-29.412
859.13	-47.059
859.42	-17.647
859.72	7.143
860.01	-5.000
860.31	-33.333
860.60	70.000
860.90	73.333
861.20	-16.667
861.49	23.077
861.79	3.333
862.08	-61.538
862.38	-15.625
862.67	11.765
862.97	62.500
863.26	55.556
863.56	50.000
863.85	-27.273
864.15	-16.667
864.44	0.000
864.74	-35.714
865.03	-18.750
865.33	-70.000
865.62	-19.355
865.92	9.091
866.21	8.696
866.51	-14.286
866.80	-220.000
867.10	-50.000
867.39	-41.667
867.69	400.000
867.98	-71.429
868.27	11.765
868.57	-200.000
868.86	-40.000
869.16	38.095
869.45	0.000
869.75	27.273
870.04	-114.286
870.33	50.000
870.63	14.286
870.92	50.000
871.22	-87.500
871.51	-18.182
871.80	-366.667
872.10	-250.000
>>>>>End Processed Spectral Data<<<<<
