SpectraSuite Data File
++++++++++++++++++++++++++++++++++++
Date: Thu May 14 16:26:25 PDT 2015
User: schluterlab
Dark Spectrum Present: Yes
Reference Spectrum Present: Yes
Number of Sampled Component Spectra: 1
Spectrometers: USB2E3373
Integration Time (usec): 3000 (USB2E3373)
Spectra Averaged: 3 (USB2E3373)
Boxcar Smoothing: 0 (USB2E3373)
Correct for Electrical Dark: No (USB2E3373)
Strobe/Lamp Enabled: No (USB2E3373)
Correct for Detector Non-linearity: No (USB2E3373)
Correct for Stray Light: No (USB2E3373)
Number of Pixels in Processed Spectrum: 2048
>>>>>Begin Processed Spectral Data<<<<<
178.53	0.000
178.91	42.857
179.29	-1700.000
179.67	-1300.000
180.04	192.857
180.42	40.000
180.80	100.000
181.18	0.000
181.56	400.000
181.94	-75.000
182.31	75.000
182.69	33.333
183.07	-100.000
183.45	175.000
183.83	83.333
184.20	166.667
184.58	-200.000
184.96	-100.000
185.34	133.333
185.72	120.000
186.09	66.667
186.47	-300.000
186.85	40.000
187.23	-100.000
187.61	-700.000
187.98	160.000
188.36	75.000
188.74	50.000
189.12	100.000
189.49	50.000
189.87	-25.000
190.25	44.444
190.63	-180.000
191.00	-133.333
191.38	0.000
191.76	-175.000
192.14	-216.667
192.51	400.000
192.89	16.667
193.27	0.000
193.65	-14.286
194.02	-1700.000
194.40	-100.000
194.78	14.286
195.15	0.000
195.53	-27.273
195.91	0.000
196.29	-50.000
196.66	15.385
197.04	-400.000
197.42	-71.429
197.79	-350.000
198.17	-12.500
198.55	-57.143
198.92	-33.333
199.30	-25.000
199.68	45.455
200.05	57.143
200.43	-650.000
200.81	71.429
201.18	0.000
201.56	111.111
201.94	0.000
202.31	266.667
202.69	-55.556
203.07	400.000
203.44	-22.222
203.82	-125.000
204.19	-8.333
204.57	-33.333
204.95	100.000
205.32	200.000
205.70	-50.000
206.08	-116.667
206.45	83.333
206.83	100.000
207.20	-166.667
207.58	-80.000
207.96	-150.000
208.33	-16.667
208.71	91.667
209.08	33.333
209.46	0.000
209.84	233.333
210.21	250.000
210.59	-100.000
210.96	133.333
211.34	125.000
211.71	12.500
212.09	-200.000
212.46	0.000
212.84	950.000
213.22	-180.000
213.59	-200.000
213.97	-30.000
214.34	-233.333
214.72	250.000
215.09	25.000
215.47	0.000
215.84	-14.286
216.22	450.000
216.59	-60.000
216.97	-60.000
217.34	75.000
217.72	-12.500
218.09	75.000
218.47	-125.000
218.84	0.000
219.22	60.000
219.59	47.059
219.97	20.000
220.34	300.000
220.72	-133.333
221.09	-7.692
221.47	66.667
221.84	40.000
222.22	-57.143
222.59	0.000
222.97	12.500
223.34	-60.000
223.72	100.000
224.09	-75.000
224.46	25.000
224.84	220.000
225.21	-57.143
225.59	-50.000
225.96	-125.000
226.34	11.538
226.71	83.333
227.08	0.000
227.46	53.333
227.83	-75.000
228.21	26.316
228.58	87.500
228.95	950.000
229.33	-8.333
229.70	50.000
230.08	52.632
230.45	130.000
230.82	-33.333
231.20	14.286
231.57	33.333
231.95	-9.091
232.32	27.273
232.69	40.000
233.07	-25.000
233.44	-29.412
233.81	-10.000
234.19	50.000
234.56	45.455
234.93	17.241
235.31	26.316
235.68	-11.111
236.05	-40.000
236.43	23.077
236.80	48.000
237.17	25.926
237.55	9.091
237.92	-50.000
238.29	0.000
238.67	-6.818
239.04	2.778
239.41	0.000
239.79	-4.348
240.16	-11.111
240.53	-10.870
240.91	0.000
241.28	6.557
241.65	22.388
242.02	16.216
242.40	1.538
242.77	-9.333
243.14	-7.317
243.51	-14.474
243.89	-6.410
244.26	9.901
244.63	4.902
245.00	0.000
245.38	0.000
245.75	-3.540
246.12	-1.587
246.49	-2.326
246.87	8.571
247.24	6.623
247.61	9.211
247.98	0.000
248.36	1.852
248.73	0.000
249.10	5.464
249.47	6.965
249.84	5.759
250.22	0.518
250.59	3.333
250.96	0.909
251.33	-2.551
251.70	7.265
252.08	7.083
252.45	4.098
252.82	-1.653
253.19	0.000
253.56	0.000
253.94	-2.308
254.31	3.030
254.68	7.692
255.05	6.515
255.42	3.741
255.79	1.942
256.16	5.298
256.54	-0.662
256.91	3.607
257.28	0.328
257.65	1.274
258.02	0.590
258.39	5.128
258.76	4.893
259.14	3.736
259.51	0.576
259.88	1.983
260.25	1.389
260.62	3.562
260.99	6.284
261.36	3.485
261.73	0.531
262.10	2.198
262.47	2.681
262.85	5.808
263.22	1.558
263.59	2.105
263.96	2.046
264.33	2.302
264.70	3.457
265.07	4.057
265.44	5.669
265.81	2.083
266.18	3.175
266.55	4.018
266.92	2.506
267.29	4.376
267.66	1.552
268.03	4.148
268.40	4.384
268.77	0.000
269.14	1.762
269.51	3.509
269.88	4.508
270.25	2.414
270.62	5.485
270.99	6.667
271.36	5.941
271.73	3.340
272.10	4.409
272.47	4.208
272.84	3.815
273.21	3.206
273.58	3.226
273.95	1.923
274.32	2.281
274.69	2.128
275.06	3.297
275.43	1.664
275.80	4.233
276.17	5.185
276.54	2.985
276.91	1.789
277.28	4.521
277.65	3.232
278.02	4.228
278.39	2.536
278.76	3.515
279.13	3.723
279.50	5.155
279.87	2.504
280.23	2.641
280.60	2.712
280.97	3.618
281.34	2.716
281.71	5.415
282.08	3.987
282.45	2.455
282.82	3.297
283.19	1.939
283.56	2.951
283.92	4.204
284.29	4.739
284.66	3.284
285.03	1.442
285.40	4.791
285.77	3.560
286.14	3.511
286.51	2.588
286.87	2.528
287.24	4.970
287.61	3.288
287.98	2.266
288.35	3.698
288.72	4.734
289.08	4.392
289.45	3.254
289.82	2.711
290.19	3.448
290.56	6.056
290.93	1.854
291.29	1.928
291.66	2.342
292.03	2.714
292.40	5.170
292.77	4.178
293.13	4.330
293.50	3.022
293.87	1.611
294.24	4.000
294.60	4.172
294.97	1.342
295.34	4.353
295.71	2.774
296.08	2.842
296.44	2.574
296.81	3.289
297.18	2.989
297.55	3.656
297.91	3.084
298.28	3.199
298.65	3.805
299.02	3.424
299.38	3.318
299.75	3.855
300.12	3.009
300.48	2.880
300.85	3.937
301.22	4.698
301.59	3.653
301.95	4.181
302.32	3.667
302.69	4.491
303.05	3.917
303.42	2.328
303.79	3.542
304.15	3.680
304.52	2.326
304.89	4.503
305.25	3.623
305.62	2.612
305.99	4.021
306.35	3.831
306.72	4.343
307.09	2.843
307.45	4.555
307.82	4.339
308.19	4.440
308.55	4.822
308.92	3.603
309.29	5.268
309.65	3.411
310.02	3.168
310.38	5.610
310.75	5.340
311.12	5.369
311.48	4.888
311.85	5.603
312.22	4.459
312.58	5.446
312.95	4.971
313.31	4.968
313.68	7.234
314.05	6.865
314.41	6.922
314.78	7.175
315.14	9.074
315.51	7.387
315.87	9.181
316.24	8.402
316.61	8.348
316.97	8.326
317.34	9.965
317.70	9.170
318.07	10.229
318.43	9.864
318.80	11.957
319.16	11.245
319.53	10.797
319.89	10.868
320.26	11.744
320.62	12.943
320.99	12.927
321.35	12.847
321.72	14.512
322.08	12.985
322.45	13.821
322.81	14.801
323.18	15.044
323.54	15.517
323.91	16.459
324.27	17.212
324.64	18.136
325.00	17.330
325.37	18.837
325.73	19.504
326.10	19.465
326.46	20.277
326.83	21.377
327.19	21.654
327.56	22.372
327.92	22.738
328.29	22.581
328.65	21.776
329.01	23.604
329.38	24.347
329.74	24.486
330.11	25.000
330.47	23.673
330.84	24.462
331.20	25.250
331.56	25.390
331.93	26.025
332.29	26.186
332.66	25.581
333.02	24.456
333.38	25.503
333.75	26.094
334.11	24.187
334.48	26.073
334.84	26.763
335.20	26.532
335.57	26.560
335.93	27.521
336.29	26.040
336.66	24.979
337.02	25.920
337.38	27.381
337.75	26.942
338.11	26.409
338.47	26.055
338.84	27.157
339.20	26.622
339.56	26.936
339.93	26.355
340.29	26.973
340.65	25.710
341.02	26.576
341.38	27.890
341.74	27.603
342.11	26.870
342.47	25.655
342.83	26.731
343.20	27.392
343.56	27.185
343.92	26.741
344.28	27.187
344.65	27.054
345.01	27.301
345.37	27.527
345.73	25.877
346.10	26.209
346.46	26.345
346.82	25.468
347.19	27.196
347.55	25.645
347.91	26.746
348.27	27.086
348.63	26.504
349.00	26.771
349.36	26.543
349.72	26.637
350.08	27.340
350.45	25.703
350.81	24.962
351.17	26.992
351.53	26.687
351.89	27.107
352.26	27.537
352.62	26.119
352.98	25.878
353.34	26.139
353.70	26.810
354.07	26.602
354.43	27.487
354.79	25.954
355.15	25.607
355.51	26.974
355.87	26.402
356.24	28.593
356.60	25.721
356.96	27.205
357.32	26.245
357.68	26.428
358.04	26.647
358.40	26.194
358.77	26.389
359.13	26.588
359.49	26.171
359.85	27.411
360.21	27.044
360.57	26.274
360.93	26.093
361.29	27.088
361.66	27.299
362.02	27.279
362.38	27.829
362.74	26.536
363.10	27.442
363.46	27.562
363.82	27.557
364.18	26.531
364.54	26.003
364.90	26.622
365.26	26.759
365.62	27.533
365.98	27.297
366.35	26.644
366.71	27.347
367.07	27.673
367.43	26.724
367.79	27.737
368.15	26.823
368.51	27.334
368.87	26.780
369.23	27.267
369.59	28.620
369.95	27.654
370.31	27.346
370.67	26.891
371.03	27.909
371.39	26.998
371.75	27.304
372.11	27.710
372.47	27.691
372.83	27.356
373.19	27.085
373.55	27.642
373.91	27.062
374.27	26.714
374.63	28.417
374.99	28.183
375.35	27.597
375.71	28.194
376.07	26.856
376.42	28.401
376.78	27.346
377.14	27.948
377.50	27.767
377.86	28.387
378.22	28.204
378.58	27.229
378.94	28.345
379.30	28.588
379.66	28.689
380.02	27.813
380.38	28.168
380.74	28.901
381.09	29.501
381.45	28.409
381.81	29.859
382.17	28.504
382.53	28.480
382.89	28.160
383.25	28.605
383.61	28.819
383.97	28.092
384.32	29.067
384.68	27.784
385.04	28.861
385.40	29.523
385.76	29.719
386.12	27.828
386.48	29.059
386.83	28.665
387.19	28.969
387.55	28.345
387.91	28.995
388.27	28.522
388.62	29.496
388.98	27.919
389.34	30.053
389.70	28.588
390.06	28.123
390.42	28.916
390.77	29.320
391.13	28.345
391.49	29.287
391.85	29.030
392.20	29.478
392.56	29.297
392.92	29.226
393.28	29.298
393.64	28.324
393.99	29.343
394.35	29.614
394.71	29.042
395.07	29.222
395.42	28.155
395.78	29.372
396.14	28.699
396.50	28.741
396.85	28.384
397.21	28.817
397.57	29.152
397.92	27.950
398.28	27.920
398.64	28.261
399.00	27.487
399.35	28.220
399.71	27.772
400.07	28.972
400.42	28.522
400.78	28.935
401.14	29.027
401.49	29.051
401.85	29.070
402.21	28.969
402.57	30.106
402.92	29.905
403.28	28.220
403.63	27.745
403.99	28.207
404.35	28.539
404.70	28.329
405.06	28.478
405.42	28.630
405.77	28.844
406.13	28.255
406.49	29.561
406.84	28.033
407.20	28.060
407.55	28.225
407.91	28.473
408.27	27.385
408.62	29.203
408.98	28.671
409.34	27.097
409.69	28.616
410.05	28.488
410.40	28.306
410.76	28.099
411.11	28.755
411.47	28.317
411.83	29.394
412.18	28.916
412.54	28.334
412.89	28.754
413.25	28.330
413.60	27.915
413.96	27.681
414.31	27.762
414.67	28.742
415.03	27.692
415.38	29.760
415.74	28.406
416.09	28.501
416.45	28.053
416.80	27.601
417.16	29.630
417.51	27.958
417.87	28.020
418.22	27.964
418.58	28.501
418.93	28.347
419.29	29.408
419.64	28.752
420.00	27.715
420.35	27.737
420.71	28.317
421.06	27.717
421.42	28.498
421.77	27.894
422.12	28.066
422.48	28.520
422.83	29.682
423.19	28.382
423.54	29.204
423.90	28.603
424.25	29.333
424.61	29.736
424.96	28.775
425.31	29.193
425.67	29.147
426.02	29.109
426.38	29.506
426.73	29.576
427.09	30.219
427.44	29.274
427.79	28.137
428.15	28.368
428.50	29.101
428.85	29.564
429.21	29.734
429.56	29.418
429.92	29.287
430.27	29.205
430.62	29.507
430.98	29.021
431.33	29.032
431.68	28.975
432.04	29.253
432.39	29.513
432.74	29.452
433.10	29.638
433.45	28.874
433.80	30.472
434.16	29.494
434.51	30.627
434.86	30.402
435.22	29.756
435.57	30.719
435.92	30.273
436.28	30.887
436.63	30.694
436.98	29.844
437.34	30.665
437.69	29.499
438.04	29.297
438.39	29.983
438.75	30.050
439.10	30.973
439.45	30.855
439.81	29.718
440.16	29.812
440.51	31.550
440.86	29.516
441.22	30.064
441.57	30.241
441.92	30.262
442.27	31.364
442.63	30.999
442.98	31.483
443.33	30.931
443.68	31.269
444.03	31.515
444.39	31.392
444.74	30.985
445.09	30.411
445.44	31.612
445.79	31.322
446.15	31.706
446.50	30.801
446.85	31.177
447.20	30.319
447.55	31.642
447.91	31.099
448.26	31.924
448.61	30.074
448.96	31.974
449.31	31.336
449.66	31.155
450.02	31.487
450.37	31.646
450.72	31.755
451.07	31.777
451.42	31.138
451.77	32.018
452.12	32.223
452.47	30.838
452.83	31.250
453.18	31.232
453.53	31.074
453.88	31.474
454.23	31.864
454.58	31.631
454.93	31.614
455.28	32.149
455.63	31.097
455.98	30.894
456.34	31.331
456.69	32.451
457.04	30.556
457.39	31.264
457.74	32.327
458.09	31.082
458.44	32.220
458.79	31.717
459.14	30.729
459.49	32.541
459.84	31.899
460.19	30.483
460.54	32.141
460.89	31.445
461.24	31.609
461.59	31.544
461.94	30.804
462.29	31.971
462.64	30.477
462.99	31.576
463.34	31.538
463.69	31.360
464.04	31.795
464.39	32.119
464.74	30.844
465.09	31.488
465.44	30.740
465.79	31.623
466.14	31.058
466.49	31.632
466.84	32.727
467.19	31.792
467.54	31.316
467.89	30.460
468.24	30.526
468.59	30.110
468.94	30.769
469.29	30.354
469.64	31.214
469.99	31.103
470.34	30.817
470.68	30.895
471.03	31.434
471.38	31.589
471.73	30.949
472.08	31.662
472.43	31.066
472.78	31.612
473.13	30.973
473.48	31.239
473.83	31.805
474.17	31.594
474.52	31.870
474.87	31.672
475.22	32.113
475.57	30.997
475.92	30.214
476.27	30.405
476.61	31.049
476.96	30.813
477.31	31.040
477.66	31.480
478.01	30.605
478.36	30.010
478.70	31.379
479.05	31.186
479.40	30.701
479.75	31.124
480.10	31.265
480.45	30.902
480.79	31.519
481.14	31.388
481.49	30.850
481.84	30.766
482.19	30.667
482.53	30.826
482.88	31.280
483.23	30.547
483.58	30.699
483.92	30.275
484.27	31.160
484.62	30.487
484.97	30.715
485.31	30.095
485.66	29.004
486.01	28.827
486.36	29.680
486.70	30.363
487.05	30.567
487.40	30.207
487.75	29.720
488.09	30.318
488.44	29.994
488.79	30.017
489.13	30.014
489.48	29.903
489.83	29.497
490.17	29.202
490.52	29.967
490.87	30.076
491.22	29.896
491.56	29.991
491.91	30.615
492.26	29.424
492.60	30.345
492.95	30.496
493.30	30.076
493.64	29.961
493.99	30.482
494.34	29.704
494.68	29.165
495.03	30.617
495.37	30.049
495.72	30.567
496.07	30.719
496.41	29.816
496.76	30.108
497.11	29.809
497.45	30.168
497.80	29.498
498.14	29.751
498.49	30.285
498.84	29.799
499.18	29.690
499.53	30.359
499.87	29.890
500.22	30.098
500.56	28.790
500.91	30.160
501.26	30.545
501.60	29.032
501.95	29.700
502.29	29.706
502.64	29.340
502.98	29.077
503.33	29.071
503.67	28.958
504.02	29.072
504.36	29.580
504.71	29.674
505.06	29.786
505.40	29.113
505.75	29.690
506.09	28.729
506.44	29.526
506.78	29.587
507.13	29.092
507.47	29.938
507.82	28.835
508.16	29.493
508.51	28.926
508.85	28.909
509.19	28.517
509.54	29.251
509.88	29.237
510.23	30.112
510.57	30.208
510.92	28.254
511.26	28.571
511.61	28.585
511.95	28.648
512.30	29.050
512.64	28.286
512.98	29.615
513.33	29.587
513.67	28.557
514.02	28.462
514.36	29.207
514.70	28.750
515.05	28.728
515.39	28.661
515.74	29.427
516.08	29.054
516.42	29.513
516.77	29.022
517.11	28.262
517.46	28.738
517.80	28.862
518.14	29.543
518.49	28.200
518.83	28.792
519.17	29.187
519.52	28.669
519.86	28.511
520.20	28.115
520.55	28.806
520.89	29.223
521.23	28.811
521.58	29.096
521.92	28.669
522.26	28.179
522.61	28.530
522.95	27.566
523.29	28.046
523.64	27.578
523.98	28.408
524.32	29.570
524.66	28.344
525.01	27.407
525.35	28.202
525.69	28.306
526.04	28.129
526.38	28.103
526.72	28.777
527.06	27.683
527.41	28.397
527.75	28.504
528.09	27.155
528.43	26.821
528.78	27.283
529.12	26.778
529.46	27.094
529.80	27.517
530.15	27.362
530.49	27.521
530.83	28.158
531.17	27.240
531.51	27.196
531.86	27.404
532.20	27.134
532.54	27.289
532.88	27.636
533.22	27.107
533.57	27.178
533.91	26.655
534.25	27.586
534.59	26.782
534.93	26.938
535.27	26.930
535.62	26.890
535.96	27.135
536.30	26.616
536.64	27.267
536.98	27.552
537.32	26.605
537.66	26.638
538.01	26.405
538.35	26.248
538.69	26.322
539.03	26.180
539.37	25.972
539.71	26.186
540.05	27.158
540.39	25.917
540.73	25.562
541.07	25.690
541.42	26.048
541.76	25.445
542.10	25.694
542.44	25.213
542.78	26.582
543.12	25.387
543.46	26.129
543.80	25.000
544.14	25.374
544.48	26.123
544.82	25.254
545.16	25.462
545.50	24.985
545.84	25.107
546.18	26.728
546.52	25.669
546.86	26.164
547.20	25.318
547.54	25.156
547.88	25.075
548.22	25.556
548.56	24.693
548.90	25.254
549.24	24.134
549.58	24.479
549.92	25.702
550.26	25.566
550.60	24.888
550.94	25.032
551.28	25.479
551.62	25.539
551.96	24.013
552.30	25.366
552.64	24.953
552.98	25.265
553.32	25.338
553.66	24.695
554.00	24.401
554.34	24.968
554.68	24.338
555.02	25.296
555.36	24.523
555.69	24.792
556.03	24.338
556.37	24.406
556.71	24.731
557.05	24.984
557.39	24.751
557.73	23.646
558.07	24.305
558.41	23.987
558.75	24.206
559.08	24.704
559.42	24.211
559.76	25.373
560.10	24.046
560.44	23.813
560.78	24.250
561.12	24.200
561.45	24.392
561.79	23.687
562.13	24.214
562.47	23.674
562.81	23.291
563.15	24.116
563.48	24.736
563.82	23.942
564.16	22.956
564.50	23.302
564.84	23.127
565.17	23.647
565.51	22.267
565.85	23.753
566.19	22.984
566.52	22.586
566.86	22.920
567.20	21.805
567.54	22.411
567.88	22.681
568.21	22.036
568.55	23.070
568.89	22.606
569.23	22.180
569.56	22.235
569.90	22.452
570.24	21.653
570.57	22.130
570.91	21.127
571.25	21.724
571.59	21.486
571.92	21.375
572.26	20.805
572.60	21.103
572.93	21.264
573.27	21.017
573.61	21.122
573.95	20.515
574.28	20.930
574.62	20.646
574.96	20.754
575.29	20.335
575.63	20.559
575.97	20.263
576.30	20.306
576.64	20.305
576.98	20.706
577.31	20.609
577.65	20.821
577.98	20.294
578.32	19.967
578.66	19.638
578.99	19.885
579.33	20.542
579.67	19.628
580.00	20.162
580.34	20.244
580.67	19.726
581.01	19.645
581.35	20.047
581.68	20.160
582.02	19.528
582.35	20.174
582.69	19.620
583.02	20.239
583.36	19.881
583.70	19.723
584.03	19.822
584.37	19.649
584.70	19.633
585.04	19.391
585.37	19.333
585.71	19.720
586.04	19.705
586.38	20.357
586.72	19.604
587.05	19.826
587.39	19.272
587.72	20.120
588.06	19.536
588.39	19.642
588.73	19.444
589.06	19.272
589.40	19.791
589.73	20.019
590.07	19.927
590.40	19.844
590.73	19.159
591.07	20.179
591.40	20.295
591.74	20.032
592.07	20.016
592.41	19.361
592.74	19.240
593.08	19.459
593.41	20.181
593.75	18.649
594.08	19.267
594.41	19.519
594.75	19.130
595.08	19.112
595.42	18.961
595.75	19.341
596.09	19.824
596.42	19.563
596.75	19.992
597.09	20.081
597.42	18.832
597.75	19.130
598.09	19.722
598.42	19.421
598.76	18.686
599.09	19.651
599.42	19.008
599.76	18.719
600.09	18.318
600.42	18.952
600.76	18.626
601.09	18.487
601.42	18.538
601.76	18.207
602.09	18.406
602.42	18.539
602.76	18.745
603.09	18.539
603.42	18.569
603.76	18.499
604.09	19.304
604.42	18.899
604.76	18.151
605.09	18.708
605.42	18.581
605.75	18.423
606.09	17.693
606.42	17.913
606.75	17.579
607.09	17.896
607.42	18.189
607.75	18.718
608.08	17.995
608.42	17.856
608.75	18.284
609.08	17.997
609.41	18.659
609.75	17.812
610.08	18.250
610.41	17.630
610.74	17.899
611.07	18.339
611.41	18.475
611.74	18.337
612.07	18.467
612.40	18.108
612.73	18.924
613.07	18.729
613.40	18.576
613.73	18.536
614.06	18.008
614.39	17.736
614.72	18.438
615.06	17.469
615.39	17.545
615.72	17.536
616.05	17.921
616.38	18.466
616.71	18.234
617.05	18.104
617.38	18.299
617.71	17.981
618.04	17.701
618.37	17.705
618.70	18.043
619.03	16.786
619.36	18.372
619.69	18.193
620.03	17.954
620.36	17.853
620.69	18.075
621.02	17.717
621.35	18.215
621.68	18.438
622.01	17.936
622.34	18.201
622.67	17.526
623.00	16.937
623.33	18.315
623.66	18.547
623.99	18.104
624.32	18.519
624.65	17.632
624.99	18.531
625.32	18.811
625.65	18.409
625.98	17.356
626.31	18.285
626.64	17.656
626.97	18.755
627.30	17.008
627.63	17.704
627.96	18.619
628.29	18.444
628.62	17.716
628.95	18.843
629.28	17.332
629.61	17.508
629.94	16.485
630.26	17.797
630.59	17.358
630.92	17.143
631.25	18.336
631.58	19.209
631.91	18.932
632.24	19.404
632.57	16.414
632.90	17.653
633.23	17.551
633.56	18.163
633.89	17.769
634.22	20.166
634.55	17.954
634.88	17.749
635.20	18.730
635.53	19.661
635.86	19.285
636.19	19.830
636.52	19.198
636.85	16.854
637.18	18.919
637.51	17.419
637.83	17.719
638.16	17.627
638.49	17.723
638.82	17.136
639.15	16.953
639.48	18.822
639.81	18.360
640.13	19.081
640.46	16.000
640.79	18.137
641.12	18.509
641.45	17.691
641.77	18.742
642.10	16.404
642.43	18.617
642.76	17.344
643.09	18.082
643.41	17.087
643.74	19.172
644.07	20.138
644.40	16.549
644.73	19.158
645.05	18.209
645.38	18.993
645.71	18.182
646.04	19.656
646.36	17.518
646.69	16.411
647.02	17.278
647.35	18.321
647.67	18.519
648.00	17.516
648.33	17.868
648.66	17.404
648.98	17.687
649.31	17.321
649.64	18.327
649.96	16.313
650.29	16.690
650.62	18.529
650.94	18.919
651.27	18.862
651.60	16.374
651.92	18.085
652.25	18.524
652.58	17.194
652.90	18.023
653.23	18.028
653.56	17.546
653.88	17.416
654.21	17.606
654.54	16.908
654.86	17.989
655.19	15.433
655.52	15.483
655.84	14.443
656.17	16.948
656.49	23.767
656.82	26.139
657.15	20.107
657.47	15.232
657.80	11.187
658.13	8.625
658.45	11.519
658.78	14.104
659.10	13.419
659.43	13.375
659.75	13.255
660.08	13.445
660.41	14.061
660.73	15.849
661.06	14.978
661.38	16.268
661.71	17.241
662.03	15.168
662.36	17.889
662.68	15.385
663.01	18.230
663.33	18.147
663.66	19.231
663.98	17.692
664.31	16.886
664.63	13.487
664.96	17.967
665.28	15.064
665.61	18.007
665.93	14.643
666.26	16.308
666.58	16.790
666.91	18.692
667.23	18.286
667.56	15.582
667.88	17.200
668.21	15.039
668.53	13.900
668.86	16.896
669.18	16.904
669.50	15.905
669.83	16.400
670.15	14.764
670.48	15.079
670.80	15.679
671.13	16.257
671.45	15.354
671.77	19.586
672.10	15.500
672.42	15.696
672.75	14.900
673.07	15.970
673.39	15.100
673.72	16.275
674.04	15.862
674.37	15.742
674.69	18.166
675.01	17.714
675.34	15.076
675.66	16.105
675.98	15.299
676.31	14.062
676.63	17.110
676.95	17.050
677.28	16.129
677.60	12.795
677.92	16.123
678.25	15.356
678.57	17.794
678.89	17.406
679.22	14.808
679.54	16.239
679.86	14.407
680.18	15.091
680.51	16.509
680.83	14.239
681.15	14.310
681.48	16.235
681.80	13.126
682.12	15.909
682.44	14.023
682.77	14.184
683.09	14.205
683.41	17.054
683.73	14.042
684.06	14.945
684.38	12.522
684.70	16.338
685.02	15.663
685.34	16.140
685.67	12.618
685.99	15.184
686.31	13.081
686.63	13.112
686.96	14.038
687.28	14.495
687.60	14.141
687.92	14.630
688.24	14.858
688.56	12.069
688.89	14.882
689.21	16.438
689.53	13.333
689.85	11.834
690.17	13.704
690.49	14.940
690.82	13.861
691.14	12.753
691.46	15.488
691.78	15.654
692.10	13.945
692.42	12.679
692.74	13.067
693.06	13.333
693.39	16.319
693.71	13.722
694.03	14.126
694.35	15.619
694.67	13.963
694.99	11.702
695.31	12.804
695.63	17.100
695.95	12.629
696.27	15.824
696.59	15.708
696.91	12.387
697.23	16.923
697.56	13.849
697.88	13.447
698.20	12.618
698.52	17.992
698.84	12.890
699.16	15.102
699.48	16.527
699.80	11.277
700.12	13.974
700.44	14.055
700.76	14.014
701.08	15.254
701.40	13.731
701.72	15.423
702.04	15.241
702.36	9.424
702.68	12.469
703.00	12.225
703.32	13.793
703.64	13.203
703.96	16.706
704.28	14.742
704.60	13.924
704.91	13.520
705.23	17.534
705.55	13.928
705.87	16.061
706.19	14.417
706.51	13.855
706.83	11.527
707.15	8.995
707.47	13.084
707.79	13.974
708.11	13.347
708.43	12.903
708.74	12.277
709.06	13.457
709.38	15.493
709.70	16.873
710.02	14.729
710.34	14.362
710.66	11.173
710.98	12.568
711.29	14.011
711.61	12.712
711.93	13.960
712.25	12.162
712.57	16.519
712.89	17.353
713.20	13.314
713.52	17.052
713.84	13.370
714.16	16.842
714.48	13.144
714.80	16.883
715.11	10.499
715.43	11.406
715.75	12.895
716.07	12.707
716.39	15.301
716.70	10.843
717.02	14.426
717.34	11.498
717.66	12.752
717.97	12.671
718.29	15.464
718.61	13.816
718.93	12.621
719.24	12.733
719.56	10.429
719.88	12.312
720.20	16.129
720.51	12.112
720.83	11.250
721.15	9.868
721.46	9.932
721.78	11.000
722.10	12.298
722.42	14.430
722.73	10.645
723.05	14.386
723.37	16.319
723.68	15.412
724.00	12.635
724.32	10.211
724.63	15.734
724.95	12.766
725.27	9.408
725.58	11.307
725.90	12.414
726.22	12.226
726.53	13.312
726.85	14.465
727.16	14.199
727.48	14.067
727.80	14.901
728.11	7.420
728.43	14.141
728.74	13.712
729.06	13.907
729.38	8.766
729.69	12.416
730.01	11.012
730.32	9.394
730.64	9.434
730.96	8.385
731.27	11.173
731.59	13.187
731.90	11.688
732.22	11.719
732.53	7.735
732.85	12.571
733.16	13.490
733.48	10.976
733.80	11.699
734.11	9.687
734.43	12.432
734.74	12.658
735.06	13.568
735.37	13.784
735.69	10.000
736.00	11.582
736.32	10.782
736.63	12.778
736.95	11.207
737.26	12.121
737.58	8.182
737.89	10.882
738.21	8.257
738.52	9.836
738.83	12.969
739.15	9.220
739.46	10.204
739.78	11.350
740.09	9.169
740.41	14.577
740.72	8.000
741.04	11.650
741.35	12.281
741.66	14.118
741.98	9.426
742.29	10.460
742.61	13.596
742.92	14.615
743.23	14.079
743.55	9.690
743.86	14.000
744.18	7.851
744.49	13.502
744.80	16.461
745.12	13.080
745.43	17.886
745.74	6.034
746.06	12.712
746.37	16.878
746.68	14.634
747.00	12.083
747.31	10.730
747.62	14.615
747.94	12.955
748.25	11.245
748.56	7.347
748.88	11.538
749.19	17.241
749.50	7.792
749.82	11.245
750.13	17.438
750.44	6.667
750.75	12.923
751.07	9.231
751.38	13.249
751.69	12.460
752.01	8.091
752.32	7.190
752.63	8.163
752.94	10.727
753.26	11.152
753.57	9.259
753.88	8.614
754.19	13.183
754.51	11.897
754.82	13.826
755.13	14.754
755.44	7.850
755.75	11.184
756.07	14.030
756.38	9.434
756.69	15.663
757.00	8.310
757.31	9.836
757.63	8.696
757.94	8.685
758.25	10.609
758.56	11.765
758.87	12.273
759.18	9.333
759.50	13.031
759.81	10.364
760.12	9.434
760.43	10.677
760.74	11.330
761.05	9.750
761.36	10.361
761.67	9.898
761.99	10.000
762.30	10.976
762.61	9.571
762.92	11.567
763.23	9.363
763.54	7.914
763.85	6.529
764.16	10.438
764.47	8.099
764.78	8.946
765.10	14.370
765.41	10.513
765.72	11.905
766.03	9.322
766.34	9.091
766.65	9.756
766.96	9.960
767.27	11.521
767.58	4.478
767.89	16.346
768.20	11.268
768.51	13.426
768.82	10.843
769.13	10.227
769.44	5.769
769.75	11.552
770.06	9.615
770.37	14.961
770.68	7.234
770.99	3.239
771.30	12.593
771.61	11.027
771.92	8.889
772.23	12.146
772.54	5.093
772.85	15.207
773.16	9.524
773.47	6.349
773.78	4.324
774.09	14.773
774.39	12.500
774.70	9.836
775.01	3.659
775.32	8.824
775.63	6.135
775.94	3.185
776.25	7.742
776.56	14.103
776.87	13.605
777.18	8.276
777.48	14.685
777.79	8.108
778.10	0.735
778.41	13.194
778.72	15.172
779.03	18.519
779.34	10.303
779.65	6.218
779.95	18.333
780.26	7.955
780.57	8.387
780.88	20.290
781.19	11.613
781.50	17.647
781.80	13.441
782.11	10.582
782.42	7.576
782.73	10.180
783.04	5.587
783.34	6.667
783.65	3.922
783.96	11.180
784.27	11.310
784.57	5.960
784.88	12.857
785.19	6.299
785.50	8.661
785.81	12.030
786.11	10.000
786.42	6.475
786.73	12.230
787.04	7.519
787.34	10.656
787.65	6.400
787.96	9.701
788.26	16.783
788.57	13.287
788.88	11.184
789.19	12.418
789.49	6.849
789.80	17.021
790.11	6.299
790.41	11.719
790.72	7.627
791.03	0.971
791.33	9.565
791.64	8.772
791.95	3.571
792.25	8.571
792.56	14.286
792.87	5.208
793.17	7.143
793.48	7.292
793.79	-7.229
794.09	11.009
794.40	11.009
794.70	8.844
795.01	11.688
795.32	6.164
795.62	8.451
795.93	6.818
796.23	5.738
796.54	1.786
796.85	6.383
797.15	-3.261
797.46	2.740
797.76	1.250
798.07	7.609
798.37	-6.186
798.68	0.000
798.99	10.345
799.29	0.000
799.60	14.894
799.90	-7.229
800.21	-10.769
800.51	-1.493
800.82	7.353
801.12	-4.110
801.43	-14.706
801.73	6.780
802.04	7.576
802.34	5.000
802.65	0.000
802.95	10.448
803.26	3.390
803.56	8.219
803.87	2.857
804.17	20.548
804.48	-14.035
804.78	13.889
805.09	1.724
805.39	13.514
805.70	2.817
806.00	9.756
806.30	1.205
806.61	0.000
806.91	13.462
807.22	11.111
807.52	13.793
807.83	4.167
808.13	19.277
808.43	11.236
808.74	15.000
809.04	-4.412
809.35	-1.333
809.65	12.857
809.95	13.699
810.26	-15.789
810.56	8.621
810.86	14.706
811.17	-3.509
811.47	-11.475
811.77	-6.667
812.08	-5.085
812.38	10.000
812.69	15.517
812.99	7.547
813.29	-41.026
813.59	28.000
813.90	17.544
814.20	7.273
814.50	14.085
814.81	12.821
815.11	18.033
815.41	-5.970
815.72	-6.897
816.02	-5.357
816.32	0.000
816.62	27.273
816.93	-4.444
817.23	11.111
817.53	-2.128
817.84	9.524
818.14	-17.647
818.44	0.000
818.74	13.333
819.04	-5.128
819.35	-14.286
819.65	-30.769
819.95	5.660
820.25	4.444
820.56	-9.524
820.86	-28.125
821.16	5.128
821.46	-11.628
821.76	-18.000
822.07	-3.571
822.37	-4.348
822.67	6.383
822.97	-18.919
823.27	-10.000
823.57	14.286
823.88	13.333
824.18	12.500
824.48	-23.333
824.78	0.000
825.08	-6.061
825.38	33.333
825.69	36.170
825.99	19.444
826.29	-34.286
826.59	-2.564
826.89	2.326
827.19	16.000
827.49	8.824
827.79	-4.167
828.09	-21.622
828.39	20.000
828.70	14.634
829.00	-9.302
829.30	-21.429
829.60	38.235
829.90	17.391
830.20	-14.286
830.50	-6.897
830.80	-33.333
831.10	-3.846
831.40	2.941
831.70	23.810
832.00	29.032
832.30	-111.765
832.60	-41.667
832.90	-38.462
833.20	31.579
833.50	5.000
833.80	-10.526
834.10	-80.952
834.40	27.778
834.70	46.875
835.00	2.857
835.30	2.941
835.60	-16.667
835.90	32.000
836.20	-54.545
836.50	8.000
836.80	3.030
837.10	-25.926
837.40	-3.704
837.70	0.000
838.00	-3.571
838.30	-8.696
838.60	0.000
838.90	-14.286
839.19	-73.913
839.49	-133.333
839.79	-4.348
840.09	-31.250
840.39	-30.000
840.69	-3.226
840.99	10.714
841.29	-13.333
841.59	-36.842
841.88	23.077
842.18	-3.846
842.48	20.000
842.78	15.000
843.08	20.000
843.38	32.258
843.68	-38.889
843.97	38.235
844.27	-37.500
844.57	-10.526
844.87	-20.000
845.17	-20.000
845.47	14.286
845.76	-66.667
846.06	-55.556
846.36	-23.529
846.66	-7.692
846.96	-60.000
847.25	23.529
847.55	4.348
847.85	20.000
848.15	17.647
848.44	-36.364
848.74	9.524
849.04	4.167
849.34	-37.500
849.63	8.696
849.93	200.000
850.23	20.000
850.53	61.538
850.82	36.364
851.12	0.000
851.42	45.455
851.71	-7.692
852.01	-40.000
852.31	-46.154
852.61	5.263
852.90	16.667
853.20	-11.111
853.50	-100.000
853.79	4.762
854.09	-54.545
854.39	-108.333
854.68	0.000
854.98	-53.846
855.28	-22.222
855.57	-28.571
855.87	-24.000
856.17	-27.273
856.46	22.222
856.76	-11.111
857.05	0.000
857.35	8.333
857.65	-46.154
857.94	-9.524
858.24	29.630
858.53	39.130
858.83	17.647
859.13	-17.647
859.42	11.765
859.72	50.000
860.01	-35.000
860.31	-33.333
860.60	-30.000
860.90	6.667
861.20	-33.333
861.49	23.077
861.79	30.000
862.08	-7.692
862.38	21.875
862.67	17.647
862.97	-87.500
863.26	-177.778
863.56	-10.000
863.85	-45.455
864.15	22.222
864.44	66.667
864.74	-14.286
865.03	-12.500
865.33	-50.000
865.62	16.129
865.92	22.727
866.21	34.783
866.51	7.143
866.80	-160.000
867.10	-25.000
867.39	0.000
867.69	1700.000
867.98	-42.857
868.27	0.000
868.57	-1800.000
868.86	-90.000
869.16	-19.048
869.45	29.167
869.75	-27.273
870.04	-28.571
870.33	125.000
870.63	-71.429
870.92	50.000
871.22	-50.000
871.51	-18.182
871.80	-266.667
872.10	-350.000
>>>>>End Processed Spectral Data<<<<<
