SpectraSuite Data File
++++++++++++++++++++++++++++++++++++
Date: Thu May 14 16:27:41 PDT 2015
User: schluterlab
Dark Spectrum Present: Yes
Reference Spectrum Present: Yes
Number of Sampled Component Spectra: 1
Spectrometers: USB2E3373
Integration Time (usec): 3000 (USB2E3373)
Spectra Averaged: 3 (USB2E3373)
Boxcar Smoothing: 0 (USB2E3373)
Correct for Electrical Dark: No (USB2E3373)
Strobe/Lamp Enabled: No (USB2E3373)
Correct for Detector Non-linearity: No (USB2E3373)
Correct for Stray Light: No (USB2E3373)
Number of Pixels in Processed Spectrum: 2048
>>>>>Begin Processed Spectral Data<<<<<
178.53	0.000
178.91	-42.857
179.29	-800.000
179.67	-400.000
180.04	142.857
180.42	120.000
180.80	-80.000
181.18	-100.000
181.56	600.000
181.94	-50.000
182.31	150.000
182.69	100.000
183.07	500.000
183.45	-100.000
183.83	-100.000
184.20	33.333
184.58	-400.000
184.96	-175.000
185.34	-55.556
185.72	60.000
186.09	44.444
186.47	-250.000
186.85	260.000
187.23	-100.000
187.61	-600.000
187.98	-60.000
188.36	100.000
188.74	-150.000
189.12	100.000
189.49	93.750
189.87	87.500
190.25	77.778
190.63	100.000
191.00	-77.778
191.38	0.000
191.76	-125.000
192.14	16.667
192.51	-250.000
192.89	166.667
193.27	0.000
193.65	71.429
194.02	-1700.000
194.40	71.429
194.78	57.143
195.15	0.000
195.53	9.091
195.91	0.000
196.29	175.000
196.66	-61.538
197.04	-600.000
197.42	14.286
197.79	-200.000
198.17	-100.000
198.55	14.286
198.92	22.222
199.30	-62.500
199.68	27.273
200.05	50.000
200.43	-300.000
200.81	114.286
201.18	0.000
201.56	166.667
201.94	0.000
202.31	100.000
202.69	-111.111
203.07	200.000
203.44	22.222
203.82	0.000
204.19	16.667
204.57	150.000
204.95	50.000
205.32	-100.000
205.70	150.000
206.08	16.667
206.45	-50.000
206.83	240.000
207.20	116.667
207.58	20.000
207.96	-16.667
208.33	133.333
208.71	66.667
209.08	-33.333
209.46	0.000
209.84	100.000
210.21	300.000
210.59	500.000
210.96	-0.000
211.34	300.000
211.71	0.000
212.09	-200.000
212.46	0.000
212.84	450.000
213.22	-160.000
213.59	75.000
213.97	-20.000
214.34	100.000
214.72	-0.000
215.09	25.000
215.47	0.000
215.84	57.143
216.22	600.000
216.59	0.000
216.97	20.000
217.34	75.000
217.72	37.500
218.09	75.000
218.47	-25.000
218.84	0.000
219.22	-60.000
219.59	64.706
219.97	25.000
220.34	100.000
220.72	22.222
221.09	76.923
221.47	66.667
221.84	-40.000
222.22	-85.714
222.59	0.000
222.97	50.000
223.34	-40.000
223.72	800.000
224.09	0.000
224.46	100.000
224.84	80.000
225.21	-71.429
225.59	-375.000
225.96	50.000
226.34	34.615
226.71	133.333
227.08	-150.000
227.46	20.000
227.83	-100.000
228.21	10.526
228.58	12.500
228.95	-100.000
229.33	58.333
229.70	10.000
230.08	52.632
230.45	40.000
230.82	-66.667
231.20	-14.286
231.57	0.000
231.95	-9.091
232.32	72.727
232.69	55.000
233.07	-100.000
233.44	35.294
233.81	-10.000
234.19	111.111
234.56	27.273
234.93	51.724
235.31	42.105
235.68	44.444
236.05	0.000
236.43	69.231
236.80	96.000
237.17	40.741
237.55	39.394
237.92	40.000
238.29	19.355
238.67	27.273
239.04	25.000
239.41	47.619
239.79	-6.522
240.16	29.630
240.53	26.087
240.91	35.294
241.28	27.869
241.65	41.791
242.02	41.892
242.40	44.615
242.77	49.333
243.14	30.488
243.51	25.000
243.89	15.385
244.26	34.653
244.63	37.255
245.00	38.318
245.38	28.070
245.75	15.929
246.12	37.302
246.49	34.884
246.87	38.571
247.24	45.033
247.61	43.421
247.98	40.940
248.36	37.654
248.73	29.448
249.10	29.508
249.47	37.313
249.84	42.408
250.22	39.378
250.59	38.333
250.96	40.000
251.33	34.184
251.70	36.752
252.08	39.167
252.45	35.246
252.82	34.711
253.19	33.984
253.56	39.544
253.94	28.462
254.31	40.152
254.68	41.608
255.05	37.134
255.42	35.714
255.79	36.893
256.16	38.742
256.54	36.424
256.91	37.049
257.28	39.344
257.65	36.943
258.02	32.743
258.39	38.462
258.76	40.673
259.14	39.080
259.51	39.193
259.88	39.093
260.25	36.944
260.62	37.534
260.99	37.705
261.36	41.823
261.73	36.340
262.10	37.637
262.47	39.946
262.85	38.131
263.22	35.844
263.59	32.632
263.96	35.550
264.33	36.573
264.70	39.753
265.07	36.516
265.44	39.229
265.81	38.194
266.18	37.868
266.55	35.491
266.92	35.763
267.29	38.074
267.66	40.798
268.03	39.301
268.40	35.491
268.77	35.991
269.14	34.581
269.51	36.404
269.88	36.270
270.25	36.217
270.62	39.241
270.99	38.182
271.36	35.842
271.73	36.346
272.10	36.874
272.47	35.872
272.84	36.145
273.21	34.669
273.58	38.105
273.95	36.154
274.32	34.601
274.69	35.203
275.06	36.447
275.43	34.196
275.80	36.861
276.17	34.259
276.54	34.888
276.91	34.705
277.28	36.347
277.65	35.009
278.02	36.581
278.39	34.239
278.76	34.622
279.13	34.397
279.50	34.364
279.87	35.599
280.23	34.507
280.60	36.441
280.97	32.895
281.34	34.126
281.71	36.717
282.08	33.721
282.45	35.025
282.82	32.810
283.19	32.472
283.56	34.590
283.92	34.384
284.29	36.809
284.66	32.512
285.03	32.051
285.40	33.385
285.77	34.056
286.14	35.115
286.51	33.029
286.87	35.387
287.24	32.831
287.61	34.230
287.98	30.060
288.35	33.136
288.72	34.172
289.08	31.625
289.45	32.692
289.82	32.078
290.19	31.466
290.56	30.563
290.93	29.244
291.29	30.303
291.66	30.303
292.03	28.494
292.40	31.020
292.77	29.380
293.13	30.041
293.50	30.092
293.87	28.188
294.24	30.800
294.60	30.341
294.97	26.980
295.34	29.193
295.71	26.482
296.08	28.682
296.44	27.696
296.81	27.527
297.18	27.273
297.55	27.005
297.91	27.402
298.28	26.185
298.65	26.635
299.02	27.391
299.38	26.201
299.75	26.986
300.12	25.810
300.48	26.498
300.85	26.547
301.22	26.734
301.59	26.142
301.95	25.537
302.32	25.556
302.69	26.506
303.05	26.007
303.42	26.053
303.79	26.146
304.15	24.816
304.52	26.004
304.89	24.817
305.25	24.638
305.62	24.765
305.99	25.670
306.35	25.403
306.72	26.784
307.09	24.061
307.45	25.569
307.82	24.924
308.19	24.521
308.55	25.362
308.92	25.901
309.29	24.330
309.65	25.439
310.02	25.347
310.38	25.492
310.75	25.340
311.12	27.325
311.48	26.197
311.85	25.831
312.22	26.660
312.58	26.385
312.95	26.960
313.31	25.745
313.68	25.824
314.05	27.100
314.41	26.230
314.78	26.521
315.14	25.862
315.51	27.701
315.87	27.183
316.24	27.671
316.61	27.709
316.97	27.511
317.34	28.395
317.70	28.559
318.07	28.131
318.43	29.167
318.80	30.100
319.16	28.155
319.53	29.049
319.89	28.747
320.26	29.715
320.62	29.255
320.99	30.840
321.35	31.331
321.72	31.721
322.08	31.380
322.45	30.714
322.81	31.137
323.18	32.212
323.54	31.466
323.91	33.007
324.27	32.444
324.64	33.417
325.00	32.919
325.37	33.251
325.73	34.876
326.10	34.793
326.46	36.075
326.83	35.388
327.19	35.591
327.56	35.573
327.92	35.484
328.29	36.210
328.65	36.013
329.01	37.225
329.38	35.720
329.74	37.842
330.11	37.243
330.47	35.720
330.84	36.951
331.20	37.083
331.56	37.868
331.93	36.820
332.29	36.610
332.66	37.375
333.02	37.605
333.38	37.752
333.75	38.384
334.11	38.282
334.48	37.046
334.84	39.082
335.20	37.615
335.57	37.858
335.93	38.182
336.29	36.938
336.66	38.352
337.02	37.542
337.38	38.010
337.75	37.769
338.11	38.183
338.47	36.559
338.84	37.817
339.20	37.995
339.56	36.738
339.93	36.864
340.29	36.795
340.65	35.766
341.02	37.989
341.38	37.268
341.74	36.077
342.11	38.858
342.47	35.981
342.83	38.003
343.20	37.939
343.56	37.851
343.92	36.669
344.28	37.500
344.65	36.589
345.01	36.817
345.37	37.092
345.73	35.308
346.10	38.300
346.46	36.867
346.82	37.528
347.19	36.746
347.55	39.530
347.91	36.553
348.27	36.419
348.63	37.624
349.00	37.211
349.36	36.877
349.72	36.384
350.08	37.964
350.45	38.099
350.81	36.501
351.17	37.594
351.53	37.301
351.89	38.800
352.26	37.313
352.62	38.507
352.98	37.099
353.34	36.520
353.70	37.904
354.07	37.705
354.43	36.902
354.79	35.901
355.15	37.380
355.51	36.842
355.87	38.220
356.24	38.023
356.60	37.029
356.96	37.732
357.32	36.134
357.68	36.310
358.04	36.153
358.40	36.866
358.77	36.696
359.13	36.041
359.49	35.167
359.85	36.693
360.21	36.083
360.57	36.253
360.93	37.447
361.29	37.684
361.66	37.292
362.02	38.413
362.38	38.229
362.74	37.849
363.10	36.657
363.46	37.812
363.82	37.571
364.18	36.664
364.54	37.206
364.90	38.261
365.26	38.414
365.62	37.067
365.98	37.236
366.35	36.577
366.71	37.551
367.07	37.145
367.43	37.951
367.79	37.293
368.15	36.522
368.51	37.957
368.87	36.773
369.23	36.533
369.59	37.227
369.95	37.728
370.31	37.812
370.67	36.795
371.03	37.258
371.39	35.527
371.75	38.308
372.11	37.127
372.47	37.508
372.83	37.565
373.19	36.691
373.55	37.195
373.91	37.423
374.27	35.576
374.63	37.754
374.99	37.931
375.35	37.468
375.71	37.161
376.07	37.508
376.42	35.957
376.78	38.533
377.14	37.430
377.50	37.634
377.86	37.623
378.22	38.024
378.58	37.693
378.94	37.441
379.30	36.907
379.66	38.095
380.02	38.257
380.38	39.574
380.74	36.901
381.09	37.573
381.45	36.818
381.81	39.052
382.17	37.589
382.53	37.310
382.89	37.585
383.25	36.987
383.61	38.021
383.97	36.219
384.32	38.457
384.68	36.543
385.04	38.115
385.40	37.360
385.76	38.570
386.12	37.044
386.48	37.000
386.83	37.843
387.19	37.601
387.55	36.913
387.91	37.100
388.27	37.702
388.62	37.915
388.98	37.845
389.34	37.949
389.70	37.362
390.06	38.188
390.42	37.771
390.77	37.929
391.13	36.972
391.49	37.138
391.85	36.788
392.20	37.960
392.56	36.385
392.92	37.514
393.28	37.866
393.64	38.101
393.99	37.943
394.35	38.201
394.71	37.425
395.07	36.587
395.42	36.836
395.78	38.940
396.14	38.146
396.50	37.292
396.85	37.269
397.21	37.633
397.57	36.337
397.92	37.973
398.28	36.882
398.64	37.414
399.00	36.178
399.35	37.592
399.71	37.500
400.07	38.349
400.42	36.438
400.78	37.269
401.14	36.995
401.49	37.521
401.85	37.558
402.21	36.385
402.57	37.969
402.92	36.288
403.28	36.417
403.63	35.919
403.99	36.045
404.35	36.612
404.70	36.487
405.06	36.304
405.42	37.705
405.77	37.350
406.13	36.197
406.49	37.162
406.84	36.177
407.20	36.389
407.55	35.675
407.91	36.958
408.27	36.690
408.62	37.173
408.98	37.841
409.34	36.129
409.69	36.650
410.05	36.284
410.40	36.485
410.76	36.287
411.11	36.762
411.47	37.162
411.83	35.920
412.18	36.084
412.54	36.692
412.89	36.380
413.25	36.061
413.60	35.554
413.96	36.422
414.31	35.694
414.67	36.017
415.03	35.877
415.38	37.201
415.74	34.881
416.09	35.965
416.45	34.941
416.80	35.190
417.16	36.718
417.51	36.115
417.87	34.825
418.22	34.850
418.58	35.874
418.93	35.797
419.29	35.943
419.64	35.174
420.00	35.905
420.35	35.710
420.71	35.841
421.06	34.733
421.42	36.697
421.77	34.356
422.12	36.152
422.48	34.818
422.83	36.035
423.19	35.013
423.54	36.007
423.90	35.616
424.25	35.307
424.61	35.304
424.96	35.585
425.31	35.032
425.67	34.675
426.02	36.027
426.38	35.189
426.73	35.100
427.09	35.352
427.44	34.244
427.79	35.268
428.15	34.932
428.50	35.562
428.85	34.558
429.21	35.745
429.56	34.600
429.92	34.300
430.27	35.133
430.62	35.076
430.98	34.678
431.33	34.213
431.68	33.860
432.04	34.434
432.39	33.958
432.74	34.646
433.10	34.667
433.45	34.337
433.80	34.925
434.16	34.194
434.51	34.738
434.86	35.179
435.22	35.228
435.57	35.790
435.92	34.558
436.28	34.471
436.63	34.353
436.98	33.816
437.34	33.935
437.69	34.232
438.04	34.003
438.39	33.774
438.75	32.983
439.10	34.355
439.45	34.321
439.81	33.672
440.16	32.708
440.51	33.278
440.86	34.074
441.22	34.191
441.57	34.696
441.92	33.511
442.27	34.091
442.63	34.178
442.98	33.778
443.33	34.403
443.68	33.994
444.03	34.948
444.39	34.720
444.74	34.558
445.09	32.489
445.44	34.984
445.79	33.716
446.15	33.813
446.50	33.075
446.85	33.755
447.20	33.124
447.55	35.042
447.91	34.188
448.26	32.822
448.61	32.306
448.96	34.549
449.31	32.874
449.66	33.115
450.02	33.281
450.37	33.298
450.72	33.046
451.07	32.745
451.42	32.640
451.77	32.407
452.12	33.465
452.47	32.680
452.83	34.459
453.18	33.392
453.53	31.821
453.88	33.462
454.23	33.842
454.58	33.372
454.93	33.252
455.28	33.353
455.63	32.860
455.98	34.022
456.34	32.332
456.69	33.039
457.04	33.452
457.39	32.317
457.74	33.221
458.09	32.125
458.44	33.297
458.79	32.285
459.14	31.935
459.49	33.447
459.84	33.106
460.19	32.315
460.54	32.879
460.89	32.875
461.24	32.241
461.59	32.651
461.94	31.660
462.29	32.643
462.64	31.925
462.99	32.768
463.34	32.317
463.69	31.008
464.04	31.740
464.39	32.287
464.74	31.756
465.09	32.411
465.44	31.706
465.79	31.465
466.14	31.318
466.49	31.526
466.84	31.736
467.19	31.850
467.54	30.317
467.89	29.540
468.24	31.745
468.59	30.168
468.94	30.420
469.29	29.874
469.64	31.596
469.99	30.975
470.34	30.755
470.68	30.759
471.03	30.845
471.38	30.870
471.73	30.819
472.08	30.964
472.43	30.765
472.78	31.801
473.13	29.646
473.48	30.695
473.83	31.283
474.17	30.832
474.52	31.028
474.87	29.513
475.22	30.310
475.57	30.218
475.92	30.164
476.27	30.138
476.61	29.907
476.96	29.458
477.31	29.653
477.66	30.430
478.01	29.944
478.36	30.110
478.70	30.493
479.05	30.266
479.40	30.553
479.75	29.491
480.10	30.223
480.45	29.672
480.79	30.068
481.14	29.596
481.49	29.350
481.84	29.199
482.19	29.118
482.53	30.214
482.88	29.553
483.23	29.169
483.58	29.039
483.92	28.236
484.27	29.128
484.62	29.167
484.97	29.666
485.31	28.969
485.66	28.571
486.01	29.030
486.36	30.002
486.70	30.395
487.05	30.151
487.40	29.231
487.75	28.550
488.09	27.726
488.44	27.096
488.79	28.364
489.13	27.806
489.48	27.379
489.83	27.928
490.17	27.542
490.52	28.530
490.87	28.553
491.22	28.293
491.56	27.773
491.91	28.565
492.26	28.256
492.60	27.591
492.95	28.214
493.30	27.432
493.64	27.113
493.99	27.588
494.34	27.308
494.68	27.537
495.03	27.401
495.37	27.785
495.72	27.302
496.07	26.906
496.41	26.813
496.76	28.107
497.11	27.558
497.45	27.449
497.80	27.454
498.14	27.256
498.49	26.195
498.84	26.737
499.18	27.170
499.53	27.220
499.87	26.945
500.22	25.913
500.56	26.451
500.91	26.407
501.26	26.773
501.60	26.381
501.95	26.835
502.29	26.722
502.64	26.716
502.98	26.316
503.33	26.134
503.67	25.600
504.02	25.744
504.36	26.184
504.71	26.137
505.06	26.285
505.40	25.914
505.75	25.501
506.09	25.783
506.44	26.045
506.78	26.101
507.13	25.818
507.47	26.528
507.82	25.379
508.16	25.239
508.51	24.754
508.85	26.075
509.19	26.054
509.54	25.696
509.88	25.401
510.23	25.206
510.57	26.728
510.92	25.206
511.26	24.820
511.61	24.867
511.95	25.427
512.30	25.455
512.64	24.588
512.98	24.712
513.33	24.899
513.67	24.987
514.02	25.498
514.36	24.910
514.70	25.312
515.05	25.547
515.39	24.672
515.74	25.451
516.08	24.775
516.42	25.903
516.77	24.816
517.11	24.807
517.46	24.496
517.80	25.067
518.14	24.810
518.49	24.241
518.83	24.162
519.17	24.502
519.52	23.795
519.86	24.762
520.20	23.908
520.55	24.261
520.89	24.550
521.23	23.953
521.58	23.559
521.92	23.513
522.26	23.024
522.61	23.322
522.95	23.645
523.29	23.736
523.64	24.271
523.98	24.358
524.32	24.585
524.66	23.847
525.01	23.103
525.35	24.009
525.69	23.202
526.04	22.675
526.38	23.736
526.72	23.126
527.06	23.871
527.41	23.324
527.75	23.278
528.09	24.616
528.43	23.150
528.78	23.584
529.12	22.649
529.46	23.047
529.80	23.970
530.15	22.319
530.49	23.132
530.83	22.137
531.17	22.700
531.51	22.984
531.86	23.738
532.20	23.354
532.54	22.621
532.88	22.667
533.22	22.746
533.57	23.370
533.91	22.727
534.25	23.064
534.59	22.874
534.93	22.920
535.27	23.549
535.62	24.105
535.96	22.719
536.30	22.973
536.64	23.604
536.98	23.247
537.32	23.395
537.66	23.082
538.01	22.356
538.35	22.899
538.69	22.236
539.03	22.808
539.37	22.674
539.71	22.342
540.05	22.302
540.39	21.699
540.73	21.372
541.07	23.483
541.42	22.859
541.76	22.064
542.10	22.437
542.44	23.143
542.78	22.871
543.12	22.586
543.46	22.161
543.80	21.523
544.14	21.484
544.48	23.582
544.82	23.100
545.16	22.958
545.50	22.289
545.84	22.045
546.18	23.210
546.52	21.083
546.86	21.824
547.20	22.519
547.54	21.973
547.88	21.700
548.22	21.813
548.56	21.123
548.90	21.910
549.24	21.884
549.58	22.524
549.92	21.556
550.26	22.460
550.60	22.336
550.94	22.057
551.28	20.858
551.62	22.237
551.96	21.359
552.30	22.243
552.64	21.966
552.98	22.146
553.32	22.251
553.66	22.058
554.00	22.762
554.34	21.493
554.68	21.821
555.02	21.682
555.36	21.565
555.69	20.243
556.03	21.248
556.37	22.153
556.71	20.609
557.05	21.342
557.39	21.566
557.73	21.004
558.07	21.258
558.41	21.196
558.75	22.110
559.08	22.547
559.42	21.125
559.76	21.506
560.10	21.299
560.44	20.646
560.78	21.375
561.12	21.121
561.45	21.898
561.79	21.306
562.13	20.764
562.47	20.900
562.81	20.886
563.15	21.465
563.48	21.069
563.82	20.617
564.16	20.109
564.50	21.216
564.84	21.003
565.17	21.176
565.51	20.829
565.85	21.378
566.19	21.486
566.52	20.655
566.86	21.449
567.20	20.609
567.54	21.349
567.88	22.324
568.21	22.826
568.55	21.727
568.89	22.152
569.23	21.757
569.56	22.548
569.90	22.666
570.24	22.192
570.57	22.771
570.91	22.535
571.25	22.650
571.59	22.794
571.92	22.468
572.26	21.996
572.60	21.649
572.93	21.820
573.27	22.310
573.61	21.916
573.95	22.117
574.28	21.957
574.62	22.192
574.96	21.945
575.29	22.031
575.63	21.529
575.97	21.749
576.30	21.540
576.64	22.023
576.98	21.913
577.31	22.405
577.65	22.534
577.98	22.270
578.32	22.192
578.66	22.239
578.99	21.790
579.33	21.810
579.67	21.396
580.00	21.668
580.34	21.902
580.67	21.205
581.01	22.263
581.35	21.859
581.68	22.431
582.02	22.134
582.35	22.657
582.69	22.083
583.02	22.463
583.36	21.688
583.70	21.495
584.03	21.094
584.37	21.007
584.70	21.565
585.04	21.553
585.37	21.807
585.71	21.877
586.04	21.841
586.38	21.913
586.72	20.732
587.05	21.080
587.39	21.591
587.72	22.057
588.06	21.567
588.39	21.359
588.73	21.058
589.06	21.360
589.40	20.959
589.73	20.887
590.07	21.088
590.40	21.366
590.73	20.679
591.07	21.407
591.40	20.568
591.74	20.747
592.07	21.194
592.41	20.702
592.74	20.944
593.08	21.879
593.41	22.572
593.75	21.983
594.08	21.721
594.41	21.410
594.75	21.056
595.08	21.265
595.42	21.234
595.75	20.665
596.09	21.416
596.42	20.924
596.75	20.764
597.09	21.172
597.42	20.183
597.75	20.071
598.09	20.675
598.42	20.828
598.76	21.169
599.09	21.218
599.42	20.818
599.76	20.931
600.09	21.855
600.42	21.154
600.76	21.070
601.09	20.677
601.42	20.838
601.76	20.655
602.09	20.264
602.42	20.320
602.76	21.144
603.09	21.329
603.42	20.918
603.76	20.719
604.09	21.363
604.42	21.468
604.76	20.205
605.09	20.742
605.42	21.411
605.75	20.500
606.09	20.007
606.42	19.956
606.75	19.790
607.09	20.276
607.42	20.655
607.75	21.258
608.08	20.521
608.42	20.516
608.75	20.398
609.08	20.119
609.41	20.556
609.75	20.491
610.08	20.712
610.41	20.603
610.74	20.840
611.07	20.071
611.41	20.404
611.74	19.954
612.07	20.337
612.40	20.152
612.73	20.733
613.07	19.853
613.40	20.404
613.73	20.173
614.06	19.725
614.39	20.360
614.72	20.039
615.06	20.693
615.39	20.493
615.72	20.521
616.05	19.815
616.38	20.535
616.71	20.219
617.05	19.808
617.38	20.332
617.71	20.302
618.04	19.374
618.37	20.929
618.70	20.475
619.03	19.176
619.36	19.975
619.69	19.347
620.03	20.088
620.36	19.693
620.69	19.556
621.02	19.357
621.35	20.029
621.68	19.667
622.01	19.146
622.34	18.550
622.67	19.931
623.00	18.286
623.33	19.973
623.66	20.233
623.99	19.157
624.32	21.118
624.65	19.627
624.99	19.311
625.32	19.726
625.65	19.150
625.98	19.390
626.31	19.490
626.64	19.927
626.97	18.455
627.30	18.223
627.63	18.155
627.96	18.619
628.29	19.377
628.62	18.808
628.95	17.879
629.28	18.267
629.61	19.949
629.94	18.661
630.26	19.407
630.59	17.703
630.92	17.403
631.25	18.605
631.58	18.832
631.91	19.306
632.24	19.404
632.57	17.457
632.90	18.355
633.23	17.551
633.56	17.449
633.89	16.839
634.22	18.711
634.55	18.267
634.88	17.532
635.20	17.223
635.53	18.983
635.86	16.576
636.19	17.922
636.52	18.776
636.85	18.080
637.18	18.607
637.51	17.957
637.83	18.494
638.16	17.857
638.49	16.667
638.82	18.602
639.15	17.640
639.48	18.360
639.81	17.321
640.13	19.199
640.46	16.000
640.79	16.299
641.12	17.267
641.45	18.193
641.77	18.614
642.10	19.291
642.43	18.085
642.76	19.241
643.09	16.575
643.41	17.787
643.74	18.069
644.07	18.345
644.40	18.246
644.73	16.546
645.05	17.181
645.38	15.108
645.71	17.009
646.04	16.643
646.36	17.956
646.69	18.252
647.02	17.737
647.35	17.557
647.67	17.391
648.00	15.924
648.33	18.919
648.66	15.835
648.98	17.007
649.31	17.997
649.64	19.389
649.96	18.833
650.29	17.803
650.62	17.115
650.94	15.165
651.27	15.419
651.60	15.205
651.92	16.869
652.25	18.090
652.58	18.019
652.90	17.297
653.23	17.606
653.56	17.404
653.88	18.118
654.21	16.338
654.54	18.064
654.86	17.705
655.19	17.566
655.52	19.952
655.84	22.626
656.17	28.136
656.49	39.139
656.82	42.174
657.15	31.446
657.47	22.492
657.80	15.844
658.13	11.950
658.45	14.749
658.78	17.328
659.10	16.347
659.43	16.308
659.75	15.687
660.08	14.790
660.41	14.392
660.73	14.367
661.06	15.125
661.38	15.311
661.71	16.379
662.03	14.462
662.36	17.174
662.68	17.261
663.01	16.814
663.33	17.202
663.66	19.048
663.98	17.500
664.31	15.760
664.63	15.800
664.96	18.693
665.28	13.975
665.61	17.657
665.93	16.429
666.26	15.054
666.58	15.867
666.91	17.944
667.23	17.714
667.56	16.963
667.88	17.200
668.21	14.258
668.53	16.216
668.86	17.878
669.18	16.497
669.50	17.097
669.83	16.600
670.15	16.732
670.48	18.849
670.80	18.356
671.13	14.367
671.45	17.126
671.77	17.514
672.10	16.167
672.42	17.799
672.75	17.204
673.07	16.119
673.39	15.716
673.72	18.456
674.04	17.069
674.37	15.742
674.69	15.873
675.01	16.000
675.34	14.504
675.66	14.794
675.98	15.485
676.31	15.430
676.63	17.110
676.95	15.900
677.28	16.734
677.60	15.157
677.92	18.042
678.25	18.099
678.57	15.480
678.89	17.235
679.22	17.422
679.54	17.949
679.86	14.746
680.18	16.252
680.51	16.824
680.83	16.858
681.15	15.690
681.48	16.580
681.80	20.035
682.12	17.832
682.44	16.694
682.77	17.730
683.09	16.667
683.41	18.798
683.73	18.975
684.06	16.052
684.38	13.775
684.70	18.851
685.02	17.384
685.34	17.304
685.67	15.457
685.99	17.638
686.31	17.006
686.63	16.588
686.96	17.981
687.28	16.124
687.60	15.320
687.92	17.685
688.24	17.362
688.56	17.414
688.89	15.789
689.21	17.613
689.53	12.157
689.85	14.398
690.17	17.593
690.49	16.335
690.82	17.624
691.14	13.563
691.46	17.782
691.78	17.495
692.10	16.881
692.42	16.429
692.74	15.608
693.06	14.815
693.39	17.647
693.71	17.293
694.03	17.286
694.35	15.810
694.67	18.891
694.99	15.745
695.31	16.556
695.63	15.368
695.95	16.563
696.27	14.505
696.59	16.814
696.91	17.342
697.23	16.923
697.56	15.682
697.88	16.288
698.20	16.949
698.52	18.371
698.84	18.919
699.16	18.163
699.48	15.900
699.80	18.936
700.12	17.904
700.44	17.512
700.76	16.865
701.08	15.981
701.40	15.803
701.72	13.184
702.04	16.043
702.36	15.969
702.68	17.604
703.00	18.337
703.32	14.286
703.64	16.381
703.96	16.468
704.28	15.971
704.60	19.494
704.91	14.541
705.23	19.452
705.55	14.485
705.87	16.061
706.19	15.951
706.51	14.759
706.83	14.409
707.15	14.550
707.47	15.888
707.79	17.249
708.11	14.831
708.43	18.065
708.74	14.732
709.06	16.241
709.38	16.901
709.70	20.347
710.02	15.762
710.34	16.489
710.66	14.246
710.98	15.574
711.29	13.736
711.61	17.797
711.93	14.815
712.25	17.297
712.57	17.404
712.89	18.824
713.20	15.385
713.52	16.185
713.84	15.599
714.16	16.579
714.48	15.464
714.80	20.260
715.11	16.010
715.43	18.833
715.75	19.211
716.07	18.785
716.39	18.306
716.70	12.048
717.02	14.426
717.34	11.498
717.66	13.758
717.97	12.671
718.29	15.808
718.61	13.158
718.93	15.210
719.24	13.665
719.56	17.485
719.88	15.616
720.20	16.129
720.51	14.596
720.83	20.000
721.15	15.789
721.46	11.301
721.78	19.000
722.10	16.181
722.42	13.423
722.73	16.452
723.05	17.544
723.37	14.583
723.68	16.487
724.00	16.606
724.32	12.324
724.63	15.734
724.95	18.085
725.27	14.286
725.58	13.428
725.90	16.207
726.22	15.047
726.53	16.883
726.85	20.440
727.16	20.846
727.48	19.266
727.80	14.570
728.11	12.721
728.43	13.131
728.74	15.050
729.06	18.543
729.38	17.857
729.69	18.456
730.01	18.452
730.32	15.455
730.64	18.868
730.96	16.460
731.27	17.877
731.59	18.956
731.90	14.286
732.22	17.448
732.53	15.193
732.85	18.571
733.16	16.422
733.48	13.415
733.80	15.877
734.11	15.954
734.43	15.135
734.74	16.456
735.06	16.583
735.37	20.000
735.69	17.568
736.00	17.514
736.32	16.981
736.63	17.222
736.95	18.103
737.26	18.182
737.58	17.576
737.89	19.706
738.21	14.679
738.52	15.082
738.83	15.700
739.15	15.957
739.46	18.027
739.78	19.632
740.09	18.338
740.41	20.117
740.72	16.667
741.04	16.828
741.35	11.930
741.66	17.647
741.98	17.213
742.29	18.410
742.61	14.912
742.92	17.308
743.23	14.079
743.55	18.605
743.86	19.600
744.18	15.702
744.49	12.236
744.80	17.284
745.12	18.143
745.43	16.260
745.74	13.793
746.06	17.373
746.37	18.143
746.68	20.325
747.00	17.917
747.31	14.592
747.62	18.077
747.94	11.741
748.25	15.663
748.56	16.735
748.88	13.675
749.19	15.948
749.50	16.017
749.82	19.277
750.13	22.420
750.44	16.333
750.75	17.846
751.07	17.538
751.38	16.719
751.69	19.489
752.01	17.476
752.32	16.013
752.63	14.966
752.94	16.263
753.26	11.896
753.57	15.185
753.88	18.352
754.19	19.614
754.51	18.971
754.82	14.791
755.13	19.344
755.44	21.160
755.75	20.724
756.07	19.104
756.38	15.409
756.69	21.687
757.00	15.235
757.31	16.940
757.63	18.159
757.94	18.545
758.25	19.865
758.56	20.261
758.87	19.091
759.18	16.267
759.50	16.714
759.81	19.048
760.12	20.216
760.43	17.969
760.74	19.951
761.05	18.000
761.36	16.867
761.67	18.528
761.99	17.568
762.30	17.683
762.61	16.832
762.92	19.403
763.23	18.352
763.54	20.863
763.85	18.557
764.16	16.498
764.47	19.366
764.78	22.364
765.10	17.302
765.41	20.513
765.72	17.196
766.03	19.774
766.34	17.555
766.65	16.725
766.96	17.928
767.27	15.668
767.58	10.945
767.89	18.750
768.20	21.596
768.51	18.519
768.82	17.671
769.13	17.045
769.44	13.462
769.75	20.939
770.06	20.385
770.37	20.866
770.68	17.021
770.99	16.194
771.30	22.222
771.61	19.392
771.92	21.481
772.23	18.623
772.54	14.815
772.85	17.972
773.16	23.333
773.47	12.169
773.78	14.054
774.09	21.023
774.39	23.000
774.70	23.497
775.01	15.244
775.32	14.118
775.63	12.883
775.94	17.834
776.25	23.871
776.56	21.154
776.87	19.728
777.18	15.172
777.48	17.483
777.79	16.216
778.10	13.971
778.41	15.278
778.72	19.310
779.03	12.963
779.34	21.212
779.65	16.580
779.95	20.000
780.26	17.045
780.57	18.065
780.88	22.464
781.19	19.355
781.50	16.471
781.80	12.903
782.11	18.519
782.42	14.141
782.73	17.365
783.04	17.877
783.34	17.576
783.65	18.301
783.96	15.528
784.27	14.286
784.57	14.570
784.88	10.714
785.19	14.173
785.50	14.961
785.81	20.301
786.11	24.615
786.42	12.230
786.73	17.266
787.04	21.053
787.34	13.934
787.65	12.800
787.96	23.881
788.26	21.678
788.57	21.678
788.88	21.711
789.19	28.105
789.49	13.699
789.80	20.567
790.11	15.748
790.41	16.406
790.72	11.017
791.03	8.738
791.33	19.130
791.64	22.807
791.95	15.179
792.25	20.952
792.56	17.857
792.87	18.750
793.17	17.857
793.48	16.667
793.79	6.024
794.09	16.514
794.40	11.009
794.70	17.687
795.01	20.130
795.32	19.863
795.62	17.606
795.93	21.212
796.23	17.213
796.54	11.607
796.85	10.638
797.15	8.696
797.46	12.329
797.76	20.000
798.07	22.826
798.37	0.000
798.68	14.286
798.99	20.690
799.29	15.730
799.60	17.021
799.90	10.843
800.21	10.769
800.51	13.433
800.82	19.118
801.12	6.849
801.43	-7.353
801.73	6.780
802.04	7.576
802.34	11.667
802.65	11.864
802.95	22.388
803.26	6.780
803.56	9.589
803.87	15.714
804.17	9.589
804.48	-8.772
804.78	16.667
805.09	8.621
805.39	24.324
805.70	2.817
806.00	23.171
806.30	7.229
806.61	9.589
806.91	21.154
807.22	15.556
807.52	20.690
807.83	9.722
808.13	27.711
808.43	10.112
808.74	23.750
809.04	-1.471
809.35	10.667
809.65	5.714
809.95	13.699
810.26	-7.018
810.56	3.448
810.86	16.176
811.17	3.509
811.47	-6.557
811.77	0.000
812.08	15.254
812.38	8.333
812.69	5.172
812.99	3.774
813.29	5.128
813.59	26.000
813.90	19.298
814.20	20.000
814.50	16.901
814.81	21.795
815.11	19.672
815.41	13.433
815.72	17.241
816.02	16.071
816.32	24.444
816.62	15.909
816.93	-24.444
817.23	18.519
817.53	34.043
817.84	50.000
818.14	-8.824
818.44	8.163
818.74	13.333
819.04	15.385
819.35	5.714
819.65	-23.077
819.95	16.981
820.25	15.556
820.56	9.524
820.86	-21.875
821.16	-5.128
821.46	-2.326
821.76	14.000
822.07	23.214
822.37	4.348
822.67	10.638
822.97	-18.919
823.27	5.000
823.57	14.286
823.88	22.222
824.18	22.500
824.48	0.000
824.78	-36.000
825.08	12.121
825.38	40.000
825.69	10.638
825.99	36.111
826.29	-22.857
826.59	-17.949
826.89	-23.256
827.19	0.000
827.49	23.529
827.79	25.000
828.09	5.405
828.39	-23.333
828.70	4.878
829.00	0.000
829.30	-7.143
829.60	44.118
829.90	10.870
830.20	8.571
830.50	-24.138
830.80	27.778
831.10	-11.538
831.40	32.353
831.70	33.333
832.00	6.452
832.30	-52.941
832.60	-25.000
832.90	-84.615
833.20	21.053
833.50	-40.000
833.80	-21.053
834.10	-28.571
834.40	22.222
834.70	15.625
835.00	-2.857
835.30	35.294
835.60	6.667
835.90	32.000
836.20	-45.455
836.50	-12.000
836.80	3.030
837.10	22.222
837.40	11.111
837.70	-37.500
838.00	28.571
838.30	-21.739
838.60	-3.448
838.90	-35.714
839.19	-65.217
839.49	-91.667
839.79	17.391
840.09	-12.500
840.39	30.000
840.69	58.065
840.99	3.571
841.29	20.000
841.59	-26.316
841.88	25.641
842.18	26.923
842.48	0.000
842.78	-45.000
843.08	-6.667
843.38	6.452
843.68	-66.667
843.97	29.412
844.27	68.750
844.57	-15.789
844.87	-30.000
845.17	20.000
845.47	-9.524
845.76	-23.810
846.06	-55.556
846.36	-29.412
846.66	34.615
846.96	6.667
847.25	5.882
847.55	21.739
847.85	-5.000
848.15	64.706
848.44	-90.909
848.74	38.095
849.04	33.333
849.34	-68.750
849.63	39.130
849.93	550.000
850.23	33.333
850.53	50.000
850.82	9.091
851.12	59.091
851.42	-36.364
851.71	84.615
852.01	20.000
852.31	107.692
852.61	10.526
852.90	-25.000
853.20	-27.778
853.50	-77.778
853.79	-80.952
854.09	-22.727
854.39	-33.333
854.68	29.032
854.98	-15.385
855.28	33.333
855.57	14.286
855.87	16.000
856.17	0.000
856.46	29.630
856.76	-22.222
857.05	-4.348
857.35	12.500
857.65	-30.769
857.94	52.381
858.24	0.000
858.53	30.435
858.83	23.529
859.13	41.176
859.42	-5.882
859.72	-7.143
860.01	20.000
860.31	44.444
860.60	60.000
860.90	-60.000
861.20	-5.556
861.49	7.692
861.79	53.333
862.08	-30.769
862.38	43.750
862.67	11.765
862.97	81.250
863.26	22.222
863.56	20.000
863.85	-27.273
864.15	-5.556
864.44	-266.667
864.74	-7.143
865.03	31.250
865.33	-40.000
865.62	25.806
865.92	45.455
866.21	21.739
866.51	50.000
866.80	-60.000
867.10	-50.000
867.39	-41.667
867.69	600.000
867.98	185.714
868.27	17.647
868.57	-1000.000
868.86	-70.000
869.16	14.286
869.45	66.667
869.75	100.000
870.04	-28.571
870.33	-41.667
870.63	-85.714
870.92	0.000
871.22	-87.500
871.51	-36.364
871.80	-233.333
872.10	-50.000
>>>>>End Processed Spectral Data<<<<<
