SpectraSuite Data File
++++++++++++++++++++++++++++++++++++
Date: Thu May 14 16:30:11 PDT 2015
User: schluterlab
Dark Spectrum Present: Yes
Reference Spectrum Present: Yes
Number of Sampled Component Spectra: 1
Spectrometers: USB2E3373
Integration Time (usec): 3000 (USB2E3373)
Spectra Averaged: 3 (USB2E3373)
Boxcar Smoothing: 0 (USB2E3373)
Correct for Electrical Dark: No (USB2E3373)
Strobe/Lamp Enabled: No (USB2E3373)
Correct for Detector Non-linearity: No (USB2E3373)
Correct for Stray Light: No (USB2E3373)
Number of Pixels in Processed Spectrum: 2048
>>>>>Begin Processed Spectral Data<<<<<
178.53	0.000
178.91	-71.429
179.29	-300.000
179.67	-100.000
180.04	100.000
180.42	60.000
180.80	140.000
181.18	-200.000
181.56	200.000
181.94	-150.000
182.31	0.000
182.69	66.667
183.07	100.000
183.45	225.000
183.83	100.000
184.20	233.333
184.58	200.000
184.96	-75.000
185.34	88.889
185.72	40.000
186.09	44.444
186.47	350.000
186.85	140.000
187.23	-133.333
187.61	-100.000
187.98	140.000
188.36	150.000
188.74	50.000
189.12	-233.333
189.49	37.500
189.87	-150.000
190.25	33.333
190.63	40.000
191.00	22.222
191.38	0.000
191.76	-225.000
192.14	50.000
192.51	450.000
192.89	150.000
193.27	0.000
193.65	-42.857
194.02	-1400.000
194.40	128.571
194.78	114.286
195.15	0.000
195.53	-9.091
195.91	0.000
196.29	50.000
196.66	69.231
197.04	-400.000
197.42	-42.857
197.79	50.000
198.17	-62.500
198.55	-28.571
198.92	144.444
199.30	-25.000
199.68	0.000
200.05	-14.286
200.43	-300.000
200.81	-14.286
201.18	0.000
201.56	122.222
201.94	0.000
202.31	333.333
202.69	-66.667
203.07	-500.000
203.44	-11.111
203.82	0.000
204.19	16.667
204.57	-83.333
204.95	-50.000
205.32	500.000
205.70	50.000
206.08	50.000
206.45	83.333
206.83	320.000
207.20	50.000
207.58	0.000
207.96	50.000
208.33	83.333
208.71	-0.000
209.08	50.000
209.46	0.000
209.84	100.000
210.21	-50.000
210.59	-450.000
210.96	166.667
211.34	75.000
211.71	62.500
212.09	-200.000
212.46	0.000
212.84	650.000
213.22	-140.000
213.59	75.000
213.97	100.000
214.34	0.000
214.72	266.667
215.09	100.000
215.47	0.000
215.84	-0.000
216.22	250.000
216.59	-100.000
216.97	80.000
217.34	25.000
217.72	-62.500
218.09	-150.000
218.47	75.000
218.84	0.000
219.22	-140.000
219.59	52.941
219.97	20.000
220.34	500.000
220.72	-33.333
221.09	100.000
221.47	166.667
221.84	60.000
222.22	-71.429
222.59	0.000
222.97	125.000
223.34	-60.000
223.72	-100.000
224.09	-125.000
224.46	-50.000
224.84	60.000
225.21	-57.143
225.59	-250.000
225.96	-25.000
226.34	15.385
226.71	100.000
227.08	-250.000
227.46	33.333
227.83	125.000
228.21	47.368
228.58	50.000
228.95	200.000
229.33	66.667
229.70	-30.000
230.08	115.789
230.45	-20.000
230.82	-233.333
231.20	-78.571
231.57	-25.000
231.95	18.182
232.32	36.364
232.69	55.000
233.07	25.000
233.44	0.000
233.81	60.000
234.19	88.889
234.56	13.636
234.93	27.586
235.31	63.158
235.68	83.333
236.05	30.000
236.43	69.231
236.80	84.000
237.17	66.667
237.55	39.394
237.92	50.000
238.29	35.484
238.67	25.000
239.04	38.889
239.41	26.190
239.79	28.261
240.16	40.741
240.53	23.913
240.91	25.490
241.28	45.902
241.65	38.806
242.02	33.784
242.40	47.692
242.77	44.000
243.14	41.463
243.51	38.158
243.89	26.923
244.26	48.515
244.63	43.137
245.00	36.449
245.38	42.982
245.75	36.283
246.12	39.683
246.49	44.961
246.87	42.857
247.24	43.709
247.61	46.053
247.98	42.953
248.36	37.037
248.73	52.147
249.10	49.727
249.47	39.801
249.84	53.927
250.22	41.969
250.59	49.444
250.96	45.000
251.33	44.898
251.70	44.872
252.08	42.083
252.45	43.852
252.82	37.603
253.19	43.359
253.56	46.388
253.94	40.385
254.31	46.212
254.68	43.706
255.05	44.625
255.42	41.497
255.79	41.100
256.16	44.040
256.54	43.377
256.91	45.246
257.28	42.951
257.65	43.949
258.02	41.003
258.39	46.724
258.76	50.765
259.14	47.414
259.51	48.415
259.88	41.076
260.25	43.611
260.62	46.301
260.99	45.082
261.36	45.845
261.73	43.767
262.10	44.231
262.47	43.700
262.85	50.758
263.22	43.896
263.59	45.263
263.96	44.757
264.33	44.757
264.70	44.198
265.07	49.165
265.44	47.846
265.81	45.139
266.18	45.351
266.55	43.527
266.92	44.191
267.29	46.827
267.66	45.233
268.03	45.197
268.40	44.468
268.77	43.280
269.14	44.273
269.51	45.833
269.88	45.697
270.25	46.076
270.62	47.046
270.99	44.646
271.36	45.545
271.73	44.401
272.10	47.695
272.47	44.489
272.84	42.369
273.21	43.487
273.58	46.169
273.95	41.346
274.32	42.966
274.69	41.586
275.06	44.689
275.43	41.220
275.80	41.270
276.17	42.593
276.54	43.657
276.91	40.787
277.28	41.591
277.65	43.986
278.02	44.669
278.39	45.109
278.76	43.761
279.13	42.376
279.50	44.158
279.87	42.934
280.23	39.965
280.60	42.881
280.97	40.132
281.34	43.294
281.71	43.147
282.08	40.033
282.45	39.607
282.82	42.072
283.19	40.549
283.56	42.295
283.92	41.892
284.29	41.864
284.66	41.544
285.03	37.660
285.40	40.649
285.77	41.331
286.14	39.237
286.51	39.878
286.87	38.389
287.24	40.964
287.61	40.359
287.98	40.332
288.35	39.053
288.72	38.905
289.08	41.874
289.45	37.426
289.82	37.952
290.19	34.914
290.56	39.155
290.93	38.802
291.29	36.777
291.66	38.017
292.03	37.856
292.40	37.823
292.77	35.714
293.13	33.829
293.50	34.428
293.87	36.107
294.24	36.400
294.60	34.008
294.97	33.557
295.34	35.851
295.71	34.426
296.08	33.721
296.44	33.088
296.81	33.496
297.18	32.628
297.55	33.962
297.91	32.384
298.28	31.635
298.65	32.937
299.02	31.287
299.38	32.265
299.75	30.841
300.12	31.481
300.48	31.336
300.85	30.596
301.22	31.767
301.59	30.023
301.95	31.751
302.32	29.889
302.69	28.697
303.05	31.447
303.42	30.377
303.79	30.312
304.15	29.443
304.52	29.070
304.89	28.796
305.25	28.468
305.62	30.930
305.99	29.485
306.35	29.133
306.72	30.610
307.09	28.325
307.45	30.124
307.82	28.254
308.19	28.860
308.55	29.508
308.92	29.017
309.29	28.544
309.65	30.409
310.02	29.703
310.38	29.331
310.75	29.515
311.12	29.051
311.48	28.446
311.85	27.825
312.22	29.317
312.58	29.484
312.95	28.011
313.31	28.455
313.68	29.029
314.05	29.359
314.41	28.233
314.78	28.065
315.14	28.857
315.51	27.886
315.87	28.263
316.24	28.493
316.61	29.574
316.97	27.783
317.34	27.072
317.70	29.694
318.07	28.748
318.43	28.146
318.80	28.428
319.16	27.983
319.53	26.992
319.89	27.169
320.26	27.936
320.62	27.039
320.99	27.978
321.35	28.004
321.72	28.093
322.08	27.683
322.45	29.449
322.81	28.700
323.18	28.584
323.54	28.534
323.91	29.093
324.27	27.108
324.64	27.876
325.00	26.368
325.37	27.518
325.73	27.769
326.10	26.926
326.46	27.687
326.83	29.223
327.19	27.795
327.56	28.063
327.92	27.695
328.29	26.694
328.65	26.633
329.01	27.834
329.38	28.896
329.74	28.510
330.11	28.082
330.47	27.127
330.84	28.252
331.20	29.000
331.56	26.863
331.93	27.448
332.29	28.644
332.66	27.326
333.02	28.057
333.38	26.678
333.75	26.852
334.11	27.773
334.48	28.300
334.84	28.207
335.20	26.952
335.57	27.319
335.93	26.694
336.29	26.705
336.66	26.661
337.02	27.174
337.38	27.381
337.75	27.438
338.11	27.586
338.47	26.551
338.84	27.665
339.20	26.201
339.56	27.018
339.93	27.340
340.29	26.167
340.65	26.358
341.02	27.055
341.38	27.728
341.74	25.747
342.11	26.951
342.47	25.338
342.83	27.375
343.20	27.392
343.56	26.143
343.92	28.102
344.28	27.031
344.65	26.589
345.01	26.599
345.37	26.361
345.73	24.942
346.10	27.145
346.46	25.633
346.82	26.067
347.19	25.134
347.55	25.948
347.91	25.929
348.27	26.935
348.63	26.504
349.00	24.981
349.36	26.097
349.72	25.670
350.08	25.854
350.45	25.779
350.81	26.320
351.17	24.887
351.53	26.990
351.89	26.044
352.26	24.776
352.62	24.925
352.98	24.122
353.34	24.645
353.70	26.502
354.07	26.602
354.43	25.133
354.79	24.383
355.15	24.798
355.51	26.243
355.87	25.804
356.24	24.867
356.60	24.834
356.96	25.204
357.32	25.056
357.68	25.329
358.04	24.626
358.40	25.075
358.77	25.219
359.13	24.372
359.49	23.866
359.85	24.728
360.21	24.749
360.57	25.054
360.93	24.260
361.29	24.211
361.66	25.127
362.02	24.843
362.38	24.877
362.74	23.464
363.10	24.553
363.46	24.377
363.82	23.437
364.18	24.419
364.54	23.306
364.90	24.816
365.26	24.276
365.62	23.867
365.98	23.962
366.35	24.228
366.71	24.762
367.07	24.425
367.43	24.360
367.79	24.419
368.15	24.548
368.51	23.884
368.87	22.730
369.23	23.733
369.59	23.429
369.95	23.867
370.31	24.646
370.67	23.934
371.03	23.546
371.39	23.640
371.75	23.865
372.11	23.306
372.47	23.494
372.83	23.953
373.19	23.749
373.55	23.984
373.91	23.177
374.27	23.027
374.63	23.478
374.99	22.613
375.35	23.896
375.71	23.290
376.07	23.434
376.42	22.670
376.78	22.561
377.14	23.830
377.50	24.352
377.86	23.214
378.22	23.054
378.58	23.543
378.94	23.357
379.30	23.257
379.66	24.045
380.02	22.966
380.38	23.445
380.74	22.986
381.09	23.926
381.45	23.750
381.81	24.005
382.17	23.219
382.53	23.450
382.89	22.686
383.25	23.271
383.61	22.512
383.97	22.026
384.32	22.667
384.68	21.752
385.04	23.366
385.40	23.512
385.76	23.212
386.12	22.741
386.48	22.588
386.83	23.778
387.19	22.190
387.55	22.887
387.91	22.546
388.27	22.864
388.62	22.165
388.98	21.263
389.34	22.923
389.70	22.836
390.06	23.268
390.42	22.711
390.77	23.119
391.13	21.890
391.49	22.705
391.85	22.909
392.20	22.301
392.56	22.623
392.92	22.737
393.28	22.388
393.64	22.123
393.99	22.894
394.35	23.306
394.71	23.174
395.07	21.976
395.42	22.616
395.78	22.974
396.14	22.341
396.50	23.040
396.85	21.288
397.21	22.604
397.57	22.968
397.92	22.680
398.28	21.727
398.64	21.281
399.00	21.257
399.35	21.885
399.71	22.228
400.07	22.291
400.42	21.886
400.78	22.049
401.14	22.197
401.49	22.001
401.85	22.384
402.21	22.132
402.57	22.242
402.92	22.163
403.28	21.370
403.63	22.076
403.99	21.318
404.35	21.319
404.70	21.700
405.06	22.228
405.42	22.248
405.77	21.592
406.13	22.258
406.49	21.565
406.84	22.050
407.20	21.632
407.55	21.320
407.91	21.873
408.27	20.966
408.62	21.873
408.98	21.532
409.34	21.173
409.69	22.497
410.05	21.571
410.40	21.868
410.76	21.593
411.11	22.034
411.47	21.929
411.83	20.929
412.18	22.590
412.54	21.814
412.89	21.769
413.25	21.388
413.60	21.769
413.96	21.795
414.31	22.040
414.67	21.944
415.03	21.723
415.38	21.375
415.74	21.258
416.09	22.455
416.45	21.478
416.80	20.930
417.16	21.775
417.51	21.606
417.87	22.195
418.22	21.976
418.58	21.747
418.93	22.119
419.29	21.948
419.64	20.888
420.00	21.484
420.35	22.459
420.71	21.367
421.06	21.219
421.42	21.273
421.77	20.786
422.12	21.987
422.48	21.403
422.83	22.015
423.19	21.379
423.54	21.792
423.90	20.707
424.25	21.280
424.61	20.953
424.96	21.911
425.31	21.656
425.67	21.149
426.02	20.642
426.38	21.240
426.73	21.596
427.09	21.857
427.44	21.191
427.79	21.006
428.15	20.377
428.50	20.899
428.85	21.412
429.21	21.436
429.56	21.076
429.92	21.376
430.27	21.687
430.62	21.348
430.98	20.905
431.33	21.163
431.68	20.690
432.04	21.483
432.39	21.371
432.74	20.605
433.10	21.471
433.45	20.624
433.80	21.406
434.16	21.384
434.51	21.634
434.86	21.498
435.22	22.104
435.57	21.285
435.92	21.536
436.28	21.729
436.63	21.901
436.98	20.505
437.34	20.800
437.69	20.914
438.04	20.783
438.39	21.252
438.75	21.195
439.10	21.247
439.45	21.353
439.81	20.734
440.16	20.161
440.51	21.349
440.86	20.122
441.22	21.383
441.57	21.698
441.92	20.660
442.27	21.616
442.63	20.964
442.98	21.612
443.33	21.778
443.68	21.804
444.03	22.484
444.39	21.637
444.74	21.133
445.09	21.794
445.44	21.233
445.79	21.552
446.15	21.223
446.50	20.775
446.85	21.206
447.20	21.422
447.55	21.025
447.91	20.524
448.26	21.512
448.61	20.776
448.96	22.049
449.31	21.103
449.66	20.643
450.02	20.886
450.37	21.151
450.72	21.367
451.07	21.298
451.42	21.259
451.77	20.400
452.12	21.670
452.47	20.143
452.83	21.284
453.18	21.133
453.53	20.333
453.88	21.314
454.23	20.621
454.58	21.010
454.93	20.570
455.28	22.336
455.63	21.603
455.98	20.950
456.34	20.436
456.69	21.046
457.04	21.040
457.39	20.898
457.74	21.085
458.09	20.593
458.44	20.905
458.79	20.939
459.14	21.709
459.49	21.279
459.84	21.144
460.19	20.711
460.54	20.727
460.89	20.646
461.24	20.977
461.59	21.029
461.94	19.681
462.29	21.053
462.64	20.579
462.99	20.778
463.34	21.025
463.69	20.516
464.04	20.511
464.39	20.740
464.74	20.753
465.09	20.185
465.44	21.084
465.79	20.836
466.14	20.688
466.49	20.737
466.84	20.441
467.19	20.809
467.54	20.505
467.89	20.345
468.24	21.053
468.59	20.672
468.94	20.105
469.29	19.916
469.64	19.771
469.99	19.758
470.34	20.111
470.68	19.344
471.03	21.022
471.38	19.424
471.73	19.701
472.08	19.860
472.43	19.326
472.78	20.970
473.13	19.469
473.48	21.027
473.83	20.662
474.17	20.692
474.52	19.302
474.87	19.491
475.22	20.676
475.57	19.938
475.92	19.811
476.27	20.714
476.61	19.886
476.96	20.073
477.31	20.842
477.66	20.934
478.01	20.183
478.36	19.641
478.70	19.754
479.05	20.757
479.40	19.694
479.75	20.269
480.10	19.991
480.45	20.328
480.79	20.408
481.14	20.956
481.49	19.945
481.84	20.235
482.19	20.086
482.53	20.420
482.88	20.647
483.23	19.564
483.58	19.738
483.92	19.592
484.27	19.898
484.62	19.554
484.97	19.946
485.31	19.747
485.66	20.065
486.01	20.314
486.36	20.771
486.70	21.837
487.05	22.227
487.40	21.964
487.75	22.061
488.09	21.978
488.44	20.407
488.79	20.742
489.13	20.275
489.48	19.650
489.83	19.960
490.17	19.117
490.52	20.033
490.87	18.866
491.22	20.321
491.56	19.710
491.91	19.276
492.26	19.775
492.60	19.152
492.95	19.438
493.30	18.960
493.64	19.360
493.99	19.342
494.34	18.510
494.68	19.058
495.03	19.604
495.37	19.396
495.72	19.274
496.07	20.026
496.41	19.176
496.76	19.516
497.11	19.108
497.45	18.817
497.80	19.191
498.14	18.912
498.49	18.796
498.84	18.693
499.18	19.118
499.53	19.148
499.87	19.165
500.22	18.789
500.56	18.848
500.91	18.856
501.26	19.273
501.60	18.206
501.95	20.104
502.29	19.833
502.64	19.370
502.98	19.672
503.33	18.618
503.67	18.753
504.02	19.133
504.36	18.990
504.71	19.155
505.06	18.918
505.40	18.739
505.75	19.126
506.09	19.521
506.44	18.895
506.78	19.450
507.13	19.456
507.47	19.043
507.82	18.324
508.16	19.025
508.51	18.706
508.85	18.564
509.19	18.664
509.54	18.876
509.88	18.698
510.23	18.553
510.57	18.850
510.92	19.013
511.26	18.278
511.61	17.962
511.95	18.985
512.30	19.695
512.64	18.541
512.98	18.709
513.33	19.052
513.67	18.154
514.02	18.549
514.36	18.363
514.70	17.760
515.05	18.300
515.39	18.163
515.74	19.088
516.08	18.436
516.42	19.414
516.77	17.771
517.11	18.257
517.46	19.194
517.80	19.027
518.14	18.444
518.49	18.275
518.83	18.254
519.17	18.148
519.52	18.239
519.86	18.268
520.20	17.732
520.55	17.525
520.89	18.356
521.23	18.705
521.58	17.910
521.92	17.167
522.26	17.755
522.61	17.998
522.95	17.820
523.29	18.563
523.64	17.321
523.98	18.426
524.32	18.682
524.66	18.213
525.01	17.327
525.35	18.150
525.69	17.923
526.04	17.509
526.38	17.989
526.72	17.935
527.06	18.182
527.41	17.434
527.75	18.587
528.09	17.296
528.43	17.644
528.78	17.919
529.12	17.489
529.46	17.257
529.80	17.963
530.15	18.029
530.49	17.141
530.83	18.359
531.17	17.563
531.51	18.111
531.86	17.007
532.20	18.110
532.54	17.056
532.88	17.455
533.22	17.678
533.57	17.657
533.91	18.687
534.25	17.863
534.59	17.989
534.93	18.110
535.27	18.028
535.62	19.443
535.96	18.478
536.30	17.509
536.64	18.739
536.98	17.651
537.32	18.642
537.66	18.902
538.01	17.462
538.35	18.453
538.69	17.308
539.03	18.271
539.37	19.199
539.71	18.679
540.05	18.585
540.39	17.054
540.73	18.336
541.07	18.210
541.42	18.193
541.76	18.090
542.10	17.310
542.44	16.748
542.78	18.856
543.12	18.236
543.46	17.460
543.80	17.926
544.14	18.731
544.48	18.144
544.82	18.372
545.16	18.426
545.50	17.555
545.84	18.432
546.18	19.321
546.52	18.217
546.86	18.679
547.20	18.130
547.54	17.041
547.88	17.722
548.22	18.889
548.56	18.666
548.90	18.687
549.24	18.116
549.58	19.180
549.92	17.411
550.26	18.317
550.60	18.571
550.94	18.241
551.28	16.832
551.62	18.396
551.96	17.735
552.30	18.611
552.64	19.042
552.98	18.216
553.32	18.714
553.66	18.457
554.00	19.105
554.34	18.662
554.68	17.431
555.02	18.003
555.36	18.475
555.69	17.168
556.03	18.222
556.37	18.085
556.71	18.960
557.05	18.466
557.39	17.983
557.73	17.635
558.07	17.881
558.41	18.073
558.75	18.661
559.08	17.537
559.42	17.558
559.76	18.657
560.10	17.415
560.44	18.140
560.78	18.375
561.12	18.411
561.45	19.039
561.79	19.109
562.13	18.546
562.47	17.509
562.81	17.785
563.15	18.245
563.48	19.142
563.82	18.803
564.16	18.595
564.50	19.309
564.84	18.289
565.17	19.294
565.51	18.872
565.85	18.884
566.19	18.664
566.52	18.022
566.86	18.789
567.20	18.923
567.54	18.534
567.88	19.113
568.21	20.257
568.55	19.185
568.89	19.791
569.23	20.321
569.56	20.164
569.90	20.527
570.24	20.405
570.57	20.366
570.91	20.851
571.25	20.741
571.59	20.735
571.92	20.869
572.26	21.228
572.60	21.103
572.93	20.957
573.27	21.298
573.61	20.778
573.95	21.025
574.28	21.327
574.62	21.237
574.96	20.754
575.29	20.665
575.63	21.506
575.97	21.485
576.30	20.898
576.64	20.783
576.98	20.661
577.31	21.156
577.65	21.667
577.98	21.103
578.32	21.272
578.66	21.598
578.99	21.585
579.33	21.298
579.67	21.419
580.00	21.465
580.34	21.335
580.67	21.293
581.01	21.268
581.35	21.079
581.68	21.100
582.02	21.156
582.35	21.654
582.69	22.032
583.02	22.089
583.36	21.853
583.70	21.518
584.03	21.814
584.37	21.377
584.70	21.320
585.04	20.879
585.37	20.747
585.71	21.402
586.04	21.400
586.38	21.332
586.72	20.983
587.05	20.747
587.39	21.142
587.72	21.579
588.06	21.881
588.39	21.683
588.73	21.085
589.06	21.332
589.40	21.512
589.73	21.240
590.07	21.452
590.40	21.467
590.73	20.926
591.07	21.184
591.40	20.762
591.74	20.429
592.07	20.991
592.41	20.347
592.74	20.447
593.08	20.541
593.41	21.143
593.75	20.489
594.08	21.781
594.41	20.962
594.75	20.923
595.08	20.895
595.42	21.299
595.75	20.730
596.09	21.281
596.42	20.889
596.75	21.536
597.09	21.172
597.42	20.540
597.75	20.071
598.09	20.476
598.42	20.828
598.76	19.947
599.09	20.541
599.42	20.717
599.76	20.469
600.09	20.754
600.42	20.320
600.76	20.575
601.09	20.544
601.42	20.838
601.76	20.552
602.09	20.693
602.42	20.320
602.76	20.923
603.09	20.411
603.42	20.990
603.76	20.754
604.09	20.724
604.42	20.440
604.76	20.320
605.09	20.702
605.42	20.574
605.75	20.654
606.09	20.418
606.42	20.358
606.75	20.277
607.09	19.931
607.42	20.347
607.75	20.360
608.08	19.732
608.42	20.234
608.75	20.149
609.08	19.312
609.41	20.512
609.75	19.688
610.08	21.020
610.41	19.796
610.74	20.168
611.07	20.160
611.41	20.583
611.74	20.139
612.07	20.851
612.40	20.152
612.73	20.098
613.07	19.707
613.40	19.923
613.73	19.451
614.06	20.216
614.39	19.679
614.72	19.602
615.06	19.586
615.39	19.526
615.72	19.905
616.05	20.204
616.38	19.728
616.71	19.697
617.05	19.542
617.38	20.385
617.71	20.086
618.04	19.050
618.37	20.055
618.70	19.853
619.03	19.713
619.36	19.236
619.69	19.923
620.03	19.397
620.36	19.141
620.69	18.445
621.02	19.291
621.35	19.013
621.68	19.450
622.01	19.146
622.34	19.038
622.67	19.519
623.00	18.623
623.33	19.774
623.66	19.001
623.99	18.433
624.32	19.363
624.65	17.632
624.99	18.270
625.32	20.052
625.65	18.543
625.98	18.034
626.31	18.781
626.64	18.315
626.97	18.155
627.30	17.464
627.63	17.929
627.96	19.670
628.29	18.755
628.62	17.800
628.95	17.879
629.28	16.822
629.61	18.519
629.94	16.653
630.26	17.034
630.59	16.753
630.92	17.489
631.25	18.157
631.58	17.137
631.91	17.807
632.24	17.675
632.57	17.268
632.90	16.550
633.23	16.020
633.56	16.122
633.89	15.599
634.22	16.112
634.55	16.806
634.88	15.909
635.20	18.192
635.53	16.497
635.86	17.226
636.19	16.225
636.52	17.194
636.85	17.160
637.18	15.593
637.51	17.419
637.83	18.162
638.16	17.627
638.49	14.906
638.82	16.234
639.15	16.037
639.48	16.397
639.81	15.012
640.13	18.139
640.46	15.636
640.79	14.828
641.12	16.273
641.45	15.182
641.77	17.843
642.10	15.617
642.43	16.489
642.76	15.989
643.09	15.479
643.41	15.966
643.74	15.862
644.07	16.690
644.40	15.134
644.73	15.965
645.05	14.978
645.38	16.259
645.71	15.249
646.04	16.930
646.36	14.891
646.69	14.571
647.02	14.373
647.35	15.267
647.67	15.459
648.00	14.650
648.33	16.366
648.66	14.551
648.98	14.694
649.31	16.373
649.64	16.069
649.96	16.048
650.29	14.465
650.62	15.700
650.94	14.715
651.27	15.569
651.60	15.789
651.92	14.438
652.25	16.353
652.58	15.543
652.90	12.355
653.23	15.915
653.56	16.548
653.88	18.539
654.21	16.479
654.54	16.763
654.86	17.989
655.19	15.684
655.52	18.117
655.84	20.309
656.17	25.286
656.49	36.101
656.82	40.324
657.15	32.388
657.47	24.926
657.80	18.855
658.13	14.689
658.45	19.779
658.78	24.204
659.10	22.998
659.43	22.113
659.75	21.281
660.08	20.224
660.41	17.866
660.73	17.902
661.06	15.859
661.38	14.514
661.71	15.172
662.03	14.286
662.36	16.637
662.68	14.822
663.01	13.274
663.33	14.367
663.66	16.117
663.98	15.577
664.31	15.760
664.63	12.331
664.96	13.975
665.28	11.434
665.61	15.734
665.93	13.393
666.26	15.771
666.58	14.022
666.91	14.579
667.23	15.048
667.56	15.187
667.88	14.400
668.21	11.719
668.53	13.320
668.86	14.145
669.18	13.442
669.50	15.109
669.83	13.800
670.15	15.354
670.48	12.698
670.80	14.340
671.13	13.422
671.45	15.354
671.77	17.137
672.10	15.667
672.42	14.725
672.75	15.822
673.07	14.627
673.39	13.867
673.72	14.094
674.04	17.241
674.37	15.921
674.69	16.049
675.01	13.333
675.34	14.122
675.66	14.981
675.98	17.164
676.31	15.625
676.63	14.068
676.95	16.284
677.28	11.895
677.60	13.583
677.92	14.587
678.25	17.002
678.57	16.726
678.89	15.358
679.22	13.763
679.54	14.188
679.86	13.390
680.18	15.589
680.51	16.981
680.83	16.039
681.15	14.655
681.48	17.098
681.80	15.544
682.12	15.559
682.44	16.027
682.77	15.071
683.09	15.152
683.41	15.698
683.73	15.750
684.06	13.284
684.38	14.490
684.70	17.953
685.02	18.933
685.34	15.807
685.67	15.300
685.99	13.804
686.31	17.006
686.63	16.272
686.96	15.773
687.28	15.635
687.60	15.488
687.92	14.791
688.24	17.028
688.56	14.828
688.89	16.152
689.21	15.264
689.53	14.510
689.85	13.018
690.17	15.556
690.49	15.737
690.82	14.257
691.14	13.968
691.46	16.444
691.78	16.943
692.10	14.312
692.42	15.357
692.74	15.426
693.06	13.333
693.39	15.750
693.71	15.977
694.03	16.543
694.35	17.714
694.67	15.400
694.99	13.617
695.31	15.011
695.63	16.234
695.95	15.114
696.27	14.725
696.59	15.708
696.91	14.414
697.23	17.802
697.56	14.868
697.88	14.015
698.20	17.137
698.52	17.045
698.84	17.256
699.16	16.735
699.48	15.481
699.80	14.894
700.12	15.502
700.44	15.438
700.76	14.964
701.08	13.801
701.40	16.580
701.72	14.179
702.04	14.973
702.36	12.565
702.68	12.225
703.00	13.203
703.32	13.547
703.64	16.626
703.96	13.604
704.28	13.514
704.60	18.228
704.91	14.541
705.23	15.890
705.55	16.156
705.87	15.152
706.19	13.804
706.51	11.446
706.83	11.239
707.15	10.847
707.47	14.720
707.79	15.066
708.11	15.466
708.43	13.118
708.74	14.286
709.06	12.065
709.38	15.023
709.70	13.648
710.02	14.729
710.34	14.894
710.66	12.291
710.98	13.661
711.29	11.538
711.61	15.819
711.93	13.675
712.25	16.216
712.57	16.814
712.89	14.412
713.20	13.609
713.52	15.896
713.84	14.206
714.16	16.053
714.48	15.722
714.80	14.805
715.11	15.486
715.43	12.732
715.75	16.842
716.07	14.641
716.39	14.481
716.70	16.566
717.02	13.443
717.34	13.937
717.66	12.416
717.97	10.616
718.29	12.371
718.61	11.184
718.93	16.505
719.24	13.354
719.56	15.031
719.88	15.315
720.20	13.871
720.51	16.770
720.83	15.938
721.15	12.829
721.46	11.644
721.78	15.333
722.10	13.916
722.42	12.752
722.73	14.194
723.05	17.895
723.37	14.583
723.68	17.563
724.00	13.357
724.32	14.789
724.63	17.133
724.95	17.730
725.27	15.331
725.58	16.254
725.90	17.241
726.22	12.853
726.53	19.156
726.85	18.239
727.16	16.012
727.48	20.489
727.80	17.219
728.11	14.488
728.43	17.172
728.74	14.047
729.06	14.901
729.38	17.208
729.69	11.745
730.01	15.476
730.32	13.333
730.64	16.038
730.96	15.839
731.27	18.156
731.59	16.209
731.90	14.286
732.22	16.406
732.53	12.707
732.85	15.429
733.16	14.663
733.48	13.110
733.80	11.421
734.11	16.809
734.43	18.378
734.74	17.722
735.06	17.085
735.37	19.459
735.69	18.919
736.00	18.644
736.32	16.442
736.63	16.389
736.95	16.667
737.26	16.970
737.58	15.455
737.89	15.000
738.21	13.456
738.52	13.443
738.83	13.993
739.15	13.475
739.46	16.667
739.78	17.178
740.09	14.327
740.41	18.659
740.72	14.667
741.04	16.505
741.35	17.544
741.66	16.078
741.98	15.164
742.29	14.226
742.61	15.789
742.92	13.846
743.23	17.690
743.55	17.054
743.86	14.400
744.18	10.331
744.49	11.392
744.80	14.403
745.12	13.924
745.43	16.667
745.74	15.948
746.06	14.407
746.37	12.658
746.68	18.293
747.00	14.167
747.31	12.876
747.62	20.385
747.94	11.336
748.25	10.843
748.56	10.612
748.88	7.692
749.19	15.948
749.50	12.554
749.82	15.261
750.13	19.217
750.44	13.333
750.75	15.385
751.07	18.154
751.38	16.404
751.69	14.696
752.01	14.563
752.32	16.667
752.63	14.626
752.94	12.457
753.26	14.498
753.57	14.815
753.88	14.981
754.19	15.434
754.51	13.826
754.82	13.826
755.13	17.377
755.44	16.041
755.75	14.803
756.07	18.806
756.38	16.667
756.69	20.181
757.00	14.681
757.31	16.393
757.63	17.903
757.94	15.023
758.25	18.962
758.56	19.390
758.87	20.455
759.18	14.133
759.50	16.714
759.81	18.207
760.12	18.329
760.43	16.667
760.74	17.980
761.05	17.250
761.36	18.072
761.67	16.244
761.99	15.676
762.30	15.549
762.61	16.832
762.92	15.672
763.23	17.603
763.54	19.065
763.85	10.997
764.16	16.162
764.47	16.549
764.78	17.891
765.10	18.768
765.41	19.744
765.72	15.608
766.03	18.079
766.34	12.226
766.65	13.589
766.96	16.335
767.27	16.590
767.58	10.448
767.89	13.942
768.20	15.962
768.51	18.056
768.82	14.859
769.13	15.909
769.44	11.923
769.75	17.690
770.06	16.923
770.37	17.717
770.68	12.340
770.99	11.741
771.30	20.370
771.61	15.589
771.92	14.074
772.23	21.053
772.54	15.278
772.85	18.894
773.16	18.095
773.47	12.698
773.78	10.811
774.09	17.614
774.39	18.500
774.70	13.115
775.01	10.366
775.32	15.882
775.63	15.337
775.94	10.828
776.25	21.935
776.56	20.513
776.87	21.769
777.18	13.103
777.48	13.287
777.79	19.595
778.10	7.353
778.41	16.667
778.72	13.103
779.03	11.111
779.34	15.758
779.65	15.026
779.95	18.889
780.26	10.795
780.57	17.419
780.88	21.014
781.19	23.226
781.50	23.529
781.80	17.742
782.11	15.344
782.42	10.606
782.73	13.174
783.04	15.084
783.34	12.727
783.65	9.804
783.96	22.981
784.27	14.286
784.57	15.894
784.88	15.714
785.19	12.598
785.50	15.748
785.81	12.782
786.11	20.000
786.42	8.633
786.73	14.388
787.04	19.549
787.34	7.377
787.65	6.400
787.96	12.687
788.26	17.483
788.57	23.077
788.88	8.553
789.19	19.608
789.49	19.178
789.80	12.766
790.11	8.661
790.41	14.062
790.72	8.475
791.03	11.650
791.33	21.739
791.64	9.649
791.95	12.500
792.25	19.048
792.56	16.071
792.87	11.458
793.17	16.964
793.48	18.750
793.79	3.614
794.09	2.752
794.40	15.596
794.70	18.367
795.01	12.987
795.32	19.178
795.62	15.493
795.93	18.182
796.23	24.590
796.54	13.393
796.85	15.957
797.15	17.391
797.46	10.959
797.76	5.000
798.07	10.870
798.37	1.031
798.68	-2.597
798.99	11.494
799.29	11.236
799.60	19.149
799.90	9.639
800.21	4.615
800.51	-2.985
800.82	13.235
801.12	6.849
801.43	0.000
801.73	13.559
802.04	6.061
802.34	13.333
802.65	18.644
802.95	4.478
803.26	1.695
803.56	2.740
803.87	24.286
804.17	21.918
804.48	3.509
804.78	5.556
805.09	8.621
805.39	28.378
805.70	-4.225
806.00	10.976
806.30	13.253
806.61	10.959
806.91	15.385
807.22	11.111
807.52	12.644
807.83	20.833
808.13	21.687
808.43	23.596
808.74	15.000
809.04	4.412
809.35	12.000
809.65	10.000
809.95	9.589
810.26	7.018
810.56	15.517
810.86	22.059
811.17	3.509
811.47	0.000
811.77	6.667
812.08	11.864
812.38	21.667
812.69	6.897
812.99	15.094
813.29	-5.128
813.59	14.000
813.90	17.544
814.20	14.545
814.50	33.803
814.81	24.359
815.11	26.230
815.41	37.313
815.72	15.517
816.02	25.000
816.32	20.000
816.62	-4.545
816.93	-11.111
817.23	16.667
817.53	12.766
817.84	23.810
818.14	14.706
818.44	20.408
818.74	15.556
819.04	-10.256
819.35	-20.000
819.65	11.538
819.95	15.094
820.25	-2.222
820.56	-7.143
820.86	21.875
821.16	5.128
821.46	-4.651
821.76	-6.000
822.07	12.500
822.37	6.522
822.67	10.638
822.97	5.405
823.27	0.000
823.57	38.776
823.88	28.889
824.18	20.000
824.48	3.333
824.78	32.000
825.08	15.152
825.38	28.889
825.69	10.638
825.99	38.889
826.29	-20.000
826.59	5.128
826.89	4.651
827.19	14.000
827.49	35.294
827.79	25.000
828.09	8.108
828.39	-30.000
828.70	31.707
829.00	-16.279
829.30	17.857
829.60	-2.941
829.90	26.087
830.20	11.429
830.50	17.241
830.80	5.556
831.10	15.385
831.40	0.000
831.70	47.619
832.00	48.387
832.30	-82.353
832.60	0.000
832.90	-138.462
833.20	-47.368
833.50	-25.000
833.80	36.842
834.10	-47.619
834.40	5.556
834.70	46.875
835.00	-20.000
835.30	14.706
835.60	-26.667
835.90	20.000
836.20	-50.000
836.50	0.000
836.80	3.030
837.10	0.000
837.40	-11.111
837.70	-75.000
838.00	0.000
838.30	-26.087
838.60	10.345
838.90	0.000
839.19	-30.435
839.49	-66.667
839.79	26.087
840.09	0.000
840.39	-15.000
840.69	29.032
840.99	-25.000
841.29	-40.000
841.59	26.316
841.88	23.077
842.18	-7.692
842.48	50.000
842.78	15.000
843.08	33.333
843.38	64.516
843.68	-11.111
843.97	17.647
844.27	50.000
844.57	-36.842
844.87	-80.000
845.17	26.667
845.47	-9.524
845.76	-38.095
846.06	-22.222
846.36	0.000
846.66	-3.846
846.96	-26.667
847.25	-11.765
847.55	39.130
847.85	25.000
848.15	-11.765
848.44	-18.182
848.74	-14.286
849.04	12.500
849.34	31.250
849.63	4.348
849.93	400.000
850.23	13.333
850.53	57.692
850.82	-45.455
851.12	27.273
851.42	-63.636
851.71	0.000
852.01	-35.000
852.31	7.692
852.61	-10.526
852.90	-25.000
853.20	38.889
853.50	-188.889
853.79	-38.095
854.09	-45.455
854.39	-58.333
854.68	9.677
854.98	-19.231
855.28	22.222
855.57	0.000
855.87	-24.000
856.17	-4.545
856.46	11.111
856.76	22.222
857.05	-8.696
857.35	-4.167
857.65	15.385
857.94	4.762
858.24	33.333
858.53	30.435
858.83	35.294
859.13	11.765
859.42	-5.882
859.72	50.000
860.01	-35.000
860.31	-66.667
860.60	0.000
860.90	40.000
861.20	5.556
861.49	7.692
861.79	0.000
862.08	15.385
862.38	59.375
862.67	-5.882
862.97	12.500
863.26	-33.333
863.56	-40.000
863.85	-63.636
864.15	33.333
864.44	-133.333
864.74	14.286
865.03	-43.750
865.33	-20.000
865.62	0.000
865.92	36.364
866.21	56.522
866.51	28.571
866.80	-200.000
867.10	0.000
867.39	-25.000
867.69	700.000
867.98	100.000
868.27	41.176
868.57	-1700.000
868.86	-90.000
869.16	4.762
869.45	25.000
869.75	81.818
870.04	-42.857
870.33	25.000
870.63	-142.857
870.92	100.000
871.22	-100.000
871.51	-81.818
871.80	-333.333
872.10	-300.000
>>>>>End Processed Spectral Data<<<<<
