SpectraSuite Data File
++++++++++++++++++++++++++++++++++++
Date: Thu May 14 16:26:20 PDT 2015
User: schluterlab
Dark Spectrum Present: Yes
Reference Spectrum Present: Yes
Number of Sampled Component Spectra: 1
Spectrometers: USB2E3373
Integration Time (usec): 3000 (USB2E3373)
Spectra Averaged: 3 (USB2E3373)
Boxcar Smoothing: 0 (USB2E3373)
Correct for Electrical Dark: No (USB2E3373)
Strobe/Lamp Enabled: No (USB2E3373)
Correct for Detector Non-linearity: No (USB2E3373)
Correct for Stray Light: No (USB2E3373)
Number of Pixels in Processed Spectrum: 2048
>>>>>Begin Processed Spectral Data<<<<<
178.53	0.000
178.91	28.571
179.29	-1000.000
179.67	-400.000
180.04	64.286
180.42	-30.000
180.80	20.000
181.18	400.000
181.56	400.000
181.94	75.000
182.31	-100.000
182.69	133.333
183.07	-500.000
183.45	175.000
183.83	-16.667
184.20	-133.333
184.58	-200.000
184.96	-75.000
185.34	-55.556
185.72	60.000
186.09	244.444
186.47	400.000
186.85	100.000
187.23	-66.667
187.61	-1500.000
187.98	120.000
188.36	225.000
188.74	0.000
189.12	266.667
189.49	6.250
189.87	-12.500
190.25	11.111
190.63	60.000
191.00	22.222
191.38	0.000
191.76	-375.000
192.14	33.333
192.51	150.000
192.89	-66.667
193.27	0.000
193.65	71.429
194.02	-400.000
194.40	85.714
194.78	71.429
195.15	0.000
195.53	18.182
195.91	0.000
196.29	125.000
196.66	-38.462
197.04	-100.000
197.42	-100.000
197.79	-50.000
198.17	100.000
198.55	100.000
198.92	144.444
199.30	25.000
199.68	63.636
200.05	64.286
200.43	-600.000
200.81	157.143
201.18	0.000
201.56	188.889
201.94	0.000
202.31	366.667
202.69	-100.000
203.07	-300.000
203.44	33.333
203.82	-75.000
204.19	41.667
204.57	-116.667
204.95	-37.500
205.32	-200.000
205.70	-50.000
206.08	66.667
206.45	50.000
206.83	180.000
207.20	-166.667
207.58	-280.000
207.96	-100.000
208.33	183.333
208.71	50.000
209.08	216.667
209.46	0.000
209.84	150.000
210.21	-250.000
210.59	-0.000
210.96	200.000
211.34	50.000
211.71	-75.000
212.09	-300.000
212.46	0.000
212.84	200.000
213.22	-240.000
213.59	0.000
213.97	40.000
214.34	133.333
214.72	33.333
215.09	-100.000
215.47	0.000
215.84	71.429
216.22	350.000
216.59	20.000
216.97	-40.000
217.34	50.000
217.72	25.000
218.09	-175.000
218.47	-200.000
218.84	0.000
219.22	60.000
219.59	29.412
219.97	45.000
220.34	-100.000
220.72	-22.222
221.09	23.077
221.47	133.333
221.84	-50.000
222.22	14.286
222.59	0.000
222.97	12.500
223.34	-60.000
223.72	-600.000
224.09	25.000
224.46	-25.000
224.84	-40.000
225.21	-57.143
225.59	0.000
225.96	-325.000
226.34	19.231
226.71	166.667
227.08	-250.000
227.46	0.000
227.83	-100.000
228.21	36.842
228.58	87.500
228.95	650.000
229.33	50.000
229.70	-80.000
230.08	110.526
230.45	40.000
230.82	0.000
231.20	42.857
231.57	58.333
231.95	-72.727
232.32	36.364
232.69	-10.000
233.07	250.000
233.44	17.647
233.81	-10.000
234.19	33.333
234.56	-13.636
234.93	51.724
235.31	26.316
235.68	5.556
236.05	-40.000
236.43	61.538
236.80	24.000
237.17	37.037
237.55	6.061
237.92	0.000
238.29	16.129
238.67	6.818
239.04	25.000
239.41	-4.762
239.79	2.174
240.16	16.667
240.53	17.391
240.91	-13.725
241.28	4.918
241.65	23.881
242.02	21.622
242.40	7.692
242.77	2.667
243.14	-2.439
243.51	-6.579
243.89	8.974
244.26	13.861
244.63	16.667
245.00	11.215
245.38	14.035
245.75	0.000
246.12	15.873
246.49	13.178
246.87	16.429
247.24	19.205
247.61	16.447
247.98	17.450
248.36	16.049
248.73	11.656
249.10	12.568
249.47	20.896
249.84	15.183
250.22	8.808
250.59	12.222
250.96	12.727
251.33	14.286
251.70	14.103
252.08	15.000
252.45	15.984
252.82	7.025
253.19	12.109
253.56	18.251
253.94	11.154
254.31	14.773
254.68	13.986
255.05	14.332
255.42	11.565
255.79	14.887
256.16	11.258
256.54	11.589
256.91	14.754
257.28	12.131
257.65	8.917
258.02	10.029
258.39	13.105
258.76	19.878
259.14	14.080
259.51	12.392
259.88	14.164
260.25	13.333
260.62	13.151
260.99	15.847
261.36	15.550
261.73	12.732
262.10	12.637
262.47	13.673
262.85	16.919
263.22	13.766
263.59	11.842
263.96	14.066
264.33	13.299
264.70	12.840
265.07	14.320
265.44	16.327
265.81	10.417
266.18	14.966
266.55	12.723
266.92	10.706
267.29	12.035
267.66	12.860
268.03	11.135
268.40	13.779
268.77	11.162
269.14	10.132
269.51	13.816
269.88	12.910
270.25	15.694
270.62	14.557
270.99	14.545
271.36	14.257
271.73	14.342
272.10	14.830
272.47	13.427
272.84	13.855
273.21	13.427
273.58	13.710
273.95	12.500
274.32	13.118
274.69	10.638
275.06	12.637
275.43	9.242
275.80	13.051
276.17	12.037
276.54	14.739
276.91	11.807
277.28	14.105
277.65	12.208
278.02	11.765
278.39	12.138
278.76	11.424
279.13	12.234
279.50	12.543
279.87	11.807
280.23	11.620
280.60	13.559
280.97	14.638
281.34	12.394
281.71	14.721
282.08	13.123
282.45	12.930
282.82	13.501
283.19	11.793
283.56	12.295
283.92	13.664
284.29	14.692
284.66	13.957
285.03	9.135
285.40	12.674
285.77	12.384
286.14	11.603
286.51	11.872
286.87	11.532
287.24	13.404
287.61	11.809
287.98	11.329
288.35	13.018
288.72	12.722
289.08	13.177
289.45	11.538
289.82	13.102
290.19	12.500
290.56	11.690
290.93	13.124
291.29	12.810
291.66	11.433
292.03	9.227
292.40	14.014
292.77	11.456
293.13	11.502
293.50	11.958
293.87	11.275
294.24	11.467
294.60	13.021
294.97	10.470
295.34	11.652
295.71	11.349
296.08	10.207
296.44	11.520
296.81	11.449
297.18	12.702
297.55	11.203
297.91	11.507
298.28	10.782
298.65	11.415
299.02	11.688
299.38	11.098
299.75	12.033
300.12	11.111
300.48	11.636
300.85	12.148
301.22	11.298
301.59	11.416
301.95	11.299
302.32	11.667
302.69	11.501
303.05	12.078
303.42	11.419
303.79	10.938
304.15	11.777
304.52	12.156
304.89	12.880
305.25	12.422
305.62	12.017
305.99	11.443
306.35	11.492
306.72	12.823
307.09	11.574
307.45	12.319
307.82	12.614
308.19	13.219
308.55	13.500
308.92	12.171
309.29	13.985
309.65	12.963
310.02	13.465
310.38	11.811
310.75	13.301
311.12	14.286
311.48	12.512
311.85	14.055
312.22	12.998
312.58	13.709
312.95	13.480
313.31	15.086
313.68	15.201
314.05	16.531
314.41	16.120
314.78	14.623
315.14	16.969
315.51	16.620
315.87	17.642
316.24	16.621
316.61	17.940
316.97	15.475
317.34	16.402
317.70	18.253
318.07	17.196
318.43	18.367
318.80	20.234
319.16	19.914
319.53	18.595
319.89	19.982
320.26	20.374
320.62	19.149
320.99	22.345
321.35	22.181
321.72	23.535
322.08	22.543
322.45	23.126
322.81	23.285
323.18	23.628
323.54	25.690
323.91	25.178
324.27	25.645
324.64	26.532
325.00	26.700
325.37	27.682
325.73	29.669
326.10	30.333
326.46	30.782
326.83	31.946
327.19	31.969
327.56	33.043
327.92	31.865
328.29	32.984
328.65	33.752
329.01	34.264
329.38	35.720
329.74	35.788
330.11	37.072
330.47	36.394
330.84	36.434
331.20	38.750
331.56	37.695
331.93	36.904
332.29	38.559
332.66	38.787
333.02	36.935
333.38	38.003
333.75	37.795
334.11	38.949
334.48	39.686
334.84	40.442
335.20	39.715
335.57	40.894
335.93	39.587
336.29	38.852
336.66	39.950
337.02	40.217
337.38	41.241
337.75	40.331
338.11	41.127
338.47	40.612
338.84	41.032
339.20	39.933
339.56	40.692
339.93	40.805
340.29	40.902
340.65	40.065
341.02	40.383
341.38	42.037
341.74	39.952
342.11	40.306
342.47	40.508
342.83	41.948
343.20	41.128
343.56	41.299
343.92	41.073
344.28	40.391
344.65	41.240
345.01	40.094
345.37	41.291
345.73	40.452
346.10	40.640
346.46	41.218
346.82	41.273
347.19	41.788
347.55	41.730
347.91	39.896
348.27	41.958
348.63	41.280
349.00	41.163
349.36	41.264
349.72	40.699
350.08	41.010
350.45	41.141
350.81	41.554
351.17	41.805
351.53	42.532
351.89	41.762
352.26	42.164
352.62	42.463
352.98	42.366
353.34	40.851
353.70	42.989
354.07	42.027
354.43	41.534
354.79	40.763
355.15	41.943
355.51	42.763
355.87	40.763
356.24	42.814
356.60	41.242
356.96	42.921
357.32	40.297
357.68	42.240
358.04	42.889
358.40	42.164
358.77	42.836
359.13	43.205
359.49	42.825
359.85	42.204
360.21	42.396
360.57	42.570
360.93	42.666
361.29	42.807
361.66	42.867
362.02	43.772
362.38	43.148
362.74	42.737
363.10	43.122
363.46	43.767
363.82	44.247
364.18	44.124
364.54	43.845
364.90	44.281
365.26	44.207
365.62	43.800
365.98	43.363
366.35	42.148
366.71	42.653
367.07	43.775
367.43	43.270
367.79	45.255
368.15	44.749
368.51	44.587
368.87	44.873
369.23	44.000
369.59	45.902
369.95	44.625
370.31	44.362
370.67	43.535
371.03	44.668
371.39	44.728
371.75	45.805
372.11	45.190
372.47	45.498
372.83	44.372
373.19	45.163
373.55	43.564
373.91	43.354
374.27	45.343
374.63	45.873
374.99	45.424
375.35	45.974
375.71	44.839
376.07	44.868
376.42	45.466
376.78	46.364
377.14	46.101
377.50	47.312
377.86	45.259
378.22	45.749
378.58	46.136
378.94	46.185
379.30	46.280
379.66	46.443
380.02	47.144
380.38	47.408
380.74	48.113
381.09	45.703
381.45	47.443
381.81	47.482
382.17	47.862
382.53	46.550
382.89	46.275
383.25	47.362
383.61	46.238
383.97	46.938
384.32	48.026
384.68	46.810
385.04	48.583
385.40	48.026
385.76	47.773
386.12	47.935
386.48	48.294
386.83	48.629
387.19	47.161
387.55	46.831
387.91	47.489
388.27	47.979
388.62	47.938
388.98	46.870
389.34	48.969
389.70	48.518
390.06	47.839
390.42	47.470
390.77	48.766
391.13	48.533
391.49	47.645
391.85	47.939
392.20	47.687
392.56	48.258
392.92	48.691
393.28	48.811
393.64	47.598
393.99	48.576
394.35	48.540
394.71	49.521
395.07	47.545
395.42	48.258
395.78	49.299
396.14	48.188
396.50	48.872
396.85	47.645
397.21	48.225
397.57	47.998
397.92	49.485
398.28	48.561
398.64	49.256
399.00	46.859
399.35	47.382
399.71	48.152
400.07	49.130
400.42	49.010
400.78	49.363
401.14	49.289
401.49	49.062
401.85	49.128
402.21	49.537
402.57	49.413
402.92	49.941
403.28	47.775
403.63	49.761
403.99	48.575
404.35	47.584
404.70	47.762
405.06	46.793
405.42	48.009
405.77	49.182
406.13	48.406
406.49	48.761
406.84	48.255
407.20	49.637
407.55	48.758
407.91	48.523
408.27	48.057
408.62	49.215
408.98	48.636
409.34	49.267
409.69	49.135
410.05	49.297
410.40	49.130
410.76	48.065
411.11	48.743
411.47	48.526
411.83	49.500
412.18	48.735
412.54	47.244
412.89	48.021
413.25	48.758
413.60	49.569
413.96	48.077
414.31	47.365
414.67	48.301
415.03	47.446
415.38	48.676
415.74	46.854
416.09	49.414
416.45	48.090
416.80	47.368
417.16	49.234
417.51	47.634
417.87	48.559
418.22	47.545
418.58	48.203
418.93	48.137
419.29	49.815
419.64	48.679
420.00	48.249
420.35	48.063
420.71	47.731
421.06	48.016
421.42	48.567
421.77	47.873
422.12	48.362
422.48	49.104
422.83	48.576
423.19	48.541
423.54	49.115
423.90	48.261
424.25	50.027
424.61	48.565
424.96	48.874
425.31	48.779
425.67	49.222
426.02	50.304
426.38	49.770
426.73	48.717
427.09	49.366
427.44	48.553
427.79	48.756
428.15	48.573
428.50	49.157
428.85	48.393
429.21	49.255
429.56	49.161
429.92	48.698
430.27	49.205
430.62	48.412
430.98	49.975
431.33	47.996
431.68	48.228
432.04	49.365
432.39	48.956
432.74	49.772
433.10	49.432
433.45	48.662
433.80	49.517
434.16	48.657
434.51	49.589
434.86	51.140
435.22	49.841
435.57	50.708
435.92	50.918
436.28	50.000
436.63	50.464
436.98	49.114
437.34	50.789
437.69	50.248
438.04	49.127
438.39	50.086
438.75	49.087
439.10	51.110
439.45	50.084
439.81	49.887
440.16	49.920
440.51	50.223
440.86	49.750
441.22	50.375
441.57	50.891
441.92	50.388
442.27	49.798
442.63	51.068
442.98	51.601
443.33	50.342
443.68	50.496
444.03	50.941
444.39	50.902
444.74	50.944
445.09	50.279
445.44	49.684
445.79	51.580
446.15	50.719
446.50	50.336
446.85	50.973
447.20	50.774
447.55	51.674
447.91	51.571
448.26	50.106
448.61	51.010
448.96	52.039
449.31	49.576
449.66	51.089
450.02	51.002
450.37	51.199
450.72	51.453
451.07	51.481
451.42	50.664
451.77	51.084
452.12	52.370
452.47	50.089
452.83	53.041
453.18	51.430
453.53	51.982
453.88	50.801
454.23	51.356
454.58	52.351
454.93	51.760
455.28	52.438
455.63	51.052
455.98	51.173
456.34	51.178
456.69	52.028
457.04	52.364
457.39	51.885
457.74	52.964
458.09	51.840
458.44	51.347
458.79	50.954
459.14	51.075
459.49	52.235
459.84	52.991
460.19	51.138
460.54	51.902
460.89	51.773
461.24	51.724
461.59	52.629
461.94	51.284
462.29	51.792
462.64	51.720
462.99	50.785
463.34	52.044
463.69	51.407
464.04	51.862
464.39	51.513
464.74	50.741
465.09	51.384
465.44	51.824
465.79	52.036
466.14	50.860
466.49	51.632
466.84	51.956
467.19	51.965
467.54	50.999
467.89	50.575
468.24	51.856
468.59	51.129
468.94	50.408
469.29	51.650
469.64	51.113
469.99	52.199
470.34	51.795
470.68	52.085
471.03	52.652
471.38	52.910
471.73	52.341
472.08	54.061
472.43	52.559
472.78	52.456
473.13	54.298
473.48	52.447
473.83	53.105
474.17	51.993
474.52	53.337
474.87	52.215
475.22	53.183
475.57	50.675
475.92	52.464
476.27	51.917
476.61	51.973
476.96	51.356
477.31	51.139
477.66	52.571
478.01	52.262
478.36	51.496
478.70	51.921
479.05	51.840
479.40	52.073
479.75	52.546
480.10	51.540
480.45	52.963
480.79	51.610
481.14	52.068
481.49	52.022
481.84	52.611
482.19	51.398
482.53	52.077
482.88	51.750
483.23	51.712
483.58	51.616
483.92	52.172
484.27	52.202
484.62	51.856
484.97	51.711
485.31	51.214
485.66	48.582
486.01	46.870
486.36	47.926
486.70	49.422
487.05	50.000
487.40	49.687
487.75	50.356
488.09	50.831
488.44	49.784
488.79	51.062
489.13	51.159
489.48	50.175
489.83	51.187
490.17	50.668
490.52	50.123
490.87	51.904
491.22	52.773
491.56	50.939
491.91	51.984
492.26	51.709
492.60	51.990
492.95	51.689
493.30	52.667
493.64	51.993
493.99	51.930
494.34	51.873
494.68	51.949
495.03	52.026
495.37	52.241
495.72	52.063
496.07	51.840
496.41	51.480
496.76	51.293
497.11	51.677
497.45	51.877
497.80	51.444
498.14	51.519
498.49	52.895
498.84	52.102
499.18	51.867
499.53	52.735
499.87	52.571
500.22	52.137
500.56	52.092
500.91	53.043
501.26	52.273
501.60	51.569
501.95	51.715
502.29	52.304
502.64	52.077
502.98	50.820
503.33	50.886
503.67	51.287
504.02	50.613
504.36	51.385
504.71	52.274
505.06	51.933
505.40	50.548
505.75	52.231
506.09	51.842
506.44	52.182
506.78	52.752
507.13	52.052
507.47	52.724
507.82	52.320
508.16	51.769
508.51	51.664
508.85	52.291
509.19	53.198
509.54	52.738
509.88	52.161
510.23	52.647
510.57	52.827
510.92	52.637
511.26	51.804
511.61	51.714
511.95	50.756
512.30	51.256
512.64	51.224
512.98	52.376
513.33	51.915
513.67	52.626
514.02	53.398
514.36	52.992
514.70	52.500
515.05	52.868
515.39	52.703
515.74	53.712
516.08	52.351
516.42	53.166
516.77	53.049
517.11	52.089
517.46	52.545
517.80	53.447
518.14	53.863
518.49	53.362
518.83	51.676
519.17	52.127
519.52	52.621
519.86	53.062
520.20	52.822
520.55	51.972
520.89	52.309
521.23	54.160
521.58	54.407
521.92	52.805
522.26	52.749
522.61	53.762
522.95	52.826
523.29	54.023
523.64	53.027
523.98	53.851
524.32	54.900
524.66	53.557
525.01	51.755
525.35	52.039
525.69	52.958
526.04	52.296
526.38	52.931
526.72	51.211
527.06	54.135
527.41	51.603
527.75	53.504
528.09	52.125
528.43	53.404
528.78	52.948
529.12	52.351
529.46	51.827
529.80	52.346
530.15	52.232
530.49	52.847
530.83	52.243
531.17	52.449
531.51	52.347
531.86	53.125
532.20	53.659
532.54	51.706
532.88	51.879
533.22	51.915
533.57	52.106
533.91	50.673
534.25	50.876
534.59	51.954
534.93	50.311
535.27	49.634
535.62	50.995
535.96	51.714
536.30	51.116
536.64	50.811
536.98	51.415
537.32	51.605
537.66	51.528
538.01	50.816
538.35	50.731
538.69	50.300
539.03	51.196
539.37	50.177
539.71	50.991
540.05	51.259
540.39	50.733
540.73	49.605
541.07	50.644
541.42	50.325
541.76	49.822
542.10	50.302
542.44	49.756
542.78	50.852
543.12	50.238
543.46	50.122
543.80	48.921
544.14	49.910
544.48	49.350
544.82	49.611
545.16	49.553
545.50	49.970
545.84	49.969
546.18	50.370
546.52	50.064
546.86	49.686
547.20	49.873
547.54	48.689
547.88	48.704
548.22	49.766
548.56	48.625
548.90	48.537
549.24	49.058
549.58	49.338
549.92	48.278
550.26	49.579
550.60	49.521
550.94	48.965
551.28	48.251
551.62	50.067
551.96	47.832
552.30	49.713
552.64	49.222
552.98	49.782
553.32	48.746
553.66	49.325
554.00	48.865
554.34	48.970
554.68	48.806
555.02	49.671
555.36	48.521
555.69	48.623
556.03	48.739
556.37	48.623
556.71	49.144
557.05	48.946
557.39	48.109
557.73	48.018
558.07	48.344
558.41	48.837
558.75	48.073
559.08	50.104
559.42	48.148
559.76	48.643
560.10	47.220
560.44	47.823
560.78	49.188
561.12	47.722
561.45	47.749
561.79	47.924
562.13	47.505
562.47	46.671
562.81	46.456
563.15	47.538
563.48	47.856
563.82	46.735
564.16	46.214
564.50	46.484
564.84	45.015
565.17	46.294
565.51	45.109
565.85	46.615
566.19	46.371
566.52	45.875
566.86	46.350
567.20	44.318
567.54	45.672
567.88	45.413
568.21	44.516
568.55	44.700
568.89	43.985
569.23	43.050
569.56	42.321
569.90	42.908
570.24	42.293
570.57	40.988
570.91	41.182
571.25	40.093
571.59	40.440
571.92	40.059
572.26	39.756
572.60	39.995
572.93	40.189
573.27	39.365
573.61	39.571
573.95	39.718
574.28	39.126
574.62	39.018
574.96	38.487
575.29	38.489
575.63	38.138
575.97	39.257
576.30	38.613
576.64	38.416
576.98	38.497
577.31	38.677
577.65	38.196
577.98	37.971
578.32	37.231
578.66	37.297
578.99	37.436
579.33	37.884
579.67	37.829
580.00	38.188
580.34	37.282
580.67	38.041
581.01	37.257
581.35	37.230
581.68	37.019
582.02	36.515
582.35	37.142
582.69	37.308
583.02	37.040
583.36	37.194
583.70	38.128
584.03	37.485
584.37	37.373
584.70	37.262
585.04	36.782
585.37	37.561
585.71	36.419
586.04	36.173
586.38	37.140
586.72	37.503
587.05	37.043
587.39	36.923
587.72	37.273
588.06	37.742
588.39	37.466
588.73	37.037
589.06	37.472
589.40	38.261
589.73	38.496
590.07	38.627
590.40	37.965
590.73	38.211
591.07	39.092
591.40	38.453
591.74	39.070
592.07	38.611
592.41	38.525
592.74	37.700
593.08	37.357
593.41	37.300
593.75	37.069
594.08	37.655
594.41	36.603
594.75	37.230
595.08	37.584
595.42	37.370
595.75	36.616
596.09	37.852
596.42	37.979
596.75	37.785
597.09	38.061
597.42	38.935
597.75	37.828
598.09	37.698
598.42	37.877
598.76	36.721
599.09	36.419
599.42	35.401
599.76	36.349
600.09	36.203
600.42	36.103
600.76	36.295
601.09	36.210
601.42	36.595
601.76	36.655
602.09	36.383
602.42	36.459
602.76	36.347
603.09	36.601
603.42	36.127
603.76	35.835
604.09	37.083
604.42	36.771
604.76	36.492
605.09	36.338
605.42	37.041
605.75	35.808
606.09	36.357
606.42	35.571
606.75	35.082
607.09	35.253
607.42	36.031
607.75	36.147
608.08	35.991
608.42	36.356
608.75	36.733
609.08	36.163
609.41	37.009
609.75	37.054
610.08	36.500
610.41	36.236
610.74	36.008
611.07	36.501
611.41	36.726
611.74	36.305
612.07	36.185
612.40	36.264
612.73	37.555
613.07	36.137
613.40	37.729
613.73	37.025
614.06	36.212
614.39	36.395
614.72	35.953
615.06	35.322
615.39	36.008
615.72	36.209
616.05	36.280
616.38	37.033
616.71	36.468
617.05	36.049
617.38	36.383
617.71	35.853
618.04	36.859
618.37	37.705
618.70	37.557
619.03	37.754
619.36	37.855
619.69	37.604
620.03	38.167
620.36	35.767
620.69	37.076
621.02	38.058
621.35	39.115
621.68	39.841
622.01	37.438
622.34	37.936
622.67	38.419
623.00	36.167
623.33	37.823
623.66	37.938
623.99	37.130
624.32	38.142
624.65	36.293
624.99	38.036
625.32	37.753
625.65	37.222
625.98	36.339
626.31	38.129
626.64	37.875
626.97	37.734
627.30	38.421
627.63	38.635
627.96	40.616
628.29	38.288
628.62	38.623
628.95	40.666
629.28	39.507
629.61	40.152
629.94	37.824
630.26	37.797
630.59	38.860
630.92	39.048
631.25	40.519
631.58	40.490
631.91	40.019
632.24	39.673
632.57	40.038
632.90	39.920
633.23	38.980
633.56	39.898
633.89	39.050
634.22	41.476
634.55	39.979
634.88	40.476
635.20	42.734
635.53	42.147
635.86	42.037
636.19	41.357
636.52	39.030
636.85	40.041
637.18	41.060
637.51	39.677
637.83	40.310
638.16	40.783
638.49	39.671
638.82	39.121
639.15	40.092
639.48	42.725
639.81	39.261
640.13	42.756
640.46	41.818
640.79	41.544
641.12	41.491
641.45	42.284
641.77	42.619
642.10	41.207
642.43	41.223
642.76	42.005
643.09	40.685
643.41	39.076
643.74	39.724
644.07	44.690
644.40	41.726
644.73	41.219
645.05	42.291
645.38	43.885
645.71	41.349
646.04	41.894
646.36	41.752
646.69	42.025
647.02	44.037
647.35	41.069
647.67	42.351
648.00	43.471
648.33	42.042
648.66	42.225
648.98	41.224
649.31	40.460
649.64	40.903
649.96	40.451
650.29	38.665
650.62	39.887
650.94	40.991
651.27	40.120
651.60	41.374
651.92	39.514
652.25	39.508
652.58	37.964
652.90	40.262
653.23	41.972
653.56	39.943
653.88	39.747
654.21	41.268
654.54	40.173
654.86	38.669
655.19	35.508
655.52	33.759
655.84	27.571
656.17	32.123
656.49	44.801
656.82	48.935
657.15	37.769
657.47	28.632
657.80	21.357
658.13	16.903
658.45	22.246
658.78	27.095
659.10	26.651
659.43	27.469
659.75	28.293
660.08	28.627
660.41	32.010
660.73	33.295
661.06	36.858
661.38	37.799
661.71	41.207
662.03	40.741
662.36	38.998
662.68	40.901
663.01	42.655
663.33	40.265
663.66	43.590
663.98	42.500
664.31	43.527
664.63	40.462
664.96	42.287
665.28	39.020
665.61	41.259
665.93	38.929
666.26	39.785
666.58	38.930
666.91	39.252
667.23	40.000
667.56	42.012
667.88	42.200
668.21	41.211
668.53	36.680
668.86	40.864
669.18	43.381
669.50	39.960
669.83	39.400
670.15	41.535
670.48	41.865
670.80	41.109
671.13	39.698
671.45	38.780
671.77	43.126
672.10	36.333
672.42	37.702
672.75	35.484
673.07	34.627
673.39	37.750
673.72	38.255
674.04	37.931
674.37	39.893
674.69	39.859
675.01	37.524
675.34	39.313
675.66	37.640
675.98	39.739
676.31	38.086
676.63	40.114
676.95	41.188
677.28	40.524
677.60	37.598
677.92	38.388
678.25	39.488
678.57	39.146
678.89	38.396
679.22	39.373
679.54	36.581
679.86	35.254
680.18	35.323
680.51	36.164
680.83	36.334
681.15	37.414
681.48	36.615
681.80	34.888
682.12	34.965
682.44	35.392
682.77	35.106
683.09	38.636
683.41	37.984
683.73	37.192
684.06	35.793
684.38	33.631
684.70	37.522
685.02	35.112
685.34	32.779
685.67	32.334
685.99	33.436
686.31	31.831
686.63	34.755
686.96	32.965
687.28	34.853
687.60	34.848
687.92	31.833
688.24	32.888
688.56	35.000
688.89	36.116
689.21	36.008
689.53	37.255
689.85	37.278
690.17	35.370
690.49	38.845
690.82	34.851
691.14	34.211
691.46	36.711
691.78	37.201
692.10	37.248
692.42	31.786
692.74	32.486
693.06	32.222
693.39	36.243
693.71	34.962
694.03	34.572
694.35	34.095
694.67	34.908
694.99	34.255
695.31	35.320
695.63	37.229
695.95	34.783
696.27	36.484
696.59	38.717
696.91	37.613
697.23	34.066
697.56	33.605
697.88	34.659
698.20	32.957
698.52	35.417
698.84	37.838
699.16	35.918
699.48	33.054
699.80	35.319
700.12	32.533
700.44	37.327
700.76	34.679
701.08	38.015
701.40	36.528
701.72	37.313
702.04	38.503
702.36	33.508
702.68	34.230
703.00	33.252
703.32	35.714
703.64	35.208
703.96	36.516
704.28	32.678
704.60	36.203
704.91	35.714
705.23	34.521
705.55	35.376
705.87	35.152
706.19	40.798
706.51	36.747
706.83	36.599
707.15	29.101
707.47	31.776
707.79	32.969
708.11	31.144
708.43	32.473
708.74	31.473
709.06	32.715
709.38	35.211
709.70	32.506
710.02	34.109
710.34	33.777
710.66	33.520
710.98	33.060
711.29	32.967
711.61	39.266
711.93	34.758
712.25	34.054
712.57	36.578
712.89	38.235
713.20	36.982
713.52	35.838
713.84	29.526
714.16	32.368
714.48	31.186
714.80	31.429
715.11	34.646
715.43	33.422
715.75	33.684
716.07	35.083
716.39	36.885
716.70	34.940
717.02	33.770
717.34	32.753
717.66	34.899
717.97	35.616
718.29	34.708
718.61	31.908
718.93	35.599
719.24	36.025
719.56	31.288
719.88	33.333
720.20	34.194
720.51	31.988
720.83	35.000
721.15	33.224
721.46	31.507
721.78	36.333
722.10	32.686
722.42	32.550
722.73	30.645
723.05	34.386
723.37	33.681
723.68	33.692
724.00	38.989
724.32	31.338
724.63	33.217
724.95	36.879
725.27	30.662
725.58	33.216
725.90	38.966
726.22	29.781
726.53	31.494
726.85	32.390
727.16	27.795
727.48	36.086
727.80	33.444
728.11	32.862
728.43	31.987
728.74	31.773
729.06	31.126
729.38	31.818
729.69	29.530
730.01	25.893
730.32	28.182
730.64	32.390
730.96	27.950
731.27	34.916
731.59	30.220
731.90	27.792
732.22	23.698
732.53	29.558
732.85	32.000
733.16	30.205
733.48	29.573
733.80	28.134
734.11	27.350
734.43	31.892
734.74	31.646
735.06	28.141
735.37	30.541
735.69	30.000
736.00	29.944
736.32	29.111
736.63	27.500
736.95	28.161
737.26	30.000
737.58	26.970
737.89	29.118
738.21	27.217
738.52	31.475
738.83	32.423
739.15	28.723
739.46	32.993
739.78	28.834
740.09	28.940
740.41	29.738
740.72	26.667
741.04	32.362
741.35	36.842
741.66	36.863
741.98	34.016
742.29	30.544
742.61	39.474
742.92	28.462
743.23	29.603
743.55	29.845
743.86	32.800
744.18	28.099
744.49	30.802
744.80	34.568
745.12	30.802
745.43	30.081
745.74	28.448
746.06	34.746
746.37	28.692
746.68	35.772
747.00	33.333
747.31	33.906
747.62	33.077
747.94	33.198
748.25	28.112
748.56	29.796
748.88	31.624
749.19	31.466
749.50	32.035
749.82	36.145
750.13	34.164
750.44	30.000
750.75	30.154
751.07	30.769
751.38	30.599
751.69	25.879
752.01	26.537
752.32	26.471
752.63	31.633
752.94	27.336
753.26	27.881
753.57	26.667
753.88	30.712
754.19	32.476
754.51	27.974
754.82	31.833
755.13	29.836
755.44	31.058
755.75	31.250
756.07	29.552
756.38	28.302
756.69	30.723
757.00	25.485
757.31	22.404
757.63	24.808
757.94	23.239
758.25	27.765
758.56	24.183
758.87	27.273
759.18	26.133
759.50	26.912
759.81	28.291
760.12	25.876
760.43	28.646
760.74	26.108
761.05	26.500
761.36	22.651
761.67	25.381
761.99	25.405
762.30	26.524
762.61	29.043
762.92	26.119
763.23	29.213
763.54	32.734
763.85	29.897
764.16	26.599
764.47	28.169
764.78	25.240
765.10	25.806
765.41	26.410
765.72	25.661
766.03	24.576
766.34	26.332
766.65	28.223
766.96	28.685
767.27	29.954
767.58	30.846
767.89	31.731
768.20	30.516
768.51	28.241
768.82	27.309
769.13	31.439
769.44	21.154
769.75	31.408
770.06	27.308
770.37	30.709
770.68	27.234
770.99	27.126
771.30	32.593
771.61	31.179
771.92	27.778
772.23	34.818
772.54	23.148
772.85	32.258
773.16	29.524
773.47	23.810
773.78	28.108
774.09	28.977
774.39	34.500
774.70	33.333
775.01	29.268
775.32	25.882
775.63	30.061
775.94	21.019
776.25	40.000
776.56	35.256
776.87	34.014
777.18	30.345
777.48	31.469
777.79	31.081
778.10	30.882
778.41	31.944
778.72	36.552
779.03	25.926
779.34	32.121
779.65	25.389
779.95	26.111
780.26	30.114
780.57	29.032
780.88	34.058
781.19	28.387
781.50	37.059
781.80	29.570
782.11	30.159
782.42	18.687
782.73	22.156
783.04	26.257
783.34	20.000
783.65	28.105
783.96	22.360
784.27	26.786
784.57	27.815
784.88	28.571
785.19	28.346
785.50	32.283
785.81	28.571
786.11	33.077
786.42	22.302
786.73	25.180
787.04	27.068
787.34	26.230
787.65	27.200
787.96	29.104
788.26	31.469
788.57	26.573
788.88	22.368
789.19	36.601
789.49	27.397
789.80	24.823
790.11	32.283
790.41	28.125
790.72	27.119
791.03	30.097
791.33	21.739
791.64	34.211
791.95	21.429
792.25	19.048
792.56	27.679
792.87	22.917
793.17	30.357
793.48	28.125
793.79	18.072
794.09	29.358
794.40	25.688
794.70	30.612
795.01	20.779
795.32	18.493
795.62	30.986
795.93	20.455
796.23	22.951
796.54	28.571
796.85	23.404
797.15	23.913
797.46	27.397
797.76	23.750
798.07	26.087
798.37	22.680
798.68	31.169
798.99	28.736
799.29	22.472
799.60	29.787
799.90	21.687
800.21	29.231
800.51	28.358
800.82	19.118
801.12	15.068
801.43	11.765
801.73	16.949
802.04	30.303
802.34	28.333
802.65	35.593
802.95	23.881
803.26	35.593
803.56	32.877
803.87	25.714
804.17	46.575
804.48	15.789
804.78	33.333
805.09	32.759
805.39	27.027
805.70	12.676
806.00	36.585
806.30	25.301
806.61	24.658
806.91	30.769
807.22	31.111
807.52	2.299
807.83	33.333
808.13	19.277
808.43	23.596
808.74	17.500
809.04	23.529
809.35	29.333
809.65	22.857
809.95	31.507
810.26	24.561
810.56	18.966
810.86	36.765
811.17	29.825
811.47	22.951
811.77	-6.667
812.08	16.949
812.38	35.000
812.69	25.862
812.99	28.302
813.29	23.077
813.59	36.000
813.90	28.070
814.20	20.000
814.50	32.394
814.81	34.615
815.11	31.148
815.41	19.403
815.72	12.069
816.02	32.143
816.32	40.000
816.62	43.182
816.93	20.000
817.23	46.296
817.53	12.766
817.84	47.619
818.14	32.353
818.44	24.490
818.74	40.000
819.04	12.821
819.35	14.286
819.65	0.000
819.95	18.868
820.25	37.778
820.56	14.286
820.86	31.250
821.16	12.821
821.46	16.279
821.76	16.000
822.07	26.786
822.37	23.913
822.67	31.915
822.97	5.405
823.27	17.500
823.57	20.408
823.88	44.444
824.18	30.000
824.48	3.333
824.78	64.000
825.08	21.212
825.38	48.889
825.69	14.894
825.99	44.444
826.29	-8.571
826.59	35.897
826.89	18.605
827.19	40.000
827.49	5.882
827.79	27.083
828.09	13.514
828.39	6.667
828.70	4.878
829.00	16.279
829.30	-17.857
829.60	11.765
829.90	23.913
830.20	28.571
830.50	-20.690
830.80	22.222
831.10	23.077
831.40	44.118
831.70	47.619
832.00	58.065
832.30	-64.706
832.60	33.333
832.90	7.692
833.20	15.789
833.50	-5.000
833.80	42.105
834.10	-47.619
834.40	27.778
834.70	71.875
835.00	2.857
835.30	23.529
835.60	-3.333
835.90	32.000
836.20	-50.000
836.50	24.000
836.80	0.000
837.10	-7.407
837.40	40.741
837.70	-18.750
838.00	25.000
838.30	-17.391
838.60	20.690
838.90	78.571
839.19	-34.783
839.49	-25.000
839.79	52.174
840.09	6.250
840.39	35.000
840.69	41.935
840.99	10.714
841.29	26.667
841.59	-5.263
841.88	35.897
842.18	-11.538
842.48	-40.000
842.78	5.000
843.08	30.000
843.38	67.742
843.68	0.000
843.97	26.471
844.27	-37.500
844.57	47.368
844.87	-60.000
845.17	-6.667
845.47	71.429
845.76	-4.762
846.06	-33.333
846.36	-17.647
846.66	38.462
846.96	-20.000
847.25	41.176
847.55	52.174
847.85	0.000
848.15	52.941
848.44	36.364
848.74	47.619
849.04	-12.500
849.34	31.250
849.63	0.000
849.93	250.000
850.23	13.333
850.53	30.769
850.82	-63.636
851.12	22.727
851.42	-9.091
851.71	130.769
852.01	15.000
852.31	23.077
852.61	0.000
852.90	8.333
853.20	50.000
853.50	-55.556
853.79	-9.524
854.09	36.364
854.39	-75.000
854.68	35.484
854.98	-42.308
855.28	-16.667
855.57	-7.143
855.87	24.000
856.17	13.636
856.46	14.815
856.76	0.000
857.05	-8.696
857.35	-4.167
857.65	-100.000
857.94	23.810
858.24	37.037
858.53	-13.043
858.83	17.647
859.13	5.882
859.42	11.765
859.72	57.143
860.01	30.000
860.31	44.444
860.60	-50.000
860.90	-6.667
861.20	66.667
861.49	23.077
861.79	30.000
862.08	-23.077
862.38	62.500
862.67	0.000
862.97	6.250
863.26	33.333
863.56	20.000
863.85	27.273
864.15	77.778
864.44	200.000
864.74	-42.857
865.03	-25.000
865.33	10.000
865.62	-9.677
865.92	72.727
866.21	39.130
866.51	0.000
866.80	-60.000
867.10	0.000
867.39	-25.000
867.69	600.000
867.98	157.143
868.27	76.471
868.57	-1100.000
868.86	-110.000
869.16	9.524
869.45	16.667
869.75	63.636
870.04	57.143
870.33	41.667
870.63	-157.143
870.92	75.000
871.22	-162.500
871.51	0.000
871.80	-333.333
872.10	-200.000
>>>>>End Processed Spectral Data<<<<<
